2039
2039
2039
2039
2039
2039
2039
2039
2040
2041
2042
2043
2044
2046
2046
2047
2048
2047
2047
2046
2046
2046
2046
2047
2048
2048
2047
2047
2047
2046
2047
2046
2046
2047
2047
2047
2047
2047
2046
2046
2045
2046
2046
2047
2047
2048
2048
2048
2047
2047
2047
2048
2048
2048
2048
2048
2048
2047
2048
2048
2048
2048
2048
2048
2048
2048
2047
2047
2046
2046
2045
2045
2045
2046
2046
2046
2046
2045
2045
2044
2044
2044
2045
2045
2045
2046
2046
2045
2044
2042
2041
2044
2050
2060
2070
2076
2076
2069
2054
2037
2017
2001
1991
1991
1999
2013
2028
2039
2045
2046
2046
2046
2045
2046
2048
2048
2048
2048
2048
2048
2047
2047
2048
2048
2048
2049
2048
2048
2048
2048
2049
2049
2049
2049
2049
2048
2048
2048
2048
2048
2048
2048
2048
2049
2049
2049
2048
2048
2047
2046
2046
2045
2045
2045
2045
2045
2044
2043
2043
2043
2044
2045
2046
2047
2048
2048
2049
2049
2049
2050
2050
2051
2051
2051
2051
2050
2050
2051
2051
2051
2050
2050
2050
2050
2051
2051
2051
2051
2051
2051
2051
2051
2051
2051
2051
2051
2051
2051
2051
2051
2051
2051
2051
2051
2051
2051
2052
2052
2052
2051
2051
2050
2050
2050
2050
2051
2051
2051
2050
2049
2049
2048
2048
2049
2050
2050
2050
2049
2048
2048
2047
2047
2047
2048
2048
2049
2049
2048
2048
2047
2047
2047
2047
2047
2048
2048
2048
2048
2048
2048
2048
2048
2048
2047
2047
2047
2047
2048
2048
2048
2048
2047
2047
2047
2047
2047
2046
2046
2046
2046
2045
2045
2044
2044
2046
2050
2059
2068
2074
2074
2066
2051
2031
2010
1991
1980
1980
1990
2007
2024
2037
2045
2048
2048
2048
2048
2048
2048
2048
2047
2048
2048
2048
2049
2049
2049
2048
2048
2048
2048
2048
2048
2049
2049
2049
2049
2049
2049
2049
2048
2048
2048
2049
2049
2050
2050
2050
2050
2049
2049
2048
2048
2048
2048
2048
2048
2048
2048
2047
2046
2046
2046
2046
2046
2046
2047
2047
2048
2048
2048
2048
2048
2049
2050
2051
2052
2052
2051
2050
2050
2049
2049
2050
2050
2050
2050
2050
2049
2048
2048
2048
2049
2050
2050
2050
2050
2050
2050
2050
2050
2050
2050
2050
2050
2050
2051
2051
2051
2050
2050
2050
2050
2050
2051
2051
2051
2051
2050
2049
2048
2048
2048
2049
2050
2050
2050
2050
2049
2048
2048
2048
2048
2048
2049
2049
2049
2049
2049
2048
2048
2048
2049
2049
2049
2049
2049
2049
2049
2049
2049
2048
2048
2048
2049
2050
2050
2050
2049
2049
2049
2049
2050
2050
2051
2051
2051
2051
2051
2050
2050
2050
2049
2049
2049
2049
2050
2050
2050
2050
2050
2049
2049
2049
2049
2049
2049
2049
2049
2049
2049
2049
2048
2048
2052
2060
2069
2077
2080
2075
2062
2045
2024
2004
1991
1987
1993
2007
2024
2039
2048
2051
2052
2052
2052
2052
2053
2053
2053
2053
2053
2053
2053
2053
2054
2054
2054
2054
2054
2054
2053
2053
2054
2054
2054
2054
2054
2054
2054
2054
2054
2054
2054
2055
2055
2055
2054
2054
2054
2053
2053
2053
2052
2051
2051
2051
2051
2050
2050
2049
2048
2048
2048
2048
2049
2050
2051
2051
2051
2051
2051
2052
2053
2053
2054
2054
2054
2054
2054
2053
2052
2052
2052
2052
2052
2052
2052
2052
2052
2052
2051
2051
2051
2052
2052
2052
2052
2052
2051
2051
2051
2052
2052
2053
2053
2053
2052
2052
2052
2052
2051
2051
2050
2050
2050
2051
2052
2052
2052
2051
2051
2050
2049
2050
2050
2051
2051
2051
2050
2050
2049
2049
2049
2049
2050
2050
2050
2051
2051
2050
2049
2049
2048
2049
2050
2051
2051
2051
2050
2049
2049
2049
2050
2050
2050
2050
2050
2051
2051
2051
2051
2050
2050
2050
2051
2051
2051
2051
2051
2050
2050
2050
2050
2050
2050
2051
2051
2052
2052
2052
2052
2051
2051
2050
2050
2051
2051
2051
2050
2050
2050
2050
2050
2051
2050
2050
2049
2048
2048
2048
2049
2049
2049
2048
2048
2049
2055
2064
2073
2079
2078
2070
2054
2035
2015
1998
1989
1990
2000
2016
2033
2046
2051
2054
2053
2052
2052
2052
2053
2054
2054
2054
2054
2053
2054
2054
2055
2055
2055
2055
2054
2054
2054
2054
2055
2055
2056
2056
2056
2055
2055
2055
2055
2055
2056
2056
2056
2056
2056
2055
2055
2055
2054
2054
2054
2054
2054
2054
2054
2053
2052
2051
2051
2050
2050
2051
2052
2052
2053
2053
2053
2053
2054
2055
2055
2056
2056
2056
2055
2055
2055
2055
2055
2054
2054
2054
2054
2055
2055
2054
2053
2053
2053
2053
2054
2055
2055
2055
2055
2054
2054
2054
2054
2055
2055
2055
2055
2055
2055
2055
2055
2054
2054
2054
2054
2054
2055
2054
2054
2054
2053
2053
2053
2054
2054
2054
2055
2054
2054
2053
2053
2052
2052
2052
2052
2053
2053
2053
2053
2053
2053
2053
2053
2053
2052
2052
2053
2053
2053
2053
2052
2052
2052
2052
2053
2053
2053
2053
2052
2052
2052
2052
2053
2052
2053
2053
2053
2053
2053
2053
2052
2052
2051
2052
2053
2053
2053
2053
2053
2052
2051
2051
2051
2052
2052
2053
2054
2054
2054
2054
2054
2053
2053
2052
2052
2052
2052
2052
2052
2052
2052
2052
2053
2053
2053
2054
2053
2051
2049
2048
2048
2048
2049
2050
2051
2056
2063
2072
2080
2084
2081
2070
2054
2036
2016
2001
1994
1996
2006
2021
2036
2046
2051
2053
2054
2054
2054
2055
2055
2055
2055
2055
2055
2056
2056
2057
2056
2056
2056
2055
2055
2056
2056
2056
2056
2056
2055
2055
2054
2053
2052
2052
2052
2053
2054
2055
2057
2058
2058
2057
2056
2055
2054
2054
2054
2054
2053
2052
2051
2050
2049
2048
2048
2048
2048
2048
2049
2049
2048
2049
2049
2050
2052
2052
2053
2053
2053
2053
2054
2054
2054
2055
2055
2055
2055
2054
2053
2053
2053
2053
2053
2054
2054
2054
2053
2052
2052
2053
2053
2053
2053
2053
2053
2054
2054
2054
2054
2054
2054
2054
2054
2055
2055
2054
2054
2054
2053
2053
2053
2053
2052
2052
2051
2051
2051
2051
2051
2050
2050
2050
2050
2050
2050
2051
2051
2052
2052
2052
2051
2050
2049
2049
2049
2050
2050
2051
2051
2050
2050
2050
2049
2049
2050
2050
2050
2050
2050
2050
2050
2050
2050
2050
2049
2049
2049
2049
2050
2051
2051
2050
2050
2049
2049
2050
2051
2052
2052
2051
2049
2048
2048
2048
2049
2051
2052
2053
2053
2054
2054
2054
2054
2053
2053
2052
2052
2052
2052
2051
2051
2051
2051
2051
2052
2052
2052
2052
2051
2051
2051
2050
2049
2048
2048
2048
2052
2060
2070
2078
2081
2075
2061
2041
2018
1997
1984
1983
1992
2009
2028
2044
2051
2054
2054
2054
2053
2054
2054
2055
2055
2055
2055
2055
2056
2056
2056
2056
2056
2056
2055
2055
2055
2055
2055
2055
2055
2055
2056
2056
2056
2055
2055
2055
2055
2055
2056
2057
2057
2057
2057
2056
2055
2055
2054
2054
2054
2054
2054
2054
2053
2052
2052
2052
2052
2052
2052
2052
2052
2052
2053
2053
2054
2054
2054
2054
2054
2054
2054
2053
2053
2053
2052
2052
2053
2053
2053
2053
2053
2052
2051
2051
2051
2051
2052
2052
2052
2051
2051
2051
2052
2052
2052
2052
2052
2052
2053
2053
2053
2052
2052
2051
2051
2050
2050
2050
2051
2051
2051
2051
2051
2051
2050
2050
2050
2050
2050
2050
2051
2050
2050
2049
2048
2048
2048
2048
2050
2051
2052
2051
2051
2050
2049
2049
2049
2049
2049
2049
2049
2049
2049
2048
2048
2049
2049
2049
2049
2050
2050
2050
2050
2050
2049
2049
2049
2049
2050
2051
2051
2051
2050
2049
2048
2048
2049
2050
2051
2051
2051
2051
2051
2051
2051
2051
2051
2050
2050
2051
2051
2051
2051
2050
2050
2050
2051
2052
2052
2051
2051
2049
2049
2048
2049
2049
2049
2049
2049
2051
2057
2065
2073
2078
2077
2067
2052
2033
2014
1998
1991
1993
2004
2020
2035
2046
2051
2052
2052
2052
2052
2052
2053
2053
2052
2052
2052
2053
2054
2054
2055
2054
2054
2054
2054
2054
2054
2055
2055
2055
2054
2054
2053
2053
2054
2055
2055
2055
2055
2055
2054
2054
2055
2055
2055
2055
2055
2054
2054
2053
2053
2053
2053
2052
2051
2050
2049
2049
2049
2050
2051
2052
2052
2052
2052
2052
2052
2053
2053
2054
2054
2055
2055
2055
2054
2053
2052
2052
2052
2053
2054
2054
2053
2053
2052
2052
2052
2053
2053
2054
2054
2053
2053
2053
2052
2053
2053
2053
2054
2054
2054
2053
2053
2052
2052
2052
2053
2053
2053
2053
2053
2053
2052
2052
2052
2052
2051
2051
2051
2051
2051
2052
2052
2053
2052
2051
2051
2051
2051
2051
2051
2051
2050
2050
2049
2050
2050
2051
2051
2052
2052
2051
2051
2051
2050
2050
2050
2051
2051
2052
2052
2051
2051
2050
2050
2050
2050
2050
2051
2051
2051
2051
2050
2051
2051
2052
2053
2053
2053
2052
2052
2052
2051
2051
2050
2050
2050
2051
2052
2052
2052
2052
2051
2050
2049
2049
2049
2050
2051
2051
2051
2050
2050
2054
2061
2069
2076
2078
2073
2060
2042
2022
2003
1993
1992
2001
2016
2032
2045
2051
2053
2053
2053
2053
2053
2053
2053
2053
2053
2054
2055
2055
2054
2053
2053
2053
2053
2054
2055
2056
2056
2056
2055
2054
2054
2053
2053
2054
2054
2055
2055
2054
2054
2053
2053
2054
2054
2054
2054
2055
2054
2054
2054
2053
2052
2051
2051
2051
2051
2051
2052
2051
2051
2050
2049
2048
2049
2050
2052
2054
2055
2055
2055
2054
2054
2054
2054
2055
2054
2054
2053
2053
2054
2054
2053
2053
2053
2053
2053
2054
2054
2054
2054
2054
2053
2053
2053
2053
2054
2054
2054
2055
2055
2055
2054
2053
2053
2052
2052
2052
2053
2054
2054
2053
2053
2052
2052
2052
2052
2052
2053
2053
2053
2052
2052
2051
2051
2051
2052
2052
2052
2052
2052
2051
2050
2050
2049
2050
2050
2051
2051
2051
2050
2049
2049
2050
2051
2052
2052
2052
2051
2050
2049
2049
2049
2050
2052
2053
2054
2053
2053
2052
2052
2052
2052
2052
2051
2051
2051
2052
2052
2052
2052
2051
2050
2050
2050
2050
2050
2051
2051
2051
2051
2051
2049
2048
2049
2054
2063
2072
2078
2079
2072
2058
2039
2018
2001
1991
1992
2002
2017
2033
2045
2050
2052
2052
2052
2052
2053
2053
2054
2053
2053
2053
2053
2053
2053
2054
2054
2054
2054
2054
2054
2054
2054
2054
2053
2053
2053
2053
2054
2055
2055
2054
2054
2054
2054
2054
2055
2055
2055
2054
2054
2053
2052
2051
2051
2052
2052
2053
2053
2052
2051
2050
2049
2049
2048
2049
2049
2051
2052
2052
2052
2052
2051
2052
2053
2053
2054
2054
2054
2054
2054
2053
2052
2052
2052
2052
2053
2053
2053
2053
2053
2053
2053
2053
2053
2053
2053
2053
2053
2053
2053
2052
2052
2052
2052
2052
2053
2053
2053
2054
2054
2053
2053
2053
2052
2052
2052
2053
2052
2051
2051
2050
2050
2051
2051
2051
2051
2051
2052
2052
2052
2051
2050
2049
2049
2049
2049
2051
2051
2052
2051
2050
2050
2050
2050
2051
2052
2052
2051
2051
2051
2051
2051
2051
2052
2052
2052
2052
2051
2051
2050
2050
2050
2051
2051
2051
2051
2051
2051
2051
2050
2050
2049
2049
2049
2049
2050
2050
2049
2048
2048
2051
2057
2066
2074
2078
2076
2065
2048
2027
2007
1994
1990
1996
2010
2027
2041
2049
2052
2053
2052
2052
2052
2052
2052
2052
2053
2053
2054
2054
2054
2054
2053
2053
2053
2054
2055
2055
2055
2054
2054
2053
2053
2053
2053
2054
2054
2054
2054
2054
2054
2053
2053
2053
2053
2054
2055
2055
2055
2054
2053
2052
2051
2051
2050
2050
2050
2050
2050
2050
2049
2049
2049
2049
2050
2051
2053
2054
2054
2054
2054
2053
2053
2053
2054
2054
2054
2054
2053
2053
2052
2052
2052
2052
2053
2052
2053
2053
2053
2054
2054
2053
2052
2051
2051
2051
2052
2053
2053
2054
2053
2053
2053
2053
2053
2053
2053
2053
2053
2052
2051
2050
2050
2050
2051
2051
2051
2052
2052
2052
2052
2052
2052
2052
2051
2051
2050
2050
2050
2050
2050
2050
2049
2049
2048
2048
2049
2050
2051
2052
2052
2051
2050
2050
2049
2050
2051
2052
2053
2053
2053
2052
2051
2050
2050
2050
2051
2051
2051
2051
2051
2050
2050
2050
2050
2050
2049
2049
2049
2049
2049
2049
2049
2048
2048
2052
2059
2068
2077
2080
2075
2062
2043
2022
2003
1992
1991
2000
2014
2030
2041
2048
2049
2050
2050
2051
2051
2052
2052
2052
2052
2052
2052
2051
2052
2052
2053
2054
2053
2053
2052
2052
2052
2053
2054
2054
2054
2054
2054
2054
2053
2053
2053
2053
2053
2053
2053
2053
2053
2053
2054
2054
2053
2052
2051
2051
2051
2051
2051
2050
2050
2049
2049
2048
2048
2048
2049
2050
2050
2051
2052
2051
2052
2052
2052
2052
2053
2054
2054
2054
2053
2052
2051
2051
2051
2051
2052
2052
2052
2052
2053
2053
2053
2053
2053
2053
2052
2052
2052
2053
2053
2052
2052
2051
2052
2052
2054
2054
2054
2053
2052
2051
2050
2051
2051
2052
2053
2053
2053
2052
2052
2051
2051
2051
2051
2051
2051
2051
2051
2051
2050
2050
2049
2049
2050
2050
2051
2052
2051
2051
2050
2050
2050
2050
2051
2051
2052
2052
2052
2052
2051
2050
2050
2050
2050
2051
2051
2051
2051
2050
2049
2049
2049
2049
2049
2049
2049
2049
2049
2048
2048
2049
2053
2061
2070
2076
2077
2071
2057
2039
2019
2001
1991
1991
2001
2016
2033
2045
2051
2053
2053
2052
2052
2052
2052
2052
2052
2052
2053
2053
2053
2053
2053
2053
2053
2053
2053
2053
2053
2054
2054
2054
2054
2053
2053
2053
2053
2053
2054
2054
2054
2054
2053
2053
2053
2053
2054
2054
2054
2053
2052
2051
2050
2050
2050
2050
2050
2049
2049
2049
2049
2049
2049
2049
2050
2051
2052
2053
2054
2054
2054
2053
2052
2052
2052
2052
2053
2054
2054
2054
2053
2052
2051
2051
2052
2053
2054
2054
2054
2054
2053
2053
2052
2052
2052
2052
2053
2053
2054
2053
2053
2052
2052
2052
2053
2053
2052
2052
2052
2052
2053
2053
2052
2052
2051
2051
2051
2052
2052
2051
2051
2051
2050
2050
2050
2050
2051
2051
2051
2051
2051
2050
2050
2050
2050
2050
2051
2051
2051
2051
2051
2051
2051
2052
2052
2052
2052
2051
2050
2050
2050
2050
2050
2051
2051
2050
2050
2050
2050
2050
2050
2050
2050
2050
2050
2050
2049
2048
2050
2054
2062
2070
2076
2076
2070
2056
2038
2018
2002
1992
1993
2002
2017
2032
2044
2050
2053
2054
2054
2053
2053
2052
2052
2052
2052
2052
2053
2054
2054
2054
2053
2053
2053
2053
2053
2053
2053
2054
2054
2055
2055
2054
2054
2053
2053
2053
2053
2053
2054
2054
2054
2054
2053
2053
2053
2052
2052
2052
2051
2051
2050
2050
2049
2049
2049
2048
2048
2048
2048
2048
2049
2049
2049
2050
2050
2051
2053
2054
2054
2054
2054
2053
2053
2053
2053
2053
2053
2053
2053
2053
2053
2053
2052
2052
2052
2052
2052
2052
2053
2053
2052
2052
2052
2053
2053
2053
2053
2053
2053
2053
2053
2053
2052
2052
2052
2052
2053
2053
2053
2052
2052
2052
2052
2052
2052
2052
2053
2053
2054
2053
2052
2051
2050
2050
2050
2051
2052
2052
2052
2051
2051
2050
2050
2050
2050
2050
2051
2052
2053
2053
2053
2053
2052
2052
2051
2051
2051
2052
2052
2052
2051
2051
2051
2051
2051
2051
2051
2051
2051
2050
2050
2049
2048
2048
2048
2048
2049
2049
2049
2051
2056
2064
2073
2078
2077
2068
2051
2031
2010
1995
1990
1994
2006
2023
2038
2048
2052
2053
2053
2052
2052
2052
2052
2052
2052
2052
2052
2053
2053
2053
2053
2053
2052
2053
2053
2054
2054
2054
2054
2054
2053
2053
2052
2052
2052
2053
2054
2054
2055
2055
2054
2053
2052
2052
2052
2052
2053
2053
2052
2052
2051
2051
2050
2050
2049
2049
2048
2048
2048
2048
2049
2050
2050
2051
2051
2051
2053
2053
2054
2054
2054
2053
2052
2052
2051
2052
2052
2053
2054
2054
2053
2052
2052
2052
2053
2053
2053
2053
2053
2052
2052
2052
2052
2053
2053
2053
2053
2053
2053
2053
2054
2053
2052
2052
2051
2052
2052
2053
2054
2054
2053
2052
2052
2052
2052
2052
2052
2052
2052
2051
2051
2051
2051
2051
2051
2051
2050
2050
2050
2050
2051
2052
2052
2052
2051
2051
2051
2052
2051
2051
2051
2051
2051
2052
2052
2053
2053
2053
2052
2052
2052
2052
2051
2051
2051
2051
2052
2052
2052
2051
2051
2050
2049
2049
2050
2050
2051
2051
2051
2051
2050
2049
2048
2050
2055
2063
2072
2078
2079
2071
2056
2037
2016
1999
1990
1993
2004
2020
2036
2047
2051
2053
2052
2051
2051
2051
2052
2053
2053
2054
2054
2054
2054
2053
2053
2053
2054
2054
2055
2055
2054
2053
2052
2052
2052
2053
2054
2055
2056
2055
2055
2054
2052
2052
2052
2052
2053
2053
2053
2053
2053
2053
2052
2052
2051
2051
2051
2051
2051
2050
2048
2048
2047
2048
2048
2049
2050
2051
2052
2052
2053
2054
2054
2054
2053
2053
2053
2053
2053
2053
2053
2053
2052
2052
2051
2051
2052
2052
2052
2053
2053
2053
2053
2052
2052
2052
2052
2052
2052
2052
2052
2052
2052
2052
2052
2052
2051
2051
2051
2051
2051
2051
2051
2051
2051
2051
2051
2051
2050
2050
2050
2050
2050
2050
2050
2050
2050
2050
2051
2051
2051
2051
2050
2049
2048
2048
2049
2050
2051
2051
2051
2050
2049
2049
2048
2048
2049
2049
2050
2050
2051
2051
2051
2051
2051
2051
2052
2052
2052
2052
2051
2050
2049
2049
2050
2050
2051
2051
2051
2052
2051
2051
2049
2048
2048
2048
2049
2050
2050
2050
2049
2048
2049
2054
2063
2072
2079
2079
2070
2054
2034
2013
1997
1990
1994
2005
2022
2037
2047
2051
2052
2052
2051
2051
2051
2052
2053
2053
2054
2053
2053
2053
2053
2053
2053
2053
2054
2054
2053
2053
2052
2052
2052
2053
2054
2054
2054
2054
2054
2054
2054
2053
2053
2053
2052
2053
2053
2053
2053
2053
2052
2051
2051
2050
2050
2049
2048
2048
2048
2048
2048
2049
2048
2048
2048
2049
2050
2051
2052
2052
2053
2052
2052
2051
2051
2052
2053
2053
2054
2053
2053
2052
2051
2051
2051
2052
2053
2053
2053
2052
2052
2051
2051
2051
2052
2052
2053
2053
2053
2053
2053
2053
2052
2052
2051
2051
2051
2052
2052
2053
2053
2052
2052
2051
2051
2051
2051
2052
2052
2052
2052
2051
2050
2050
2050
2051
2052
2052
2052
2052
2051
2051
2051
2051
2051
2050
2050
2050
2050
2050
2051
2051
2051
2050
2050
2050
2050
2050
2051
2051
2050
2050
2049
2050
2050
2051
2051
2052
2053
2053
2053
2052
2051
2049
2049
2050
2051
2052
2052
2052
2052
2051
2051
2050
2050
2050
2051
2051
2051
2050
2050
2049
2049
2049
2049
2048
2048
2052
2059
2069
2077
2081
2077
2066
2048
2029
2011
1998
1995
2000
2013
2028
2041
2048
2051
2052
2052
2052
2052
2053
2054
2054
2054
2054
2053
2053
2053
2054
2054
2054
2054
2054
2053
2054
2054
2055
2055
2055
2054
2054
2054
2055
2055
2054
2054
2054
2055
2056
2056
2055
2054
2053
2053
2053
2053
2053
2053
2053
2053
2052
2051
2051
2050
2050
2050
2050
2050
2049
2049
2049
2050
2051
2051
2052
2053
2053
2054
2053
2053
2053
2053
2053
2053
2053
2053
2053
2053
2053
2053
2052
2052
2051
2051
2051
2051
2051
2052
2052
2052
2053
2053
2053
2053
2053
2052
2052
2052
2052
2053
2052
2052
2051
2051
2051
2050
2051
2051
2051
2052
2052
2052
2051
2051
2050
2050
2051
2051
2052
2051
2051
2050
2049
2049
2048
2049
2049
2049
2049
2049
2049
2049
2049
2049
2048
2049
2049
2049
2048
2048
2048
2048
2049
2049
2049
2048
2048
2047
2048
2048
2049
2050
2051
2051
2050
2050
2051
2051
2051
2050
2049
2049
2048
2048
2048
2049
2050
2051
2051
2051
2050
2049
2048
2048
2048
2047
2047
2048
2048
2048
2048
2049
2053
2060
2068
2075
2076
2070
2055
2037
2016
1999
1990
1992
2002
2017
2032
2044
2049
2052
2052
2051
2051
2051
2051
2051
2051
2051
2051
2051
2052
2052
2052
2052
2051
2051
2051
2051
2052
2052
2053
2052
2052
2051
2051
2050
2051
2051
2052
2053
2053
2052
2052
2052
2052
2052
2052
2052
2052
2052
2052
2052
2051
2049
2048
2048
2048
2048
2049
2048
2048
2048
2048
2049
2050
2050
2051
2051
2050
2051
2051
2052
2052
2052
2052
2051
2051
2051
2052
2053
2053
2053
2052
2051
2050
2050
2050
2050
2051
2051
2051
2051
2050
2050
2049
2050
2051
2052
2052
2052
2051
2050
2050
2050
2050
2051
2052
2052
2052
2051
2051
2051
2050
2050
2049
2049
2049
2049
2049
2049
2049
2050
2050
2050
2050
2050
2050
2050
2050
2050
2049
2049
2048
2048
2048
2048
2048
2049
2050
2049
2049
2048
2048
2048
2048
2049
2050
2050
2049
2048
2048
2048
2048
2049
2049
2050
2049
2050
2050
2052
2052
2052
2052
2051
2050
2049
2049
2049
2049
2049
2050
2050
2051
2050
2050
2049
2048
2048
2048
2048
2048
2048
2048
2048
2047
2048
2054
2063
2072
2078
2079
2071
2055
2036
2015
1998
1989
1991
2001
2017
2033
2045
2051
2052
2052
2051
2051
2051
2052
2052
2052
2052
2052
2052
2052
2052
2052
2053
2054
2054
2055
2055
2054
2053
2052
2052
2052
2053
2054
2055
2054
2054
2054
2053
2053
2053
2053
2054
2054
2053
2053
2052
2052
2052
2052
2053
2052
2052
2051
2050
2050
2049
2048
2048
2048
2048
2048
2049
2050
2051
2052
2053
2053
2053
2053
2053
2053
2053
2054
2054
2055
2054
2054
2053
2053
2052
2052
2052
2052
2052
2052
2053
2053
2053
2053
2052
2052
2052
2052
2053
2054
2054
2053
2052
2051
2051
2052
2053
2054
2054
2053
2053
2052
2052
2051
2051
2052
2052
2053
2054
2053
2053
2052
2051
2051
2051
2052
2052
2053
2052
2052
2051
2050
2049
2050
2051
2052
2052
2052
2051
2051
2051
2051
2051
2050
2050
2049
2050
2051
2052
2052
2052
2052
2051
2051
2051
2051
2051
2051
2051
2051
2051
2050
2050
2050
2051
2051
2051
2051
2049
2048
2048
2048
2048
2048
2048
2048
2048
2048
2049
2053
2060
2069
2076
2079
2074
2062
2045
2025
2006
1994
1991
1997
2010
2026
2040
2048
2051
2051
2050
2050
2050
2051
2052
2052
2052
2051
2050
2050
2050
2051
2052
2053
2053
2053
2052
2052
2052
2052
2052
2052
2052
2051
2051
2050
2050
2051
2051
2052
2053
2053
2052
2051
2051
2051
2052
2052
2051
2050
2048
2048
2048
2048
2048
2048
2048
2048
2048
2048
2048
2048
2048
2048
2048
2048
2048
2049
2050
2050
2050
2050
2050
2051
2052
2052
2052
2052
2051
2051
2050
2050
2050
2050
2050
2050
2049
2049
2050
2051
2051
2051
2050
2050
2050
2050
2051
2051
2051
2052
2051
2051
2051
2050
2050
2050
2050
2050
2051
2051
2051
2051
2051
2050
2050
2049
2049
2049
2050
2050
2051
2051
2050
2049
2049
2049
2049
2050
2051
2051
2051
2051
2050
2050
2049
2048
2048
2048
2049
2050
2052
2052
2051
2051
2050
2049
2049
2050
2050
2050
2051
2051
2051
2051
2051
2051
2051
2050
2050
2050
2050
2050
2050
2050
2050
2050
2049
2049
2049
2049
2049
2049
2048
2048
2049
2049
2050
2050
2049
2048
2050
2055
2064
2072
2077
2076
2066
2049
2029
2008
1993
1986
1990
2002
2019
2036
2047
2051
2053
2052
2052
2051
2051
2051
2051
2051
2052
2052
2053
2053
2053
2053
2053
2053
2053
2053
2053
2053
2053
2054
2054
2054
2054
2053
2052
2052
2052
2053
2053
2053
2054
2054
2053
2053
2053
2052
2053
2053
2052
2051
2050
2049
2049
2049
2050
2050
2050
2050
2050
2050
2049
2048
2048
2048
2049
2050
2051
2053
2054
2054
2054
2053
2053
2053
2052
2052
2052
2052
2052
2052
2052
2053
2052
2052
2051
2051
2051
2051
2052
2052
2053
2053
2054
2053
2052
2051
2050
2051
2052
2053
2053
2052
2051
2050
2051
2052
2052
2053
2052
2052
2051
2051
2051
2051
2051
2052
2052
2052
2052
2052
2052
2051
2051
2052
2051
2052
2052
2051
2051
2051
2051
2051
2051
2052
2051
2052
2052
2052
2053
2053
2054
2053
2053
2051
2050
2050
2050
2052
2053
2054
2054
2054
2054
2054
2055
2055
2055
2054
2054
2054
2053
2053
2053
2052
2053
2053
2054
2055
2056
2055
2055
2054
2053
2052
2052
2052
2053
2053
2051
2051
2055
2062
2072
2081
2085
2082
2071
2054
2035
2016
2003
1999
2004
2015
2030
2043
2050
2054
2056
2056
2057
2057
2058
2058
2058
2058
2057
2056
2056
2057
2058
2059
2059
2058
2057
2057
2057
2058
2058
2059
2059
2059
2059
2059
2058
2058
2057
2058
2058
2059
2059
2059
2059
2059
2058
2058
2058
2057
2057
2058
2058
2057
2057
2056
2054
2054
2054
2054
2054
2054
2054
2055
2056
2056
2056
2056
2056
2057
2059
2060
2061
2062
2062
2061
2061
2060
2059
2058
2058
2059
2060
2061
2061
2060
2059
2059
2058
2058
2059
2060
2060
2060
2059
2058
2057
2057
2058
2059
2061
2062
2062
2062
2061
2060
2059
2059
2059
2059
2059
2058
2058
2058
2058
2058
2057
2057
2057
2057
2057
2057
2057
2057
2057
2056
2056
2055
2055
2055
2055
2056
2056
2057
2057
2057
2057
2056
2056
2056
2056
2057
2057
2056
2055
2054
2054
2054
2055
2056
2056
2056
2055
2054
2053
2053
2053
2054
2055
2055
2055
2054
2053
2052
2053
2054
2054
2053
2051
2051
2053
2060
2070
2078
2084
2083
2074
2060
2043
2025
2010
2002
2002
2010
2022
2036
2046
2051
2053
2054
2054
2054
2054
2054
2055
2055
2055
2055
2056
2056
2056
2056
2056
2056
2055
2054
2053
2053
2053
2054
2054
2054
2054
2054
2054
2054
2054
2054
2054
2054
2054
2054
2054
2054
2053
2053
2052
2052
2051
2051
2051
2051
2051
2051
2050
2049
2048
2048
2048
2048
2048
2048
2049
2051
2052
2052
2052
2052
2052
2052
2053
2054
2054
2053
2053
2052
2052
2052
2052
2052
2053
2053
2052
2052
2052
2051
2050
2050
2050
2050
2051
2052
2052
2052
2052
2051
2051
2051
2052
2052
2053
2053
2052
2052
2052
2051
2050
2050
2050
2051
2051
2051
2051
2051
2051
2050
2050
2049
2049
2048
2048
2049
2049
2050
2050
2050
2050
2050
2049
2048
2048
2048
2049
2049
2049
2049
2048
2048
2048
2047
2048
2049
2051
2051
2051
2050
2049
2048
2049
2049
2050
2051
2052
2052
2051
2049
2048
2048
2048
2049
2050
2050
2049
2048
2048
2047
2047
2047
2048
2048
2049
2048
2048
2049
2054
2063
2072
2078
2078
2071
2056
2037
2015
1996
1985
1985
1995
2012
2030
2044
2051
2053
2053
2051
2050
2050
2051
2051
2051
2052
2053
2053
2053
2053
2053
2052
2051
2051
2052
2053
2054
2054
2054
2053
2052
2051
2050
2050
2051
2052
2053
2054
2055
2054
2054
2053
2052
2051
2050
2050
2050
2051
2051
2051
2051
2049
2048
2048
2047
2047
2047
2047
2047
2047
2047
2048
2048
2049
2050
2051
2051
2051
2050
2050
2050
2051
2052
2053
2053
2052
2052
2051
2050
2050
2050
2049
2049
2050
2050
2050
2050
2051
2051
2051
2051
2051
2050
2049
2049
2049
2050
2050
2051
2051
2051
2051
2051
2051
2050
2050
2050
2050
2050
2051
2050
2050
2049
2049
2049
2049
2049
2049
2049
2050
2050
2050
2049
2048
2048
2048
2048
2048
2049
2049
2049
2049
2048
2048
2049
2049
2049
2049
2049
2049
2048
2048
2048
2048
2048
2049
2050
2049
2049
2048
2049
2049
2050
2050
2050
2049
2049
2049
2049
2048
2048
2048
2048
2048
2048
2048
2048
2048
2048
2048
2048
2048
2048
2048
2047
2046
2045
2046
2049
2057
2065
2072
2074
2069
2058
2041
2020
2001
1988
1985
1992
2007
2024
2037
2045
2048
2048
2048
2048
2049
2049
2050
2050
2050
2050
2051
2051
2052
2052
2052
2051
2051
2051
2051
2050
2050
2050
2050
2050
2050
2050
2050
2050
2050
2051
2051
2052
2052
2052
2051
2051
2051
2051
2051
2051
2050
2050
2048
2048
2048
2048
2048
2048
2048
2047
2047
2047
2047
2048
2048
2048
2047
2047
2048
2048
2049
2051
2052
2052
2052
2051
2050
2049
2049
2049
2049
2049
2050
2050
2051
2051
2050
2050
2049
2049
2049
2050
2050
2050
2050
2050
2050
2050
2049
2049
2050
2050
2051
2052
2052
2052
2051
2051
2050
2050
2051
2051
2051
2052
2051
2051
2050
2050
2050
2050
2051
2052
2052
2052
2052
2051
2050
2049
2049
2049
2049
2050
2050
2050
2050
2050
2050
2050
2050
2050
2050
2050
2050
2050
2051
2051
2052
2052
2052
2052
2052
2053
2054
2054
2054
2053
2052
2051
2050
2050
2050
2051
2051
2052
2052
2053
2053
2053
2052
2051
2051
2051
2051
2052
2052
2052
2052
2052
2050
2049
2051
2058
2067
2076
2083
2083
2074
2058
2039
2020
2005
1998
2001
2011
2026
2040
2048
2053
2054
2053
2052
2052
2054
2056
2058
2058
2057
2056
2055
2054
2054
2055
2056
2057
2056
2056
2055
2054
2054
2055
2056
2057
2058
2058
2058
2057
2056
2056
2055
2056
2056
2057
2057
2057
2056
2056
2056
2056
2056
2055
2055
2054
2053
2053
2052
2052
2052
2052
2052
2052
2051
2051
2052
2053
2054
2054
2055
2055
2055
2055
2056
2057
2057
2057
2056
2056
2055
2055
2055
2055
2055
2055
2054
2054
2053
2053
2054
2054
2055
2056
2056
2055
2055
2054
2054
2054
2053
2052
2051
2051
2051
2052
2053
2053
2053
2051
2050
2049
2049
2050
2051
2052
2052
2051
2051
2050
2050
2051
2051
2050
2049
2048
2048
2048
2049
2050
2050
2049
2049
2049
2049
2050
2051
2051
2051
2050
2050
2049
2049
2049
2048
2048
2048
2048
2048
2048
2048
2048
2048
2048
2048
2048
2047
2047
2047
2047
2047
2047
2047
2046
2045
2044
2045
2050
2058
2068
2076
2078
2072
2058
2042
2024
2008
1998
1996
2001
2011
2023
2035
2043
2047
2048
2049
2048
2048
2048
2048
2047
2047
2047
2048
2048
2048
2048
2048
2048
2047
2046
2047
2047
2048
2048
2048
2048
2048
2048
2047
2048
2048
2048
2048
2048
2048
2048
2048
2048
2048
2048
2048
2048
2048
2048
2048
2048
2046
2045
2044
2043
2042
2042
2041
2041
2042
2043
2043
2044
2044
2044
2045
2047
2048
2049
2049
2049
2048
2048
2047
2046
2046
2046
2047
2048
2048
2048
2048
2048
2047
2046
2046
2047
2048
2048
2048
2048
2048
2047
2048
2048
2048
2049
2048
2048
2048
2048
2048
2048
2048
2048
2048
2048
2047
2047
2047
2047
2048
2048
2047
2047
2046
2045
2045
2045
2046
2046
2047
2046
2046
2045
2045
2045
2046
2047
2047
2047
2046
2046
2046
2047
2047
2046
2045
2045
2044
2044
2045
2045
2045
2045
2045
2045
2045
2045
2045
2045
2045
2044
2044
2044
2044
2044
2043
2043
2043
2047
2053
2063
2071
2074
2071
2059
2042
2022
2002
1987
1981
1986
1998
2015
2031
2042
2047
2048
2047
2046
2046
2047
2047
2047
2046
2045
2045
2046
2047
2048
2048
2048
2047
2047
2047
2047
2047
2047
2047
2047
2048
2048
2047
2047
2047
2047
2047
2048
2048
2048
2048
2048
2048
2047
2047
2047
2047
2047
2047
2046
2046
2045
2044
2043
2043
2042
2042
2043
2043
2044
2044
2044
2044
2044
2045
2046
2047
2048
2048
2048
2048
2048
2047
2047
2046
2046
2046
2047
2047
2048
2047
2047
2047
2046
2047
2047
2047
2047
2047
2047
2047
2047
2047
2047
2046
2046
2047
2048
2048
2049
2049
2049
2048
2048
2048
2048
2048
2048
2048
2048
2048
2047
2046
2045
2045
2046
2047
2048
2048
2049
2048
2048
2048
2046
2046
2046
2047
2048
2048
2048
2049
2049
2049
2049
2048
2048
2048
2048
2047
2047
2046
2046
2046
2047
2048
2048
2048
2048
2047
2047
2047
2047
2046
2046
2047
2046
2045
2043
2044
2048
2056
2066
2073
2074
2067
2051
2032
2010
1991
1981
1981
1990
2007
2024
2038
2045
2048
2048
2048
2048
2048
2048
2048
2048
2048
2048
2049
2050
2051
2051
2051
2050
2049
2049
2049
2049
2050
2051
2051
2050
2049
2049
2049
2050
2051
2051
2051
2051
2050
2050
2050
2050
2050
2050
2049
2048
2048
2048
2049
2050
2050
2049
2048
2046
2045
2044
2045
2046
2047
2048
2048
2048
2048
2048
2048
2048
2049
2050
2050
2050
2051
2050
2050
2048
2048
2048
2048
2049
2050
2051
2050
2050
2049
2049
2050
2051
2051
2051
2051
2051
2050
2049
2049
2048
2049
2049
2049
2050
2050
2050
2051
2051
2052
2051
2051
2049
2049
2049
2049
2051
2051
2051
2050
2049
2049
2049
2049
2049
2049
2049
2049
2049
2049
2049
2049
2050
2050
2050
2051
2052
2052
2051
2050
2049
2048
2048
2048
2049
2050
2051
2051
2050
2049
2048
2048
2048
2048
2049
2050
2051
2051
2050
2049
2048
2047
2048
2055
2064
2073
2078
2077
2067
2049
2029
2007
1992
1986
1991
2004
2022
2037
2048
2051
2052
2051
2050
2050
2051
2052
2053
2054
2054
2053
2053
2053
2053
2054
2054
2054
2054
2054
2054
2054
2053
2053
2053
2053
2053
2054
2055
2055
2055
2055
2055
2054
2054
2054
2054
2055
2055
2055
2055
2053
2052
2051
2050
2050
2051
2051
2052
2052
2051
2050
2049
2048
2048
2048
2050
2051
2052
2053
2054
2054
2053
2052
2051
2051
2051
2052
2054
2055
2056
2056
2055
2053
2052
2052
2052
2053
2054
2054
2053
2052
2051
2051
2051
2053
2054
2055
2055
2054
2053
2052
2052
2052
2054
2055
2057
2057
2055
2053
2051
2051
2051
2052
2052
2052
2052
2052
2052
2052
2051
2050
2050
2051
2052
2054
2056
2058
2059
2058
2057
2055
2052
2050
2050
2052
2054
2055
2055
2054
2053
2052
2052
2053
2054
2055
2055
2054
2053
2053
2053
2052
2052
2052
2052
2052
2053
2053
2053
2053
2053
2052
2052
2055
2062
2071
2079
2083
2080
2069
2051
2031
2011
1997
1993
1998
2012
2029
2044
2053
2057
2058
2058
2057
2058
2059
2059
2060
2060
2059
2059
2058
2058
2058
2059
2059
2060
2060
2060
2059
2059
2059
2059
2059
2060
2060
2060
2059
2059
2059
2060
2060
2061
2060
2060
2059
2059
2059
2059
2060
2059
2059
2057
2056
2055
2055
2056
2056
2055
2054
2053
2052
2053
2055
2056
2058
2059
2059
2059
2059
2059
2059
2060
2060
2060
2059
2059
2059
2060
2060
2060
2060
2060
2060
2059
2059
2059
2059
2059
2059
2059
2059
2058
2058
2059
2060
2060
2060
2059
2058
2058
2057
2057
2058
2059
2060
2060
2060
2059
2058
2058
2057
2057
2057
2057
2058
2059
2059
2059
2060
2060
2059
2059
2059
2058
2058
2057
2057
2058
2058
2059
2059
2058
2058
2058
2057
2058
2058
2058
2058
2057
2057
2057
2056
2056
2056
2056
2056
2056
2057
2057
2057
2057
2056
2055
2054
2056
2061
2070
2079
2085
2087
2081
2067
2050
2033
2018
2010
2009
2015
2026
2037
2046
2051
2055
2057
2057
2058
2058
2057
2057
2056
2056
2056
2056
2056
2057
2057
2058
2059
2058
2057
2056
2056
2056
2056
2057
2057
2056
2056
2056
2056
2055
2056
2056
2056
2056
2056
2056
2055
2055
2055
2055
2054
2054
2053
2052
2052
2052
2052
2051
2049
2048
2048
2048
2049
2050
2051
2051
2051
2052
2053
2053
2054
2054
2054
2054
2054
2055
2055
2054
2053
2052
2052
2052
2053
2053
2053
2053
2053
2052
2052
2052
2052
2053
2054
2054
2054
2053
2053
2052
2052
2052
2052
2051
2050
2050
2050
2050
2051
2051
2051
2050
2050
2050
2050
2050
2050
2050
2049
2049
2048
2048
2048
2048
2048
2049
2050
2051
2051
2052
2052
2051
2050
2050
2049
2049
2049
2049
2049
2049
2049
2048
2048
2048
2048
2049
2049
2050
2050
2049
2048
2047
2047
2046
2047
2048
2048
2048
2046
2045
2048
2054
2063
2073
2078
2076
2065
2048
2028
2008
1993
1986
1989
2001
2017
2033
2045
2049
2050
2049
2048
2048
2048
2049
2049
2050
2050
2051
2051
2051
2050
2050
2050
2051
2051
2051
2051
2051
2050
2050
2049
2049
2049
2050
2050
2051
2051
2051
2051
2052
2052
2051
2051
2051
2050
2050
2050
2049
2048
2048
2049
2050
2050
2050
2050
2049
2048
2048
2047
2047
2047
2048
2048
2049
2050
2051
2052
2053
2053
2053
2052
2052
2051
2051
2052
2052
2051
2052
2052
2052
2052
2051
2050
2049
2049
2050
2051
2052
2052
2052
2052
2052
2052
2052
2052
2051
2051
2051
2051
2052
2052
2051
2051
2051
2052
2052
2052
2052
2051
2050
2050
2049
2049
2050
2050
2051
2051
2051
2051
2051
2050
2050
2050
2050
2051
2050
2049
2049
2048
2049
2050
2051
2052
2052
2051
2051
2051
2051
2051
2050
2049
2048
2048
2048
2049
2051
2051
2051
2050
2049
2048
2048
2049
2049
2050
2050
2050
2050
2050
2049
2048
2048
2050
2056
2065
2073
2078
2077
2067
2051
2031
2010
1994
1988
1991
2004
2021
2037
2048
2052
2053
2052
2051
2050
2051
2052
2053
2054
2054
2055
2054
2053
2053
2053
2054
2054
2054
2055
2055
2055
2054
2054
2054
2053
2054
2054
2055
2055
2055
2055
2055
2055
2055
2054
2055
2055
2056
2056
2056
2055
2054
2053
2053
2052
2051
2051
2051
2052
2052
2052
2051
2050
2050
2050
2051
2052
2053
2054
2054
2054
2055
2054
2054
2054
2054
2053
2053
2053
2053
2053
2053
2053
2054
2054
2054
2054
2054
2054
2053
2053
2053
2052
2052
2052
2053
2053
2053
2053
2053
2053
2053
2053
2054
2054
2054
2054
2053
2053
2053
2054
2054
2054
2054
2053
2053
2053
2053
2053
2053
2052
2051
2051
2051
2051
2052
2053
2053
2053
2052
2051
2051
2052
2052
2053
2053
2052
2052
2051
2051
2051
2051
2050
2050
2051
2052
2053
2054
2054
2054
2052
2051
2050
2049
2049
2049
2050
2051
2052
2052
2052
2052
2050
2049
2049
2049
2049
2050
2051
2051
2050
2049
2048
2049
2053
2061
2071
2078
2082
2077
2065
2048
2027
2008
1996
1993
2000
2013
2029
2042
2049
2051
2050
2048
2048
2050
2053
2054
2054
2054
2054
2054
2054
2053
2053
2052
2052
2053
2054
2055
2055
2054
2053
2052
2051
2050
2051
2053
2055
2057
2057
2055
2054
2052
2052
2052
2052
2053
2055
2056
2056
2055
2055
2054
2053
2052
2051
2050
2049
2049
2050
2052
2051
2050
2048
2047
2048
2049
2052
2055
2057
2057
2056
2054
2053
2053
2053
2053
2054
2054
2055
2054
2053
2052
2051
2050
2049
2049
2049
2051
2053
2054
2056
2056
2056
2055
2053
2051
2050
2051
2053
2055
2056
2055
2053
2051
2049
2049
2050
2052
2054
2054
2053
2052
2051
2049
2048
2048
2047
2046
2045
2043
2042
2041
2041
2042
2043
2045
2046
2045
2043
2041
2041
2042
2044
2047
2048
2048
2045
2042
2040
2040
2041
2043
2045
2046
2047
2046
2044
2042
2040
2039
2038
2038
2037
2036
2035
2035
2035
2035
2036
2036
2037
2039
2041
2045
2048
2052
2056
2059
2062
2064
2065
2069
2075
2083
2091
2097
2098
2091
2077
2056
2033
2014
2004
2007
2019
2035
2049
2057
2059
2059
2060
2062
2065
2069
2074
2081
2088
2094
2098
2100
2100
2100
2099
2099
2099
2099
2100
2102
2103
2105
2105
2105
2104
2104
2105
2108
2110
2111
2110
2107
2103
2100
2099
2100
2102
2105
2107
2109
2110
2111
2110
2109
2107
2106
2106
2106
2105
2103
2100
2098
2096
2096
2096
2095
2094
2092
2090
2088
2085
2082
2079
2076
2073
2071
2071
2073
2074
2074
2071
2067
2063
2061
2061
2060
2059
2056
2054
2053
2052
2051
2050
2049
2049
2050
2051
2051
2049
2048
2045
2043
2042
2041
2040
2039
2040
2042
2044
2045
2044
2042
2039
2037
2037
2039
2041
2043
2044
2045
2045
2044
2044
2043
2043
2043
2043
2043
2043
2044
2044
2043
2043
2042
2042
2042
2043
2043
2042
2039
2037
2036
2037
2040
2041
2041
2040
2038
2037
2036
2035
2035
2034
2034
2034
2034
2032
2031
2029
2028
2029
2029
2030
2032
2037
2044
2051
2056
2057
2052
2041
2024
2006
1990
1980
1979
1986
1999
2013
2023
2028
2029
2029
2028
2028
2030
2032
2033
2033
2032
2030
2029
2028
2028
2030
2032
2034
2035
2035
2034
2032
2031
2030
2030
2030
2030
2030
2031
2031
2031
2031
2030
2029
2029
2029
2029
2029
2029
2028
2026
2025
2024
2025
2026
2027
2028
2027
2026
2024
2022
2021
2021
2022
2024
2025
2026
2026
2026
2027
2027
2028
2029
2029
2030
2030
2030
2031
2032
2033
2033
2032
2030
2028
2026
2027
2030
2033
2035
2035
2034
2032
2031
2030
2029
2029
2029
2030
2030
2031
2031
2031
2031
2030
2030
2030
2030
2030
2031
2031
2031
2030
2029
2027
2026
2026
2028
2030
2031
2031
2031
2030
2028
2026
2025
2024
2025
2025
2026
2026
2026
2025
2025
2025
2025
2025
2026
2026
2026
2025
2025
2026
2026
2026
2027
2027
2027
2027
2028
2028
2028
2027
2026
2024
2024
2024
2025
2026
2027
2026
2025
2025
2027
2033
2042
2050
2055
2053
2044
2027
2006
1985
1970
1964
1968
1981
1997
2013
2024
2029
2030
2029
2027
2026
2027
2028
2028
2029
2029
2028
2028
2029
2029
2029
2030
2029
2029
2028
2029
2030
2031
2032
2033
2033
2032
2031
2031
2030
2030
2030
2030
2031
2032
2033
2034
2033
2033
2032
2032
2032
2032
2031
2030
2028
2027
2027
2027
2029
2030
2031
2031
2030
2030
2029
2029
2030
2031
2032
2033
2034
2034
2034
2034
2033
2034
2034
2035
2036
2036
2036
2035
2035
2035
2035
2035
2035
2035
2036
2036
2037
2037
2037
2036
2036
2036
2036
2037
2037
2037
2037
2037
2037
2038
2038
2039
2039
2039
2038
2038
2038
2038
2037
2037
2036
2036
2037
2037
2037
2038
2038
2038
2038
2037
2037
2037
2037
2037
2038
2039
2039
2039
2039
2038
2037
2037
2038
2039
2039
2039
2038
2037
2037
2037
2038
2039
2039
2038
2037
2036
2036
2036
2037
2037
2037
2037
2037
2037
2037
2036
2036
2040
2046
2053
2061
2065
2062
2051
2035
2014
1993
1979
1975
1981
1995
2012
2027
2037
2041
2041
2041
2040
2040
2041
2040
2040
2040
2040
2041
2041
2042
2042
2042
2042
2042
2043
2043
2042
2042
2041
2041
2041
2042
2042
2043
2043
2043
2043
2044
2044
2044
2044
2043
2042
2042
2041
2041
2041
2042
2042
2042
2042
2042
2041
2039
2038
2038
2037
2038
2038
2039
2040
2041
2041
2041
2041
2042
2043
2044
2045
2045
2045
2044
2044
2043
2043
2044
2044
2044
2044
2043
2043
2043
2043
2043
2043
2042
2042
2043
2043
2044
2044
2044
2043
2043
2044
2044
2045
2045
2045
2045
2045
2045
2044
2044
2043
2043
2044
2044
2044
2043
2042
2042
2042
2043
2044
2045
2045
2045
2044
2044
2044
2044
2044
2043
2043
2043
2043
2044
2045
2046
2046
2046
2046
2045
2044
2043
2043
2044
2044
2045
2045
2045
2045
2044
2044
2044
2043
2043
2043
2044
2045
2045
2044
2044
2043
2041
2040
2042
2048
2056
2066
2073
2074
2067
2053
2035
2015
1998
1989
1989
1996
2010
2024
2036
2042
2044
2044
2044
2044
2045
2046
2047
2046
2046
2046
2046
2046
2047
2047
2047
2047
2047
2047
2047
2046
2046
2046
2046
2047
2048
2048
2047
2046
2046
2046
2046
2047
2048
2048
2048
2047
2047
2046
2046
2045
2044
2044
2043
2043
2044
2044
2044
2044
2043
2043
2042
2043
2043
2043
2043
2043
2044
2045
2047
2048
2048
2048
2048
2048
2048
2048
2048
2048
2047
2047
2047
2047
2047
2047
2046
2046
2046
2047
2047
2047
2047
2047
2048
2048
2048
2049
2049
2048
2048
2048
2047
2047
2048
2048
2048
2049
2048
2048
2048
2048
2048
2048
2048
2048
2047
2046
2046
2046
2046
2046
2046
2046
2047
2047
2047
2047
2047
2046
2046
2046
2047
2047
2047
2046
2046
2045
2045
2045
2045
2046
2046
2046
2046
2046
2045
2045
2045
2046
2045
2045
2044
2044
2045
2045
2045
2044
2044
2046
2051
2059
2067
2073
2072
2063
2048
2030
2009
1992
1984
1986
1997
2013
2029
2041
2047
2048
2048
2048
2047
2047
2048
2048
2048
2049
2049
2049
2049
2049
2049
2048
2048
2048
2049
2049
2050
2051
2051
2051
2050
2050
2049
2049
2049
2050
2050
2051
2051
2051
2050
2049
2048
2048
2048
2049
2050
2051
2051
2050
2048
2047
2046
2046
2047
2047
2047
2046
2046
2046
2047
2047
2047
2048
2048
2049
2050
2050
2051
2051
2050
2050
2050
2050
2050
2050
2051
2050
2050
2050
2049
2049
2049
2049
2049
2050
2050
2050
2050
2051
2050
2051
2051
2051
2051
2050
2050
2050
2050
2050
2050
2050
2050
2050
2050
2050
2050
2050
2050
2049
2048
2048
2048
2048
2049
2049
2049
2049
2048
2048
2048
2048
2048
2049
2050
2050
2050
2050
2050
2050
2050
2051
2050
2050
2049
2049
2049
2049
2049
2048
2048
2048
2048
2048
2049
2050
2050
2049
2048
2048
2048
2048
2048
2048
2048
2048
2048
2048
2053
2060
2069
2075
2076
2068
2053
2033
2011
1993
1984
1986
1997
2015
2032
2044
2050
2052
2052
2052
2050
2050
2049
2049
2051
2052
2054
2055
2054
2054
2053
2052
2052
2052
2052
2052
2052
2053
2053
2054
2054
2054
2053
2053
2053
2053
2054
2054
2054
2054
2053
2052
2052
2052
2053
2053
2053
2053
2052
2052
2051
2051
2050
2049
2048
2048
2048
2048
2049
2049
2049
2049
2050
2050
2051
2052
2053
2053
2053
2053
2053
2053
2052
2052
2051
2051
2052
2053
2054
2054
2054
2054
2053
2052
2052
2052
2052
2053
2053
2053
2053
2053
2052
2052
2052
2052
2053
2053
2053
2053
2054
2053
2053
2053
2052
2052
2052
2052
2052
2052
2051
2051
2051
2051
2051
2052
2052
2052
2051
2051
2050
2050
2050
2051
2051
2051
2051
2051
2050
2051
2051
2052
2052
2052
2052
2052
2052
2051
2051
2051
2051
2051
2051
2050
2050
2051
2051
2052
2052
2051
2050
2048
2048
2048
2049
2050
2051
2051
2050
2049
2049
2052
2059
2068
2076
2079
2075
2063
2045
2023
2002
1988
1985
1992
2008
2026
2041
2049
2053
2054
2053
2052
2052
2053
2053
2054
2054
2054
2054
2054
2054
2054
2054
2054
2054
2053
2054
2054
2055
2055
2055
2055
2054
2053
2053
2054
2054
2055
2055
2056
2055
2055
2054
2054
2054
2055
2055
2055
2054
2053
2053
2052
2051
2051
2051
2051
2050
2050
2050
2049
2049
2049
2050
2050
2051
2052
2053
2053
2053
2053
2053
2053
2053
2054
2054
2054
2054
2054
2054
2053
2053
2053
2053
2053
2053
2053
2053
2053
2053
2053
2053
2052
2051
2051
2050
2050
2050
2051
2052
2053
2053
2052
2052
2051
2051
2051
2051
2051
2051
2052
2052
2051
2051
2050
2050
2050
2050
2051
2050
2050
2049
2049
2048
2049
2049
2050
2050
2051
2050
2050
2049
2049
2049
2049
2049
2050
2050
2050
2051
2051
2051
2050
2050
2050
2050
2050
2050
2051
2051
2051
2050
2050
2050
2050
2050
2050
2050
2050
2049
2049
2048
2048
2048
2048
2048
2048
2048
2050
2054
2061
2069
2075
2076
2069
2056
2038
2017
1998
1988
1988
1997
2013
2030
2043
2049
2052
2053
2052
2052
2052
2052
2052
2051
2052
2052
2053
2053
2054
2054
2054
2054
2053
2053
2053
2054
2054
2054
2054
2054
2054
2054
2054
2054
2054
2054
2054
2054
2054
2054
2054
2054
2054
2054
2054
2054
2053
2053
2053
2053
2052
2052
2051
2050
2049
2048
2048
2048
2048
2049
2050
2051
2051
2051
2052
2053
2054
2055
2055
2055
2055
2054
2054
2054
2054
2054
2055
2055
2055
2054
2054
2053
2053
2053
2054
2054
2055
2055
2055
2055
2054
2055
2055
2054
2054
2054
2054
2054
2054
2055
2054
2054
2053
2052
2052
2052
2053
2053
2054
2054
2053
2053
2053
2053
2052
2052
2051
2051
2051
2051
2051
2052
2052
2052
2051
2050
2050
2051
2051
2052
2052
2052
2051
2050
2050
2050
2050
2051
2051
2052
2052
2053
2053
2053
2053
2053
2052
2052
2051
2051
2051
2051
2050
2050
2051
2051
2052
2052
2052
2051
2050
2050
2049
2049
2049
2050
2050
2049
2049
2052
2058
2066
2073
2077
2075
2065
2048
2029
2009
1994
1989
1994
2007
2023
2038
2048
2052
2053
2053
2052
2053
2054
2054
2054
2054
2054
2054
2054
2054
2055
2055
2055
2055
2055
2055
2055
2055
2055
2056
2056
2055
2055
2054
2054
2053
2054
2054
2055
2055
2055
2055
2055
2055
2055
2055
2054
2053
2053
2052
2052
2053
2052
2052
2051
2050
2049
2050
2050
2051
2051
2051
2051
2051
2051
2052
2053
2054
2055
2055
2055
2055
2055
2055
2054
2054
2054
2054
2055
2056
2057
2056
2055
2054
2054
2054
2054
2055
2055
2056
2056
2056
2056
2056
2056
2056
2056
2056
2056
2056
2056
2055
2055
2055
2055
2056
2056
2056
2056
2056
2055
2055
2054
2054
2055
2055
2055
2055
2055
2055
2055
2055
2054
2054
2054
2053
2053
2054
2054
2054
2054
2055
2055
2055
2055
2055
2055
2055
2055
2056
2056
2056
2056
2056
2055
2055
2055
2055
2055
2055
2055
2055
2055
2055
2055
2056
2056
2057
2056
2055
2054
2053
2053
2052
2052
2052
2052
2052
2052
2051
2051
2053
2059
2067
2075
2081
2081
2073
2058
2039
2019
2004
1997
1999
2009
2023
2037
2047
2052
2054
2055
2055
2054
2054
2054
2053
2053
2054
2055
2055
2056
2056
2055
2055
2054
2054
2054
2054
2055
2055
2055
2055
2055
2055
2055
2054
2054
2054
2054
2054
2055
2056
2055
2054
2053
2052
2052
2052
2053
2053
2053
2052
2052
2051
2050
2049
2048
2048
2048
2048
2048
2048
2048
2048
2048
2050
2052
2053
2054
2054
2054
2054
2054
2054
2054
2054
2053
2053
2053
2052
2052
2053
2053
2054
2054
2054
2053
2053
2053
2053
2053
2054
2053
2053
2053
2053
2053
2053
2053
2053
2053
2053
2053
2053
2053
2053
2053
2053
2053
2053
2052
2052
2052
2052
2051
2051
2051
2050
2050
2050
2051
2051
2052
2052
2051
2050
2050
2050
2050
2050
2050
2050
2050
2050
2050
2050
2051
2051
2052
2052
2052
2052
2051
2050
2049
2048
2048
2049
2050
2050
2051
2051
2050
2049
2048
2048
2048
2049
2049
2050
2050
2049
2048
2047
2048
2050
2058
2067
2075
2078
2074
2062
2045
2025
2007
1995
1992
1998
2011
2027
2041
2048
2051
2051
2050
2050
2051
2052
2052
2052
2052
2052
2052
2052
2052
2052
2052
2053
2054
2054
2054
2054
2053
2053
2052
2052
2052
2052
2053
2053
2053
2053
2053
2053
2052
2051
2051
2051
2052
2053
2053
2053
2052
2051
2050
2049
2049
2049
2048
2048
2048
2048
2047
2047
2046
2046
2047
2048
2049
2050
2051
2052
2052
2052
2051
2051
2051
2052
2052
2053
2053
2053
2052
2052
2051
2051
2051
2051
2052
2052
2052
2052
2052
2051
2050
2050
2051
2051
2052
2052
2052
2052
2052
2051
2051
2051
2051
2052
2053
2053
2053
2053
2052
2051
2050
2050
2050
2050
2051
2051
2051
2051
2050
2049
2049
2048
2049
2049
2050
2050
2050
2050
2050
2050
2049
2049
2049
2049
2049
2050
2050
2050
2050
2049
2049
2049
2050
2051
2052
2053
2052
2051
2050
2049
2048
2049
2049
2049
2050
2050
2050
2049
2049
2049
2048
2048
2048
2048
2049
2049
2048
2048
2049
2053
2061
2070
2076
2078
2071
2056
2037
2016
1998
1988
1988
1998
2015
2032
2045
2050
2052
2052
2052
2051
2051
2052
2052
2052
2054
2054
2055
2054
2054
2053
2053
2053
2054
2055
2055
2054
2054
2054
2054
2054
2054
2054
2054
2054
2054
2055
2055
2055
2055
2055
2055
2054
2054
2054
2054
2054
2053
2052
2051
2051
2051
2052
2052
2052
2051
2051
2050
2050
2049
2049
2049
2049
2050
2051
2052
2053
2054
2054
2054
2053
2053
2053
2052
2052
2053
2053
2053
2054
2054
2053
2052
2052
2051
2051
2051
2052
2052
2053
2053
2053
2053
2053
2053
2053
2053
2053
2053
2053
2053
2052
2052
2053
2053
2053
2053
2053
2053
2053
2052
2052
2051
2051
2051
2051
2052
2053
2053
2053
2052
2052
2051
2051
2051
2052
2052
2052
2052
2052
2051
2051
2050
2050
2050
2051
2052
2053
2053
2052
2052
2051
2051
2052
2052
2052
2052
2052
2051
2051
2051
2051
2051
2052
2052
2051
2051
2050
2050
2049
2050
2050
2050
2050
2050
2048
2048
2050
2057
2066
2075
2079
2077
2066
2049
2028
2008
1993
1987
1993
2006
2023
2039
2048
2052
2053
2053
2052
2052
2053
2053
2053
2053
2053
2053
2053
2053
2054
2054
2054
2054
2054
2054
2054
2054
2054
2055
2056
2056
2056
2055
2054
2053
2053
2053
2054
2055
2055
2055
2054
2054
2054
2054
2054
2053
2053
2052
2052
2052
2051
2050
2049
2048
2048
2048
2048
2048
2048
2049
2049
2050
2050
2051
2051
2051
2052
2053
2053
2054
2054
2053
2053
2052
2051
2051
2051
2051
2051
2052
2052
2052
2052
2051
2051
2051
2051
2052
2052
2052
2052
2052
2051
2051
2051
2051
2051
2052
2052
2052
2052
2052
2051
2051
2051
2051
2051
2051
2051
2051
2051
2051
2050
2049
2048
2048
2049
2049
2050
2051
2051
2051
2050
2050
2049
2048
2048
2049
2049
2050
2051
2051
2051
2051
2051
2050
2050
2050
2049
2049
2049
2049
2049
2050
2050
2050
2050
2050
2049
2049
2049
2048
2048
2048
2048
2048
2047
2048
2050
2057
2067
2075
2079
2074
2062
2044
2022
2002
1988
1985
1991
2006
2024
2039
2048
2052
2052
2052
2052
2052
2052
2053
2053
2053
2053
2053
2054
2054
2054
2054
2054
2054
2054
2054
2054
2054
2054
2054
2054
2054
2054
2055
2055
2055
2054
2054
2055
2055
2055
2055
2055
2054
2053
2052
2052
2052
2052
2053
2053
2053
2052
2051
2050
2049
2049
2049
2049
2049
2049
2049
2049
2050
2051
2052
2053
2054
2055
2055
2055
2055
2055
2054
2054
2053
2052
2051
2050
2051
2052
2053
2053
2053
2053
2052
2052
2052
2052
2053
2053
2053
2052
2052
2052
2051
2052
2052
2052
2053
2053
2053
2052
2052
2052
2051
2050
2050
2050
2051
2052
2052
2052
2051
2050
2050
2050
2050
2051
2051
2051
2051
2052
2052
2052
2051
2051
2051
2051
2051
2051
2051
2051
2051
2050
2050
2050
2050
2050
2050
2050
2050
2050
2050
2049
2048
2048
2048
2048
2048
2048
2050
2054
2061
2070
2076
2077
2070
2055
2036
2014
1997
1987
1988
1998
2014
2031
2044
2050
2052
2053
2053
2053
2052
2052
2052
2052
2052
2052
2053
2053
2054
2054
2054
2053
2053
2052
2052
2052
2053
2054
2055
2055
2055
2054
2053
2053
2053
2054
2054
2055
2054
2054
2054
2053
2053
2052
2052
2052
2052
2052
2051
2051
2050
2049
2048
2048
2048
2048
2048
2048
2048
2048
2049
2049
2050
2050
2050
2051
2052
2053
2054
2054
2054
2054
2053
2053
2053
2053
2052
2053
2053
2053
2053
2053
2052
2052
2051
2051
2051
2051
2051
2052
2052
2053
2054
2054
2054
2054
2053
2053
2054
2054
2053
2053
2052
2052
2052
2052
2053
2053
2053
2053
2052
2052
2051
2051
2051
2051
2052
2052
2052
2052
2052
2051
2051
2051
2051
2051
2051
2052
2052
2052
2052
2052
2051
2051
2051
2050
2050
2050
2050
2051
2052
2053
2053
2054
2054
2054
2053
2053
2053
2053
2053
2052
2052
2052
2052
2052
2052
2053
2053
2053
2052
2051
2050
2050
2050
2050
2051
2051
2051
2051
2052
2056
2063
2073
2081
2083
2078
2065
2047
2025
2005
1993
1992
2000
2015
2032
2045
2052
2055
2055
2054
2053
2053
2054
2055
2056
2056
2057
2057
2058
2058
2058
2057
2056
2056
2056
2056
2057
2058
2059
2059
2059
2058
2058
2057
2057
2057
2058
2058
2058
2057
2057
2056
2056
2056
2055
2056
2056
2056
2056
2056
2056
2055
2054
2053
2052
2052
2052
2052
2052
2052
2052
2052
2053
2053
2055
2056
2058
2059
2059
2059
2059
2058
2058
2058
2057
2057
2057
2058
2058
2058
2058
2057
2057
2057
2058
2058
2058
2058
2058
2058
2058
2057
2057
2058
2058
2059
2059
2060
2060
2060
2059
2059
2058
2058
2057
2057
2057
2057
2057
2057
2056
2056
2056
2057
2058
2059
2059
2059
2059
2058
2058
2057
2057
2057
2056
2056
2056
2056
2057
2058
2058
2058
2058
2058
2058
2058
2058
2057
2056
2055
2054
2054
2054
2055
2055
2055
2055
2055
2055
2055
2055
2054
2054
2054
2054
2053
2052
2053
2057
2065
2074
2083
2086
2081
2068
2051
2033
2015
2004
2000
2005
2017
2031
2044
2050
2054
2054
2054
2054
2055
2056
2056
2056
2055
2055
2055
2055
2056
2055
2055
2055
2055
2055
2055
2055
2055
2055
2055
2055
2055
2055
2055
2055
2055
2055
2055
2055
2055
2055
2055
2054
2053
2053
2052
2052
2052
2052
2052
2052
2051
2049
2048
2048
2048
2048
2048
2048
2048
2048
2048
2048
2049
2050
2051
2051
2052
2052
2052
2052
2053
2053
2053
2052
2052
2052
2052
2052
2052
2052
2051
2051
2050
2050
2050
2051
2051
2052
2052
2052
2052
2052
2052
2052
2051
2051
2052
2052
2053
2053
2052
2052
2051
2051
2050
2051
2051
2051
2051
2051
2050
2048
2048
2048
2048
2049
2050
2050
2050
2049
2049
2049
2048
2048
2048
2048
2048
2048
2048
2049
2048
2048
2048
2048
2048
2048
2048
2048
2048
2049
2048
2048
2048
2047
2047
2047
2048
2048
2049
2049
2050
2049
2049
2049
2050
2050
2050
2050
2049
2048
2048
2048
2048
2048
2049
2050
2051
2050
2049
2048
2048
2047
2047
2047
2048
2048
2048
2046
2047
2050
2057
2067
2074
2078
2073
2060
2043
2022
2002
1989
1985
1991
2005
2023
2038
2047
2050
2051
2050
2049
2049
2049
2049
2049
2049
2050
2051
2051
2052
2052
2052
2052
2051
2051
2050
2051
2052
2053
2053
2053
2053
2053
2052
2052
2052
2052
2052
2052
2053
2053
2053
2052
2051
2051
2051
2051
2052
2053
2054
2053
2052
2051
2049
2048
2048
2047
2047
2047
2048
2047
2047
2047
2048
2048
2050
2050
2051
2051
2051
2051
2051
2051
2050
2050
2050
2050
2050
2049
2048
2048
2049
2049
2050
2051
2051
2051
2050
2050
2051
2050
2050
2050
2049
2050
2050
2050
2050
2050
2050
2051
2051
2051
2051
2050
2050
2051
2051
2052
2052
2051
2051
2050
2049
2049
2049
2050
2050
2050
2050
2049
2048
2048
2048
2048
2048
2048
2048
2048
2048
2048
2048
2048
2048
2048
2048
2048
2048
2048
2048
2048
2047
2047
2047
2048
2048
2048
2048
2049
2049
2049
2049
2049
2049
2049
2049
2048
2049
2049
2050
2051
2051
2051
2050
2049
2049
2049
2050
2050
2050
2050
2050
2049
2049
2048
2048
2048
2048
2049
2049
2049
2049
2048
2046
2046
2048
2053
2063
2072
2078
2078
2068
2051
2031
2009
1992
1985
1988
2001
2018
2035
2045
2049
2050
2050
2049
2051
2052
2053
2054
2054
2053
2053
2052
2052
2051
2051
2052
2052
2053
2054
2054
2054
2054
2053
2053
2053
2054
2054
2054
2054
2054
2053
2053
2053
2053
2053
2053
2053
2053
2054
2054
2054
2053
2053
2052
2051
2050
2050
2050
2049
2049
2049
2048
2048
2048
2048
2049
2050
2051
2052
2051
2051
2051
2051
2052
2053
2054
2054
2053
2052
2052
2052
2053
2052
2052
2052
2052
2052
2051
2051
2051
2051
2051
2051
2051
2051
2052
2052
2053
2053
2053
2052
2051
2051
2051
2051
2051
2051
2051
2051
2051
2051
2051
2051
2051
2051
2051
2051
2052
2052
2052
2051
2051
2051
2050
2050
2050
2050
2050
2051
2050
2050
2050
2049
2049
2050
2050
2050
2051
2051
2050
2049
2049
2049
2049
2050
2050
2050
2050
2050
2049
2049
2049
2050
2049
2049
2049
2050
2051
2051
2052
2052
2051
2051
2050
2050
2050
2050
2050
2051
2052
2052
2051
2051
2051
2051
2051
2051
2051
2051
2050
2050
2049
2049
2049
2050
2050
2049
2049
2052
2059
2067
2075
2079
2077
2066
2049
2029
2009
1994
1989
1993
2006
2023
2038
2048
2052
2054
2054
2053
2053
2053
2053
2053
2054
2054
2055
2056
2056
2056
2055
2055
2054
2053
2053
2054
2055
2056
2057
2057
2057
2057
2056
2055
2055
2056
2057
2057
2058
2058
2057
2057
2056
2056
2056
2056
2056
2056
2056
2055
2054
2054
2053
2052
2052
2052
2052
2052
2052
2052
2053
2053
2054
2054
2055
2056
2057
2057
2058
2058
2057
2057
2056
2056
2057
2057
2057
2057
2056
2056
2055
2055
2055
2055
2056
2056
2057
2057
2057
2057
2057
2057
2056
2056
2055
2055
2055
2055
2056
2057
2058
2058
2057
2056
2055
2055
2055
2056
2056
2057
2056
2056
2055
2054
2054
2054
2054
2054
2054
2054
2054
2054
2054
2054
2054
2054
2054
2055
2055
2056
2056
2056
2055
2055
2055
2055
2056
2056
2056
2055
2054
2054
2053
2053
2054
2054
2055
2056
2056
2056
2055
2053
2052
2052
2053
2054
2054
2054
2054
2053
2052
2054
2059
2067
2076
2083
2084
2078
2064
2048
2029
2014
2005
2004
2011
2023
2037
2047
2052
2054
2054
2054
2053
2054
2055
2055
2055
2055
2056
2056
2057
2057
2056
2055
2054
2055
2055
2056
2056
2056
2055
2054
2054
2054
2054
2055
2055
2055
2055
2054
2054
2054
2054
2054
2053
2053
2052
2052
2052
2052
2052
2051
2050
2050
2050
2050
2050
2049
2048
2048
2048
2048
2048
2048
2049
2050
2051
2053
2053
2054
2054
2054
2054
2054
2053
2053
2053
2053
2053
2054
2054
2054
2054
2053
2054
2054
2054
2054
2053
2053
2052
2052
2052
2052
2053
2053
2053
2053
2053
2052
2052
2052
2052
2052
2052
2052
2052
2052
2052
2052
2052
2051
2051
2050
2050
2050
2050
2050
2050
2050
2050
2051
2050
2051
2051
2051
2051
2052
2052
2052
2052
2052
2051
2050
2050
2049
2049
2049
2049
2049
2049
2049
2049
2049
2049
2049
2049
2049
2049
2049
2048
2048
2048
2047
2046
2046
2048
2054
2063
2073
2079
2079
2069
2053
2034
2014
1998
1990
1992
2002
2017
2032
2043
2048
2049
2049
2048
2048
2050
2051
2052
2052
2052
2052
2051
2051
2051
2051
2051
2051
2051
2051
2051
2051
2051
2052
2052
2052
2052
2052
2052
2051
2051
2051
2051
2051
2052
2052
2053
2052
2051
2050
2049
2048
2048
2049
2049
2049
2048
2048
2048
2047
2046
2046
2045
2045
2046
2046
2047
2047
2047
2048
2048
2048
2048
2049
2049
2050
2050
2050
2050
2049
2049
2048
2048
2048
2048
2048
2048
2048
2047
2047
2047
2048
2048
2048
2049
2049
2049
2048
2048
2048
2047
2047
2048
2048
2048
2048
2048
2048
2048
2048
2048
2048
2048
2048
2048
2048
2048
2047
2048
2048
2048
2048
2048
2048
2048
2047
2047
2047
2047
2048
2048
2048
2048
2048
2049
2049
2048
2048
2048
2046
2046
2045
2046
2047
2047
2048
2048
2048
2048
2047
2046
2046
2045
2045
2046
2047
2048
2048
2047
2045
2044
2047
2052
2062
2071
2076
2074
2063
2046
2024
2001
1985
1979
1985
2000
2020
2037
2047
2050
2050
2048
2048
2048
2048
2049
2050
2050
2050
2050
2051
2050
2050
2050
2050
2050
2050
2050
2050
2050
2050
2050
2050
2050
2050
2051
2051
2051
2050
2051
2051
2050
2050
2050
2050
2051
2051
2051
2051
2050
2049
2048
2048
2048
2048
2048
2048
2047
2046
2046
2046
2046
2046
2046
2046
2047
2048
2049
2050
2051
2050
2050
2050
2050
2050
2050
2050
2050
2050
2049
2049
2049
2049
2049
2049
2050
2050
2050
2050
2049
2049
2048
2048
2048
2048
2049
2050
2050
2050
2050
2049
2049
2049
2049
2049
2049
2050
2050
2050
2049
2049
2048
2048
2048
2048
2049
2049
2050
2049
2048
2048
2048
2048
2048
2048
2049
2049
2048
2048
2048
2048
2048
2048
2048
2048
2048
2048
2048
2049
2049
2049
2049
2049
2050
2050
2051
2051
2050
2050
2049
2048
2048
2048
2048
2048
2049
2049
2049
2049
2048
2048
2048
2047
2047
2047
2048
2048
2048
2047
2048
2051
2059
2067
2074
2076
2069
2055
2037
2014
1995
1984
1984
1995
2012
2030
2043
2048
2050
2050
2050
2050
2051
2052
2052
2052
2052
2052
2052
2052
2051
2051
2050
2051
2051
2052
2052
2052
2052
2051
2051
2051
2051
2051
2052
2053
2053
2053
2053
2052
2052
2052
2052
2052
2051
2051
2050
2051
2051
2051
2051
2050
2050
2049
2049
2048
2048
2048
2048
2048
2048
2048
2048
2048
2049
2050
2052
2053
2055
2055
2054
2053
2052
2051
2051
2051
2051
2051
2051
2051
2051
2051
2052
2053
2053
2053
2053
2053
2053
2053
2052
2052
2051
2051
2051
2051
2052
2052
2053
2053
2054
2054
2054
2054
2054
2054
2054
2054
2053
2053
2053
2053
2052
2052
2051
2051
2052
2052
2053
2054
2054
2054
2053
2053
2054
2054
2055
2055
2054
2053
2052
2052
2052
2051
2051
2051
2051
2053
2054
2054
2053
2051
2050
2049
2049
2050
2051
2051
2052
2051
2051
2053
2059
2068
2076
2082
2081
2073
2059
2042
2024
2009
2001
2002
2011
2025
2039
2049
2054
2054
2053
2051
2050
2052
2055
2057
2058
2057
2056
2056
2056
2056
2055
2055
2053
2053
2053
2053
2055
2056
2056
2056
2055
2054
2054
2054
2055
2056
2056
2055
2055
2055
2055
2055
2055
2054
2053
2052
2052
2052
2051
2051
2051
2050
2050
2049
2049
2049
2048
2048
2048
2048
2049
2050
2051
2053
2055
2056
2057
2057
2057
2056
2056
2056
2056
2056
2056
2056
2057
2057
2057
2056
2056
2056
2056
2056
2056
2056
2056
2055
2055
2054
2053
2053
2054
2055
2056
2057
2057
2056
2055
2054
2054
2054
2054
2053
2053
2053
2052
2052
2051
2051
2052
2052
2053
2054
2054
2054
2054
2054
2053
2052
2051
2051
2050
2050
2050
2050
2050
2050
2049
2049
2049
2049
2050
2050
2050
2050
2048
2048
2048
2048
2048
2048
2049
2049
2049
2048
2049
2054
2063
2072
2079
2080
2073
2060
2043
2024
2008
1997
1995
2001
2012
2026
2038
2046
2049
2051
2051
2050
2050
2050
2050
2050
2050
2051
2051
2052
2051
2050
2049
2048
2048
2049
2050
2050
2050
2050
2050
2050
2050
2050
2050
2050
2050
2050
2050
2050
2049
2049
2049
2049
2049
2048
2048
2048
2048
2047
2047
2047
2047
2046
2044
2043
2042
2042
2043
2043
2044
2044
2044
2044
2045
2046
2047
2048
2049
2049
2050
2050
2049
2049
2048
2048
2048
2048
2048
2049
2049
2049
2049
2049
2048
2048
2048
2048
2048
2048
2049
2048
2048
2048
2047
2047
2047
2048
2048
2048
2049
2049
2049
2048
2048
2048
2047
2048
2048
2048
2048
2047
2047
2047
2047
2047
2047
2047
2048
2048
2048
2048
2048
2047
2046
2046
2045
2045
2045
2044
2044
2045
2045
2046
2045
2045
2043
2043
2042
2043
2044
2045
2046
2046
2045
2045
2043
2042
2042
2045
2051
2061
2070
2075
2072
2061
2044
2023
2002
1987
1982
1986
1999
2015
2031
2042
2047
2048
2047
2047
2047
2048
2048
2048
2048
2048
2048
2048
2048
2048
2048
2048
2048
2048
2048
2048
2048
2048
2048
2048
2048
2048
2048
2048
2048
2048
2048
2049
2049
2050
2050
2049
2048
2048
2047
2046
2045
2045
2046
2047
2047
2047
2046
2044
2043
2043
2043
2043
2043
2044
2044
2045
2045
2046
2047
2048
2049
2049
2050
2050
2049
2048
2048
2048
2048
2048
2048
2048
2048
2048
2048
2048
2048
2047
2047
2047
2047
2047
2047
2047
2047
2047
2047
2048
2048
2049
2049
2049
2049
2049
2049
2049
2049
2049
2048
2048
2048
2049
2049
2050
2050
2050
2050
2050
2049
2049
2048
2048
2048
2049
2050
2050
2049
2048
2048
2048
2048
2049
2050
2051
2051
2051
2051
2050
2049
2049
2049
2050
2050
2051
2052
2052
2052
2051
2050
2050
2050
2051
2052
2053
2052
2051
2051
2050
2050
2051
2051
2051
2050
2049
2048
2048
2048
2049
2050
2051
2051
2050
2049
2052
2058
2068
2077
2083
2081
2070
2053
2033
2012
1996
1990
1994
2006
2024
2039
2049
2053
2054
2053
2053
2053
2054
2055
2056
2056
2056
2056
2056
2056
2056
2056
2056
2056
2056
2056
2056
2056
2056
2057
2057
2057
2056
2056
2056
2056
2057
2057
2056
2055
2054
2054
2055
2056
2057
2058
2058
2057
2057
2057
2057
2056
2054
2053
2051
2050
2050
2051
2051
2052
2053
2053
2054
2054
2055
2055
2056
2057
2058
2059
2059
2059
2058
2058
2058
2059
2059
2059
2059
2058
2057
2057
2057
2058
2059
2060
2060
2059
2059
2059
2059
2059
2059
2058
2058
2058
2059
2060
2060
2060
2059
2059
2059
2060
2060
2060
2059
2059
2060
2061
2062
2063
2063
2063
2062
2061
2060
2060
2060
2060
2060
2061
2061
2062
2063
2063
2062
2061
2061
2061
2063
2063
2063
2062
2060
2059
2058
2059
2060
2061
2062
2063
2063
2063
2063
2062
2061
2060
2059
2059
2059
2060
2060
2061
2060
2059
2058
2058
2061
2070
2080
2090
2094
2090
2077
2058
2039
2020
2006
1999
2002
2013
2029
2045
2055
2060
2061
2060
2060
2060
2061
2061
2061
2060
2059
2059
2059
2060
2060
2061
2061
2061
2061
2061
2060
2060
2060
2060
2060
2060
2059
2059
2059
2059
2059
2059
2059
2059
2060
2060
2059
2059
2058
2057
2057
2056
2056
2056
2055
2055
2055
2054
2053
2052
2051
2050
2050
2050
2051
2052
2052
2053
2054
2054
2054
2054
2054
2054
2055
2056
2056
2056
2056
2055
2055
2053
2052
2052
2052
2052
2053
2054
2054
2053
2052
2052
2052
2052
2052
2053
2053
2053
2052
2052
2052
2051
2051
2051
2052
2052
2053
2053
2053
2052
2051
2050
2050
2050
2051
2051
2051
2051
2051
2050
2049
2049
2049
2049
2049
2049
2048
2048
2048
2048
2048
2048
2048
2047
2048
2048
2049
2049
2049
2049
2049
2048
2048
2047
2047
2047
2048
2048
2048
2048
2048
2047
2047
2047
2048
2048
2048
2047
2045
2044
2044
2044
2045
2046
2046
2044
2043
2044
2049
2058
2067
2073
2073
2064
2049
2030
2011
1993
1983
1983
1991
2006
2022
2036
2044
2047
2047
2046
2045
2045
2046
2046
2046
2047
2047
2048
2048
2048
2048
2048
2047
2047
2047
2047
2047
2048
2048
2048
2048
2048
2047
2046
2047
2047
2048
2048
2048
2048
2048
2048
2048
2048
2048
2047
2047
2047
2047
2047
2047
2046
2045
2044
2043
2043
2044
2044
2044
2043
2043
2043
2044
2045
2045
2045
2045
2045
2046
2046
2048
2048
2048
2048
2048
2048
2047
2047
2046
2046
2046
2045
2045
2044
2044
2044
2045
2046
2046
2046
2045
2045
2045
2046
2046
2046
2046
2046
2046
2047
2047
2047
2046
2046
2046
2046
2046
2047
2047
2047
2047
2046
2045
2045
2045
2046
2047
2047
2047
2046
2045
2044
2044
2044
2045
2046
2046
2046
2046
2046
2046
2046
2046
2046
2045
2045
2045
2045
2045
2045
2046
2046
2046
2046
2045
2045
2045
2046
2046
2046
2047
2047
2046
2045
2045
2044
2044
2045
2046
2047
2047
2046
2046
2045
2045
2045
2045
2046
2046
2047
2048
2047
2047
2046
2045
2045
2046
2047
2048
2049
2049
2049
2048
2048
2047
2046
2046
2046
2047
2047
2048
2048
2047
2047
2046
2046
2046
2046
2046
2046
2045
2045
2045
2045
2045
2045
2045
2048
2055
2064
2073
2076
2071
2057
2038
2016
1995
1981
1977
1983
1998
2017
2034
2045
2048
2049
2048
2048
2048
2049
2049
2049
2049
2049
2049
2050
2050
2050
2050
2050
2050
2049
2049
2049
2050
2050
2050
2051
2052
2052
2052
2051
2051
2051
2050
2051
2051
2052
2053
2053
2052
2051
2050
2049
2050
2050
2051
2050
2050
2049
2048
2048
2048
2048
2048
2047
2047
2048
2048
2048
2049
2049
2049
2048
2049
2049
2050
2051
2052
2052
2052
2051
2051
2050
2050
2050
2050
2050
2050
2050
2050
2050
2049
2049
2049
2049
2049
2049
2050
2050
2049
2049
2049
2049
2049
2050
2050
2050
2050
2050
2050
2050
2049
2048
2048
2048
2048
2049
2049
2049
2048
2048
2048
2047
2047
2047
2048
2048
2048
2049
2049
2048
2048
2047
2047
2048
2048
2048
2048
2047
2047
2047
2047
2048
2048
2048
2048
2048
2048
2048
2048
2048
2048
2047
2047
2047
2048
2048
2048
2048
2048
2047
2047
2047
2047
2047
2047
2047
2048
2048
2048
2048
2048
2047
2047
2047
2047
2048
2048
2049
2049
2049
2049
2049
2049
2050
2050
2050
2050
2049
2048
2048
2048
2048
2048
2047
2047
2048
2048
2048
2048
2048
2048
2047
2046
2046
2047
2047
2047
2047
2046
2048
2052
2060
2069
2075
2076
2068
2052
2032
2009
1990
1981
1982
1993
2011
2030
2043
2049
2051
2051
2051
2050
2050
2050
2051
2051
2052
2052
2052
2052
2052
2052
2051
2051
2051
2052
2052
2053
2053
2053
2053
2052
2051
2051
2052
2052
2052
2053
2054
2054
2055
2055
2054
2053
2052
2052
2053
2053
2053
2053
2053
2052
2051
2050
2050
2050
2050
2050
2049
2049
2048
2048
2048
2049
2050
2050
2051
2052
2053
2053
2053
2053
2052
2052
2052
2052
2052
2052
2052
2051
2050
2050
2051
2051
2052
2052
2052
2052
2052
2052
2051
2051
2051
2051
2051
2051
2051
2052
2052
2053
2053
2053
2052
2051
2051
2051
2051
2052
2052
2052
2051
2051
2050
2051
2051
2051
2051
2050
2050
2050
2051
2051
2050
2049
2049
2049
2049
2050
2050
2050
2050
2050
2050
2049
2049
2049
2049
2050
2050
2051
2051
2050
2049
2048
2048
2048
2049
2049
2049
2049
2049
2049
2049
2049
2049
2049
2049
2050
2051
2051
2051
2050
2050
2050
2051
2051
2051
2051
2050
2050
2050
2050
2050
2050
2050
2050
2051
2051
2051
2050
2049
2049
2048
2048
2049
2049
2049
2048
2048
2049
2054
2062
2071
2078
2079
2073
2059
2041
2019
2000
1989
1987
1996
2012
2029
2043
2050
2053
2053
2052
2051
2051
2051
2051
2052
2052
2053
2054
2054
2054
2054
2054
2053
2052
2052
2052
2053
2053
2054
2054
2053
2053
2053
2054
2054
2054
2054
2053
2053
2054
2054
2055
2055
2054
2053
2053
2052
2052
2052
2052
2052
2052
2050
2049
2048
2048
2048
2049
2049
2049
2048
2048
2048
2048
2049
2049
2050
2051
2052
2053
2054
2054
2053
2053
2052
2052
2052
2053
2053
2053
2052
2052
2051
2051
2051
2051
2052
2052
2052
2052
2051
2051
2051
2052
2053
2053
2053
2052
2052
2052
2052
2052
2051
2051
2051
2050
2050
2051
2051
2051
2051
2050
2050
2049
2049
2050
2051
2052
2052
2051
2051
2050
2049
2048
2048
2048
2049
2050
2050
2050
2050
2049
2049
2049
2049
2049
2050
2050
2050
2050
2049
2049
2049
2049
2049
2050
2050
2050
2051
2051
2051
2051
2051
2050
2049
2049
2050
2051
2051
2052
2051
2049
2048
2048
2048
2049
2049
2049
2049
2048
2048
2048
2048
2048
2048
2048
2051
2059
2068
2076
2079
2075
2062
2044
2022
2002
1988
1984
1991
2006
2023
2039
2048
2051
2051
2051
2051
2051
2052
2052
2053
2053
2053
2054
2054
2054
2053
2053
2052
2052
2052
2053
2053
2053
2053
2053
2053
2053
2053
2053
2053
2053
2052
2052
2052
2053
2053
2054
2054
2054
2053
2052
2051
2051
2051
2052
2053
2053
2053
2052
2051
2049
2048
2048
2048
2048
2048
2049
2049
2049
2050
2050
2051
2052
2053
2053
2054
2054
2053
2053
2053
2052
2052
2051
2051
2052
2052
2052
2052
2051
2051
2051
2051
2051
2052
2052
2052
2052
2052
2052
2052
2052
2052
2052
2051
2051
2051
2051
2052
2052
2052
2051
2050
2050
2050
2050
2050
2050
2050
2049
2049
2050
2050
2050
2049
2049
2049
2050
2051
2051
2051
2049
2048
2048
2048
2048
2049
2049
2049
2049
2048
2048
2048
2048
2048
2048
2048
2049
2049
2049
2049
2049
2049
2049
2049
2050
2051
2051
2050
2049
2049
2048
2048
2049
2049
2050
2050
2049
2049
2049
2049
2048
2048
2048
2048
2048
2048
2049
2048
2048
2048
2051
2058
2067
2075
2078
2073
2059
2039
2017
1997
1986
1986
1996
2012
2029
2043
2049
2052
2052
2051
2050
2050
2051
2051
2052
2053
2054
2054
2053
2052
2052
2052
2052
2053
2053
2053
2054
2054
2054
2054
2053
2053
2053
2052
2052
2053
2053
2054
2054
2054
2054
2053
2053
2052
2052
2052
2053
2053
2053
2052
2051
2050
2049
2049
2049
2049
2048
2048
2048
2048
2048
2048
2048
2049
2050
2051
2052
2052
2053
2053
2053
2053
2053
2053
2053
2053
2053
2053
2053
2053
2053
2052
2052
2051
2051
2051
2051
2051
2051
2052
2052
2052
2052
2052
2052
2052
2052
2052
2052
2052
2052
2051
2050
2049
2049
2050
2051
2052
2052
2052
2051
2050
2049
2049
2049
2050
2050
2051
2050
2050
2049
2049
2049
2049
2050
2050
2050
2049
2048
2048
2048
2048
2048
2048
2048
2049
2049
2050
2050
2050
2049
2049
2050
2050
2051
2051
2051
2050
2050
2049
2049
2048
2049
2049
2049
2050
2050
2050
2050
2049
2049
2048
2048
2048
2048
2049
2049
2048
2048
2048
2052
2060
2070
2077
2080
2075
2061
2043
2021
2003
1991
1990
1997
2012
2028
2042
2049
2052
2052
2051
2050
2050
2051
2051
2052
2052
2052
2052
2052
2052
2052
2052
2052
2051
2051
2052
2052
2053
2053
2053
2053
2052
2052
2052
2053
2053
2054
2054
2054
2053
2053
2053
2053
2053
2053
2053
2052
2052
2051
2051
2050
2050
2050
2049
2049
2049
2049
2048
2048
2048
2048
2048
2048
2048
2049
2050
2051
2052
2052
2052
2052
2052
2052
2051
2051
2052
2052
2052
2052
2052
2051
2050
2050
2050
2050
2051
2051
2052
2052
2052
2052
2051
2051
2050
2050
2050
2051
2051
2052
2052
2052
2051
2050
2049
2049
2050
2051
2052
2051
2051
2050
2049
2048
2048
2048
2049
2049
2049
2049
2049
2049
2049
2049
2049
2049
2049
2049
2049
2049
2049
2048
2048
2048
2048
2048
2049
2050
2051
2051
2051
2050
2049
2049
2049
2049
2049
2049
2049
2049
2049
2049
2049
2049
2048
2048
2048
2048
2048
2048
2048
2048
2048
2048
2048
2048
2048
2049
2055
2063
2071
2077
2076
2067
2051
2033
2013
1997
1989
1992
2002
2017
2032
2043
2048
2050
2051
2051
2051
2051
2051
2051
2051
2052
2052
2052
2052
2052
2052
2052
2052
2052
2052
2052
2052
2052
2052
2052
2053
2053
2053
2053
2052
2052
2052
2053
2053
2053
2054
2054
2053
2053
2052
2052
2051
2051
2051
2051
2051
2050
2049
2048
2048
2048
2048
2048
2048
2048
2048
2048
2048
2048
2049
2049
2050
2050
2051
2052
2053
2053
2053
2053
2052
2051
2051
2051
2051
2051
2051
2051
2051
2050
2049
2049
2050
2050
2051
2052
2052
2052
2052
2052
2052
2051
2051
2051
2051
2051
2051
2051
2051
2050
2049
2049
2049
2049
2050
2050
2049
2049
2049
2049
2049
2049
2049
2049
2049
2049
2050
2050
2050
2049
2049
2048
2048
2048
2048
2049
2049
2049
2049
2049
2049
2050
2050
2050
2050
2050
2051
2051
2051
2051
2050
2049
2048
2048
2049
2049
2050
2051
2050
2049
2048
2048
2048
2048
2048
2048
2048
2048
2048
2047
2046
2047
2050
2057
2067
2075
2079
2075
2062
2043
2021
2001
1988
1986
1994
2009
2026
2040
2048
2050
2050
2050
2049
2050
2051
2052
2052
2052
2052
2052
2052
2053
2053
2053
2053
2053
2053
2053
2053
2053
2052
2052
2052
2053
2054
2054
2055
2055
2054
2053
2053
2053
2053
2054
2054
2054
2054
2053
2052
2052
2051
2051
2051
2051
2050
2050
2049
2049
2048
2048
2048
2048
2048
2048
2048
2050
2051
2052
2053
2053
2052
2052
2052
2052
2052
2053
2053
2054
2053
2053
2052
2052
2051
2051
2052
2052
2053
2053
2052
2052
2051
2051
2051
2052
2053
2053
2052
2052
2052
2052
2051
2051
2051
2050
2050
2050
2051
2052
2052
2051
2050
2049
2049
2050
2051
2051
2051
2050
2049
2049
2048
2048
2049
2049
2050
2050
2050
2049
2049
2049
2048
2048
2048
2049
2049
2049
2050
2050
2050
2049
2049
2049
2049
2050
2051
2052
2052
2051
2050
2049
2049
2049
2049
2049
2049
2049
2049
2049
2049
2049
2048
2048
2048
2048
2049
2049
2048
2048
2048
2048
2053
2061
2070
2076
2078
2070
2055
2036
2014
1996
1987
1989
2000
2017
2034
2046
2050
2051
2051
2050
2050
2051
2052
2053
2054
2054
2054
2054
2054
2053
2053
2053
2053
2054
2054
2054
2054
2053
2053
2053
2053
2054
2054
2054
2054
2054
2054
2054
2054
2055
2055
2055
2055
2054
2053
2053
2053
2052
2052
2051
2051
2050
2049
2049
2049
2049
2049
2049
2049
2048
2048
2048
2049
2050
2051
2051
2052
2052
2053
2053
2052
2052
2052
2052
2052
2052
2053
2053
2053
2052
2052
2052
2052
2052
2052
2052
2052
2052
2052
2052
2053
2053
2052
2052
2052
2052
2053
2053
2053
2053
2052
2052
2052
2052
2052
2052
2052
2052
2051
2051
2051
2051
2051
2051
2051
2051
2051
2051
2052
2051
2051
2050
2049
2049
2049
2050
2050
2051
2051
2050
2049
2049
2049
2049
2050
2051
2051
2051
2050
2050
2050
2050
2051
2051
2052
2052
2053
2052
2051
2050
2049
2049
2049
2050
2050
2051
2051
2051
2050
2050
2049
2049
2048
2048
2049
2049
2049
2049
2048
2048
2050
2056
2064
2074
2080
2079
2070
2053
2033
2011
1995
1989
1993
2005
2022
2037
2048
2052
2053
2052
2051
2051
2052
2053
2054
2054
2054
2054
2053
2052
2052
2052
2052
2052
2053
2053
2054
2054
2054
2054
2053
2053
2053
2052
2053
2053
2053
2054
2054
2055
2054
2054
2053
2053
2053
2053
2053
2053
2052
2052
2051
2050
2049
2049
2049
2048
2049
2048
2048
2048
2048
2048
2048
2049
2050
2051
2051
2052
2052
2053
2053
2053
2053
2053
2054
2054
2054
2053
2053
2052
2052
2052
2051
2052
2052
2053
2053
2052
2052
2051
2051
2052
2052
2053
2054
2054
2054
2053
2052
2052
2052
2052
2052
2052
2052
2052
2052
2053
2053
2053
2052
2051
2051
2051
2052
2052
2052
2052
2051
2051
2050
2050
2050
2050
2050
2051
2051
2050
2050
2050
2050
2050
2050
2050
2050
2050
2051
2051
2051
2051
2050
2050
2050
2050
2051
2051
2051
2052
2052
2053
2053
2052
2052
2051
2051
2052
2052
2052
2052
2051
2050
2050
2050
2050
2051
2051
2051
2051
2051
2051
2052
2052
2052
2052
2050
2051
2054
2062
2071
2078
2081
2076
2063
2045
2024
2006
1995
1994
2002
2017
2034
2048
2056
2058
2059
2060
2061
2063
2064
2064
2062
2059
2058
2058
2059
2060
2061
2062
2063
2065
2066
2066
2066
2066
2066
2066
2067
2068
2068
2067
2067
2067
2067
2067
2068
2069
2069
2068
2068
2067
2067
2067
2067
2067
2066
2064
2062
2062
2062
2062
2062
2062
2061
2060
2060
2061
2061
2062
2062
2062
2061
2061
2061
2061
2062
2062
2063
2063
2063
2062
2061
2060
2060
2059
2060
2060
2061
2060
2060
2059
2058
2058
2057
2057
2056
2056
2056
2056
2056
2056
2056
2056
2056
2057
2058
2058
2057
2056
2055
2055
2055
2055
2055
2055
2054
2054
2054
2054
2054
2053
2052
2052
2053
2054
2055
2055
2055
2053
2052
2052
2051
2052
2052
2052
2052
2052
2052
2052
2052
2052
2052
2052
2053
2053
2053
2053
2053
2053
2053
2052
2052
2052
2053
2053
2053
2054
2053
2053
2053
2052
2052
2051
2051
2052
2053
2053
2053
2053
2051
2049
2048
2048
2048
2048
2049
2050
2051
2051
2049
2048
2049
2054
2062
2071
2078
2078
2071
2055
2037
2017
2000
1992
1994
2003
2018
2033
2045
2050
2051
2051
2049
2048
2048
2049
2049
2050
2049
2049
2048
2048
2048
2048
2048
2048
2048
2048
2049
2049
2050
2050
2050
2050
2049
2049
2049
2048
2048
2048
2048
2048
2047
2046
2047
2048
2048
2048
2048
2047
2046
2046
2045
2044
2043
2042
2041
2042
2042
2043
2042
2041
2039
2039
2040
2041
2044
2046
2047
2047
2047
2047
2046
2046
2046
2046
2047
2046
2046
2045
2044
2044
2044
2045
2046
2046
2046
2046
2045
2045
2044
2044
2044
2044
2044
2044
2045
2045
2045
2045
2045
2044
2044
2044
2045
2045
2045
2045
2045
2045
2045
2045
2044
2043
2043
2043
2044
2044
2045
2045
2044
2044
2043
2043
2044
2044
2044
2044
2044
2044
2044
2043
2043
2043
2044
2044
2044
2044
2044
2044
2043
2043
2044
2044
2045
2045
2046
2046
2046
2047
2047
2047
2045
2044
2043
2043
2044
2045
2046
2047
2046
2045
2044
2044
2044
2044
2044
2044
2044
2044
2044
2044
2042
2041
2043
2048
2055
2064
2072
2074
2068
2054
2036
2015
1996
1985
1985
1995
2010
2026
2039
2045
2047
2048
2047
2046
2047
2047
2048
2048
2049
2049
2049
2049
2049
2049
2049
2049
2049
2049
2049
2050
2049
2049
2050
2050
2051
2051
2051
2050
2049
2049
2049
2049
2050
2050
2050
2050
2050
2050
2050
2050
2049
2048
2048
2048
2048
2048
2048
2048
2047
2046
2045
2045
2045
2046
2047
2048
2048
2049
2049
2049
2049
2049
2049
2049
2049
2049
2049
2049
2049
2050
2050
2050
2050
2050
2049
2049
2050
2050
2050
2049
2049
2049
2049
2050
2050
2051
2051
2050
2050
2049
2049
2049
2049
2049
2049
2049
2049
2050
2050
2050
2050
2050
2050
2050
2050
2050
2050
2050
2049
2048
2048
2048
2048
2048
2048
2049
2049
2049
2049
2048
2048
2048
2048
2048
2048
2048
2048
2048
2048
2048
2048
2048
2047
2047
2048
2048
2050
2051
2051
2051
2050
2050
2050
2049
2049
2049
2049
2049
2049
2049
2049
2049
2049
2049
2049
2049
2049
2048
2048
2048
2048
2048
2048
2047
2047
2050
2057
2066
2074
2079
2077
2068
2051
2032
2012
1997
1992
1997
2010
2025
2039
2048
2051
2052
2050
2049
2049
2050
2051
2052
2052
2052
2051
2051
2052
2053
2054
2054
2053
2051
2049
2048
2046
2046
2047
2048
2051
2055
2056
2056
2055
2054
2055
2056
2057
2057
2055
2054
2055
2058
2061
2062
2061
2059
2057
2055
2053
2052
2051
2053
2055
2058
2060
2061
2060
2060
2060
2060
2061
2061
2061
2061
2062
2061
2062
2063
2066
2070
2074
2078
2082
2087
2091
2097
2103
2108
2112
2114
2115
2119
2125
2133
2141
2146
2148
2149
2150
2152
2154
2155
2155
2154
2154
2155
2156
2157
2157
2155
2151
2147
2142
2136
2130
2125
2121
2116
2111
2105
2100
2096
2094
2093
2091
2089
2087
2085
2083
2081
2078
2074
2070
2067
2065
2063
2062
2060
2060
2060
2061
2060
2059
2056
2052
2050
2050
2050
2050
2050
2048
2048
2046
2045
2044
2045
2046
2047
2047
2046
2044
2043
2041
2040
2039
2038
2038
2038
2038
2038
2037
2036
2034
2037
2043
2050
2059
2064
2062
2052
2036
2016
1996
1983
1978
1983
1995
2010
2023
2031
2035
2035
2034
2034
2033
2033
2034
2033
2034
2035
2037
2038
2038
2037
2036
2035
2035
2035
2035
2033
2031
2030
2030
2032
2034
2035
2035
2033
2033
2033
2034
2037
2038
2037
2036
2034
2034
2034
2036
2037
2037
2036
2034
2032
2031
2031
2031
2033
2035
2037
2038
2038
2038
2037
2038
2039
2041
2041
2042
2043
2044
2046
2047
2047
2045
2044
2044
2046
2048
2048
2048
2048
2047
2047
2048
2050
2051
2052
2052
2052
2051
2051
2051
2051
2051
2050
2048
2048
2049
2050
2051
2051
2050
2049
2048
2048
2049
2049
2049
2049
2049
2049
2048
2048
2048
2047
2045
2043
2043
2044
2046
2047
2047
2045
2044
2044
2044
2045
2046
2046
2045
2045
2044
2043
2043
2043
2043
2042
2042
2042
2043
2043
2043
2043
2043
2043
2043
2042
2042
2042
2042
2043
2043
2043
2043
2043
2043
2043
2043
2043
2043
2043
2043
2042
2041
2041
2040
2041
2041
2042
2042
2042
2040
2038
2038
2042
2049
2058
2065
2067
2061
2048
2029
2009
1991
1981
1982
1992
2007
2023
2033
2038
2039
2039
2040
2040
2041
2042
2041
2040
2039
2039
2039
2039
2039
2039
2040
2041
2042
2041
2039
2037
2036
2036
2038
2040
2040
2039
2037
2036
2036
2036
2037
2039
2041
2045
2047
2048
2046
2044
2041
2042
2044
2047
2048
2046
2043
2040
2039
2040
2041
2043
2042
2043
2043
2043
2042
2042
2043
2045
2048
2049
2051
2050
2050
2051
2052
2053
2054
2055
2055
2055
2054
2054
2054
2054
2055
2055
2054
2053
2051
2050
2051
2053
2054
2055
2056
2055
2056
2055
2057
2057
2058
2058
2058
2057
2056
2056
2056
2056
2055
2055
2055
2054
2055
2055
2057
2057
2057
2056
2054
2052
2051
2052
2053
2055
2055
2056
2056
2055
2054
2053
2052
2051
2050
2051
2053
2053
2054
2053
2051
2049
2049
2048
2048
2048
2048
2048
2050
2053
2055
2055
2053
2050
2048
2048
2048
2049
2050
2051
2052
2051
2050
2049
2050
2054
2062
2071
2079
2082
2078
2063
2044
2022
2005
1997
2000
2011
2027
2041
2049
2052
2053
2052
2052
2052
2053
2055
2057
2058
2059
2059
2058
2057
2055
2052
2052
2053
2055
2056
2057
2057
2057
2057
2057
2057
2057
2056
2056
2055
2055
2054
2053
2052
2053
2053
2054
2053
2051
2049
2049
2052
2054
2055
2054
2052
2050
2049
2051
2051
2051
2049
2048
2048
2048
2048
2049
2050
2052
2053
2053
2052
2051
2050
2050
2051
2052
2054
2055
2055
2054
2053
2051
2052
2054
2057
2058
2057
2055
2053
2053
2054
2055
2056
2056
2055
2054
2052
2052
2050
2050
2051
2052
2054
2055
2055
2055
2055
2055
2055
2055
2053
2051
2050
2050
2051
2053
2055
2057
2056
2055
2053
2051
2050
2051
2052
2053
2054
2055
2054
2055
2055
2055
2054
2054
2054
2054
2053
2053
2051
2051
2051
2052
2053
2053
2054
2055
2055
2055
2054
2053
2053
2053
2054
2054
2055
2055
2055
2054
2054
2059
2066
2074
2081
2081
2072
2056
2037
2018
2006
2002
2009
2022
2037
2048
2054
2056
2055
2054
2053
2053
2053
2054
2055
2057
2058
2059
2059
2058
2057
2056
2056
2056
2057
2057
2057
2057
2057
2057
2057
2057
2056
2055
2055
2056
2057
2058
2058
2058
2058
2056
2055
2054
2053
2053
2054
2054
2053
2052
2051
2049
2049
2049
2049
2049
2048
2048
2047
2047
2048
2050
2052
2053
2054
2054
2054
2054
2054
2055
2055
2055
2054
2054
2054
2055
2057
2058
2058
2058
2056
2055
2055
2054
2055
2055
2057
2057
2058
2058
2057
2056
2055
2054
2055
2056
2057
2059
2059
2059
2058
2056
2055
2055
2055
2056
2058
2059
2060
2060
2059
2058
2058
2057
2056
2055
2055
2055
2056
2056
2056
2055
2055
2056
2058
2059
2059
2059
2058
2057
2057
2057
2056
2056
2054
2053
2053
2053
2053
2054
2055
2055
2055
2054
2053
2053
2053
2054
2053
2053
2052
2051
2050
2049
2050
2054
2061
2068
2075
2078
2074
2063
2047
2026
2008
1998
1998
2006
2020
2035
2046
2050
2052
2052
2052
2052
2052
2053
2053
2052
2051
2050
2051
2052
2053
2054
2054
2053
2052
2051
2050
2050
2049
2049
2049
2049
2049
2050
2049
2049
2048
2048
2048
2048
2048
2048
2048
2048
2048
2048
2047
2047
2046
2045
2044
2043
2043
2043
2044
2044
2043
2042
2041
2039
2039
2039
2041
2043
2044
2045
2046
2046
2046
2046
2046
2047
2047
2047
2047
2046
2046
2046
2046
2046
2046
2045
2044
2044
2043
2043
2043
2042
2042
2042
2043
2043
2044
2045
2045
2045
2045
2044
2044
2044
2044
2043
2043
2043
2043
2043
2043
2042
2042
2041
2041
2042
2042
2043
2044
2044
2044
2043
2043
2042
2042
2041
2041
2040
2040
2040
2040
2040
2039
2039
2039
2040
2042
2044
2044
2043
2042
2040
2039
2038
2039
2039
2040
2041
2041
2040
2039
2042
2048
2056
2064
2069
2068
2060
2048
2032
2015
2003
1997
1998
2006
2017
2029
2036
2041
2043
2043
2043
2042
2043
2044
2045
2046
2047
2047
2046
2045
2044
2044
2045
2046
2047
2048
2048
2048
2047
2047
2047
2047
2046
2045
2044
2045
2046
2048
2049
2050
2049
2048
2048
2047
2047
2047
2048
2047
2046
2045
2044
2042
2041
2040
2040
2040
2040
2041
2042
2043
2043
2043
2043
2044
2044
2045
2046
2047
2047
2048
2048
2048
2049
2049
2048
2048
2048
2048
2049
2049
2049
2048
2048
2048
2048
2048
2048
2048
2048
2047
2047
2046
2046
2047
2048
2048
2048
2048
2048
2048
2048
2047
2046
2046
2046
2047
2048
2048
2048
2048
2048
2048
2048
2048
2048
2048
2048
2048
2048
2047
2046
2045
2045
2045
2046
2046
2046
2046
2047
2047
2047
2047
2047
2047
2046
2046
2046
2046
2046
2047
2047
2047
2046
2046
2048
2055
2064
2073
2078
2076
2066
2050
2031
2012
1998
1992
1996
2007
2022
2035
2044
2048
2049
2049
2048
2048
2049
2049
2051
2051
2051
2050
2050
2049
2049
2048
2048
2048
2050
2051
2051
2051
2049
2048
2048
2048
2049
2051
2051
2051
2051
2051
2050
2050
2049
2048
2048
2049
2049
2049
2048
2047
2046
2045
2046
2046
2047
2046
2046
2044
2043
2043
2042
2042
2042
2044
2045
2046
2047
2048
2048
2048
2048
2048
2049
2049
2050
2050
2050
2049
2049
2048
2048
2048
2048
2048
2049
2049
2049
2049
2049
2048
2048
2048
2048
2049
2049
2050
2050
2050
2050
2049
2049
2048
2048
2048
2048
2049
2049
2049
2049
2049
2049
2048
2048
2048
2049
2050
2051
2051
2052
2051
2050
2049
2048
2047
2046
2046
2046
2046
2047
2047
2047
2047
2047
2047
2047
2047
2047
2046
2046
2046
2046
2046
2046
2045
2045
2047
2051
2059
2068
2074
2075
2068
2053
2035
2015
2000
1992
1994
2004
2018
2032
2041
2046
2048
2048
2048
2048
2049
2049
2049
2049
2049
2050
2050
2050
2050
2050
2050
2049
2049
2049
2050
2051
2052
2053
2053
2052
2051
2051
2050
2050
2051
2051
2051
2050
2050
2050
2050
2050
2050
2049
2048
2048
2048
2048
2048
2048
2048
2047
2046
2044
2044
2044
2044
2045
2045
2046
2046
2047
2048
2048
2050
2050
2051
2051
2051
2051
2050
2050
2051
2051
2051
2050
2050
2050
2050
2050
2050
2051
2050
2050
2049
2049
2049
2050
2051
2051
2050
2049
2048
2048
2048
2048
2048
2047
2047
2047
2047
2048
2048
2048
2048
2049
2050
2051
2051
2050
2049
2049
2048
2048
2048
2048
2048
2049
2049
2048
2047
2046
2045
2044
2044
2044
2045
2046
2048
2049
2050
2050
2049
2048
2046
2045
2045
2045
2046
2046
2046
2045
2043
2042
2044
2050
2061
2071
2078
2078
2070
2055
2037
2017
2001
1993
1994
2002
2016
2029
2040
2045
2047
2047
2047
2047
2048
2048
2048
2048
2048
2048
2048
2049
2049
2049
2049
2048
2049
2049
2049
2049
2049
2048
2048
2048
2048
2048
2049
2049
2049
2049
2049
2049
2048
2049
2049
2049
2048
2048
2048
2047
2046
2046
2045
2045
2045
2045
2043
2042
2042
2042
2043
2044
2045
2045
2046
2046
2047
2048
2048
2049
2050
2050
2050
2050
2049
2050
2050
2051
2051
2051
2050
2048
2048
2048
2048
2048
2049
2051
2052
2052
2051
2050
2049
2049
2050
2051
2051
2050
2050
2049
2049
2049
2050
2050
2050
2051
2051
2052
2052
2051
2050
2049
2048
2048
2048
2049
2050
2050
2050
2051
2050
2050
2050
2049
2049
2050
2050
2051
2051
2050
2049
2048
2048
2047
2047
2047
2047
2048
2048
2048
2048
2047
2047
2046
2046
2046
2047
2047
2048
2048
2048
2046
2045
2044
2046
2052
2062
2071
2078
2077
2069
2053
2035
2015
2000
1993
1995
2005
2019
2033
2043
2047
2048
2049
2049
2050
2051
2052
2053
2053
2052
2051
2050
2049
2050
2051
2051
2052
2052
2051
2051
2050
2050
2050
2050
2050
2051
2052
2052
2052
2051
2051
2050
2050
2051
2051
2052
2051
2050
2049
2048
2048
2047
2047
2047
2047
2048
2048
2048
2047
2046
2045
2045
2045
2046
2047
2048
2049
2050
2051
2051
2051
2050
2050
2050
2051
2053
2054
2054
2053
2050
2048
2048
2049
2052
2055
2057
2057
2056
2054
2053
2052
2053
2053
2054
2055
2057
2058
2058
2056
2053
2051
2050
2050
2051
2053
2054
2054
2054
2053
2051
2049
2048
2049
2049
2051
2051
2052
2051
2050
2050
2049
2049
2049
2048
2048
2048
2049
2051
2053
2053
2052
2049
2047
2045
2044
2045
2047
2048
2048
2047
2046
2045
2045
2046
2048
2048
2048
2048
2048
2047
2045
2046
2050
2059
2070
2078
2079
2072
2057
2038
2018
2000
1988
1987
1994
2010
2028
2043
2051
2053
2052
2050
2049
2050
2050
2050
2050
2050
2050
2051
2051
2052
2052
2052
2052
2052
2051
2051
2052
2053
2054
2054
2054
2054
2054
2054
2054
2054
2053
2053
2052
2053
2054
2056
2057
2056
2055
2052
2050
2048
2048
2048
2048
2048
2048
2048
2048
2049
2051
2052
2053
2052
2050
2048
2048
2048
2049
2051
2052
2052
2052
2052
2052
2052
2053
2054
2055
2055
2055
2054
2052
2051
2051
2052
2053
2053
2053
2053
2052
2052
2051
2051
2051
2052
2053
2053
2054
2054
2053
2051
2050
2051
2051
2052
2053
2053
2053
2052
2051
2050
2049
2049
2050
2051
2051
2052
2051
2049
2048
2047
2047
2047
2048
2049
2050
2050
2051
2051
2052
2052
2051
2049
2048
2048
2048
2049
2049
2048
2048
2048
2048
2048
2048
2049
2050
2051
2052
2052
2051
2048
2046
2044
2043
2043
2045
2048
2049
2050
2050
2048
2048
2051
2059
2068
2076
2078
2071
2055
2035
2012
1992
1980
1979
1988
2005
2023
2039
2048
2050
2050
2049
2049
2049
2049
2050
2050
2050
2051
2051
2052
2052
2052
2052
2052
2052
2052
2053
2052
2052
2051
2052
2052
2053
2054
2054
2054
2054
2055
2055
2054
2054
2053
2053
2053
2053
2053
2053
2053
2052
2051
2049
2049
2049
2050
2052
2054
2054
2054
2052
2051
2051
2051
2051
2052
2053
2053
2054
2055
2055
2055
2055
2054
2055
2057
2058
2058
2058
2056
2054
2053
2053
2053
2054
2055
2056
2056
2056
2056
2056
2056
2056
2056
2057
2057
2058
2059
2059
2059
2058
2056
2056
2056
2057
2058
2058
2058
2058
2059
2060
2060
2060
2059
2058
2056
2056
2057
2058
2058
2058
2057
2057
2057
2058
2059
2059
2058
2057
2057
2057
2057
2057
2056
2055
2054
2054
2054
2055
2056
2057
2057
2056
2055
2054
2054
2055
2056
2056
2056
2056
2055
2054
2054
2054
2055
2055
2056
2056
2055
2054
2052
2051
2050
2050
2051
2052
2052
2052
2051
2049
2048
2047
2048
2053
2061
2071
2079
2080
2073
2058
2039
2018
2000
1989
1989
1998
2014
2031
2044
2051
2054
2054
2053
2052
2051
2052
2053
2054
2054
2055
2054
2054
2053
2052
2051
2051
2052
2052
2053
2053
2054
2054
2054
2054
2053
2053
2052
2052
2051
2051
2051
2051
2051
2051
2051
2051
2051
2050
2050
2050
2049
2049
2049
2049
2048
2048
2048
2048
2048
2048
2047
2046
2045
2045
2047
2048
2050
2052
2053
2053
2052
2051
2050
2051
2052
2054
2054
2053
2052
2051
2050
2049
2049
2049
2050
2051
2051
2051
2051
2050
2050
2050
2051
2052
2052
2052
2052
2051
2050
2050
2050
2050
2051
2051
2051
2051
2051
2050
2050
2049
2048
2047
2047
2048
2048
2049
2049
2049
2048
2047
2047
2047
2047
2047
2047
2048
2048
2048
2048
2048
2047
2046
2045
2045
2045
2046
2047
2047
2047
2046
2045
2045
2046
2047
2048
2048
2048
2048
2047
2046
2046
2046
2046
2046
2045
2046
2046
2046
2047
2046
2046
2045
2045
2045
2045
2045
2046
2046
2047
2046
2045
2044
2044
2048
2056
2066
2074
2076
2069
2055
2037
2017
2000
1989
1989
1997
2012
2027
2039
2046
2047
2046
2046
2046
2047
2048
2049
2049
2049
2050
2050
2051
2050
2050
2049
2049
2049
2050
2050
2051
2051
2050
2050
2049
2050
2050
2050
2051
2050
2050
2051
2052
2052
2053
2053
2052
2052
2051
2051
2050
2049
2048
2048
2048
2048
2047
2047
2047
2047
2047
2046
2046
2046
2046
2046
2048
2048
2049
2049
2049
2049
2049
2050
2051
2051
2051
2051
2051
2051
2051
2051
2051
2050
2050
2050
2049
2049
2049
2049
2048
2048
2048
2047
2047
2048
2049
2050
2050
2049
2048
2047
2047
2048
2049
2050
2049
2048
2048
2048
2048
2049
2049
2048
2048
2047
2047
2047
2048
2048
2048
2047
2046
2046
2046
2047
2048
2048
2049
2048
2047
2046
2046
2046
2046
2047
2047
2046
2046
2046
2046
2046
2046
2046
2045
2045
2045
2046
2047
2047
2047
2047
2046
2045
2045
2045
2045
2045
2045
2045
2045
2044
2045
2045
2045
2045
2046
2046
2046
2045
2044
2044
2044
2044
2044
2044
2043
2042
2041
2043
2048
2055
2064
2070
2071
2064
2049
2030
2009
1991
1982
1983
1993
2010
2026
2039
2046
2048
2048
2048
2048
2049
2049
2048
2048
2048
2048
2048
2049
2050
2050
2050
2050
2050
2050
2050
2050
2050
2051
2051
2051
2050
2049
2049
2049
2049
2050
2051
2051
2052
2052
2052
2052
2051
2051
2051
2051
2050
2050
2049
2048
2048
2047
2047
2046
2046
2046
2046
2047
2047
2048
2048
2048
2048
2048
2049
2050
2051
2051
2051
2051
2050
2051
2052
2052
2052
2052
2052
2052
2052
2052
2051
2051
2051
2051
2051
2051
2052
2052
2052
2052
2051
2051
2051
2051
2052
2053
2053
2052
2051
2050
2050
2050
2051
2052
2052
2052
2052
2052
2051
2051
2050
2049
2049
2049
2050
2051
2051
2050
2050
2049
2048
2048
2049
2049
2050
2051
2051
2050
2048
2048
2047
2047
2048
2048
2050
2050
2051
2051
2050
2050
2050
2050
2050
2050
2051
2051
2051
2050
2049
2048
2047
2047
2048
2048
2049
2049
2050
2050
2049
2049
2048
2048
2048
2048
2048
2048
2048
2048
2048
2048
2047
2048
2052
2060
2069
2075
2075
2066
2049
2028
2005
1987
1979
1982
1995
2013
2031
2044
2049
2051
2051
2050
2050
2050
2050
2050
2051
2051
2052
2052
2051
2051
2050
2050
2050
2050
2050
2050
2050
2051
2052
2052
2052
2051
2051
2051
2051
2051
2051
2050
2050
2050
2050
2051
2051
2051
2051
2051
2051
2051
2050
2049
2048
2047
2048
2048
2048
2048
2048
2047
2046
2045
2045
2046
2047
2048
2049
2049
2049
2049
2049
2050
2050
2050
2050
2050
2050
2051
2051
2052
2052
2050
2049
2048
2048
2048
2048
2048
2048
2048
2048
2048
2049
2049
2049
2050
2050
2050
2049
2048
2048
2048
2048
2048
2048
2048
2048
2048
2048
2047
2047
2047
2047
2047
2047
2047
2047
2047
2047
2047
2046
2045
2045
2045
2045
2045
2045
2045
2046
2047
2047
2047
2047
2046
2046
2046
2046
2047
2048
2048
2047
2047
2046
2046
2046
2047
2048
2048
2048
2047
2044
2043
2043
2044
2047
2048
2049
2049
2048
2047
2047
2046
2046
2046
2046
2046
2047
2046
2045
2045
2048
2053
2062
2069
2073
2070
2058
2041
2018
1997
1983
1980
1988
2005
2023
2039
2048
2051
2051
2050
2049
2048
2049
2049
2050
2051
2052
2053
2052
2052
2051
2051
2051
2050
2049
2049
2050
2051
2053
2055
2055
2054
2052
2051
2050
2050
2050
2051
2051
2052
2053
2054
2054
2053
2053
2052
2051
2050
2050
2050
2049
2049
2048
2048
2048
2049
2050
2050
2049
2048
2048
2047
2047
2047
2048
2050
2052
2054
2054
2053
2052
2051
2051
2051
2051
2052
2052
2052
2052
2052
2052
2051
2050
2050
2050
2051
2051
2051
2051
2051
2051
2051
2051
2051
2051
2052
2052
2052
2051
2051
2050
2049
2048
2049
2050
2051
2051
2051
2050
2050
2050
2050
2051
2051
2051
2050
2050
2050
2050
2049
2048
2048
2047
2047
2048
2048
2049
2050
2050
2050
2051
2051
2052
2052
2052
2052
2051
2049
2048
2048
2048
2048
2048
2049
2049
2049
2049
2049
2049
2049
2048
2048
2047
2047
2047
2048
2048
2048
2048
2048
2049
2055
2064
2072
2077
2074
2064
2047
2027
2007
1994
1990
1996
2009
2026
2040
2048
2051
2051
2051
2050
2049
2049
2049
2050
2050
2051
2051
2051
2050
2050
2050
2051
2052
2052
2052
2051
2051
2052
2053
2053
2053
2053
2051
2049
2048
2048
2048
2049
2050
2050
2051
2051
2050
2050
2050
2050
2051
2051
2050
2048
2048
2046
2045
2044
2044
2044
2044
2045
2045
2046
2046
2047
2048
2049
2050
2051
2050
2049
2049
2049
2050
2051
2052
2052
2051
2051
2050
2051
2051
2051
2051
2051
2051
2052
2052
2051
2051
2050
2050
2050
2051
2052
2052
2052
2052
2051
2051
2050
2049
2049
2049
2050
2051
2051
2050
2049
2049
2050
2051
2051
2051
2050
2049
2048
2049
2049
2049
2049
2048
2048
2047
2046
2047
2048
2051
2052
2052
2052
2052
2051
2050
2049
2048
2048
2048
2048
2049
2050
2050
2050
2049
2048
2048
2048
2047
2047
2047
2048
2048
2048
2048
2046
2046
2048
2052
2061
2070
2076
2075
2066
2049
2028
2006
1990
1984
1990
2004
2022
2037
2047
2050
2050
2049
2049
2050
2050
2051
2051
2050
2050
2049
2050
2050
2051
2052
2053
2053
2052
2051
2050
2050
2050
2050
2051
2052
2052
2053
2053
2052
2052
2052
2051
2051
2050
2050
2051
2051
2051
2050
2049
2048
2049
2049
2050
2050
2049
2048
2047
2046
2046
2046
2047
2048
2048
2049
2049
2050
2050
2050
2050
2051
2052
2053
2054
2054
2055
2056
2056
2055
2055
2054
2054
2053
2052
2052
2053
2054
2055
2055
2054
2053
2052
2052
2053
2053
2054
2055
2056
2056
2056
2056
2056
2056
2056
2056
2056
2055
2055
2054
2054
2054
2054
2054
2055
2054
2054
2054
2055
2055
2055
2055
2055
2054
2055
2057
2058
2058
2058
2056
2054
2052
2051
2051
2052
2054
2056
2056
2056
2056
2055
2054
2054
2054
2054
2054
2054
2054
2054
2054
2053
2055
2060
2068
2077
2083
2085
2078
2065
2048
2029
2013
2004
2005
2013
2027
2041
2050
2056
2057
2057
2057
2056
2057
2057
2057
2057
2057
2057
2057
2056
2056
2056
2056
2057
2058
2058
2059
2059
2059
2057
2056
2054
2054
2054
2056
2057
2058
2058
2058
2057
2056
2055
2055
2055
2054
2054
2054
2053
2053
2052
2052
2051
2051
2051
2051
2051
2050
2050
2050
2051
2051
2051
2052
2052
2053
2054
2055
2056
2057
2057
2057
2057
2056
2056
2056
2057
2057
2057
2057
2057
2056
2055
2054
2053
2054
2055
2056
2057
2058
2057
2056
2056
2055
2055
2056
2056
2055
2055
2055
2055
2055
2055
2055
2055
2056
2056
2057
2058
2058
2057
2056
2055
2054
2054
2054
2054
2054
2053
2052
2051
2051
2052
2053
2053
2054
2053
2053
2052
2052
2052
2051
2050
2049
2048
2048
2048
2049
2050
2054
2060
2067
2073
2076
2073
2063
2048
2033
2018
2008
2005
2008
2018
2030
2041
2048
2050
2051
2051
2051
2051
2052
2052
2052
2052
2053
2053
2054
2054
2053
2053
2052
2052
2052
2052
2052
2053
2053
2053
2053
2052
2051
2050
2051
2051
2052
2053
2053
2053
2052
2051
2049
2048
2048
2048
2049
2050
2050
2050
2049
2048
2046
2045
2045
2045
2045
2045
2045
2045
2045
2046
2048
2048
2049
2050
2051
2051
2051
2051
2051
2051
2050
2050
2050
2050
2051
2052
2052
2051
2050
2049
2049
2050
2051
2052
2052
2051
2051
2050
2050
2049
2049
2049
2049
2049
2050
2051
2052
2052
2052
2051
2050
2049
2049
2049
2050
2050
2051
2052
2052
2052
2051
2051
2050
2049
2049
2049
2049
2049
2049
2048
2048
2047
2047
2047
2048
2048
2048
2048
2048
2048
2048
2048
2047
2048
2050
2057
2065
2071
2073
2066
2053
2035
2015
1998
1989
1991
2002
2017
2033
2044
2048
2050
2050
2050
2051
2052
2052
2051
2051
2051
2050
2051
2051
2052
2052
2053
2053
2053
2053
2053
2052
2052
2052
2052
2053
2053
2053
2052
2052
2051
2050
2051
2052
2053
2054
2054
2053
2052
2051
2050
2049
2048
2049
2049
2050
2050
2049
2048
2047
2046
2047
2047
2048
2048
2048
2049
2050
2051
2052
2053
2053
2053
2053
2053
2053
2054
2054
2054
2054
2053
2052
2052
2051
2052
2052
2053
2053
2053
2053
2052
2051
2051
2051
2051
2052
2053
2054
2054
2054
2053
2053
2052
2052
2052
2052
2052
2053
2052
2052
2051
2051
2051
2050
2051
2052
2053
2054
2055
2055
2054
2052
2051
2049
2048
2048
2048
2049
2049
2050
2050
2050
2050
2049
2049
2048
2048
2049
2050
2050
2050
2049
2049
2048
2048
2047
2048
2054
2062
2070
2076
2074
2065
2049
2030
2010
1996
1991
1995
2007
2023
2037
2047
2050
2050
2050
2049
2049
2050
2051
2051
2051
2050
2050
2050
2050
2050
2051
2052
2052
2052
2051
2051
2051
2052
2052
2053
2053
2053
2053
2053
2052
2052
2051
2050
2050
2050
2051
2051
2052
2051
2051
2050
2050
2049
2048
2048
2048
2048
2047
2046
2046
2045
2045
2045
2045
2046
2048
2049
2051
2052
2051
2051
2050
2051
2052
2053
2054
2054
2054
2053
2052
2051
2051
2052
2053
2054
2054
2054
2054
2053
2053
2052
2052
2051
2051
2051
2052
2053
2054
2054
2054
2053
2053
2053
2053
2053
2053
2053
2053
2052
2051
2051
2050
2050
2051
2052
2053
2053
2053
2052
2051
2051
2051
2050
2051
2051
2051
2051
2050
2050
2050
2050
2051
2051
2052
2052
2052
2051
2051
2052
2052
2052
2052
2051
2050
2049
2049
2049
2050
2051
2051
2051
2052
2052
2052
2051
2050
2049
2048
2048
2047
2047
2047
2048
2048
2050
2055
2061
2069
2075
2078
2073
2061
2044
2024
2005
1993
1990
1997
2010
2026
2039
2048
2051
2053
2053
2053
2053
2053
2053
2052
2052
2053
2053
2054
2055
2055
2054
2054
2053
2053
2052
2053
2053
2053
2054
2054
2054
2054
2054
2053
2053
2052
2052
2053
2054
2054
2054
2052
2050
2048
2048
2048
2049
2050
2050
2050
2049
2048
2047
2046
2044
2043
2044
2045
2047
2048
2048
2048
2048
2048
2048
2050
2051
2051
2051
2051
2051
2051
2051
2051
2050
2050
2049
2049
2049
2050
2050
2050
2051
2051
2050
2050
2050
2050
2050
2050
2050
2050
2050
2049
2049
2050
2050
2050
2050
2050
2050
2049
2048
2048
2049
2049
2050
2051
2050
2050
2048
2048
2048
2047
2047
2048
2048
2049
2049
2049
2049
2049
2048
2048
2048
2048
2048
2048
2049
2049
2049
2048
2048
2047
2047
2047
2048
2049
2050
2050
2050
2050
2049
2048
2048
2049
2049
2050
2050
2050
2049
2049
2048
2048
2048
2048
2048
2049
2050
2050
2050
2050
2049
2048
2048
2048
2048
2048
2048
2048
2048
2048
2048
2048
2050
2056
2064
2072
2077
2075
2064
2048
2028
2008
1994
1989
1995
2009
2025
2040
2048
2051
2051
2050
2049
2050
2052
2053
2054
2053
2052
2051
2050
2050
2052
2053
2054
2055
2055
2054
2054
2053
2053
2052
2052
2052
2052
2052
2052
2053
2053
2053
2052
2052
2051
2051
2051
2052
2052
2052
2051
2049
2048
2048
2048
2048
2048
2048
2048
2048
2047
2046
2044
2043
2044
2045
2048
2049
2051
2052
2052
2052
2051
2051
2051
2051
2051
2051
2051
2051
2052
2052
2052
2051
2050
2050
2050
2050
2052
2053
2053
2053
2052
2051
2051
2051
2051
2052
2052
2052
2052
2052
2051
2051
2050
2050
2050
2050
2050
2050
2050
2050
2050
2050
2050
2050
2050
2050
2050
2050
2050
2050
2049
2049
2048
2048
2049
2049
2049
2049
2049
2049
2050
2050
2050
2050
2050
2049
2049
2049
2050
2050
2050
2050
2050
2049
2049
2049
2050
2050
2051
2051
2051
2052
2052
2052
2052
2052
2052
2051
2050
2049
2049
2049
2049
2050
2051
2051
2051
2051
2051
2051
2050
2049
2049
2049
2050
2051
2050
2049
2048
2049
2055
2064
2073
2081
2082
2076
2062
2045
2025
2009
2000
2000
2007
2020
2034
2045
2050
2053
2053
2052
2052
2052
2053
2055
2055
2055
2055
2055
2054
2054
2053
2053
2053
2053
2053
2053
2054
2054
2055
2054
2053
2053
2053
2053
2054
2054
2055
2055
2054
2054
2053
2052
2052
2051
2051
2052
2052
2052
2051
2050
2049
2048
2047
2047
2047
2047
2047
2047
2047
2046
2045
2046
2047
2048
2049
2051
2051
2051
2051
2051
2051
2051
2050
2050
2051
2052
2053
2053
2053
2053
2052
2052
2051
2051
2051
2051
2051
2051
2051
2051
2051
2052
2053
2054
2055
2055
2055
2054
2053
2052
2052
2052
2052
2052
2052
2052
2052
2052
2052
2052
2052
2052
2052
2051
2051
2051
2051
2052
2052
2052
2051
2049
2049
2049
2050
2051
2051
2051
2049
2049
2048
2049
2050
2051
2051
2051
2051
2051
2051
2051
2050
2049
2048
2048
2048
2048
2049
2050
2050
2049
2049
2049
2049
2049
2048
2048
2048
2049
2049
2049
2048
2048
2046
2046
2048
2054
2063
2072
2078
2077
2068
2053
2035
2017
2002
1995
1997
2006
2020
2033
2043
2048
2048
2048
2048
2048
2049
2051
2051
2052
2051
2051
2050
2050
2050
2051
2051
2052
2052
2052
2052
2052
2052
2052
2051
2051
2051
2052
2052
2051
2051
2051
2050
2050
2050
2050
2050
2050
2050
2050
2050
2049
2049
2048
2048
2048
2048
2047
2047
2046
2046
2045
2045
2045
2045
2046
2046
2047
2048
2049
2049
2049
2049
2048
2048
2048
2049
2049
2050
2050
2050
2050
2049
2049
2049
2049
2049
2049
2049
2049
2049
2049
2049
2049
2050
2050
2050
2050
2050
2049
2049
2049
2049
2050
2050
2051
2051
2050
2049
2048
2048
2048
2048
2049
2050
2051
2051
2051
2050
2049
2048
2048
2048
2048
2048
2048
2049
2049
2048
2048
2048
2047
2047
2047
2048
2049
2049
2050
2049
2048
2047
2047
2047
2047
2048
2048
2049
2049
2049
2049
2049
2049
2049
2049
2049
2049
2049
2048
2048
2048
2048
2048
2048
2048
2048
2048
2048
2047
2047
2046
2046
2047
2047
2047
2047
2047
2048
2052
2059
2068
2075
2077
2071
2058
2041
2021
2003
1991
1990
1997
2010
2026
2039
2047
2049
2050
2049
2048
2049
2051
2052
2052
2052
2051
2051
2051
2052
2052
2052
2052
2052
2051
2051
2051
2051
2052
2052
2052
2052
2052
2052
2053
2053
2053
2053
2053
2053
2053
2053
2053
2053
2052
2051
2051
2050
2051
2052
2052
2051
2050
2049
2048
2048
2048
2049
2049
2048
2048
2049
2050
2051
2052
2053
2053
2053
2054
2054
2055
2055
2055
2055
2055
2054
2054
2054
2054
2053
2054
2054
2053
2052
2051
2050
2051
2052
2055
2056
2057
2056
2055
2055
2055
2055
2055
2056
2056
2055
2055
2054
2054
2054
2055
2055
2055
2054
2054
2055
2055
2055
2054
2054
2053
2052
2053
2053
2054
2054
2054
2054
2054
2053
2052
2051
2051
2051
2052
2053
2054
2054
2053
2053
2052
2052
2052
2052
2053
2054
2055
2055
2056
2055
2054
2053
2052
2052
2052
2053
2054
2054
2054
2053
2053
2054
2055
2057
2058
2059
2059
2057
2055
2051
2048
2048
2052
2061
2071
2080
2081
2076
2063
2047
2028
2012
2001
1998
2005
2017
2032
2045
2051
2053
2053
2053
2052
2052
2053
2054
2055
2055
2055
2054
2053
2053
2052
2053
2054
2054
2055
2055
2054
2054
2053
2052
2052
2053
2054
2054
2055
2054
2054
2053
2052
2051
2051
2051
2052
2052
2052
2052
2052
2051
2050
2049
2048
2048
2049
2048
2048
2047
2047
2047
2047
2048
2048
2049
2050
2050
2051
2051
2052
2052
2052
2052
2052
2053
2053
2054
2056
2056
2056
2055
2053
2052
2051
2051
2052
2053
2054
2053
2053
2052
2051
2051
2052
2052
2053
2053
2052
2052
2053
2053
2054
2054
2054
2054
2054
2054
2054
2054
2054
2054
2054
2053
2052
2052
2052
2053
2054
2055
2055
2053
2052
2051
2050
2051
2051
2051
2052
2051
2051
2050
2050
2050
2050
2051
2052
2053
2053
2052
2051
2050
2050
2051
2052
2054
2054
2054
2054
2053
2052
2051
2051
2050
2049
2049
2049
2049
2050
2050
2050
2049
2048
2048
2048
2048
2050
2051
2051
2050
2048
2048
2050
2056
2065
2074
2079
2077
2067
2051
2030
2009
1992
1984
1988
2000
2018
2036
2048
2053
2054
2051
2049
2048
2050
2052
2054
2055
2053
2052
2051
2052
2053
2054
2054
2054
2053
2052
2052
2052
2051
2051
2050
2050
2051
2052
2052
2052
2051
2050
2050
2050
2051
2052
2051
2051
2050
2050
2050
2050
2050
2049
2048
2048
2048
2048
2048
2048
2048
2048
2047
2047
2046
2047
2048
2048
2049
2049
2049
2048
2048
2048
2049
2050
2050
2050
2049
2049
2049
2049
2049
2050
2049
2049
2048
2048
2048
2049
2049
2049
2048
2048
2048
2048
2049
2050
2051
2051
2050
2050
2049
2049
2048
2048
2048
2048
2048
2048
2049
2049
2049
2049
2048
2048
2048
2048
2048
2049
2050
2051
2050
2049
2048
2047
2046
2046
2047
2048
2048
2048
2048
2047
2046
2045
2046
2047
2048
2048
2048
2048
2048
2048
2047
2045
2044
2043
2044
2045
2046
2047
2048
2048
2048
2048
2047
2046
2045
2045
2045
2045
2045
2044
2043
2042
2042
2044
2050
2060
2070
2077
2076
2068
2051
2031
2009
1991
1982
1983
1993
2010
2028
2042
2048
2049
2049
2049
2049
2050
2051
2051
2051
2051
2051
2051
2050
2049
2049
2050
2051
2051
2051
2050
2050
2050
2050
2051
2052
2052
2052
2051
2050
2049
2049
2049
2050
2051
2053
2054
2054
2053
2051
2050
2048
2048
2048
2049
2049
2049
2050
2049
2049
2049
2048
2048
2048
2048
2048
2047
2048
2048
2048
2048
2048
2049
2050
2052
2053
2053
2052
2050
2048
2046
2047
2046
2046
2045
2045
2046
2049
2053
2054
2052
2048
2046
2046
2048
2053
2055
2056
2056
2054
2054
2054
2055
2055
2056
2057
2058
2058
2058
2058
2058
2058
2057
2057
2058
2058
2058
2057
2055
2053
2052
2053
2055
2058
2061
2062
2062
2060
2057
2056
2056
2057
2057
2056
2054
2053
2051
2051
2052
2053
2056
2058
2061
2062
2062
2062
2062
2061
2061
2060
2059
2057
2056
2056
2056
2057
2057
2057
2057
2056
2055
2054
2054
2055
2056
2058
2058
2059
2061
2066
2073
2081
2086
2086
2079
2065
2047
2026
2009
1999
1998
2007
2022
2039
2052
2063
2069
2071
2070
2067
2064
2062
2062
2062
2063
2064
2065
2065
2065
2064
2064
2063
2062
2062
2062
2063
2064
2064
2064
2064
2063
2063
2063
2064
2065
2065
2065
2065
2065
2064
2063
2062
2060
2060
2061
2062
2063
2064
2063
2062
2060
2059
2058
2058
2058
2058
2057
2057
2056
2056
2057
2057
2058
2059
2060
2061
2061
2062
2062
2063
2063
2063
2063
2063
2064
2065
2066
2066
2066
2065
2063
2062
2061
2062
2062
2063
2064
2064
2064
2063
2062
2061
2060
2059
2059
2061
2062
2064
2063
2062
2060
2058
2057
2058
2059
2060
2060
2059
2058
2056
2055
2054
2054
2053
2052
2052
2051
2051
2052
2053
2054
2054
2053
2052
2051
2051
2052
2052
2053
2052
2052
2051
2050
2050
2049
2048
2048
2047
2046
2046
2048
2048
2049
2048
2048
2047
2047
2048
2050
2051
2050
2049
2047
2045
2044
2044
2046
2050
2059
2068
2075
2075
