1973
1974
1974
1974
1974
1974
1974
1974
1975
1975
1976
1977
1978
1978
1979
1979
1979
1979
1979
1979
1980
1981
1982
1982
1982
1982
1982
1981
1981
1981
1981
1982
1982
1982
1982
1981
1981
1981
1981
1981
1982
1983
1983
1983
1983
1982
1981
1981
1980
1980
1981
1981
1982
1983
1983
1983
1982
1982
1981
1981
1982
1982
1983
1983
1983
1983
1982
1982
1982
1982
1982
1982
1982
1982
1982
1981
1980
1979
1979
1979
1981
1984
1986
1988
1989
1988
1987
1986
1986
1986
1986
1986
1985
1985
1984
1984
1983
1983
1983
1983
1983
1983
1983
1983
1983
1983
1982
1981
1979
1976
1975
1979
1991
2011
2036
2057
2067
2060
2038
2006
1976
1956
1949
1953
1962
1971
1976
1978
1978
1977
1977
1977
1977
1978
1978
1978
1977
1977
1976
1976
1975
1975
1975
1976
1976
1975
1974
1973
1972
1972
1973
1975
1976
1977
1978
1978
1978
1978
1978
1979
1980
1982
1983
1985
1987
1988
1989
1990
1991
1992
1993
1995
1997
1998
1999
1999
1998
1998
1997
1997
1997
1996
1995
1992
1989
1985
1981
1977
1974
1972
1970
1969
1969
1968
1967
1966
1965
1964
1963
1963
1964
1965
1966
1966
1965
1964
1964
1964
1963
1964
1964
1965
1965
1966
1966
1966
1966
1965
1965
1965
1964
1964
1965
1965
1966
1966
1965
1964
1963
1962
1961
1962
1963
1963
1963
1962
1961
1960
1960
1960
1961
1961
1961
1961
1960
1959
1958
1958
1957
1957
1957
1957
1957
1957
1957
1956
1955
1955
1955
1955
1955
1955
1955
1954
1953
1953
1954
1956
1958
1960
1961
1961
1962
1961
1960
1959
1957
1954
1952
1951
1951
1951
1951
1951
1951
1950
1950
1950
1950
1950
1950
1951
1952
1952
1952
1951
1948
1947
1952
1965
1988
2015
2037
2046
2036
2010
1976
1944
1924
1918
1923
1934
1944
1952
1956
1958
1959
1958
1959
1959
1960
1961
1962
1963
1965
1968
1971
1974
1977
1978
1980
1981
1984
1986
1989
1990
1991
1991
1991
1992
1994
1996
1997
1998
1999
1999
1999
1999
2000
2001
2004
2006
2008
2010
2011
2011
2011
2011
2011
2012
2013
2015
2016
2017
2017
2017
2016
2014
2013
2011
2009
2007
2004
2001
1998
1994
1991
1988
1986
1985
1986
1986
1987
1986
1985
1984
1984
1984
1984
1984
1985
1985
1985
1985
1986
1986
1985
1985
1985
1985
1985
1986
1986
1987
1988
1988
1988
1987
1986
1986
1986
1987
1988
1988
1988
1988
1987
1986
1985
1985
1985
1986
1987
1988
1988
1987
1987
1986
1986
1986
1986
1986
1986
1986
1986
1985
1985
1984
1984
1984
1985
1986
1986
1987
1987
1987
1987
1986
1986
1986
1986
1987
1987
1987
1987
1987
1986
1986
1986
1987
1987
1987
1988
1988
1987
1987
1987
1986
1986
1985
1984
1984
1985
1986
1988
1991
1993
1994
1994
1994
1994
1995
1995
1994
1994
1992
1991
1990
1989
1988
1988
1989
1989
1989
1990
1990
1990
1990
1990
1989
1989
1989
1988
1985
1984
1986
1997
2016
2040
2063
2076
2073
2052
2021
1989
1967
1958
1961
1970
1980
1986
1989
1989
1990
1989
1989
1989
1989
1988
1989
1989
1990
1991
1991
1992
1992
1992
1992
1992
1992
1992
1992
1993
1994
1995
1995
1996
1996
1997
1998
1999
2000
2001
2003
2004
2006
2008
2010
2012
2014
2016
2018
2020
2022
2023
2023
2023
2023
2024
2025
2026
2027
2028
2028
2027
2026
2025
2022
2019
2016
2012
2010
2007
2004
2002
2000
1998
1997
1996
1996
1996
1996
1997
1997
1997
1997
1997
1996
1996
1996
1997
1997
1997
1997
1997
1996
1995
1993
1992
1991
1991
1991
1992
1992
1992
1992
1991
1991
1990
1989
1989
1988
1988
1988
1988
1987
1986
1986
1985
1985
1985
1985
1984
1984
1983
1982
1981
1981
1980
1980
1980
1980
1981
1982
1982
1982
1982
1981
1980
1980
1979
1979
1980
1980
1979
1979
1978
1978
1977
1978
1978
1979
1979
1979
1978
1977
1976
1975
1975
1975
1975
1975
1976
1976
1975
1975
1974
1974
1974
1974
1974
1974
1975
1975
1975
1974
1974
1973
1973
1973
1973
1973
1973
1973
1974
1974
1976
1977
1979
1980
1981
1981
1981
1981
1980
1979
1978
1977
1976
1975
1975
1975
1975
1975
1975
1975
1975
1974
1974
1974
1974
1974
1974
1974
1973
1971
1970
1973
1985
2004
2029
2050
2061
2054
2031
1998
1966
1945
1938
1943
1954
1965
1972
1974
1974
1974
1973
1972
1971
1972
1972
1973
1974
1975
1975
1975
1974
1973
1972
1971
1971
1972
1973
1975
1976
1976
1975
1975
1974
1975
1976
1978
1979
1980
1980
1980
1979
1980
1980
1981
1982
1982
1983
1983
1984
1985
1986
1987
1988
1988
1989
1990
1990
1991
1991
1990
1989
1988
1986
1984
1982
1979
1976
1973
1969
1965
1962
1959
1956
1955
1954
1953
1953
1953
1953
1953
1952
1951
1950
1950
1950
1951
1952
1953
1954
1954
1954
1953
1953
1953
1953
1954
1954
1954
1954
1954
1955
1955
1955
1956
1956
1957
1957
1957
1957
1957
1957
1956
1956
1956
1957
1957
1958
1958
1958
1958
1957
1956
1955
1955
1955
1956
1956
1957
1957
1956
1956
1956
1956
1956
1957
1957
1957
1957
1957
1956
1956
1956
1955
1956
1956
1956
1957
1958
1958
1958
1958
1957
1957
1957
1958
1958
1959
1959
1959
1958
1957
1956
1956
1957
1960
1963
1965
1967
1968
1968
1967
1966
1964
1963
1962
1962
1963
1964
1964
1964
1963
1961
1959
1958
1958
1959
1960
1961
1962
1961
1961
1960
1959
1957
1956
1959
1970
1989
2014
2036
2048
2043
2021
1988
1955
1931
1920
1922
1931
1942
1950
1955
1957
1958
1958
1958
1958
1957
1957
1956
1955
1954
1954
1953
1953
1952
1952
1951
1951
1950
1950
1950
1950
1950
1950
1950
1950
1951
1952
1952
1953
1954
1954
1955
1957
1958
1960
1961
1962
1964
1965
1966
1968
1969
1971
1972
1974
1976
1977
1978
1978
1977
1977
1977
1977
1978
1977
1975
1972
1968
1965
1961
1958
1956
1955
1954
1952
1951
1949
1948
1948
1948
1948
1949
1949
1950
1950
1950
1950
1951
1951
1951
1951
1951
1952
1952
1953
1953
1954
1954
1954
1955
1955
1955
1955
1955
1956
1957
1958
1958
1957
1957
1957
1957
1957
1958
1959
1960
1960
1960
1960
1960
1960
1959
1960
1960
1960
1961
1961
1961
1961
1961
1961
1961
1961
1962
1962
1963
1963
1962
1962
1961
1961
1961
1962
1963
1963
1964
1964
1964
1964
1964
1964
1964
1964
1964
1965
1966
1966
1966
1966
1965
1965
1966
1966
1967
1968
1968
1968
1968
1967
1967
1967
1967
1968
1969
1969
1970
1969
1969
1968
1968
1967
1967
1969
1971
1974
1976
1978
1978
1977
1976
1975
1974
1974
1974
1974
1974
1973
1973
1972
1972
1971
1971
1971
1972
1972
1972
1972
1972
1972
1972
1971
1969
1966
1965
1970
1982
2004
2031
2056
2070
2067
2047
2014
1982
1960
1951
1955
1963
1971
1975
1976
1975
1975
1975
1975
1976
1976
1976
1976
1976
1976
1976
1976
1977
1978
1978
1978
1978
1978
1978
1978
1978
1978
1979
1979
1980
1981
1981
1982
1982
1983
1984
1985
1986
1987
1987
1988
1989
1990
1990
1991
1992
1994
1995
1997
1998
1999
1999
1999
1999
2000
2000
2000
2000
1999
1998
1996
1993
1990
1986
1983
1981
1979
1977
1976
1975
1974
1973
1972
1971
1971
1971
1971
1972
1972
1973
1973
1973
1972
1972
1972
1972
1973
1974
1975
1976
1976
1976
1975
1975
1975
1975
1976
1976
1977
1977
1977
1977
1977
1977
1978
1978
1980
1981
1982
1983
1983
1984
1983
1983
1983
1984
1985
1986
1986
1985
1984
1983
1983
1983
1983
1984
1985
1985
1986
1987
1988
1988
1988
1988
1988
1988
1988
1989
1989
1989
1989
1988
1988
1988
1988
1988
1989
1989
1989
1989
1989
1989
1988
1988
1988
1988
1989
1989
1990
1990
1990
1990
1989
1989
1989
1989
1990
1990
1991
1991
1990
1990
1989
1988
1987
1987
1988
1991
1995
1997
1999
1998
1997
1995
1994
1993
1994
1994
1994
1993
1992
1991
1990
1990
1989
1989
1990
1990
1990
1990
1991
1991
1991
1991
1989
1987
1984
1984
1991
2007
2031
2056
2075
2080
2065
2038
2004
1977
1962
1962
1970
1981
1989
1993
1994
1994
1993
1993
1993
1993
1994
1994
1994
1994
1994
1994
1995
1996
1996
1996
1996
1996
1995
1994
1994
1994
1995
1996
1996
1996
1995
1995
1994
1995
1995
1997
1999
2000
2002
2004
2006
2007
2008
2008
2009
2009
2009
2010
2011
2012
2013
2014
2014
2014
2014
2014
2013
2013
2013
2013
2012
2009
2006
2002
1999
1996
1994
1993
1992
1991
1990
1989
1988
1987
1986
1986
1986
1987
1988
1988
1989
1989
1988
1988
1987
1988
1988
1988
1989
1988
1988
1986
1986
1985
1986
1987
1988
1988
1989
1988
1988
1987
1987
1986
1986
1986
1987
1987
1988
1988
1987
1986
1985
1985
1985
1985
1985
1985
1985
1985
1985
1985
1984
1984
1984
1984
1984
1984
1984
1984
1984
1984
1983
1983
1983
1983
1983
1984
1984
1985
1985
1985
1984
1984
1983
1982
1982
1981
1981
1982
1984
1987
1989
1990
1990
1990
1989
1988
1988
1988
1988
1987
1985
1984
1983
1982
1982
1983
1983
1983
1983
1982
1982
1981
1981
1982
1982
1983
1982
1980
1978
1982
1995
2016
2042
2062
2070
2060
2035
2002
1972
1952
1945
1950
1960
1970
1978
1982
1984
1985
1985
1984
1984
1984
1984
1985
1986
1988
1989
1989
1989
1989
1989
1989
1989
1990
1990
1991
1992
1993
1993
1993
1993
1993
1994
1994
1996
1997
1999
2000
2000
2001
2001
2001
2002
2003
2005
2006
2007
2009
2010
2010
2010
2010
2011
2011
2012
2013
2014
2014
2013
2012
2010
2007
2004
2001
1998
1995
1993
1990
1988
1986
1984
1983
1982
1982
1982
1982
1982
1982
1981
1980
1980
1979
1979
1980
1980
1981
1981
1982
1982
1982
1982
1981
1981
1981
1981
1982
1983
1984
1984
1984
1983
1983
1983
1983
1984
1984
1984
1984
1984
1984
1984
1983
1983
1983
1983
1984
1984
1985
1984
1984
1983
1983
1983
1983
1983
1983
1983
1983
1984
1984
1983
1983
1983
1983
1984
1984
1985
1985
1985
1985
1984
1984
1983
1983
1983
1983
1984
1986
1988
1990
1992
1993
1993
1992
1992
1992
1993
1992
1991
1990
1989
1988
1987
1988
1988
1989
1990
1990
1990
1989
1989
1989
1990
1991
1991
1991
1988
1986
1987
1995
2012
2036
2060
2076
2077
2060
2031
1999
1974
1962
1963
1971
1980
1988
1991
1992
1992
1991
1991
1991
1991
1990
1991
1991
1992
1992
1993
1994
1994
1994
1994
1993
1993
1993
1994
1994
1995
1996
1996
1996
1997
1997
1998
1998
1999
2000
2001
2003
2004
2005
2006
2006
2007
2008
2010
2012
2014
2015
2016
2017
2017
2017
2017
2018
2019
2020
2020
2020
2019
2017
2015
2011
2008
2005
2002
2000
1999
1997
1995
1994
1992
1991
1990
1990
1989
1989
1990
1990
1990
1990
1990
1990
1990
1990
1990
1990
1991
1991
1992
1992
1992
1991
1991
1990
1990
1990
1990
1990
1990
1990
1990
1989
1989
1989
1990
1990
1991
1991
1991
1991
1990
1989
1989
1989
1989
1989
1989
1989
1989
1989
1988
1988
1987
1987
1988
1988
1989
1989
1989
1988
1987
1986
1986
1987
1987
1988
1988
1988
1987
1986
1985
1985
1985
1986
1988
1991
1993
1995
1995
1995
1994
1993
1992
1991
1991
1990
1989
1989
1989
1988
1987
1986
1986
1985
1986
1986
1986
1986
1986
1986
1986
1985
1983
1980
1978
1981
1991
2011
2036
2059
2072
2067
2046
2013
1981
1959
1951
1955
1966
1976
1981
1983
1981
1980
1979
1979
1979
1978
1978
1977
1977
1977
1978
1978
1979
1979
1980
1981
1982
1982
1981
1980
1979
1979
1980
1981
1982
1983
1983
1984
1984
1985
1985
1985
1986
1988
1989
1991
1992
1993
1993
1994
1995
1997
1998
2000
2001
2002
2002
2002
2002
2002
2002
2002
2002
2001
1999
1996
1992
1989
1986
1982
1979
1976
1974
1972
1971
1971
1970
1969
1968
1967
1967
1967
1967
1967
1968
1968
1968
1968
1967
1967
1967
1967
1967
1967
1967
1967
1967
1967
1967
1967
1967
1967
1967
1967
1968
1968
1968
1967
1967
1966
1966
1966
1966
1967
1968
1968
1968
1968
1967
1966
1966
1965
1965
1966
1966
1966
1966
1965
1964
1963
1962
1962
1964
1967
1970
1972
1973
1973
1972
1971
1970
1969
1968
1968
1967
1966
1966
1965
1965
1965
1965
1964
1964
1965
1965
1965
1965
1964
1964
1964
1964
1964
1962
1960
1960
1965
1979
2002
2028
2048
2056
2046
2019
1984
1953
1932
1925
1929
1939
1950
1959
1964
1966
1968
1968
1968
1969
1969
1969
1970
1970
1970
1971
1972
1974
1975
1975
1976
1976
1976
1976
1977
1977
1979
1980
1981
1981
1982
1982
1982
1983
1985
1986
1988
1990
1991
1992
1993
1993
1995
1996
1998
2000
2002
2004
2006
2007
2008
2008
2008
2009
2009
2010
2010
2010
2009
2007
2004
2000
1997
1994
1991
1990
1988
1987
1985
1984
1983
1982
1982
1982
1982
1982
1982
1982
1982
1982
1982
1982
1982
1983
1983
1984
1985
1985
1986
1986
1985
1985
1984
1984
1984
1985
1985
1986
1986
1986
1985
1985
1984
1984
1985
1985
1986
1987
1987
1987
1987
1986
1986
1986
1986
1986
1986
1986
1986
1986
1986
1986
1987
1987
1988
1988
1989
1990
1990
1990
1990
1990
1990
1990
1990
1991
1992
1992
1992
1991
1991
1991
1991
1993
1995
1997
1999
1999
2000
2000
1999
1998
1997
1996
1995
1995
1996
1996
1997
1997
1997
1997
1997
1997
1997
1997
1998
1998
1999
1999
1998
1996
1992
1990
1994
2007
2028
2054
2078
2088
2079
2052
2019
1988
1969
1966
1973
1984
1993
1997
1998
1997
1996
1995
1995
1996
1997
1998
1998
1998
1998
1998
1997
1997
1998
1998
1999
2000
2000
2000
2000
1999
1999
1999
2000
2001
2002
2003
2004
2005
2005
2006
2006
2007
2007
2009
2010
2012
2013
2014
2015
2015
2016
2016
2017
2018
2019
2019
2020
2020
2020
2020
2019
2018
2017
2016
2014
2011
2008
2005
2002
1999
1997
1995
1993
1992
1991
1991
1991
1990
1990
1989
1988
1988
1988
1988
1989
1990
1990
1990
1989
1989
1988
1988
1989
1989
1989
1990
1990
1990
1989
1989
1988
1989
1989
1989
1990
1990
1990
1990
1989
1988
1988
1988
1988
1988
1988
1989
1989
1988
1988
1987
1986
1985
1985
1985
1986
1986
1987
1987
1987
1986
1985
1985
1985
1985
1986
1986
1986
1986
1986
1985
1984
1984
1983
1984
1984
1984
1983
1982
1981
1981
1981
1982
1984
1986
1987
1987
1987
1986
1985
1983
1981
1979
1978
1977
1976
1976
1975
1975
1974
1973
1972
1971
1970
1969
1968
1968
1968
1968
1966
1964
1960
1958
1962
1974
1994
2019
2041
2049
2040
2014
1979
1946
1926
1920
1927
1939
1950
1957
1959
1959
1958
1957
1957
1957
1958
1959
1959
1959
1959
1959
1958
1958
1958
1959
1959
1960
1961
1961
1961
1961
1961
1961
1961
1962
1963
1964
1965
1965
1966
1967
1968
1969
1970
1972
1974
1975
1977
1978
1979
1980
1980
1981
1982
1983
1984
1985
1985
1986
1986
1986
1985
1985
1983
1982
1980
1978
1976
1973
1970
1967
1963
1960
1958
1957
1957
1958
1958
1958
1958
1957
1957
1956
1956
1956
1956
1957
1957
1958
1958
1959
1959
1959
1960
1960
1960
1960
1961
1961
1960
1960
1960
1960
1960
1960
1961
1962
1963
1963
1963
1962
1961
1961
1961
1962
1963
1963
1963
1963
1962
1962
1961
1961
1961
1961
1961
1961
1961
1961
1962
1964
1966
1968
1969
1970
1970
1970
1970
1970
1969
1967
1966
1965
1964
1965
1965
1966
1966
1966
1966
1965
1965
1965
1966
1967
1968
1969
1969
1969
1968
1966
1963
1965
1973
1991
2016
2041
2056
2055
2037
2005
1971
1944
1931
1932
1942
1954
1965
1971
1974
1974
1974
1973
1973
1974
1976
1977
1979
1979
1980
1980
1980
1980
1980
1981
1982
1983
1984
1984
1984
1984
1984
1985
1987
1988
1989
1990
1990
1991
1991
1993
1994
1995
1997
1998
2000
2002
2004
2006
2007
2008
2009
2010
2011
2012
2013
2014
2015
2015
2014
2013
2012
2010
2008
2006
2003
2001
1998
1996
1993
1991
1989
1988
1988
1987
1987
1987
1988
1988
1988
1988
1987
1987
1987
1987
1988
1989
1990
1990
1990
1989
1988
1988
1988
1989
1990
1991
1991
1991
1990
1989
1989
1989
1989
1989
1990
1990
1990
1990
1990
1989
1989
1989
1990
1991
1992
1993
1993
1993
1993
1992
1991
1991
1991
1991
1992
1992
1992
1991
1991
1990
1990
1989
1989
1990
1990
1990
1990
1990
1990
1989
1988
1988
1988
1988
1988
1988
1988
1988
1989
1989
1991
1992
1993
1994
1994
1994
1994
1994
1993
1991
1990
1989
1988
1987
1987
1988
1988
1988
1988
1987
1986
1986
1986
1986
1987
1987
1987
1986
1984
1981
1981
1987
2003
2027
2052
2072
2076
2060
2031
1996
1968
1955
1955
1964
1975
1983
1986
1986
1985
1984
1983
1982
1982
1983
1983
1984
1984
1984
1984
1983
1983
1982
1981
1980
1979
1978
1977
1976
1975
1974
1975
1975
1977
1978
1978
1978
1979
1979
1980
1981
1981
1982
1983
1985
1986
1988
1989
1990
1990
1991
1993
1994
1995
1995
1996
1997
1997
1997
1996
1995
1993
1991
1989
1987
1984
1981
1977
1974
1971
1968
1966
1964
1962
1961
1961
1961
1961
1961
1960
1959
1959
1959
1959
1960
1960
1961
1961
1961
1961
1961
1960
1961
1961
1962
1962
1963
1963
1963
1963
1963
1963
1963
1963
1963
1963
1964
1964
1964
1963
1962
1961
1961
1961
1961
1962
1963
1963
1963
1962
1961
1960
1960
1960
1960
1960
1959
1958
1957
1957
1958
1959
1961
1964
1965
1966
1966
1966
1964
1962
1960
1958
1956
1955
1955
1955
1955
1955
1955
1955
1954
1954
1954
1954
1954
1954
1955
1956
1957
1957
1955
1952
1950
1954
1966
1987
2015
2040
2052
2048
2023
1988
1953
1928
1919
1923
1934
1946
1955
1960
1961
1962
1962
1962
1963
1964
1965
1966
1966
1967
1967
1967
1968
1969
1970
1971
1971
1972
1972
1973
1973
1974
1975
1977
1979
1981
1983
1984
1985
1986
1986
1987
1989
1990
1992
1994
1997
1999
2001
2002
2003
2005
2006
2008
2009
2011
2012
2013
2013
2013
2013
2012
2011
2010
2008
2005
2002
1999
1996
1993
1990
1988
1985
1984
1983
1983
1983
1983
1983
1983
1982
1981
1981
1982
1983
1984
1985
1985
1985
1985
1985
1985
1985
1986
1987
1988
1988
1988
1988
1987
1987
1987
1987
1987
1988
1989
1989
1990
1990
1989
1989
1989
1988
1988
1989
1989
1990
1990
1991
1990
1990
1989
1989
1989
1989
1989
1990
1990
1990
1990
1990
1989
1989
1989
1989
1989
1990
1990
1990
1989
1989
1988
1987
1986
1985
1986
1987
1989
1992
1993
1994
1995
1996
1996
1997
1997
1997
1997
1996
1995
1993
1992
1992
1992
1992
1993
1993
1994
1994
1994
1993
1993
1993
1994
1994
1993
1990
1988
1990
1999
2017
2043
2067
2083
2081
2061
2029
1995
1971
1962
1965
1975
1985
1991
1992
1992
1991
1991
1990
1990
1990
1990
1989
1990
1990
1991
1992
1993
1993
1993
1992
1992
1992
1992
1993
1993
1994
1995
1995
1995
1995
1995
1996
1996
1997
1998
2000
2001
2002
2003
2003
2004
2004
2005
2007
2009
2010
2012
2013
2014
2014
2015
2015
2015
2016
2016
2016
2015
2013
2011
2007
2004
2000
1997
1994
1992
1990
1988
1986
1984
1981
1979
1976
1974
1973
1973
1973
1974
1973
1973
1972
1971
1971
1970
1970
1971
1971
1972
1971
1971
1970
1970
1969
1969
1969
1969
1969
1969
1970
1970
1970
1971
1971
1971
1971
1972
1972
1972
1971
1971
1970
1969
1969
1968
1968
1968
1968
1968
1968
1968
1967
1966
1966
1966
1966
1966
1966
1966
1965
1964
1964
1963
1962
1962
1962
1963
1963
1963
1962
1960
1959
1958
1959
1961
1963
1966
1967
1968
1968
1967
1966
1965
1965
1964
1963
1962
1961
1961
1960
1960
1960
1959
1958
1958
1958
1958
1958
1958
1958
1958
1958
1957
1954
1951
1952
1960
1978
2003
2031
2050
2052
2035
2001
1963
1932
1915
1913
1922
1934
1944
1950
1953
1954
1954
1954
1954
1955
1956
1957
1958
1958
1958
1958
1958
1959
1960
1962
1963
1963
1964
1964
1964
1965
1965
1966
1967
1968
1970
1971
1972
1973
1974
1975
1976
1978
1979
1981
1983
1985
1987
1988
1989
1991
1992
1995
1997
2000
2001
2002
2003
2003
2003
2003
2003
2003
2002
2000
1997
1994
1990
1986
1983
1980
1978
1977
1977
1976
1976
1975
1975
1974
1973
1973
1974
1974
1975
1976
1976
1977
1977
1977
1977
1976
1976
1977
1978
1979
1980
1980
1981
1981
1980
1980
1981
1981
1982
1982
1983
1983
1983
1984
1984
1984
1984
1984
1984
1985
1985
1985
1985
1985
1984
1983
1983
1983
1984
1984
1985
1985
1985
1984
1984
1983
1983
1984
1984
1985
1985
1985
1985
1985
1984
1984
1984
1984
1984
1984
1984
1983
1982
1982
1983
1985
1986
1988
1989
1990
1991
1991
1990
1989
1988
1986
1986
1985
1985
1986
1986
1986
1985
1984
1984
1984
1984
1985
1985
1986
1986
1986
1986
1983
1980
1978
1982
1995
2017
2043
2066
2076
2068
2043
2008
1976
1955
1950
1957
1968
1979
1985
1986
1985
1985
1984
1983
1984
1985
1986
1986
1986
1986
1986
1986
1985
1985
1986
1987
1988
1988
1989
1989
1989
1989
1989
1989
1990
1991
1992
1993
1994
1995
1995
1996
1997
1999
2001
2003
2006
2007
2009
2010
2011
2012
2013
2015
2016
2018
2019
2020
2020
2019
2019
2018
2016
2015
2013
2011
2009
2006
2003
2000
1997
1994
1992
1990
1988
1988
1988
1987
1987
1986
1985
1984
1984
1984
1984
1985
1985
1985
1985
1985
1984
1984
1984
1984
1985
1985
1986
1986
1986
1985
1985
1984
1984
1984
1985
1985
1986
1986
1986
1986
1985
1985
1984
1984
1984
1985
1985
1985
1984
1984
1983
1982
1982
1982
1982
1982
1982
1983
1983
1982
1982
1981
1981
1981
1981
1981
1982
1982
1982
1982
1981
1981
1980
1980
1980
1981
1981
1982
1982
1982
1981
1981
1980
1980
1981
1981
1982
1982
1982
1981
1980
1978
1978
1979
1980
1983
1985
1986
1986
1986
1985
1984
1984
1983
1982
1982
1981
1981
1980
1979
1979
1978
1978
1978
1978
1978
1979
1979
1979
1979
1979
1978
1976
1973
1972
1975
1985
2005
2030
2054
2067
2063
2043
2010
1978
1955
1947
1951
1961
1971
1977
1979
1978
1978
1977
1978
1979
1979
1979
1979
1979
1979
1979
1980
1980
1981
1982
1982
1982
1982
1981
1981
1981
1982
1983
1984
1985
1986
1987
1988
1988
1988
1988
1989
1991
1993
1995
1996
1998
2000
2001
2003
2004
2005
2007
2008
2010
2011
2012
2012
2012
2012
2012
2012
2012
2011
2010
2009
2006
2002
1999
1995
1992
1989
1988
1986
1985
1984
1984
1983
1981
1980
1979
1978
1978
1979
1980
1980
1980
1980
1979
1978
1978
1978
1978
1979
1980
1980
1980
1980
1979
1978
1977
1976
1977
1977
1977
1976
1975
1973
1971
1969
1968
1967
1967
1967
1967
1967
1967
1967
1967
1966
1965
1964
1964
1964
1964
1965
1965
1965
1964
1963
1963
1962
1962
1963
1964
1964
1964
1963
1962
1961
1961
1960
1961
1961
1962
1962
1962
1961
1960
1959
1958
1957
1956
1956
1957
1958
1960
1962
1963
1964
1964
1964
1964
1963
1962
1961
1959
1958
1956
1955
1954
1954
1954
1954
1954
1955
1955
1954
1954
1954
1954
1954
1954
1954
1952
1950
1950
1957
1973
1997
2024
2044
2047
2031
1999
1962
1932
1915
1914
1922
1935
1946
1953
1957
1959
1959
1959
1959
1959
1960
1960
1961
1961
1962
1962
1963
1964
1964
1964
1964
1964
1964
1965
1967
1968
1969
1969
1970
1970
1971
1971
1972
1974
1975
1977
1979
1980
1980
1981
1981
1983
1985
1987
1990
1992
1994
1995
1995
1996
1996
1997
1999
2000
2001
2001
2002
2002
2000
1998
1995
1991
1988
1985
1983
1981
1979
1977
1976
1976
1975
1975
1973
1972
1972
1972
1973
1974
1974
1974
1974
1975
1976
1977
1977
1977
1978
1980
1981
1980
1978
1975
1973
1974
1977
1981
1985
1985
1984
1981
1980
1981
1983
1985
1986
1986
1985
1984
1984
1984
1984
1985
1986
1987
1989
1990
1991
1992
1992
1992
1992
1992
1992
1992
1993
1993
1994
1995
1996
1996
1995
1994
1993
1992
1992
1992
1994
1995
1996
1997
1997
1996
1995
1994
1994
1996
1998
2000
2002
2002
2002
2002
2002
2004
2005
2006
2005
2004
2002
1999
1997
1996
1996
1996
1997
1998
1998
1999
1999
1998
1998
1997
1998
2000
2001
2001
1998
1993
1991
1995
2008
2031
2058
2082
2092
2082
2053
2018
1985
1967
1964
1973
1984
1993
1997
1997
1997
1997
1996
1995
1994
1994
1995
1996
1996
1995
1995
1995
1996
1997
1997
1996
1995
1995
1996
1998
1999
1999
1999
1998
1998
1998
1998
1998
1999
1999
2000
2000
2001
2003
2005
2007
2009
2010
2010
2011
2012
2014
2016
2016
2016
2016
2016
2017
2018
2019
2020
2020
2019
2017
2013
2010
2006
2003
2001
1999
1997
1995
1993
1989
1986
1985
1985
1986
1987
1986
1984
1982
1982
1982
1983
1983
1983
1984
1984
1985
1985
1985
1983
1982
1981
1981
1981
1982
1983
1984
1985
1986
1985
1984
1983
1982
1982
1982
1983
1983
1982
1982
1983
1983
1983
1983
1985
1987
1988
1988
1985
1982
1979
1978
1979
1980
1981
1981
1981
1983
1984
1984
1983
1982
1980
1979
1979
1978
1978
1978
1979
1980
1982
1984
1985
1986
1988
1988
1989
1988
1987
1985
1983
1981
1979
1977
1977
1977
1978
1979
1979
1979
1978
1978
1978
1978
1978
1978
1978
1977
1974
1970
1967
1971
1984
2007
2035
2057
2066
2055
2028
1992
1961
1943
1939
1946
1958
1968
1974
1977
1977
1977
1975
1974
1974
1975
1976
1978
1978
1978
1976
1975
1975
1977
1979
1980
1980
1979
1978
1979
1980
1982
1983
1983
1981
1980
1980
1980
1982
1984
1986
1987
1987
1987
1988
1989
1991
1995
1998
2001
2001
2001
1999
1998
1997
1998
2000
2002
2003
2003
2003
2001
1999
1996
1994
1991
1989
1987
1984
1981
1977
1975
1973
1971
1969
1967
1966
1965
1966
1968
1969
1967
1964
1961
1959
1959
1961
1962
1964
1964
1965
1965
1965
1963
1962
1961
1960
1960
1960
1959
1958
1957
1956
1955
1954
1954
1956
1957
1957
1957
1955
1954
1954
1955
1957
1958
1957
1955
1953
1953
1953
1954
1954
1954
1953
1953
1954
1954
1955
1955
1956
1956
1956
1955
1953
1951
1951
1952
1953
1954
1955
1957
1958
1958
1959
1959
1959
1959
1957
1955
1951
1949
1947
1947
1946
1945
1944
1944
1945
1947
1949
1950
1950
1950
1949
1948
1948
1947
1945
1943
1943
1951
1968
1993
2019
2036
2035
2015
1982
1946
1920
1909
1911
1921
1932
1941
1946
1948
1951
1952
1953
1952
1952
1951
1951
1952
1952
1954
1956
1958
1958
1956
1953
1951
1950
1951
1953
1955
1956
1958
1958
1959
1958
1957
1957
1958
1959
1960
1961
1961
1962
1963
1965
1967
1970
1971
1972
1972
1973
1976
1978
1980
1981
1981
1980
1978
1977
1978
1979
1981
1981
1979
1975
1972
1969
1968
1966
1963
1959
1955
1952
1951
1952
1953
1953
1952
1950
1949
1949
1950
1951
1952
1952
1951
1950
1949
1949
1949
1950
1951
1953
1955
1955
1954
1954
1954
1956
1957
1957
1955
1953
1951
1952
1953
1955
1956
1956
1957
1957
1958
1958
1958
1960
1962
1963
1961
1958
1955
1953
1954
1956
1960
1962
1964
1965
1966
1966
1966
1965
1965
1966
1966
1965
1965
1963
1961
1959
1958
1958
1958
1958
1958
1958
1958
1958
1958
1958
1960
1962
1964
1963
1961
1957
1957
1965
1984
2010
2035
2049
2047
2025
1990
1953
1926
1913
1915
1927
1941
1953
1960
1964
1966
1968
1968
1968
1967
1966
1966
1967
1968
1968
1968
1968
1970
1972
1974
1974
1973
1973
1973
1974
1975
1975
1975
1975
1975
1977
1979
1981
1982
1983
1984
1985
1986
1986
1987
1987
1989
1991
1993
1995
1996
1997
1997
1999
2001
2003
2003
2003
2002
2002
2004
2004
2002
1997
1992
1988
1987
1989
1989
1988
1985
1981
1978
1977
1977
1978
1978
1979
1979
1978
1976
1974
1974
1975
1977
1978
1978
1978
1976
1976
1976
1976
1976
1974
1973
1973
1974
1976
1977
1976
1975
1973
1973
1974
1976
1977
1978
1978
1977
1975
1974
1974
1975
1975
1975
1973
1972
1971
1971
1972
1973
1973
1973
1972
1971
1970
1969
1970
1971
1973
1974
1975
1975
1977
1979
1981
1982
1980
1977
1974
1972
1970
1968
1965
1962
1961
1960
1960
1961
1960
1959
1958
1957
1957
1958
1961
1962
1963
1962
1959
1956
1952
1949
1952
1963
1983
2010
2037
2052
2049
2027
1991
1953
1926
1916
1922
1936
1950
1959
1962
1962
1961
1960
1959
1959
1959
1961
1964
1966
1967
1968
1967
1967
1966
1966
1966
1966
1966
1967
1968
1969
1970
1970
1969
1968
1968
1968
1970
1973
1977
1979
1981
1981
1980
1980
1981
1983
1985
1987
1989
1990
1991
1992
1992
1993
1993
1994
1996
1997
1998
1997
1995
1993
1992
1991
1990
1988
1985
1981
1976
1972
1970
1968
1967
1967
1966
1966
1966
1967
1969
1969
1969
1967
1964
1962
1961
1962
1963
1964
1966
1967
1968
1967
1967
1965
1964
1964
1965
1967
1969
1970
1970
1970
1968
1966
1965
1965
1965
1965
1965
1965
1965
1965
1967
1969
1970
1969
1967
1964
1962
1962
1962
1963
1963
1963
1962
1962
1962
1963
1964
1964
1965
1966
1968
1970
1972
1972
1970
1968
1965
1964
1964
1964
1963
1963
1963
1963
1963
1963
1962
1962
1961
1961
1960
1960
1960
1960
1960
1960
1958
1954
1952
1954
1966
1986
2013
2039
2052
2048
2026
1989
1951
1922
1910
1914
1926
1941
1952
1959
1961
1961
1960
1958
1957
1957
1959
1960
1962
1962
1963
1963
1963
1962
1961
1960
1960
1961
1963
1964
1965
1965
1965
1965
1966
1967
1968
1967
1967
1967
1969
1971
1973
1975
1977
1977
1978
1979
1980
1982
1984
1986
1989
1990
1990
1989
1988
1988
1989
1990
1991
1991
1989
1987
1984
1981
1979
1976
1973
1970
1967
1964
1962
1960
1959
1957
1957
1958
1959
1959
1958
1957
1956
1955
1956
1957
1959
1960
1961
1960
1960
1959
1958
1959
1960
1961
1961
1962
1962
1963
1963
1963
1964
1964
1964
1964
1964
1964
1966
1967
1967
1967
1967
1967
1967
1967
1967
1968
1968
1969
1968
1968
1968
1967
1967
1967
1966
1965
1965
1966
1967
1968
1970
1973
1975
1976
1976
1976
1975
1976
1976
1976
1975
1974
1972
1971
1971
1970
1969
1969
1969
1970
1970
1970
1969
1969
1968
1969
1971
1973
1973
1970
1965
1962
1967
1982
2006
2034
2054
2058
2045
2014
1978
1947
1931
1930
1940
1954
1965
1971
1974
1974
1975
1974
1974
1974
1975
1975
1976
1977
1977
1977
1977
1978
1978
1979
1979
1979
1979
1980
1980
1981
1982
1983
1984
1985
1986
1986
1986
1987
1989
1991
1994
1996
1997
1997
1998
2000
2002
2004
2007
2008
2010
2011
2011
2012
2012
2013
2013
2014
2015
2016
2015
2013
2009
2004
2000
1997
1995
1993
1992
1990
1987
1984
1983
1982
1983
1984
1984
1983
1981
1981
1980
1980
1980
1979
1978
1977
1978
1979
1980
1981
1982
1981
1980
1978
1976
1976
1976
1977
1979
1979
1979
1978
1977
1977
1977
1977
1977
1977
1978
1978
1978
1977
1977
1976
1975
1975
1975
1975
1976
1977
1977
1976
1975
1974
1974
1973
1973
1972
1971
1971
1972
1973
1975
1976
1976
1977
1977
1977
1976
1975
1974
1973
1972
1972
1971
1971
1970
1970
1970
1969
1967
1967
1966
1967
1968
1969
1969
1969
1970
1970
1969
1966
1964
1967
1978
1997
2023
2045
2054
2046
2020
1984
1949
1926
1917
1922
1933
1946
1956
1961
1964
1964
1964
1963
1963
1964
1965
1967
1968
1969
1970
1971
1971
1971
1970
1970
1970
1971
1971
1972
1973
1973
1974
1974
1973
1973
1972
1972
1974
1975
1977
1979
1980
1982
1984
1986
1987
1987
1988
1989
1990
1992
1993
1995
1996
1997
1998
1998
1999
1999
1999
1997
1995
1992
1990
1988
1986
1984
1981
1978
1975
1972
1970
1968
1967
1967
1968
1969
1969
1969
1968
1966
1965
1965
1966
1967
1968
1969
1970
1970
1970
1970
1969
1969
1970
1971
1972
1973
1974
1974
1974
1974
1973
1973
1974
1974
1975
1975
1976
1976
1975
1975
1975
1974
1975
1975
1976
1976
1977
1977
1976
1976
1975
1975
1976
1976
1977
1977
1978
1978
1978
1978
1978
1977
1978
1978
1978
1978
1978
1978
1977
1978
1979
1981
1983
1985
1987
1988
1989
1989
1988
1987
1986
1985
1984
1984
1984
1984
1984
1984
1983
1982
1982
1981
1981
1982
1983
1984
1984
1984
1983
1980
1977
1977
1985
2001
2026
2051
2070
2072
2055
2025
1990
1962
1950
1952
1962
1974
1983
1986
1985
1984
1983
1983
1983
1983
1984
1985
1985
1985
1985
1985
1985
1985
1985
1986
1987
1988
1988
1988
1988
1987
1987
1987
1987
1988
1990
1991
1992
1992
1992
1993
1993
1994
1995
1996
1998
1999
2001
2002
2003
2004
2004
2005
2006
2007
2008
2009
2009
2009
2009
2008
2007
2005
2003
2001
1998
1995
1992
1989
1986
1983
1980
1978
1977
1977
1977
1977
1976
1975
1974
1973
1972
1972
1972
1973
1973
1974
1974
1973
1973
1972
1971
1971
1971
1971
1971
1971
1971
1970
1969
1968
1967
1967
1967
1968
1968
1969
1969
1968
1968
1967
1966
1966
1966
1966
1966
1967
1967
1967
1967
1967
1966
1966
1966
1966
1966
1967
1967
1966
1966
1965
1964
1963
1962
1961
1962
1964
1966
1969
1971
1972
1972
1971
1971
1970
1970
1970
1969
1968
1966
1964
1962
1962
1962
1963
1963
1964
1964
1964
1964
1963
1963
1963
1963
1964
1963
1962
1959
1960
1967
1984
2008
2035
2053
2055
2039
2007
1971
1941
1924
1922
1929
1941
1952
1960
1964
1966
1966
1966
1965
1965
1965
1966
1966
1967
1968
1968
1968
1969
1970
1971
1971
1972
1972
1973
1974
1975
1975
1976
1976
1976
1976
1976
1976
1977
1979
1980
1981
1982
1983
1984
1985
1986
1988
1990
1992
1994
1996
1997
1998
1998
1998
1999
2000
2001
2001
2002
2001
2000
1997
1994
1991
1987
1983
1980
1977
1975
1973
1971
1970
1968
1967
1966
1965
1966
1966
1967
1967
1966
1965
1965
1964
1965
1966
1967
1968
1968
1968
1969
1969
1968
1968
1969
1969
1970
1970
1971
1971
1972
1972
1972
1972
1972
1972
1973
1974
1974
1974
1974
1973
1972
1971
1971
1971
1971
1972
1973
1973
1973
1972
1972
1971
1971
1972
1972
1972
1973
1973
1972
1971
1971
1970
1971
1973
1976
1979
1980
1981
1981
1981
1980
1979
1978
1977
1977
1977
1977
1977
1977
1977
1976
1976
1976
1976
1976
1977
1978
1978
1978
1978
1978
1977
1974
1971
1972
1981
1998
2023
2048
2066
2066
2048
2017
1982
1955
1943
1945
1955
1967
1975
1979
1979
1978
1978
1978
1979
1980
1980
1981
1981
1980
1980
1980
1981
1982
1982
1983
1984
1984
1984
1984
1984
1984
1984
1985
1986
1988
1989
1991
1992
1992
1993
1994
1995
1996
1998
2000
2002
2003
2005
2006
2007
2008
2010
2012
2015
2017
2018
2019
2019
2019
2019
2018
2018
2017
2016
2015
2013
2010
2007
2004
2001
1999
1997
1995
1995
1994
1994
1993
1993
1992
1991
1991
1991
1991
1992
1992
1992
1993
1992
1992
1992
1992
1992
1992
1992
1993
1993
1993
1993
1993
1993
1993
1993
1993
1994
1994
1994
1994
1993
1993
1992
1992
1992
1992
1993
1993
1993
1993
1993
1992
1991
1991
1990
1991
1991
1991
1991
1991
1990
1989
1989
1989
1989
1989
1990
1990
1990
1990
1990
1989
1988
1988
1988
1988
1989
1989
1990
1990
1989
1989
1988
1988
1988
1988
1989
1990
1990
1990
1989
1989
1988
1988
1988
1988
1987
1987
1987
1987
1987
1988
1990
1991
1993
1994
1995
1995
1994
1994
1993
1992
1991
1989
1989
1988
1988
1989
1989
1989
1989
1988
1987
1987
1987
1988
1989
1989
1989
1988
1985
1981
1982
1990
2008
2033
2059
2077
2078
2060
2030
1996
1970
1959
1961
1971
1981
1987
1989
1988
1987
1986
1985
1985
1985
1986
1987
1987
1988
1988
1987
1987
1987
1987
1988
1988
1989
1990
1990
1990
1989
1988
1988
1988
1988
1989
1991
1992
1994
1994
1994
1995
1995
1995
1996
1997
1999
2000
2002
2003
2004
2004
2005
2005
2006
2007
2008
2009
2009
2009
2009
2008
2007
2006
2003
2001
1998
1996
1992
1989
1986
1982
1979
1977
1975
1975
1975
1974
1974
1974
1972
1971
1970
1970
1969
1970
1970
1970
1970
1969
1968
1967
1966
1966
1966
1967
1967
1967
1967
1965
1964
1962
1961
1961
1960
1960
1960
1960
1960
1960
1960
1960
1960
1959
1959
1958
1958
1958
1958
1958
1957
1957
1957
1957
1957
1957
1958
1958
1958
1958
1958
1957
1957
1957
1957
1957
1958
1958
1959
1959
1958
1958
1958
1957
1958
1958
1959
1960
1961
1961
1961
1960
1959
1959
1959
1960
1960
1960
1960
1959
1960
1960
1962
1964
1966
1968
1970
1970
1970
1969
1968
1966
1966
1965
1965
1965
1965
1965
1965
1966
1965
1965
1964
1964
1965
1965
1966
1967
1968
1968
1966
1963
1961
1964
1976
1997
2024
2048
2060
2054
2030
1994
1959
1936
1928
1934
1946
1959
1968
1972
1973
1973
1973
1972
1972
1973
1975
1976
1977
1977
1977
1977
1977
1978
1978
1979
1980
1980
1981
1981
1981
1982
1982
1982
1983
1985
1986
1987
1989
1989
1990
1991
1992
1994
1996
1998
2001
2003
2004
2005
2007
2008
2009
2010
2011
2012
2014
2015
2016
2016
2016
2016
2015
2014
2013
2012
2011
2009
2007
2004
2001
1998
1995
1993
1992
1991
1991
1991
1991
1990
1989
1989
1988
1988
1988
1988
1989
1989
1989
1989
1989
1988
1988
1988
1988
1989
1989
1990
1990
1990
1989
1989
1989
1989
1989
1990
1991
1991
1992
1992
1991
1991
1990
1990
1990
1990
1990
1990
1990
1990
1990
1989
1988
1988
1988
1987
1987
1988
1988
1989
1989
1988
1988
1987
1988
1988
1989
1990
1990
1990
1989
1989
1988
1988
1988
1989
1989
1990
1990
1990
1989
1988
1988
1987
1987
1987
1988
1988
1989
1989
1988
1988
1987
1987
1987
1987
1988
1988
1988
1987
1986
1985
1985
1985
1987
1989
1992
1994
1995
1995
1994
1993
1992
1991
1990
1990
1989
1989
1988
1988
1988
1987
1987
1986
1986
1986
1987
1988
1989
1989
1989
1989
1986
1982
1981
1986
2000
2023
2049
2071
2080
2069
2043
2008
1978
1960
1958
1965
1976
1985
1988
1988
1987
1987
1986
1987
1987
1988
1988
1989
1989
1989
1988
1988
1989
1989
1990
1990
1990
1990
1991
1990
1990
1991
1991
1993
1994
1995
1996
1996
1996
1997
1998
1999
2000
2001
2003
2004
2006
2007
2008
2008
2009
2010
2011
2012
2014
2015
2016
2016
2016
2016
2015
2015
2015
2014
2013
2011
2009
2006
2002
1999
1995
1993
1991
1990
1989
1988
1987
1986
1985
1984
1984
1983
1983
1984
1984
1985
1985
1985
1985
1984
1984
1984
1984
1985
1985
1986
1986
1986
1986
1985
1985
1984
1984
1985
1985
1986
1986
1986
1986
1985
1984
1984
1984
1984
1984
1985
1985
1985
1985
1984
1984
1983
1983
1983
1984
1984
1984
1984
1984
1983
1982
1982
1981
1982
1982
1983
1983
1983
1983
1982
1982
1982
1982
1983
1983
1983
1983
1983
1983
1983
1982
1982
1982
1983
1985
1986
1988
1988
1987
1986
1986
1985
1985
1985
1985
1985
1985
1984
1984
1984
1985
1987
1989
1991
1992
1993
1992
1992
1991
1990
1989
1988
1987
1986
1985
1985
1985
1985
1984
1984
1983
1983
1983
1983
1984
1985
1985
1985
1982
1979
1976
1981
1994
2016
2043
2065
2074
2064
2038
2004
1973
1954
1950
1957
1968
1978
1983
1984
1983
1982
1982
1981
1982
1982
1983
1984
1984
1984
1984
1984
1984
1984
1985
1985
1985
1986
1986
1987
1987
1987
1987
1987
1988
1989
1990
1991
1992
1992
1993
1993
1993
1994
1995
1997
1999
2000
2002
2003
2003
2004
2005
2005
2006
2007
2008
2009
2010
2010
2009
2009
2008
2007
2005
2004
2002
1999
1996
1993
1990
1987
1985
1982
1981
1980
1980
1979
1979
1978
1977
1977
1976
1976
1976
1977
1977
1978
1978
1978
1978
1978
1977
1977
1977
1978
1978
1979
1980
1980
1980
1979
1979
1978
1978
1978
1979
1980
1980
1980
1980
1979
1978
1978
1978
1979
1979
1980
1980
1980
1979
1978
1978
1977
1977
1978
1979
1979
1979
1979
1979
1978
1978
1977
1977
1978
1978
1979
1979
1979
1979
1978
1978
1978
1978
1979
1979
1980
1980
1980
1980
1979
1978
1978
1977
1977
1977
1977
1979
1980
1982
1984
1984
1985
1985
1985
1985
1984
1984
1983
1982
1981
1979
1978
1978
1978
1978
1979
1979
1979
1979
1978
1978
1978
1978
1979
1979
1977
1974
1973
1978
1991
2013
2039
2059
2066
2055
2029
1995
1965
1947
1944
1951
1962
1972
1977
1979
1980
1979
1979
1979
1979
1979
1979
1979
1980
1980
1981
1982
1982
1982
1982
1981
1981
1981
1982
1983
1984
1985
1985
1985
1985
1985
1986
1987
1988
1989
1990
1992
1992
1993
1994
1994
1995
1997
1998
2000
2001
2002
2003
2004
2004
2004
2004
2004
2005
2006
2006
2007
2006
2004
2002
1999
1997
1994
1991
1989
1986
1984
1982
1978
1974
1970
1967
1965
1964
1964
1965
1964
1964
1963
1963
1962
1962
1962
1963
1964
1964
1965
1965
1965
1964
1964
1964
1965
1965
1966
1966
1966
1966
1966
1966
1966
1966
1966
1967
1967
1968
1968
1968
1967
1967
1967
1966
1966
1967
1967
1967
1968
1968
1967
1967
1966
1966
1966
1966
1967
1967
1968
1967
1967
1967
1967
1967
1967
1967
1968
1969
1969
1969
1969
1969
1968
1968
1968
1969
1970
1970
1970
1970
1969
1968
1967
1967
1968
1971
1973
1976
1977
1977
1977
1976
1975
1974
1974
1974
1973
1973
1972
1972
1971
1971
1970
1970
1970
1970
1970
1971
1971
1971
1971
1971
1970
1968
1965
1965
1972
1988
2011
2037
2055
2058
2044
2014
1981
1954
1940
1939
1948
1958
1967
1971
1972
1972
1972
1972
1972
1973
1974
1974
1975
1975
1974
1974
1974
1975
1975
1975
1976
1976
1976
1976
1976
1976
1976
1976
1977
1978
1979
1980
1980
1980
1980
1981
1981
1982
1983
1984
1985
1986
1987
1988
1988
1988
1989
1990
1991
1992
1993
1994
1994
1993
1993
1993
1992
1992
1991
1990
1988
1985
1982
1978
1974
1971
1968
1967
1965
1964
1963
1961
1960
1959
1959
1959
1959
1959
1959
1959
1959
1959
1958
1958
1957
1957
1957
1958
1958
1958
1957
1957
1956
1956
1956
1956
1955
1956
1956
1956
1956
1955
1954
1953
1952
1952
1952
1952
1953
1953
1953
1953
1952
1952
1951
1951
1952
1952
1953
1953
1953
1953
1953
1953
1953
1952
1951
1951
1951
1953
1955
1957
1959
1960
1960
1960
1960
1960
1960
1960
1960
1959
1957
1956
1955
1955
1955
1956
1956
1956
1956
1956
1956
1956
1957
1957
1958
1958
1958
1957
1954
1954
1960
1976
1998
2024
2042
2046
2032
2002
1968
1939
1922
1918
1925
1936
1947
1956
1961
1964
1965
1965
1965
1964
1965
1965
1966
1967
1968
1969
1970
1970
1970
1970
1970
1970
1971
1972
1973
1974
1974
1975
1975
1976
1976
1977
1978
1980
1982
1984
1986
1987
1988
1988
1989
1990
1992
1995
1997
1999
2001
2002
2004
2005
2005
2006
2007
2007
2008
2009
2009
2008
2007
2004
2001
1998
1995
1992
1990
1988
1986
1984
1983
1981
1980
1980
1980
1981
1982
1983
1984
1984
1984
1983
1983
1983
1983
1984
1984
1985
1986
1986
1986
1985
1985
1985
1985
1986
1986
1987
1987
1987
1987
1986
1986
1985
1986
1986
1987
1988
1988
1988
1987
1987
1986
1986
1987
1987
1988
1988
1988
1988
1988
1987
1986
1986
1986
1987
1987
1988
1988
1988
1988
1987
1987
1986
1986
1987
1987
1988
1988
1988
1987
1987
1986
1986
1986
1986
1987
1987
1987
1987
1988
1989
1991
1992
1994
1995
1996
1997
1996
1996
1995
1993
1992
1991
1990
1990
1990
1990
1990
1989
1989
1988
1987
1987
1987
1988
1989
1989
1989
1987
1984
1982
1984
1996
2016
2043
2066
2078
2071
2048
2013
1981
1960
1954
1960
1971
1981
1987
1989
1988
1988
1987
1986
1986
1986
1986
1987
1988
1988
1989
1989
1989
1988
1988
1988
1989
1990
1990
1991
1991
1991
1991
1991
1991
1992
1993
1994
1995
1996
1996
1997
1997
1998
1999
2001
2002
2004
2005
2007
2008
2008
2009
2010
2010
2011
2011
2012
2012
2013
2013
2012
2011
2009
2008
2005
2003
2001
1998
1995
1992
1989
1986
1984
1983
1982
1981
1981
1981
1981
1981
1980
1980
1979
1979
1979
1979
1980
1980
1980
1980
1980
1980
1980
1980
1980
1980
1981
1982
1982
1982
1981
1981
1980
1980
1980
1981
1981
1982
1982
1982
1981
1981
1980
1980
1980
1981
1981
1982
1982
1981
1980
1980
1979
1979
1979
1979
1980
1980
1981
1981
1980
1980
1979
1979
1979
1980
1981
1981
1982
1981
1981
1980
1980
1980
1981
1981
1981
1982
1981
1981
1980
1979
1979
1979
1980
1982
1984
1986
1987
1988
1988
1987
1986
1986
1985
1985
1985
1984
1983
1983
1982
1981
1981
1980
1980
1980
1981
1981
1982
1982
1982
1981
1980
1978
1975
1974
1979
1992
2015
2041
2062
2070
2060
2034
2000
1970
1952
1949
1956
1967
1976
1980
1981
1980
1980
1980
1980
1981
1981
1981
1982
1982
1982
1983
1983
1984
1985
1986
1986
1986
1986
1986
1985
1985
1986
1987
1988
1989
1990
1990
1990
1991
1991
1992
1993
1994
1996
1997
1998
2000
2000
2001
2002
2003
2003
2005
2006
2007
2008
2009
2009
2009
2009
2008
2008
2008
2007
2006
2004
2001
1998
1994
1991
1988
1986
1984
1983
1982
1981
1981
1980
1979
1978
1978
1978
1978
1979
1979
1979
1979
1979
1978
1978
1978
1979
1979
1980
1980
1980
1980
1980
1980
1980
1980
1980
1980
1981
1981
1982
1982
1982
1981
1980
1980
1980
1980
1981
1982
1982
1982
1981
1980
1980
1979
1980
1980
1981
1981
1981
1981
1980
1979
1979
1979
1979
1980
1980
1981
1981
1981
1981
1980
1980
1979
1980
1980
1981
1981
1982
1982
1981
1981
1980
1980
1980
1980
1981
1981
1982
1982
1981
1980
1979
1978
1978
1979
1981
1983
1985
1987
1988
1987
1987
1986
1986
1986
1985
1985
1984
1983
1982
1981
1980
1980
1980
1980
1980
1981
1981
1981
1981
1980
1980
1979
1978
1976
1974
1976
1984
2002
2026
2050
2065
2065
2047
2017
1984
1959
1948
1950
1959
1970
1977
1980
1980
1980
1981
1981
1981
1981
1981
1981
1981
1981
1982
1982
1983
1984
1984
1984
1984
1984
1984
1984
1984
1985
1986
1987
1988
1989
1989
1989
1989
1990
1990
1992
1993
1995
1996
1997
1998
1998
1999
2000
2001
2003
2005
2006
2007
2008
2009
2009
2009
2009
2009
2009
2009
2009
2008
2006
2003
2000
1996
1993
1990
1988
1986
1985
1983
1982
1981
1979
1978
1977
1977
1977
1977
1978
1978
1978
1978
1978
1977
1977
1978
1978
1979
1980
1980
1980
1980
1979
1979
1979
1979
1979
1979
1980
1980
1980
1980
1980
1979
1979
1979
1979
1980
1980
1981
1981
1980
1980
1979
1979
1979
1980
1980
1981
1981
1981
1980
1980
1979
1979
1979
1979
1979
1980
1980
1980
1980
1979
1979
1979
1979
1979
1979
1980
1980
1980
1980
1979
1979
1979
1979
1979
1980
1980
1980
1980
1979
1978
1977
1977
1979
1981
1984
1986
1987
1987
1987
1986
1985
1984
1983
1983
1983
1982
1981
1980
1979
1978
1978
1978
1979
1979
1979
1979
1979
1980
1980
1980
1979
1977
1974
1972
1976
1989
2010
2036
2057
2067
2057
2033
1999
1969
1950
1946
1952
1962
1972
1977
1979
1979
1979
1979
1979
1979
1980
1980
1980
1980
1980
1980
1981
1981
1982
1983
1983
1983
1983
1983
1983
1983
1983
1984
1985
1986
1987
1988
1988
1988
1988
1989
1990
1991
1993
1995
1996
1997
1997
1998
1999
2000
2001
2002
2003
2005
2006
2006
2006
2006
2006
2006
2006
2005
2005
2004
2002
2000
1996
1993
1989
1986
1983
1982
1980
1980
1978
1977
1976
1976
1975
1975
1975
1975
1976
1976
1976
1976
1976
1975
1975
1975
1975
1976
1976
1977
1978
1978
1978
1977
1977
1976
1976
1977
1978
1978
1979
1979
1978
1978
1977
1977
1977
1977
1978
1978
1978
1978
1977
1977
1976
1976
1976
1976
1977
1977
1977
1977
1977
1976
1976
1975
1975
1975
1976
1976
1977
1977
1977
1976
1976
1976
1976
1976
1977
1977
1977
1977
1977
1976
1976
1975
1975
1976
1977
1977
1978
1978
1978
1977
1977
1976
1976
1975
1975
1976
1977
1978
1979
1981
1982
1983
1984
1984
1984
1984
1983
1983
1981
1980
1979
1977
1977
1977
1977
1978
1978
1978
1978
1977
1976
1976
1976
1977
1978
1977
1975
1973
1972
1977
1991
2013
2039
2058
2064
2052
2025
1992
1963
1947
1944
1951
1962
1972
1977
1979
1979
1979
1978
1977
1977
1977
1978
1978
1979
1980
1981
1980
1980
1980
1980
1980
1981
1981
1982
1983
1984
1984
1984
1984
1984
1985
1986
1987
1988
1989
1990
1991
1992
1992
1993
1994
1995
1997
1998
2000
2002
2003
2003
2004
2004
2004
2005
2006
2007
2007
2008
2007
2007
2005
2003
2001
1998
1996
1993
1990
1988
1985
1983
1980
1979
1977
1977
1977
1977
1977
1977
1976
1975
1974
1974
1973
1974
1975
1975
1976
1977
1977
1977
1976
1976
1976
1976
1976
1977
1977
1977
1978
1977
1977
1977
1977
1977
1977
1978
1978
1979
1978
1978
1978
1977
1977
1977
1977
1978
1978
1978
1978
1978
1977
1976
1976
1976
1977
1977
1977
1977
1977
1976
1976
1976
1976
1976
1976
1977
1977
1977
1976
1976
1976
1976
1975
1975
1975
1975
1975
1976
1976
1976
1975
1974
1974
1974
1974
1975
1975
1975
1974
1973
1973
1973
1973
1975
1977
1979
1980
1982
1982
1981
1980
1978
1977
1976
1975
1974
1973
1972
1972
1971
1970
1969
1969
1968
1968
1968
1969
1969
1969
1969
1968
1966
1962
1960
1964
1975
1995
2020
2041
2050
2042
2017
1983
1951
1930
1923
1928
1939
1950
1957
1961
1961
1961
1960
1960
1960
1961
1962
1962
1962
1961
1961
1960
1961
1961
1962
1962
1963
1963
1962
1962
1961
1961
1961
1961
1962
1963
1964
1965
1965
1966
1966
1967
1968
1970
1971
1973
1974
1976
1977
1977
1978
1979
1979
1980
1981
1982
1983
1983
1983
1983
1982
1982
1982
1982
1981
1980
1978
1975
1971
1967
1963
1960
1958
1956
1955
1954
1953
1953
1952
1951
1951
1950
1950
1951
1951
1952
1952
1953
1952
1952
1951
1950
1950
1950
1951
1952
1953
1953
1953
1952
1951
1951
1952
1952
1953
1954
1954
1955
1955
1955
1955
1954
1954
1955
1955
1956
1956
1956
1955
1955
1955
1955
1955
1955
1956
1956
1956
1956
1955
1955
1954
1954
1955
1956
1956
1956
1955
1954
1954
1955
1956
1958
1960
1962
1963
1964
1964
1963
1962
1961
1959
1958
1957
1957
1957
1957
1958
1958
1959
1958
1957
1956
1956
1956
1957
1957
1958
1958
1958
1955
1952
1952
1959
1976
2001
2029
2049
2053
2039
2008
1971
1939
1921
1916
1923
1935
1946
1954
1958
1960
1961
1961
1960
1961
1962
1964
1964
1965
1965
1964
1964
1965
1965
1966
1967
1968
1969
1969
1970
1970
1970
1971
1972
1973
1974
1975
1977
1978
1978
1979
1980
1981
1982
1984
1986
1988
1990
1993
1994
1996
1998
1999
2000
2002
2003
2004
2005
2006
2006
2005
2004
2003
2001
1999
1997
1995
1991
1988
1985
1981
1978
1976
1974
1973
1973
1973
1973
1973
1972
1972
1972
1972
1972
1973
1974
1975
1975
1975
1975
1974
1974
1974
1974
1975
1976
1977
1978
1978
1979
1979
1979
1979
1980
1981
1982
1983
1983
1984
1985
1985
1985
1986
1986
1987
1988
1988
1989
1989
1989
1988
1987
1987
1986
1987
1987
1988
1988
1988
1988
1988
1987
1987
1987
1988
1989
1990
1991
1992
1992
1993
1993
1993
1993
1992
1992
1992
1993
1994
1996
1997
1998
1999
1999
1999
1999
1999
1999
1998
1997
1996
1995
1994
1994
1994
1994
1995
1995
1995
1995
1994
1994
1994
1995
1996
1996
1996
1995
1992
1990
1993
2005
2025
2051
2075
2088
2081
2057
2023
1990
1969
1963
1969
1980
1991
1996
1998
1998
1998
1997
1997
1997
1997
1997
1998
2000
2001
2001
2001
2001
2001
2001
2000
2001
2001
2002
2003
2003
2003
2003
2003
2003
2003
2004
2005
2006
2007
2008
2009
2009
2010
2011
2012
2013
2015
2017
2018
2020
2021
2021
2022
2022
2023
2024
2024
2025
2026
2026
2025
2024
2023
2020
2018
2015
2012
2009
2006
2003
2000
1997
1995
1993
1992
1991
1990
1990
1990
1990
1990
1990
1990
1989
1989
1989
1989
1990
1991
1991
1992
1991
1991
1990
1990
1991
1991
1991
1992
1992
1991
1991
1991
1991
1990
1990
1991
1991
1991
1991
1992
1992
1991
1990
1990
1990
1990
1990
1991
1991
1991
1990
1989
1988
1988
1987
1988
1988
1988
1988
1988
1988
1988
1987
1987
1987
1987
1988
1988
1988
1988
1988
1988
1987
1987
1987
1988
1988
1988
1987
1987
1986
1985
1985
1986
1988
1990
1993
1994
1995
1995
1995
1993
1992
1991
1990
1990
1990
1991
1991
1991
1990
1990
1990
1990
1990
1990
1991
1991
1991
1991
1992
1991
1989
1986
1984
1986
1996
2014
2040
2063
2077
2073
2051
2019
1987
1965
1958
1963
1973
1983
1989
1990
1989
1987
1987
1987
1988
1988
1989
1989
1988
1988
1987
1987
1988
1988
1989
1990
1991
1991
1991
1991
1991
1991
1991
1992
1993
1995
1996
1996
1996
1996
1996
1997
1999
2001
2003
2005
2006
2007
2009
2009
2011
2012
2013
2014
2016
2017
2018
2019
2019
2019
2019
2018
2018
2017
2016
2014
2012
2009
2005
2001
1997
1994
1992
1991
1990
1990
1989
1988
1987
1986
1986
1986
1986
1986
1986
1987
1987
1987
1986
1986
1985
1985
1985
1986
1986
1987
1987
1987
1986
1986
1985
1985
1985
1986
1986
1987
1987
1986
1986
1986
1986
1986
1986
1986
1986
1987
1987
1987
1986
1986
1985
1984
1984
1984
1985
1985
1985
1985
1985
1984
1983
1983
1983
1983
1984
1984
1984
1984
1984
1984
1984
1983
1983
1983
1984
1984
1984
1984
1984
1984
1983
1983
1983
1983
1983
1984
1984
1983
1983
1981
1980
1980
1980
1982
1984
1986
1987
1988
1988
1988
1987
1987
1987
1986
1986
1985
1984
1983
1982
1980
1980
1979
1979
1979
1980
1980
1980
1980
1980
1979
1979
1979
1979
1977
1975
1974
1979
1992
2013
2038
2057
2063
2051
2026
1993
1965
1950
1948
1955
1965
1974
1978
1980
1980
1980
1980
1980
1980
1980
1979
1979
1979
1980
1980
1981
1982
1982
1982
1981
1981
1981
1981
1982
1982
1983
1984
1985
1986
1986
1987
1987
1987
1988
1989
1990
1992
1993
1994
1995
1995
1996
1997
1998
2000
2002
2004
2005
2006
2006
2006
2006
2006
2007
2007
2008
2008
2007
2005
2003
1999
1995
1992
1989
1986
1985
1983
1982
1981
1980
1978
1977
1976
1976
1976
1976
1977
1977
1976
1976
1975
1974
1974
1975
1976
1977
1977
1978
1978
1978
1978
1977
1977
1977
1978
1978
1979
1979
1979
1979
1979
1978
1978
1978
1978
1979
1979
1979
1979
1978
1978
1977
1977
1977
1977
1978
1978
1979
1979
1978
1978
1977
1976
1976
1977
1977
1978
1978
1978
1977
1977
1976
1975
1975
1975
1976
1976
1976
1977
1976
1976
1975
1974
1974
1974
1975
1975
1976
1976
1975
1975
1974
1974
1974
1974
1974
1974
1974
1973
1972
1971
1970
1970
1971
1972
1975
1977
1978
1978
1978
1977
1976
1974
1973
1972
1971
1971
1970
1968
1967
1966
1965
1964
1964
1964
1964
1965
1965
1965
1965
1965
1964
1963
1960
1958
1957
1962
1975
1997
2021
2040
2045
2033
2006
1973
1944
1927
1925
1932
1943
1952
1958
1960
1960
1960
1961
1961
1961
1962
1962
1961
1961
1961
1961
1961
1962
1963
1963
1963
1963
1963
1962
1962
1962
1963
1964
1964
1965
1966
1966
1967
1967
1968
1969
1970
1972
1973
1975
1975
1976
1976
1977
1978
1979
1981
1982
1984
1985
1986
1987
1987
1987
1987
1986
1986
1985
1984
1982
1980
1977
1974
1971
1968
1965
1962
1960
1959
1957
1956
1954
1953
1952
1951
1951
1951
1951
1951
1951
1951
1950
1950
1949
1949
1948
1948
1948
1948
1949
1949
1949
1949
1948
1948
1948
1949
1949
1950
1951
1952
1951
1951
1950
1950
1950
1951
1952
1952
1953
1952
1952
1952
1951
1951
1951
1951
1952
1952
1952
1951
1950
1950
1949
1949
1949
1950
1950
1949
1949
1949
1949
1950
1952
1954
1956
1958
1959
1959
1958
1958
1957
1956
1955
1954
1953
1953
1953
1953
1954
1954
1954
1953
1952
1952
1952
1953
1954
1955
1956
1956
1956
1954
1951
1951
1957
1973
1995
2021
2040
2045
2031
2003
1969
1940
1922
1918
1925
1937
1949
1957
1961
1963
1964
1964
1964
1964
1965
1967
1968
1969
1969
1970
1970
1971
1972
1973
1974
1975
1975
1976
1976
1976
1977
1977
1978
1979
1980
1981
1982
1983
1984
1985
1986
1987
1989
1991
1993
1995
1997
1999
2000
2001
2003
2004
2005
2007
2009
2011
2012
2013
2014
2014
2013
2012
2010
2008
2006
2003
2000
1997
1994
1991
1988
1986
1985
1984
1983
1983
1983
1983
1983
1983
1982
1982
1981
1982
1982
1983
1984
1984
1984
1984
1984
1984
1984
1985
1986
1986
1987
1987
1987
1987
1986
1986
1986
1987
1988
1989
1989
1989
1989
1988
1988
1988
1988
1988
1989
1989
1988
1988
1987
1987
1986
1986
1986
1987
1987
1988
1988
1988
1987
1987
1986
1986
1986
1986
1986
1987
1986
1986
1986
1986
1986
1986
1985
1985
1984
1985
1985
1986
1988
1989
1990
1991
1991
1992
1992
1992
1991
1990
1989
1988
1986
1985
1984
1984
1985
1985
1985
1985
1985
1985
1984
1984
1984
1984
1984
1985
1984
1981
1979
1979
1987
2004
2028
2053
2070
2070
2052
2022
1988
1963
1952
1955
1965
1976
1984
1987
1987
1986
1985
1984
1983
1984
1984
1985
1986
1986
1987
1987
1987
1986
1986
1986
1987
1987
1988
1989
1989
1990
1990
1990
1990
1990
1990
1991
1993
1994
1995
1996
1996
1997
1997
1998
2000
2001
2004
2006
2007
2009
2009
2010
2010
2011
2012
2013
2014
2015
2015
2015
2014
2013
2011
2008
2006
2003
2000
1998
1995
1992
1990
1987
1985
1983
1982
1982
1983
1984
1984
1984
1984
1983
1983
1983
1983
1984
1984
1985
1985
1985
1985
1985
1984
1984
1984
1985
1986
1986
1987
1987
1986
1986
1985
1985
1985
1986
1986
1986
1987
1986
1986
1985
1985
1984
1984
1984
1985
1985
1985
1985
1985
1984
1984
1984
1984
1984
1984
1984
1984
1984
1984
1983
1983
1982
1982
1982
1983
1984
1984
1984
1984
1983
1982
1982
1981
1981
1981
1982
1984
1985
1987
1988
1989
1989
1989
1989
1989
1989
1988
1988
1987
1986
1984
1983
1983
1983
1983
1983
1983
1983
1983
1982
1982
1981
1982
1982
1983
1983
1982
1979
1976
1980
1991
2011
2037
2059
2070
2062
2038
2005
1974
1955
1950
1956
1967
1977
1982
1984
1984
1983
1982
1981
1981
1982
1982
1983
1984
1985
1985
1985
1985
1985
1984
1984
1985
1985
1986
1987
1988
1988
1988
1988
1988
1988
1989
1990
1991
1993
1994
1994
1995
1995
1996
1997
1999
2001
2003
2005
2006
2008
2009
2009
2009
2010
2011
2012
2013
2014
2014
2014
2013
2011
2009
2006
2003
2000
1998
1995
1993
1990
1987
1985
1983
1981
1981
1981
1981
1981
1981
1981
1981
1980
1980
1980
1980
1980
1981
1981
1982
1982
1981
1981
1980
1980
1980
1980
1981
1981
1982
1982
1982
1981
1980
1979
1979
1978
1979
1979
1979
1979
1979
1978
1978
1977
1977
1977
1978
1978
1978
1978
1977
1976
1975
1974
1974
1974
1974
1974
1974
1974
1973
1972
1971
1970
1970
1970
1970
1971
1971
1971
1971
1970
1968
1967
1967
1968
1969
1971
1973
1975
1976
1976
1975
1975
1974
1973
1972
1971
1970
1969
1968
1967
1966
1965
1965
1965
1966
1966
1967
1966
1966
1965
1964
1964
1964
1963
1962
1960
1960
1965
1980
2001
2026
2045
2048
2036
2007
1974
1945
1928
1925
1931
1942
1953
1959
1962
1964
1964
1963
1962
1961
1960
1960
1960
1961
1962
1963
1964
1964
1964
1963
1962
1961
1961
1962
1962
1963
1964
1964
1964
1963
1963
1963
1964
1965
1966
1968
1969
1970
1971
1972
1973
1974
1975
1976
1977
1978
1980
1981
1982
1983
1984
1984
1983
1984
1984
1985
1985
1984
1983
1980
1977
1973
1970
1966
1963
1961
1958
1956
1953
1951
1949
1948
1948
1947
1948
1948
1949
1949
1949
1949
1948
1948
1948
1949
1949
1949
1950
1949
1949
1948
1948
1947
1947
1947
1948
1948
1949
1949
1949
1948
1948
1948
1948
1949
1950
1951
1951
1951
1951
1951
1951
1951
1951
1951
1951
1952
1952
1953
1953
1952
1951
1950
1949
1949
1950
1952
1955
1958
1960
1961
1961
1961
1960
1960
1959
1959
1958
1958
1957
1956
1955
1955
1955
1955
1956
1956
1957
1957
1957
1957
1957
1957
1957
1957
1958
1957
1955
1954
1958
1970
1990
2015
2038
2048
2042
2018
1985
1953
1932
1924
1928
1939
1951
1960
1965
1968
1970
1971
1971
1971
1971
1971
1972
1973
1974
1975
1976
1977
1978
1978
1978
1978
1979
1979
1980
1982
1983
1984
1985
1985
1986
1987
1988
1990
1991
1993
1995
1997
1999
2000
2001
2003
2004
2006
2008
2010
2012
2014
2015
2016
2017
2017
2017
2018
2019
2020
2020
2020
2019
2016
2013
2010
2007
2004
2001
1999
1998
1996
1995
1993
1992
1991
1990
1990
1990
1990
1991
1992
1992
1993
1993
1993
1992
1992
1992
1993
1994
1995
1995
1995
1995
1994
1994
1994
1995
1996
1996
1997
1997
1997
1996
1996
1996
1997
1997
1998
1998
1998
1998
1998
1997
1997
1996
1996
1996
1996
1996
1997
1996
1996
1996
1995
1995
1995
1995
1995
1996
1996
1996
1996
1995
1994
1994
1994
1994
1995
1996
1996
1996
1995
1994
1993
1993
1993
1994
1996
1998
1999
2000
2001
2001
2001
2000
2000
1999
1999
1998
1998
1997
1996
1995
1994
1993
1993
1993
1993
1994
1994
1994
1994
1993
1993
1993
1992
1991
1989
1989
1994
2007
2029
2053
2074
2081
2070
2045
2011
1983
1967
1965
1973
1984
1992
1995
1995
1995
1994
1995
1995
1996
1996
1996
1996
1996
1996
1997
1997
1998
1998
1998
1998
1998
1998
1998
1998
1999
2000
2000
2001
2002
2002
2002
2002
2003
2004
2006
2008
2010
2011
2012
2013
2014
2015
2016
2018
2020
2022
2023
2025
2026
2026
2026
2026
2026
2026
2027
2027
2027
2026
2024
2020
2017
2013
2010
2007
2005
2003
2002
2000
1999
1997
1996
1995
1994
1994
1994
1994
1994
1994
1994
1994
1994
1994
1993
1993
1993
1994
1995
1995
1995
1995
1994
1994
1994
1994
1994
1994
1994
1994
1994
1993
1993
1993
1993
1993
1994
1994
1994
1994
1993
1992
1992
1991
1991
1991
1991
1991
1991
1991
1990
1989
1988
1988
1987
1987
1987
1987
1987
1987
1986
1985
1985
1984
1983
1983
1983
1982
1982
1981
1980
1979
1979
1979
1980
1982
1983
1984
1985
1985
1985
1984
1982
1980
1979
1977
1977
1976
1976
1976
1975
1974
1973
1972
1972
1972
1972
1973
1973
1973
1973
1972
1971
1968
1965
1965
1972
1987
2009
2034
2051
2054
2039
2009
1975
1946
1931
1930
1939
1951
1961
1966
1966
1965
1964
1963
1963
1964
1965
1965
1965
1965
1965
1964
1963
1963
1963
1964
1964
1964
1963
1962
1962
1962
1962
1963
1964
1965
1966
1967
1968
1968
1968
1969
1969
1970
1971
1973
1975
1976
1977
1978
1979
1979
1980
1980
1982
1983
1984
1985
1985
1985
1985
1985
1984
1983
1982
1980
1978
1975
1972
1968
1964
1959
1955
1952
1951
1951
1951
1951
1950
1949
1947
1946
1945
1945
1946
1946
1946
1946
1946
1945
1945
1944
1945
1946
1947
1948
1948
1949
1949
1949
1949
1949
1949
1949
1949
1949
1950
1951
1951
1952
1952
1951
1951
1951
1951
1952
1952
1953
1953
1952
1952
1951
1951
1951
1951
1951
1951
1951
1951
1952
1953
1955
1957
1959
1960
1960
1960
1960
1959
1958
1956
1955
1953
1953
1953
1953
1954
1954
1954
1953
1953
1952
1952
1952
1953
1954
1955
1956
1956
1955
1953
1950
1950
1957
1973
1997
2023
2043
2047
2032
2002
1967
1937
1920
1917
1925
1937
1949
1956
1960
1961
1962
1961
1961
1962
1963
1964
1965
1966
1966
1966
1967
1967
1968
1969
1970
1971
1972
1972
1973
1973
1973
1973
1974
1975
1976
1978
1979
1980
1981
1982
1983
1984
1985
1987
1989
1991
1993
1995
1996
1997
1998
1999
2000
2002
2003
2005
2006
2006
2006
2006
2005
2004
2002
2001
1999
1996
1993
1990
1987
1984
1982
1980
1979
1979
1979
1980
1980
1979
1979
1979
1979
1979
1980
1981
1982
1982
1983
1983
1983
1983
1983
1983
1984
1985
1986
1987
1988
1988
1988
1988
1988
1988
1988
1989
1990
1991
1991
1991
1991
1990
1990
1991
1992
1993
1993
1994
1994
1994
1994
1993
1993
1992
1992
1993
1993
1994
1995
1995
1994
1994
1993
1993
1993
1993
1993
1993
1993
1993
1994
1995
1997
1999
2000
2001
2002
2001
2001
2000
1999
1998
1997
1996
1995
1995
1995
1995
1995
1995
1994
1993
1993
1993
1993
1993
1994
1995
1996
1995
1992
1988
1987
1994
2010
2034
2061
2081
2086
2070
2040
2005
1976
1962
1963
1973
1985
1993
1996
1996
1994
1993
1992
1992
1992
1993
1995
1996
1997
1997
1997
1996
1995
1995
1995
1996
1997
1998
1998
1998
1998
1997
1997
1997
1998
1999
2000
2001
2002
2003
2004
2004
2005
2006
2007
2009
2010
2012
2013
2014
2015
2016
2017
2017
2017
2018
2019
2020
2020
2021
2020
2019
2018
2016
2014
2011
2009
2006
2003
2000
1997
1995
1993
1992
1991
1990
1990
1990
1990
1990
1990
1990
1990
1989
1989
1990
1990
1991
1991
1991
1991
1990
1990
1990
1990
1990
1991
1991
1992
1992
1991
1991
1990
1990
1990
1990
1991
1991
1991
1991
1991
1991
1990
1989
1988
1988
1990
1993
1996
1999
2001
2001
2001
2000
2000
2000
2000
2001
2001
2000
2000
1999
1999
1998
1999
1999
2000
2000
2000
1999
1998
1997
1996
1996
1996
1998
2000
2002
2004
2004
2004
2003
2002
2001
2000
2000
1999
1999
1998
1997
1996
1995
1994
1993
1993
1994
1994
1994
1994
1994
1993
1993
1993
1992
1991
1988
1986
1988
1998
2017
2042
2065
2078
2073
2050
2018
1987
1967
1960
1966
1976
1985
1989
1990
1989
1989
1988
1989
1989
1989
1989
1988
1988
1987
1987
1988
1988
1988
1988
1987
1986
1985
1985
1985
1985
1986
1987
1987
1988
1988
1988
1988
1988
1988
1989
1990
1991
1993
1994
1995
1995
1996
1997
1997
1999
2000
2002
2003
2004
2004
2004
2003
2003
2002
2003
2003
2004
2003
2001
1998
1994
1990
1986
1982
1979
1977
1975
1973
1971
1969
1967
1965
1964
1963
1963
1962
1962
1962
1962
1962
1961
1960
1959
1959
1958
1959
1959
1959
1959
1959
1959
1959
1958
1958
1958
1958
1958
1958
1958
1958
1957
1956
1955
1954
1954
1954
1955
1955
1955
1955
1954
1953
1953
1952
1951
1951
1951
1950
1950
1949
1948
1947
1946
1945
1945
1945
1945
1946
1948
1949
1951
1952
1953
1954
1953
1953
1953
1952
1951
1950
1949
1947
1946
1946
1946
1947
1948
1949
1949
1949
1949
1948
1948
1948
1949
1949
1950
1950
1948
1946
1947
1956
1974
1999
2025
2040
2039
2018
1985
1950
1923
1911
1911
1921
1933
1943
1949
1952
1954
1954
1953
1952
1952
1952
1953
1954
1955
1956
1956
1957
1956
1956
1956
1956
1957
1958
1959
1960
1960
1961
1961
1961
1961
1962
1963
1964
1966
1967
1968
1969
1970
1971
1972
1974
1975
1977
1980
1982
1983
1985
1986
1986
1987
1988
1989
1990
1990
1991
1991
1991
1989
1987
1984
1981
1978
1976
1973
1971
1969
1967
1965
1964
1963
1962
1962
1962
1963
1963
1963
1963
1963
1963
1963
1963
1963
1963
1964
1965
1966
1966
1967
1967
1966
1966
1967
1968
1969
1970
1970
1970
1970
1970
1970
1970
1971
1972
1973
1974
1974
1975
1974
1974
1974
1973
1974
1974
1975
1977
1978
1978
1978
1978
1978
1978
1978
1979
1980
1981
1981
1981
1980
1979
1978
1979
1981
1984
1987
1990
1992
1992
1992
1991
1990
1989
1988
1988
1988
1988
1988
1988
1989
1988
1988
1988
1988
1988
1988
1989
1989
1990
1990
1990
1989
1988
1986
1984
1985
1994
2011
2035
2060
2078
2079
2061
2030
1996
1969
1957
1960
1970
1982
1990
1993
1994
1994
1995
1995
1996
1997
1997
1998
1998
1998
1998
1999
2000
2001
2002
2002
2003
2003
2003
2003
2003
2003
2004
2005
2006
2007
2007
2008
2008
2008
2009
2009
2010
2011
2013
2014
2016
2017
2018
2019
2020
2021
2023
2024
2025
2026
2027
2026
2026
2025
2025
2025
2025
2025
2024
2022
2019
2016
2012
2008
2006
2003
2002
2000
2000
1999
1997
1996
1995
1994
1994
1994
1995
1995
1996
1996
1995
1995
1995
1995
1995
1995
1996
1996
1997
1997
1997
1997
1996
1996
1995
1996
1996
1997
1997
1997
1997
1997
1996
1995
1995
1995
1995
1996
1996
1996
1996
1995
1994
1994
1993
1993
1994
1994
1994
1994
1994
1994
1994
1993
1993
1993
1993
1994
1994
1994
1994
1994
1993
1992
1991
1991
1991
1992
1994
1996
1997
1999
1999
2000
2000
2000
2000
2000
1999
1999
1998
1996
1995
1994
1994
1994
1994
1995
1995
1995
1995
1994
1994
1994
1994
1994
1995
1994
1992
1989
1989
1996
2012
2036
2061
2078
2079
2061
2031
1997
1972
1961
1964
1974
1984
1992
1994
1995
1994
1994
1993
1993
1992
1992
1992
1993
1993
1994
1995
1995
1995
1995
1995
1994
1994
1994
1995
1996
1997
1997
1997
1997
1997
1998
1998
1998
1999
2000
2002
2003
2004
2005
2005
2006
2006
2007
2009
2011
2012
2013
2014
2014
2013
2013
2013
2014
2015
2015
2015
2015
2013
2011
2008
2005
2001
1998
1995
1992
1990
1988
1986
1985
1983
1981
1980
1979
1979
1979
1979
1979
1979
1979
1978
1978
1977
1977
1978
1978
1979
1979
1978
1978
1977
1976
1975
1975
1975
1976
1977
1977
1977
1977
1976
1975
1975
1975
1975
1976
1976
1976
1976
1975
1975
1975
1974
1974
1974
1974
1974
1974
1974
1974
1973
1972
1971
1969
1969
1969
1969
1970
1971
1972
1973
1975
1976
1977
1977
1977
1976
1975
1974
1972
1970
1969
1967
1966
1966
1966
1966
1966
1965
1965
1964
1963
1963
1962
1961
1961
1961
1961
1959
1956
1954
1958
1971
1993
2019
2041
2048
2037
2010
1975
1944
1924
1919
1925
1936
1948
1956
1960
1962
1962
1960
1960
1960
1961
1962
1963
1964
1965
1965
1964
1964
1964
1965
1965
1966
1966
1966
1966
1966
1966
1966
1966
1966
1967
1968
1970
1971
1971
1971
1971
1972
1973
1974
1975
1977
1979
1982
1983
1985
1985
1986
1986
1986
1986
1987
1987
1987
1987
1986
1986
1984
1982
1980
1977
1974
1971
1968
1965
1962
1959
1957
1955
1954
1954
1953
1953
1953
1952
1952
1951
1950
1949
1949
1949
1950
1951
1951
1952
1952
1952
1951
1951
1952
1952
1953
1954
1955
1956
1956
1957
1957
1957
1957
1957
1957
1958
1959
1960
1960
1960
1960
1960
1960
1960
1961
1961
1962
1962
1962
1962
1962
1961
1961
1961
1961
1961
1962
1963
1965
1967
1969
1971
1972
1973
1973
1974
1975
1975
1974
1973
1971
1970
1970
1970
1971
1973
1974
1975
1976
1976
1976
1976
1975
1976
1977
1978
1979
1979
1977
1975
1978
1989
2009
2036
2060
2073
2067
2045
2011
1978
1956
1948
1952
1964
1976
1985
1990
1992
1993
1992
1992
1992
1993
1994
1995
1996
1997
1998
1998
1998
1998
1998
1999
1999
2000
2001
2002
2002
2003
2003
2003
2004
2004
2005
2007
2008
2010
2011
2012
2014
2015
2016
2017
2019
2021
2023
2025
2027
2029
2030
2030
2030
2031
2031
2032
2032
2033
2033
2032
2031
2028
2025
2022
2019
2016
2014
2011
2009
2007
2005
2002
2001
1999
1998
1997
1997
1997
1997
1997
1997
1996
1996
1996
1996
1996
1997
1997
1997
1998
1998
1997
1997
1997
1997
1997
1998
1998
1998
1998
1998
1998
1998
1998
1998
1999
1999
1999
2000
2000
1999
1999
1998
1998
1998
1998
1999
1999
1999
1998
1998
1997
1997
1997
1997
1998
1998
1999
1998
1998
1997
1996
1995
1993
1993
1993
1995
1997
2000
2002
2003
2003
2003
2002
2002
2001
2001
2000
1999
1998
1997
1995
1995
1995
1995
1995
1996
1997
1997
1997
1996
1996
1995
1995
1995
1994
1993
1990
1990
1996
2011
2035
2060
2080
2085
2071
2042
2007
1979
1964
1964
1973
1984
1992
1995
1995
1996
1996
1996
1997
1997
1997
1997
1997
1997
1998
1999
1999
2000
2000
2000
2000
1999
1999
1999
1999
2000
2001
2001
2002
2002
2002
2002
2002
2003
2004
2006
2007
2008
2009
2011
2011
2012
2013
2014
2016
2017
2018
2019
2020
2020
2020
2020
2020
2020
2020
2021
2020
2019
2016
2013
2010
2006
2002
1999
1997
1995
1993
1991
1990
1988
1987
1986
1985
1985
1985
1986
1986
1986
1986
1986
1985
1985
1984
1984
1985
1985
1985
1986
1985
1985
1984
1984
1983
1983
1984
1984
1985
1985
1985
1984
1984
1983
1983
1983
1983
1983
1983
1983
1983
1982
1982
1981
1981
1981
1981
1982
1982
1982
1982
1982
1981
1980
1980
1980
1981
1982
1983
1983
1983
1982
1982
1981
1981
1981
1982
1982
1983
1983
1982
1981
1980
1980
1981
1983
1986
1988
1990
1990
1991
1990
1989
1989
1988
1987
1986
1985
1985
1984
1984
1984
1983
1983
1983
1983
1983
1983
1983
1984
1984
1984
1983
1981
1978
1975
1976
1985
2004
2030
2055
2072
2071
2051
2019
1985
1961
1952
1956
1966
1976
1981
1982
1981
1980
1980
1980
1981
1981
1982
1982
1982
1981
1981
1981
1981
1982
1983
1983
1983
1983
1983
1983
1983
1983
1984
1985
1986
1987
1988
1988
1988
1987
1988
1988
1989
1991
1992
1994
1995
1996
1997
1998
1999
2000
2001
2002
2003
2004
2004
2004
2004
2004
2004
2004
2003
2003
2001
1999
1997
1994
1991
1988
1985
1982
1980
1979
1977
1977
1976
1975
1974
1973
1972
1972
1972
1972
1973
1973
1974
1974
1973
1973
1972
1972
1972
1972
1973
1973
1974
1974
1973
1972
1971
1970
1970
1970
1971
1972
1972
1972
1971
1970
1969
1968
1968
1968
1968
1968
1968
1968
1967
1967
1966
1966
1966
1966
1966
1966
1966
1966
1966
1965
1965
1964
1964
1963
1964
1964
1963
1963
1961
1960
1958
1957
1958
1959
1961
1963
1964
1965
1965
1964
1962
1961
1960
1960
1959
1959
1957
1956
1955
1954
1953
1953
1952
1952
1952
1952
1952
1952
1952
1952
1952
1952
1950
1948
1946
1948
1959
1978
2003
2026
2037
2030
2006
1972
1939
1917
1908
1911
1921
1931
1940
1944
1946
1947
1948
1948
1948
1948
1949
1948
1948
1948
1948
1949
1949
1949
1949
1948
1948
1948
1948
1949
1949
1950
1950
1951
1952
1953
1954
1954
1954
1955
1956
1958
1959
1961
1963
1964
1965
1966
1967
1969
1970
1972
1974
1976
1977
1977
1978
1978
1978
1978
1979
1979
1979
1978
1977
1975
1972
1969
1965
1962
1960
1958
1957
1955
1954
1953
1952
1952
1951
1951
1951
1951
1952
1953
1953
1953
1953
1953
1952
1952
1953
1954
1955
1955
1956
1956
1956
1956
1956
1956
1956
1957
1958
1959
1959
1959
1959
1959
1959
1959
1960
1960
1961
1962
1962
1962
1962
1962
1962
1962
1962
1962
1963
1964
1965
1965
1965
1965
1965
1965
1965
1966
1966
1966
1965
1966
1966
1968
1970
1973
1975
1977
1978
1978
1978
1978
1977
1976
1975
1974
1973
1973
1974
1975
1975
1975
1975
1975
1975
1975
1975
1977
1978
1980
1981
1981
1979
1975
1973
1978
1992
2014
2042
2063
2070
2059
2031
1996
1965
1947
1945
1953
1966
1977
1984
1986
1986
1986
1986
1986
1986
1987
1988
1989
1990
1990
1990
1990
1990
1990
1990
1991
1992
1992
1993
1993
1993
1993
1993
1994
1994
1996
1997
1998
1999
2000
2001
2002
2002
2003
2004
2006
2008
2010
2012
2013
2015
2016
2017
2017
2018
2019
2020
2021
2021
2021
2021
2020
2018
2016
2014
2011
2009
2006
2004
2001
1998
1995
1993
1991
1990
1989
1989
1989
1989
1989
1988
1988
1987
1987
1987
1987
1988
1988
1989
1989
1988
1988
1987
1987
1987
1988
1988
1989
1989
1989
1988
1988
1988
1988
1987
1988
1988
1989
1989
1989
1988
1987
1986
1986
1985
1986
1986
1987
1987
1987
1986
1985
1985
1984
1984
1984
1985
1985
1985
1985
1985
1984
1984
1983
1984
1984
1984
1984
1984
1984
1983
1981
1980
1980
1981
1983
1986
1988
1989
1990
1989
1988
1987
1986
1986
1986
1985
1985
1984
1983
1982
1982
1981
1981
1981
1981
1981
1981
1981
1981
1981
1981
1981
1979
1976
1974
1976
1987
2007
2033
2057
2070
2065
2044
2010
1978
1957
1950
1955
1966
1975
1980
1980
1980
1979
1979
1979
1980
1981
1981
1981
1981
1981
1981
1981
1981
1982
1983
1983
1983
1983
1983
1983
1983
1984
1984
1985
1986
1987
1987
1988
1988
1989
1990
1990
1992
1993
1995
1996
1998
1999
1999
2000
2001
2002
2003
2004
2005
2006
2007
2007
2007
2006
2005
2005
2004
2004
2003
2001
1998
1995
1991
1988
1985
1983
1982
1981
1980
1980
1979
1978
1977
1976
1976
1976
1976
1977
1977
1978
1978
1977
1977
1977
1976
1976
1976
1977
1978
1978
1978
1978
1977
1977
1976
1976
1977
1977
1978
1978
1978
1977
1977
1977
1976
1976
1976
1977
1977
1977
1977
1976
1975
1975
1975
1975
1975
1976
1976
1976
1976
1976
1975
1975
1974
1974
1975
1975
1976
1976
1975
1975
1975
1974
1974
1975
1975
1976
1976
1975
1975
1974
1973
1973
1973
1975
1978
1980
1982
1983
1983
1981
1980
1979
1978
1978
1977
1977
1977
1976
1976
1975
1975
1974
1974
1974
1974
1974
1974
1975
1975
1975
1974
1972
1968
1967
1971
1985
2007
2034
2056
2065
2055
2030
1996
1965
1948
1944
1952
1962
1971
1976
1976
1976
1975
1974
1974
1975
1976
1976
1977
1977
1976
1976
1976
1977
1977
1978
1979
1979
1979
1979
1979
1979
1979
1980
1980
1981
1982
1983
1984
1984
1985
1985
1986
1987
1988
1990
1992
1993
1994
1995
1995
1996
1997
1998
1999
2000
2001
2002
2002
2001
2001
2000
2000
2000
1999
1998
1996
1993
1990
1986
1983
1980
1977
1976
1975
1974
1973
1972
1972
1971
1970
1970
1970
1969
1970
1970
1970
1971
1970
1969
1968
1967
1967
1967
1968
1969
1970
1970
1969
1969
1969
1968
1968
1968
1968
1968
1968
1969
1968
1968
1967
1966
1966
1966
1966
1966
1966
1966
1966
1965
1965
1964
1963
1963
1964
1964
1965
1965
1964
1964
1963
1963
1962
1962
1962
1963
1963
1963
1963
1963
1963
1962
1962
1961
1961
1962
1962
1962
1962
1961
1960
1959
1959
1961
1964
1967
1969
1969
1968
1967
1965
1964
1963
1962
1961
1961
1960
1960
1959
1958
1957
1956
1955
1956
1956
1957
1957
1957
1958
1957
1957
1955
1952
1950
1954
1967
1988
2014
2037
2046
2037
2011
1977
1946
1926
1920
1926
1937
1948
1955
1959
1960
1960
1960
1960
1961
1962
1963
1964
1964
1964
1964
1964
1964
1965
1966
1967
1968
1968
1968
1968
1968
1969
1969
1970
1972
1973
1974
1974
1975
1976
1976
1977
1979
1980
1982
1983
1985
1986
1987
1988
1989
1990
1992
1993
1994
1996
1997
1998
1998
1998
1998
1997
1997
1996
1995
1993
1991
1988
1985
1982
1980
1978
1976
1975
1974
1974
1973
1973
1973
1972
1972
1972
1972
1972
1973
1974
1974
1974
1974
1974
1974
1974
1974
1974
1975
1976
1977
1977
1978
1977
1977
1977
1978
1978
1979
1979
1980
1980
1980
1979
1979
1978
1978
1979
1979
1979
1980
1980
1979
1979
1979
1978
1978
1979
1979
1979
1980
1979
1979
1978
1978
1977
1977
1978
1979
1979
1980
1979
1979
1978
1978
1978
1978
1978
1979
1979
1980
1980
1979
1978
1977
1977
1977
1978
1978
1978
1978
1977
1977
1978
1979
1981
1984
1985
1986
1986
1985
1984
1983
1982
1982
1981
1980
1979
1978
1978
1978
1978
1977
1977
1976
1975
1975
1976
1976
1977
1978
1978
1976
1973
1970
1971
1980
1997
2023
2048
2064
2063
2045
2013
1979
1954
1944
1947
1957
1968
1976
1978
1978
1977
1975
1975
1974
1975
1976
1977
1977
1977
1978
1978
1977
1978
1978
1978
1979
1979
1980
1980
1980
1980
1980
1980
1981
1982
1983
1984
1985
1986
1986
1987
1987
1988
1989
1990
1992
1993
1995
1996
1997
1998
1998
1999
1999
2000
2001
2002
2003
2003
2003
2002
2001
2000
1999
1997
1995
1992
1989
1986
1983
1981
1978
1976
1975
1974
1974
1974
1974
1973
1972
1972
1971
1971
1971
1972
1972
1973
1973
1973
1973
1973
1972
1972
1972
1973
1974
1974
1975
1975
1974
1974
1973
1973
1973
1974
1974
1975
1975
1975
1975
1974
1974
1973
1973
1974
1974
1974
1974
1974
1973
1973
1973
1972
1973
1973
1973
1974
1974
1974
1973
1972
1972
1971
1971
1972
1973
1973
1974
1974
1974
1973
1973
1972
1972
1973
1973
1973
1974
1974
1974
1973
1973
1973
1973
1973
1973
1974
1974
1974
1974
1974
1973
1973
1973
1973
1974
1974
1974
1974
1973
1972
1971
1971
1972
1974
1978
1981
1983
1983
1982
1980
1978
1977
1977
1977
1977
1977
1976
1975
1974
1973
1972
1972
1972
1972
1973
1974
1974
1974
1974
1974
1972
1970
1967
1967
1974
1989
2012
2038
2057
2061
2048
2020
1986
1959
1944
1943
1951
1962
1970
1974
1974
1973
1972
1972
1973
1974
1974
1975
1975
1974
1974
1974
1975
1975
1976
1977
1978
1978
1977
1977
1977
1977
1978
1978
1979
1980
1981
1982
1983
1983
1983
1984
1985
1986
1987
1989
1990
1991
1992
1993
1993
1994
1995
1996
1997
1999
2000
2001
2001
2001
2000
2000
2000
2000
1999
1998
1997
1994
1991
1987
1984
1981
1979
1977
1976
1975
1975
1974
1973
1972
1971
1971
1971
1971
1971
1972
1972
1972
1971
1971
1971
1971
1972
1972
1973
1973
1973
1973
1973
1972
1972
1972
1973
1973
1974
1974
1974
1974
1974
1973
1973
1973
1973
1973
1973
1973
1973
1973
1973
1972
1972
1971
1971
1971
1971
1971
1972
1972
1971
1971
1970
1969
1969
1969
1969
1970
1970
1970
1969
1969
1968
1968
1968
1968
1968
1968
1968
1968
1967
1967
1966
1966
1966
1966
1967
1968
1968
1968
1967
1966
1965
1964
1964
1965
1967
1970
1973
1975
1976
1975
1973
1971
1970
1969
1969
1969
1969
1968
1966
1965
1964
1963
1963
1964
1964
1964
1964
1963
1962
1962
1961
1961
1960
1959
1956
1955
1960
1972
1992
2017
2038
2046
2036
2011
1978
1947
1926
1920
1924
1934
1945
1953
1957
1959
1960
1960
1960
1960
1960
1960
1960
1960
1960
1961
1962
1963
1963
1963
1963
1962
1962
1962
1963
1964
1966
1967
1967
1968
1968
1968
1968
1969
1970
1972
1974
1975
1977
1978
1978
1979
1980
1981
1982
1984
1986
1988
1989
1990
1990
1991
1991
1991
1991
1992
1993
1993
1992
1991
1988
1985
1982
1979
1976
1974
1972
1971
1969
1968
1967
1966
1965
1964
1964
1964
1965
1965
1966
1966
1967
1966
1966
1966
1967
1968
1969
1970
1970
1971
1971
1970
1970
1970
1970
1971
1972
1974
1975
1975
1975
1974
1974
1974
1974
1975
1976
1976
1977
1977
1977
1976
1976
1976
1976
1976
1977
1978
1978
1978
1978
1977
1977
1976
1976
1977
1977
1978
1978
1978
1978
1977
1977
1977
1977
1977
1978
1979
1979
1979
1979
1979
1979
1978
1979
1979
1980
1980
1980
1979
1978
1978
1979
1981
1984
1986
1989
1989
1989
1988
1987
1986
1986
1985
1985
1984
1983
1983
1982
1982
1981
1981
1980
1980
1980
1981
1981
1982
1983
1983
1982
1981
1979
1976
1974
1979
1993
2015
2042
2062
2070
2059
2033
1999
1969
1952
1949
1957
1968
1977
1982
1983
1982
1981
1980
1980
1981
1982
1983
1983
1983
1983
1983
1983
1983
1983
1984
1984
1985
1986
1986
1986
1985
1985
1986
1986
1987
1988
1989
1990
1990
1990
1991
1992
1993
1994
1996
1998
1999
2000
2001
2002
2003
2003
2005
2006
2007
2008
2009
2009
2009
2008
2008
2007
2007
2006
2005
2003
2000
1997
1994
1990
1987
1984
1982
1981
1980
1980
1979
1979
1978
1977
1977
1977
1977
1977
1978
1978
1978
1978
1977
1977
1977
1977
1977
1977
1978
1979
1979
1979
1979
1978
1978
1978
1978
1979
1979
1979
1980
1980
1979
1979
1978
1978
1978
1979
1979
1979
1979
1979
1979
1978
1978
1978
1977
1978
1978
1978
1979
1978
1978
1977
1976
1976
1976
1976
1977
1978
1978
1978
1978
1977
1977
1976
1977
1977
1978
1978
1978
1978
1978
1977
1977
1976
1976
1976
1976
1976
1977
1976
1976
1977
1978
1981
1983
1985
1986
1985
1984
1983
1982
1982
1981
1980
1979
1978
1978
1978
1978
1978
1977
1977
1976
1976
1976
1976
1977
1977
1978
1978
1977
1974
1971
1971
1977
1993
2017
2043
2062
2066
2051
2023
1988
1960
1946
1946
1955
1966
1975
1979
1979
1978
1978
1977
1977
1977
1977
1978
1978
1979
1979
1979
1979
1979
1979
1980
1981
1981
1982
1982
1982
1982
1982
1982
1983
1984
1985
1986
1987
1988
1989
1989
1990
1990
1991
1993
1995
1997
1998
1999
2000
2001
2001
2002
2004
2005
2007
2008
2009
2010
2009
2009
2008
2007
2006
2004
2002
2000
1997
1994
1991
1988
1985
1984
1982
1982
1981
1981
1980
1979
1978
1978
1977
1977
1977
1978
1978
1979
1979
1979
1979
1979
1979
1979
1979
1979
1979
1980
1980
1980
1980
1979
1979
1979
1979
1979
1980
1980
1981
1980
1980
1979
1978
1978
1978
1978
1978
1979
1979
1979
1979
1978
1978
1977
1977
1977
1977
1977
1977
1977
1976
1975
1975
1974
1974
1975
1975
1976
1976
1975
1974
1973
1972
1972
1973
1973
1974
1975
1974
1974
1973
1972
1971
1970
1970
1970
1971
1973
1975
1978
1979
1980
1979
1978
1977
1976
1975
1975
1975
1974
1973
1971
1970
1969
1969
1969
1970
1970
1970
1969
1968
1967
1967
1966
1967
1967
1967
1965
1963
1963
1971
1988
2012
2036
2050
2049
2032
2001
1968
1943
1931
1932
1941
1951
1960
1965
1967
1968
1967
1967
1966
1966
1966
1966
1966
1966
1966
1966
1966
1966
1966
1966
1966
1966
1966
1966
1966
1967
1967
1967
1968
1968
1967
1967
1967
1968
1969
1971
1972
1973
1974
1974
1975
1976
1978
1980
1981
1982
1983
1984
1985
1985
1985
1986
1986
1986
1987
1987
1987
1986
1984
1981
1978
1975
1973
1970
1967
1964
1962
1960
1958
1957
1956
1954
1953
1952
1952
1952
1953
1953
1952
1952
1952
1952
1952
1953
1953
1954
1954
1954
1954
1954
1953
1953
1953
1954
1955
1955
1956
1957
1956
1956
1956
1956
1956
1957
1957
1958
1958
1958
1958
1958
1957
1957
1957
1957
1958
1958
1959
1958
1958
1958
1958
1958
1958
1959
1959
1960
1960
1959
1958
1957
1956
1957
1959
1963
1966
1969
1971
1971
1969
1967
1966
1965
1965
1965
1965
1965
1964
1964
1963
1963
1963
1963
1963
1964
1964
1965
1965
1966
1966
1966
1966
1966
1964
1963
1964
1971
1987
2009
2034
2051
2053
2039
2010
1977
1950
1935
1935
1943
1955
1966
1972
1975
1976
1977
1977
1978
1979
1980
1980
1981
1981
1981
1982
1984
1985
1986
1987
1988
1988
1988
1988
1989
1989
1990
1991
1992
1993
1994
1994
1995
1995
1996
1998
1999
2001
2003
2004
2006
2007
2007
2009
2010
2012
2014
2016
2017
2019
2019
2019
2019
2019
2019
2018
2018
2017
2015
2013
2010
2007
2003
1999
1996
1994
1992
1991
1989
1989
1988
1987
1986
1985
1984
1984
1984
1984
1985
1986
1986
1986
1986
1985
1985
1985
1985
1986
1986
1987
1987
1986
1986
1985
1985
1985
1986
1986
1986
1986
1986
1986
1986
1985
1985
1985
1985
1986
1986
1987
1986
1986
1985
1985
1984
1984
1984
1984
1985
1985
1984
1984
1984
1983
1983
1983
1983
1983
1984
1984
1984
1983
1983
1982
1982
1982
1982
1982
1982
1983
1983
1983
1982
1982
1981
1980
1980
1980
1981
1981
1982
1984
1986
1988
1989
1989
1989
1988
1988
1988
1987
1987
1985
1984
1982
1982
1981
1982
1982
1982
1982
1981
1981
1980
1980
1980
1981
1981
1982
1981
1978
1975
1977
1985
2004
2029
2054
2069
2066
2046
2013
1980
1957
1948
1952
1962
1973
1979
1982
1982
1981
1980
1979
1979
1979
1979
1980
1981
1982
1982
1982
1982
1982
1982
1982
1982
1983
1984
1984
1985
1985
1985
1985
1985
1986
1986
1987
1988
1990
1991
1992
1993
1994
1994
1995
1996
1998
2000
2001
2003
2005
2006
2007
2008
2008
2009
2009
2010
2012
2012
2012
2011
2009
2007
2004
2002
1999
1996
1993
1991
1988
1986
1984
1982
1980
1980
1979
1979
1980
1980
1980
1979
1979
1978
1978
1978
1978
1979
1980
1980
1980
1980
1980
1979
1978
1978
1978
1979
1980
1980
1980
1980
1979
1979
1979
1979
1979
1980
1980
1980
1980
1980
1979
1979
1979
1978
1978
1979
1979
1979
1979
1979
1978
1978
1977
1977
1977
1978
1978
1979
1979
1978
1978
1977
1977
1977
1977
1977
1978
1978
1978
1978
1977
1977
1977
1977
1977
1978
1978
1979
1979
1978
1978
1977
1977
1977
1977
1977
1977
1977
1976
1976
1977
1978
1980
1983
1984
1985
1985
1984
1983
1982
1981
1980
1979
1978
1978
1977
1977
1978
1978
1977
1976
1975
1975
1975
1975
1976
1977
1977
1977
1975
1971
1970
1974
1986
2007
2033
2055
2064
2054
2029
1996
1965
1947
1943
1950
1962
1971
1976
1977
1976
1975
1974
1974
1974
1974
1975
1976
1976
1976
1976
1975
1975
1974
1975
1975
1976
1976
1977
1977
1977
1977
1977
1977
1977
1977
1978
1979
1980
1981
1982
1982
1982
1983
1984
1985
1987
1989
1990
1992
1992
1993
1994
1995
1996
1997
1998
1999
2000
1999
1999
1997
1996
1994
1992
1990
1988
1985
1982
1979
1976
1973
1970
1968
1967
1966
1965
1965
1964
1964
1963
1963
1962
1962
1962
1962
1962
1962
1962
1962
1962
1961
1961
1960
1960
1960
1960
1960
1960
1959
1959
1958
1958
1958
1958
1958
1959
1959
1958
1958
1956
1955
1954
1954
1954
1955
1956
1957
1956
1955
1954
1953
1952
1952
1951
1952
1952
1952
1953
1952
1952
1950
1949
1948
1948
1948
1949
1949
1949
1949
1948
1947
1946
1945
1944
1944
1944
1946
1949
1951
1953
1954
1954
1953
1951
1949
1948
1947
1946
1945
1944
1943
1941
1941
1941
1942
1942
1943
1942
1942
1942
1941
1941
1941
1942
1942
1941
1939
1937
1939
1949
1967
1992
2016
2030
2027
2006
1973
1939
1913
1900
1901
1910
1921
1931
1938
1942
1944
1944
1944
1943
1943
1943
1944
1944
1945
1946
1948
1949
1950
1950
1949
1949
1949
1950
1950
1951
1953
1954
1955
1955
1956
1956
1957
1958
1959
1960
1962
1963
1964
1965
1967
1968
1969
1971
1973
1975
1978
1980
1981
1982
1983
1983
1983
1984
1985
1986
1986
1986
1985
1984
1981
1978
1975
1972
1970
1968
1967
1965
1964
1963
1961
1960
1960
1960
1960
1961
1962
1962
1962
1963
1963
1963
1964
1965
1966
1968
1969
1970
1970
1971
1971
1971
1971
1972
1973
1974
1975
1976
1977
1978
1978
1979
1980
1980
1981
1982
1983
1983
1984
1984
1984
1984
1983
1984
1984
1985
1986
1986
1986
1986
1986
1986
1986
1987
1987
1988
1989
1990
1990
1990
1989
1989
1988
1989
1989
1990
1991
1991
1991
1990
1989
1988
1987
1987
1989
1991
1994
1997
1999
1999
1998
1997
1996
1995
1995
1996
1995
1995
1994
1993
1991
1991
1990
1991
1991
1992
1992
1992
1992
1992
1992
1992
1992
1992
1991
1989
1986
1988
1996
2013
2038
2063
2079
2079
2060
2029
1995
1970
1960
1962
1972
1982
1989
1991
1992
1992
1991
1991
1991
1991
1991
1990
1991
1991
1991
1992
1992
1993
1993
1993
1993
1992
1992
1992
1992
1994
1995
1996
1997
1997
1997
1997
1997
1998
2000
2002
2003
2005
2006
2007
2008
2008
2009
2011
2013
2014
2016
2017
2017
2018
2018
2018
2018
2019
2020
2020
2020
2019
2016
2013
2010
2006
2003
2000
1997
1995
1993
1991
1990
1988
1987
1986
1986
1985
1985
1986
1986
1986
1986
1985
1985
1984
1984
1984
1984
1985
1985
1986
1986
1985
1985
1984
1984
1984
1984
1985
1985
1985
1985
1985
1984
1984
1984
1984
1984
1984
1984
1985
1984
1984
1983
1983
1982
1982
1982
1982
1983
1983
1982
1982
1981
1980
1980
1979
1979
1980
1980
1980
1979
1979
1978
1978
1978
1978
1978
1978
1978
1977
1977
1976
1976
1975
1974
1974
1974
1973
1973
1973
1972
1971
1971
1971
1972
1974
1976
1978
1979
1979
1978
1977
1975
1974
1973
1972
1971
1970
1969
1969
1968
1967
1966
1965
1964
1964
1963
1963
1963
1963
1963
1962
1960
1957
1954
1955
1963
1980
2004
2028
2045
2045
2027
1995
1960
1932
1918
1918
1927
1939
1948
1953
1954
1954
1953
1953
1953
1954
1955
1955
1954
1953
1953
1952
1953
1953
1953
1953
1953
1952
1951
1951
1950
1949
1949
1950
1950
1952
1953
1954
1955
1955
1954
1954
1955
1956
1958
1960
1962
1963
1964
1965
1966
1967
1968
1969
1971
1972
1973
1974
1974
1975
1975
1975
1974
1973
1971
1969
1966
1963
1960
1956
1953
1950
1947
1945
1943
1942
1941
1941
1941
1941
1940
1939
1939
1939
1939
1940
1941
1941
1941
1941
1941
1941
1941
1942
1942
1943
1943
1944
1944
1944
1945
1945
1945
1945
1946
1947
1948
1948
1949
1949
1948
1948
1948
1948
1949
1950
1951
1952
1952
1952
1951
1950
1950
1951
1951
1952
1953
1953
1953
1953
1953
1953
1953
1953
1954
1955
1955
1955
1954
1953
1953
1954
1955
1958
1961
1963
1965
1966
1966
1965
1965
1964
1963
1962
1962
1962
1962
1962
1963
1962
1962
1962
1962
1962
1962
1963
1964
1965
1966
1966
1966
1965
1962
1960
1963
1974
1994
2020
2044
2057
2052
2031
1998
1965
1942
1933
1938
1949
1960
1969
1973
1974
1975
1975
1976
1977
1978
1979
1980
1980
1980
1981
1981
1983
1984
1985
1986
1986
1987
1987
1987
1987
1987
1988
1989
1991
1992
1993
1994
1995
1996
1997
1998
2000
2002
2004
2006
2008
2009
2011
2013
2014
2016
2018
2020
2022
2023
2024
2025
2025
2026
2026
2025
2024
2023
2021
2019
2016
2013
2009
2006
2002
2000
1998
1997
1996
1995
1994
1994
1993
1992
1992
1992
1992
1992
1992
1993
1993
1993
1993
1992
1992
1992
1993
1993
1994
1995
1995
1995
1995
1995
1995
1995
1995
1995
1995
1996
1996
1996
1996
1996
1995
1995
1995
1995
1995
1996
1996
1996
1995
1994
1993
1993
1993
1993
1993
1993
1994
1994
1993
1993
1992
1992
1992
1992
1992
1992
1992
1992
1991
1991
1990
1990
1990
1991
1991
1992
1992
1992
1991
1991
1990
1990
1990
1990
1991
1991
1991
1991
1990
1988
1987
1986
1986
1988
1990
1992
1994
1995
1995
1995
1994
1993
1993
1992
1992
1992
1991
1990
1989
1988
1987
1987
1987
1987
1988
1989
1989
1989
1989
1988
1988
1987
1986
1983
1981
1984
1995
2014
2040
2063
2077
2073
2052
2020
1988
1966
1958
1962
1972
1981
1986
1987
1986
1986
1986
1986
1986
1987
1987
1986
1986
1986
1986
1987
1988
1989
1989
1990
1990
1990
1990
1990
1990
1990
1991
1992
1992
1993
1993
1993
1994
1994
1995
1996
1997
1999
2000
2001
2003
2003
2004
2005
2006
2008
2010
2011
2012
2013
2014
2014
2014
2014
2014
2014
2014
2014
2012
2010
2007
2003
2000
1997
1994
1992
1991
1990
1989
1988
1987
1985
1984
1984
1984
1984
1985
1985
1985
1985
1985
1984
1984
1984
1984
1984
1985
1986
1986
1986
1986
1986
1985
1985
1985
1985
1986
1986
1986
1986
1986
1985
1984
1984
1984
1985
1985
1985
1985
1985
1985
1984
1984
1984
1984
1984
1984
1984
1984
1984
1984
1983
1983
1982
1982
1982
1982
1983
1983
1983
1983
1982
1981
1981
1981
1981
1981
1981
1981
1981
1981
1980
1980
1979
1979
1979
1979
1979
1979
1978
1978
1977
1977
1977
1976
1976
1976
1976
1976
1976
1976
1977
1978
1979
1981
1982
1982
1982
1982
1981
1979
1977
1975
1974
1973
1973
1973
1973
1973
1973
1972
1971
1970
1969
1969
1969
1970
1971
1971
1970
1967
1963
1963
1970
1986
2010
2036
2054
2056
2040
2009
1974
1945
1930
1929
1938
1950
1959
1964
1966
1965
1964
1963
1963
1963
1964
1964
1965
1965
1966
1965
1965
1964
1963
1962
1962
1963
1963
1964
1964
1964
1964
1964
1964
1964
1964
1965
1966
1967
1968
1969
1969
1969
1970
1971
1972
1974
1976
1978
1979
1981
1981
1981
1981
1981
1982
1983
1984
1985
1984
1984
1983
1981
1980
1978
1975
1973
1970
1967
1964
1960
1956
1954
1952
1950
1949
1947
1946
1945
1944
1943
1943
1942
1941
1941
1942
1942
1943
1944
1944
1943
1943
1942
1942
1942
1942
1943
1943
1944
1944
1944
1943
1942
1942
1943
1943
1944
1944
1944
1944
1944
1944
1944
1944
1944
1945
1945
1946
1946
1946
1946
1945
1945
1945
1945
1946
1946
1946
1947
1947
1947
1946
1946
1945
1944
1944
1944
1945
1947
1949
1951
1953
1954
1954
1954
1954
1955
1955
1955
1954
1953
1952
1951
1951
1951
1951
1952
1953
1953
1953
1953
1953
1952
1953
1953
1954
1954
1954
1953
1951
1951
1958
1974
1997
2023
2042
2045
2030
2000
1966
1937
1921
1919
1927
1939
1950
1957
1961
1963
1964
1963
1963
1963
1964
1965
1966
1967
1968
1969
1969
1969
1969
1969
1970
1970
1971
1972
1974
1975
1975
1976
1976
1976
1977
1978
1980
1982
1983
1985
1986
1988
1989
1991
1992
1994
1997
1999
2001
2003
2005
2006
2007
2008
2008
2009
2010
2012
2013
2013
2013
2012
2010
2007
2004
2001
1998
1996
1993
1991
1989
1987
1985
1983
1982
1982
1982
1982
1983
1983
1984
1984
1984
1984
1984
1984
1985
1986
1987
1987
1987
1987
1987
1987
1987
1988
1988
1989
1990
1990
1990
1990
1990
1990
1991
1991
1991
1992
1992
1992
1992
1992
1991
1991
1991
1991
1991
1991
1992
1992
1992
1991
1990
1990
1990
1990
1990
1991
1992
1992
1991
1990
1989
1989
1988
1988
1989
1990
1990
1990
1990
1989
1989
1988
1988
1988
1988
1989
1989
1990
1990
1989
1988
1987
1986
1986
1987
1989
1991
1993
1994
1995
1994
1993
1993
1993
1993
1993
1992
1991
1990
1989
1988
1987
1987
1987
1987
1987
1987
1987
1987
1987
1987
1987
1987
1986
1984
1982
1981
1985
1997
2018
2044
2067
2078
2072
2048
2014
1982
1961
1955
1961
1971
1980
1984
1985
1984
1984
1984
1984
1984
1984
1984
1984
1984
1984
1984
1985
1986
1986
1986
1986
1985
1984
1984
1985
1985
1986
1987
1987
1987
1987
1987
1988
1988
1989
1990
1992
1993
1995
1996
1996
1997
1997
1998
2000
2001
2003
2005
2006
2007
2008
2008
2009
2009
2009
2009
2009
2009
2008
2006
2003
2000
1996
1993
1989
1987
1985
1983
1982
1981
1979
1978
1977
1976
1976
1976
1976
1977
1977
1977
1977
1977
1977
1977
1976
1977
1977
1977
1978
1978
1978
1977
1977
1977
1977
1977
1977
1978
1979
1979
1979
1979
1978
1978
1978
1979
1979
1979
1980
1980
1979
1979
1979
1979
1979
1980
1980
1980
1980
1980
1980
1979
1979
1978
1978
1979
1979
1980
1980
1981
1980
1980
1979
1979
1979
1980
1980
1981
1982
1982
1982
1981
1981
1980
1980
1980
1981
1981
1981
1982
1983
1984
1985
1987
1988
1989
1989
1989
1989
1988
1987
1986
1985
1983
1983
1982
1983
1983
1984
1984
1983
1982
1982
1981
1981
1982
1983
1984
1984
1982
1978
1977
1981
1995
2017
2044
2064
2071
2059
2032
1998
1968
1952
1950
1958
1970
1980
1985
1986
1986
1985
1984
1983
1983
1983
1984
1985
1986
1986
1987
1987
1986
1986
1986
1986
1986
1987
1988
1988
1989
1989
1988
1988
1989
1989
1990
1992
1993
1994
1995
1996
1996
1997
1998
1999
2001
2003
2005
2007
2008
2009
2010
2010
2011
2011
2012
2014
2015
2016
2016
2016
2015
2013
2012
2009
2007
2004
2001
1998
1996
1993
1991
1989
1988
1987
1986
1986
1987
1987
1987
1986
1985
1985
1984
1984
1985
1985
1986
1986
1986
1986
1986
1985
1985
1985
1986
1986
1987
1987
1987
1987
1986
1985
1985
1985
1985
1986
1986
1986
1986
1986
1986
1985
1985
1984
1984
1984
1985
1985
1985
1984
1984
1983
1983
1982
1982
1983
1983
1983
1983
1983
1982
1982
1981
1981
1981
1982
1982
1983
1983
1983
1982
1982
1982
1982
1982
1982
1982
1982
1982
1981
1980
1979
1978
1978
1980
1982
1984
1986
1988
1988
1988
1987
1987
1986
1985
1985
1984
1984
1983
1981
1980
1980
1979
1980
1980
1981
1981
1980
1980
1980
1979
1979
1979
1979
1977
1975
1973
1976
1986
2006
2030
2052
2064
2058
2036
2004
1973
1952
1945
1949
1959
1968
1974
1977
1977
1977
1977
1976
1976
1976
1975
1975
1975
1976
1976
1976
1977
1977
1977
1977
1976
1976
1976
1976
1977
1977
1978
1979
1979
1979
1979
1979
1979
1980
1982
1984
1985
1987
1987
1988
1988
1988
1989
1991
1992
1994
1996
1997
1998
1998
1998
1997
1997
1997
1998
1998
1999
1998
1996
1994
1990
1986
1982
1979
1977
1975
1973
1971
1970
1968
1967
1965
1964
1963
1963
1964
1964
1964
1964
1963
1963
1963
1962
1962
1962
1962
1962
1963
1963
1963
1963
1962
1961
1961
1961
1962
1962
1963
1963
1962
1961
1960
1959
1959
1959
1959
1960
1960
1960
1960
1959
1958
1957
1957
1957
1957
1957
1957
1956
1955
1954
1953
1953
1953
1953
1953
1954
1954
1953
1952
1950
1949
1948
1948
1950
1952
1954
1956
1957
1957
1956
1954
1953
1952
1951
1950
1950
1950
1949
1948
1947
1947
1946
1946
1946
1947
1947
1947
1947
1947
1946
1946
1946
1944
1942
1941
1945
1957
1978
2003
2024
2033
2024
2000
1967
1935
1914
1906
1909
1918
1929
1938
1944
1947
1949
1950
1951
1951
1951
1952
1952
1953
1953
1954
1954
1955
1956
1957
1957
1958
1958
1958
1959
1959
1961
1962
1962
1963
1964
1964
1965
1966
1967
1968
1970
1972
1973
1975
1976
1977
1978
1980
1982
1984
1986
1987
1989
1991
1992
1993
1993
1993
1993
1993
1994
1994
1994
1993
1991
1989
1986
1983
1981
1979
1978
1976
1976
1975
1974
1974
1973
1972
1972
1972
1972
1973
1974
1974
1974
1974
1974
1974
1974
1975
1975
1976
1977
1977
1978
1978
1978
1978
1978
1978
1979
1980
1981
1982
1983
1983
1982
1982
1981
1982
1982
1983
1984
1985
1985
1984
1984
1983
1983
1983
1983
1984
1984
1984
1984
1984
1983
1983
1983
1983
1984
1984
1984
1984
1984
1984
1983
1983
1982
1981
1980
1981
1982
1983
1985
1987
1989
1990
1990
1990
1990
1990
1990
1990
1989
1988
1987
1985
1984
1984
1984
1984
1985
1985
1985
1985
1985
1984
1984
1985
1986
1986
1986
1984
1981
1981
1987
2003
2027
2052
2072
2075
2059
2030
1996
1968
1955
1955
1963
1974
1981
1985
1985
1985
1985
1985
1984
1984
1984
1984
1985
1985
1987
1988
1989
1990
1990
1989
1989
1988
1989
1990
1990
1991
1991
1991
1991
1991
1991
1991
1993
1994
1996
1997
1998
1999
2000
2001
2002
2003
2005
2007
2009
2010
2011
2012
2013
2013
2014
2014
2015
2016
2017
2018
2018
2017
2015
2012
2009
2006
2003
2000
1998
1996
1993
1991
1989
1988
1986
1986
1985
1986
1986
1986
1986
1986
1986
1985
1985
1985
1985
1986
1987
1987
1987
1987
1986
1986
1985
1985
1986
1986
1986
1986
1986
1986
1986
1985
1985
1985
1985
1985
1986
1986
1986
1986
1985
1985
1985
1985
1985
1986
1986
1986
1985
1985
1984
1984
1983
1983
1983
1983
1983
1984
1984
1984
1984
1984
1983
1983
1983
1984
1984
1984
1983
1982
1981
1981
1983
1985
1988
1990
1991
1991
1990
1988
1987
1986
1985
1985
1985
1984
1984
1983
1982
1981
1980
1980
1980
1980
1980
1981
1981
1982
1982
1982
1980
1977
1974
1974
1981
1997
2021
2047
2064
2067
2052
2025
1991
1964
1950
1949
1957
1968
1977
1981
1981
1981
1980
1979
1979
1980
1981
1982
1982
1982
1982
1981
1981
1981
1982
1982
1983
1983
1983
1983
1982
1982
1983
1983
1984
1985
1986
1986
1987
1988
1988
1988
1989
1989
1989
1991
1992
1994
1996
1997
1998
1999
1999
2000
2001
2002
2004
2005
2005
2004
2003
2002
2000
1998
1996
1994
1991
1987
1983
1978
1974
1970
1967
1965
1963
1961
1960
1959
1957
1956
1954
1953
1953
1953
1953
1953
1953
1954
1954
1954
1954
1953
1952
1952
1953
1953
1954
1955
1955
1956
1956
1955
1955
1955
1956
1956
1957
1957
1958
1958
1957
1957
1957
1957
1957
1958
1959
1959
1960
1960
1959
1959
1958
1958
1958
1958
1958
1959
1959
1958
1958
1957
1957
1957
1957
1958
1959
1959
1959
1959
1959
1958
1958
1958
1959
1960
1960
1960
1960
1959
1958
1958
1958
1957
1957
1957
1956
1956
1955
1955
1956
1957
1959
1962
1963
1964
1965
1965
1966
1967
1968
1968
1967
1967
1966
1966
1967
1967
1967
1967
1967
1967
1967
1967
1967
1968
1968
1969
1969
1968
1965
1962
1963
1971
1987
2011
2036
2052
2052
2036
2006
1973
1948
1936
1938
1948
1960
1970
1975
1976
1976
1975
1975
1975
1976
1977
1978
1979
1980
1980
1980
1980
1980
1981
1982
1982
1983
1984
1984
1985
1985
1985
1986
1986
1987
1988
1990
1991
1992
1992
1993
1994
1995
1996
1998
2000
2002
2004
2006
2006
2007
2007
2008
2009
2010
2012
2014
2015
2016
2015
2015
2013
2012
2010
2009
2008
2006
2003
1999
1996
1993
1990
1989
1988
1987
1987
1987
1987
1988
1988
1987
1986
1986
1985
1986
1986
1988
1988
1989
1989
1988
1987
1987
1988
1989
1990
1990
1990
1990
1990
1990
1990
1990
1990
1990
1991
1992
1992
1992
1992
1991
1991
1991
1991
1991
1991
1991
1991
1990
1989
1989
1988
1987
1987
1987
1987
1987
1988
1988
1987
1987
1986
1985
1985
1985
1986
1987
1987
1987
1987
1986
1985
1985
1986
1987
1988
1988
1988
1988
1987
1987
1986
1985
1984
1985
1986
1988
1991
1994
1995
1995
1994
1992
1991
1990
1990
1990
1990
1989
1988
1986
1985
1985
1985
1985
1985
1986
1986
1986
1986
1986
1985
1985
1985
1986
1986
1985
1983
1982
1985
1996
2015
2039
2059
2068
2061
2039
2008
1977
1956
1948
1951
1961
1972
1980
1985
1987
1988
1987
1986
1985
1985
1985
1985
1986
1986
1986
1986
1987
1987
1987
1986
1986
1985
1985
1985
1984
1982
1980
1977
1974
1973
1973
1973
1974
1975
1976
1977
1978
1978
1978
1977
1978
1979
1981
1983
1984
1985
1986
1986
1986
1987
1987
1987
1988
1988
1988
1988
1987
1986
1984
1981
1978
1975
1972
1970
1967
1965
1963
1961
1959
1957
1956
1955
1955
1955
1955
1954
1952
1950
1949
1948
1948
1948
1949
1949
1949
1949
1949
1950
1950
1949
1949
1949
1950
1951
1952
1953
1953
1954
1953
1953
1953
1954
1954
1955
1956
1956
1956
1956
1956
1956
1956
1956
1956
1957
1958
1958
1958
1958
1958
1958
1958
1958
1958
1959
1959
1960
1960
1961
1961
1961
1960
1961
1962
1963
1964
1965
1965
1965
1965
1965
1965
1964
1964
1963
1964
1965
1967
1970
1972
1974
1975
1975
1975
1975
1975
1975
1975
1974
1973
1972
1971
1971
1971
1972
1973
1973
1973
1973
1973
1972
1972
1973
1975
1978
1981
1982
1982
1979
1979
1985
2000
2022
2048
2066
2070
2057
2031
1999
1972
1957
1955
1963
1974
1984
1990
1993
1994
1993
1992
1991
1991
1992
1993
1994
1995
1996
1996
1996
1996
1996
1996
1996
1997
1998
1998
1999
1999
1999
1999
1999
1999
2000
2001
2003
2005
2006
2007
2008
2008
2009
2010
2012
2014
2016
2018
2020
2021
2022
2023
2024
2025
2025
2027
2028
2029
2030
2031
2030
2029
2027
2024
2021
2019
2016
2014
2011
2008
2005
2003
2001
1999
1998
1997
1997
1997
1997
1997
1996
1995
1995
1995
1995
1996
1996
1996
1997
1997
1997
1996
1996
1995
1995
1995
1996
1996
1997
1997
1996
1996
1995
1995
1995
1995
1996
1996
1996
1996
1996
1995
1994
1994
1994
1994
1994
1994
1994
1994
1994
1993
1992
1991
1991
1991
1992
1993
1993
1993
1992
1992
1991
1991
1990
1990
1991
1991
1991
1991
1991
1990
1989
1989
1989
1989
1990
1990
1990
1990
1990
1989
1989
1988
1988
1988
1989
1989
1989
1990
1990
1989
1989
1989
1989
1989
1989
1989
1989
1989
1988
1987
1986
1986
1986
1988
1990
1993
1996
1997
1996
1995
1993
1992
1992
1992
1992
1991
1990
1989
1987
1986
1985
1985
1985
1985
1986
1986
1986
1986
1985
1985
1985
1985
1983
1981
1978
1979
1987
2004
2029
2053
2070
2070
2051
2021
1988
1963
1953
1955
1965
1975
1981
1983
1983
1983
1983
1983
1983
1983
1983
1982
1982
1982
1983
1984
1985
1985
1985
1985
1985
1985
1985
1985
1985
1986
1987
1988
1988
1989
1989
1990
1990
1990
1991
1992
1993
1995
1997
1998
2000
2000
2001
2002
2003
2005
2007
2009
2010
2010
2011
2011
2011
2011
2012
2012
2012
2012
2011
2009
2006
2003
2000
1997
1994
1992
1990
1988
1987
1985
1984
1982
1981
1980
1980
1980
1981
1981
1981
1981
1980
1980
1980
1980
1980
1981
1981
1981
1982
1982
1981
1981
1980
1980
1980
1981
1981
1982
1982
1981
1981
1981
1980
1980
1980
1980
1980
1980
1981
1981
1981
1981
1980
1980
1980
1980
1980
1980
1981
1980
1980
1979
1978
1978
1978
1978
1978
1979
1980
1980
1980
1979
1979
1978
1978
1979
1980
1980
1980
1980
1980
1979
1978
1978
1978
1979
1979
1980
1980
1980
1980
1979
1978
1978
1977
1977
1977
1977
1977
1977
1979
1980
1983
1985
1986
1986
1986
1985
1985
1984
1984
1983
1982
1981
1979
1978
1977
1977
1977
1976
1975
1974
1974
1973
1973
1973
1973
1974
1974
1974
1972
1969
1967
1970
1982
2002
2028
2051
2063
2057
2035
2001
1969
1947
1940
1945
1957
1968
1976
1979
1980
1980
1980
1980
1981
1982
1982
1982
1982
1982
1982
1982
1982
1982
1983
1984
1985
1986
1986
1986
1985
1985
1985
1985
1986
1987
1988
1989
1990
1990
1990
1991
1991
1992
1994
1995
1996
1998
1999
2000
2001
2002
2002
2003
2004
2005
2006
2007
2008
2008
2008
2008
2007
2006
2005
2003
2001
1999
1996
1993
1990
1987
1983
1981
1979
1978
1978
1977
1976
1976
1975
1974
1974
1973
1974
1974
1974
1975
1975
1975
1975
1974
1974
1974
1974
1974
1974
1975
1975
1975
1975
1974
1974
1973
1974
1974
1975
1975
1976
1976
1975
1974
1974
1973
1972
1972
1973
1973
1973
1972
1971
1970
1969
1969
1969
1969
1969
1969
1969
1969
1969
1968
1967
1967
1967
1968
1968
1968
1968
1966
1966
1965
1966
1968
1971
1974
1976
1976
1975
1974
1972
1971
1970
1970
1970
1969
1969
1968
1968
1967
1967
1966
1965
1965
1964
1964
1965
1965
1966
1966
1966
1966
1964
1961
1960
1964
1976
1997
2022
2043
2050
2042
2018
1986
1956
1937
1930
1935
1945
1955
1962
1966
1967
1968
1969
1970
1970
1971
1972
1972
1972
1973
1973
1973
1973
1974
1975
1976
1977
1977
1977
1977
1976
1977
1977
1979
1980
1981
1982
1983
1983
1983
1984
1985
1986
1988
1990
1992
1993
1995
1996
1997
1998
1998
1999
2000
2001
2003
2004
2004
2005
2004
2004
2003
2003
2002
2000
1999
1997
1994
1991
1988
1985
1982
1980
1978
1976
1975
1975
1974
1974
1973
1972
1972
1973
1973
1973
1973
1973
1973
1973
1972
1972
1972
1972
1972
1973
1974
1974
1974
1973
1973
1972
1972
1972
1973
1974
1975
1975
1975
1975
1975
1974
1974
1974
1975
1975
1976
1976
1976
1976
1975
1974
1974
1973
1974
1974
1975
1975
1975
1974
1973
1972
1972
1973
1974
1975
1975
1976
1976
1975
1974
1974
1973
1973
1973
1973
1974
1973
1973
1972
1971
1971
1973
1976
1979
1982
1983
1983
1982
1981
1980
1979
1979
1978
1977
1976
1976
1975
1975
1975
1974
1974
1974
1974
1975
1975
1976
1976
1976
1976
1976
1974
1972
1970
1971
1981
1998
2022
2046
2060
2059
2042
2012
1981
1957
1946
1948
1957
1967
1975
1978
1978
1978
1977
1977
1978
1979
1979
1980
1980
1980
1979
1979
1980
1981
1982
1983
1983
1983
1983
1983
1983
1983
1984
1985
1985
1986
1987
1988
1988
1988
1989
1990
1991
1992
1994
1996
1998
1999
1999
2000
2001
2002
2003
2005
2006
2007
2008
2008
2008
2008
2008
2008
2007
2007
2006
2004
2001
1998
1994
1991
1987
1985
1983
1981
1980
1979
1978
1977
1977
1976
1975
1974
1974
1974
1975
1976
1976
1976
1976
1975
1975
1975
1975
1976
1977
1977
1977
1977
1977
1977
1976
1976
1976
1976
1977
1978
1978
1978
1978
1977
1976
1976
1976
1976
1977
1977
1977
1977
1977
1976
1976
1976
1976
1976
1976
1977
1976
1976
1976
1975
1975
1975
1975
1975
1976
1976
1976
1976
1975
1975
1975
1975
1975
1975
1975
1975
1975
1975
1975
1975
1975
1974
1974
1973
1973
1973
1974
1976
1978
1980
1982
1982
1982
1981
1981
1981
1981
1980
1980
1979
1977
1976
1976
1975
1976
1976
1976
1976
1975
1975
1975
1975
1976
1977
1978
1978
1977
1974
1971
1972
1981
1999
2024
2048
2064
2063
2045
2013
1980
1956
1946
1948
1958
1969
1976
1979
1978
1977
1976
1975
1975
1975
1976
1976
1977
1978
1979
1980
1980
1979
1979
1979
1979
1979
1980
1981
1982
1982
1982
1982
1981
1982
1983
1984
1985
1987
1988
1989
1990
1990
1991
1991
1992
1994
1996
1998
1999
2000
2001
2001
2002
2002
2003
2003
2004
2005
2005
2005
2005
2003
2002
1999
1996
1994
1991
1988
1985
1983
1981
1979
1977
1975
1974
1973
1973
1974
1974
1974
1973
1973
1972
1972
1972
1973
1974
1974
1975
1975
1975
1974
1973
1973
1973
1974
1975
1975
1975
1975
1975
1974
1974
1974
1974
1974
1975
1975
1976
1976
1976
1975
1975
1975
1975
1975
1975
1975
1975
1975
1975
1974
1974
1973
1973
1973
1973
1974
1974
1974
1974
1973
1973
1972
1972
1972
1973
1974
1974
1975
1975
1975
1974
1973
1973
1973
1974
1974
1974
1974
1973
1972
1971
1971
1972
1974
1977
1980
1981
1981
1979
1978
1976
1975
1974
1974
1973
1973
1973
1972
1972
1971
1970
1970
1970
1971
1972
1972
1973
1973
1973
1973
1973
1972
1969
1967
1968
1976
1993
2017
2042
2056
2056
2039
2008
1976
1952
1942
1944
1953
1963
1969
1971
1971
1971
1971
1971
1971
1972
1972
1971
1971
1971
1971
1971
1972
1972
1972
1973
1973
1973
1972
1972
1973
1973
1973
1974
1975
1975
1976
1977
1977
1977
1977
1978
1978
1980
1981
1983
1984
1985
1986
1986
1987
1988
1989
1990
1991
1992
1992
1993
1993
1993
1994
1994
1994
1994
1993
1991
1988
1985
1981
1978
1975
1972
1970
1968
1966
1964
1962
1961
1959
1958
1958
1957
1957
1958
1958
1958
1958
1958
1957
1956
1955
1955
1955
1956
1957
1959
1960
1960
1961
1960
1960
1960
1960
1961
1961
1962
1962
1961
1961
1960
1959
1959
1959
1959
1960
1960
1959
1959
1958
1957
1956
1955
1955
1955
1955
1955
1955
1954
1954
1954
1953
1953
1952
1952
1952
1951
1951
1950
1951
1953
1955
1958
1959
1960
1960
1960
1959
1957
1956
1954
1952
1951
1950
1950
1950
1950
1950
1949
1948
1947
1946
1946
1946
1947
1947
1947
1947
1945
1943
1940
1940
1946
1961
1985
2011
2031
2035
2020
1989
1953
1923
1904
1901
1907
1919
1930
1939
1943
1946
1947
1946
1946
1946
1947
1948
1949
1950
1951
1952
1952
1952
1952
1953
1954
1955
1957
1958
1958
1958
1958
1959
1960
1961
1963
1964
1965
1966
1967
1968
1968
1969
1971
1973
1975
1977
1979
1980
1982
1983
1984
1985
1986
1988
1989
1990
1991
1991
1992
1992
1992
1992
1990
1989
1986
1984
1981
1978
1975
1972
1969
1967
1966
1966
1966
1966
1966
1966
1966
1965
1965
1965
1965
1966
1967
1968
1968
1969
1969
1969
1969
1969
1969
1970
1970
1971
1972
1972
1972
1972
1972
1972
1972
1972
1973
1974
1975
1975
1975
1975
1974
1974
1974
1975
1975
1976
1976
1976
1976
1975
1975
1975
1975
1975
1976
1976
1976
1976
1976
1975
1975
1975
1975
1975
1974
1974
1973
1974
1975
1977
1980
1982
1984
1984
1984
1983
1982
1981
1981
1980
1978
1977
1976
1976
1976
1977
1977
1977
1976
1975
1975
1975
1975
1976
1978
1979
1979
1977
1974
1971
1972
1981
2000
2027
2052
2068
2066
2046
2012
1978
1953
1944
1949
1960
1972
1979
1981
1980
1979
1978
1978
1978
1979
1980
1981
1981
1982
1982
1982
1982
1982
1982
1982
1983
1984
1985
1985
1985
1985
1985
1985
1985
1986
1987
1989
1990
1991
1992
1992
1992
1992
1993
1995
1996
1998
2000
2001
2002
2003
2004
2004
2005
2006
2007
2008
2009
2010
2010
2010
2008
2007
2005
2002
2000
1998
1995
1992
1990
1987
1984
1982
1981
1980
1979
1979
1979
1979
1979
1979
1978
1977
1977
1977
1977
1978
1979
1980
1980
1980
1980
1979
1979
1979
1979
1980
1980
1981
1981
1980
1980
1979
1979
1979
1980
1980
1981
1981
1981
1981
1980
1980
1980
1979
1979
1980
1980
1980
1980
1980
1980
1979
1978
1978
1978
1979
1978
1978
1977
1977
1977
1978
1980
1982
1983
1985
1985
1985
1985
1984
1983
1981
1980
1979
1978
1977
1977
1977
1977
1977
1976
1976
1975
1975
1976
1976
1977
1978
1978
1978
1976
1972
1969
1970
1980
1998
2024
2049
2064
2062
2042
2010
1976
1953
