2041
2049
2052
2051
2048
2043
2045
2045
2048
2050
2055
2060
2063
2063
2061
2057
2055
2056
2056
2056
2057
2057
2056
2055
2055
2054
2055
2054
2054
2054
2053
2053
2053
2052
2054
2053
2052
2048
2047
2045
2048
2052
2057
2060
2059
2054
2051
2050
2049
2051
2053
2053
2052
2051
2051
2050
2050
2050
2051
2052
2053
2054
2054
2053
2052
2051
2050
2048
2046
2041
2039
2041
2046
2051
2054
2054
2051
2048
2047
2048
2048
2050
2050
2050
2050
2050
2049
2049
2048
2048
2048
2049
2050
2050
2049
2041
2020
1997
1972
1967
1994
2056
2137
2211
2251
2246
2204
2148
2098
2068
2051
2048
2045
2039
2035
2031
2028
2027
2025
2023
2021
2020
2018
2016
2015
2013
2013
2009
2009
2007
2006
2004
2001
2000
2000
2000
2002
2003
2001
1997
1992
1987
1985
1982
1981
1977
1974
1972
1968
1965
1962
1960
1957
1954
1952
1949
1948
1947
1947
1949
1951
1955
1957
1960
1966
1975
1988
2004
2017
2026
2030
2032
2035
2037
2043
2046
2048
2050
2052
2055
2056
2057
2058
2058
2059
2058
2059
2059
2059
2060
2059
2060
2060
2060
2058
2056
2055
2055
2058
2061
2062
2061
2058
2056
2054
2054
2054
2054
2053
2053
2054
2054
2054
2054
2054
2053
2053
2053
2053
2053
2054
2054
2056
2056
2055
2053
2051
2050
2052
2055
2059
2061
2059
2057
2054
2052
2053
2053
2054
2054
2054
2054
2054
2054
2053
2052
2052
2052
2052
2052
2052
2052
2051
2052
2053
2053
2051
2048
2046
2045
2048
2052
2057
2060
2059
2055
2051
2048
2048
2048
2046
2045
2044
2044
2044
2044
2045
2045
2046
2047
2048
2048
2049
2048
2051
2051
2051
2049
2046
2044
2043
2047
2051
2055
2056
2054
2051
2049
2047
2039
2020
1997
1978
1978
2010
2071
2146
2209
2239
2230
2190
2141
2098
2069
2053
2044
2043
2039
2035
2029
2023
2021
2021
2026
2028
2027
2022
2016
2012
2009
2011
2010
2009
2007
2006
2004
2002
2001
2000
1999
1997
1996
1994
1992
1990
1987
1986
1985
1981
1977
1971
1967
1965
1966
1968
1968
1965
1959
1953
1947
1945
1946
1945
1946
1946
1948
1951
1955
1962
1969
1978
1987
1996
2004
2012
2019
2025
2030
2037
2042
2044
2044
2042
2043
2048
2056
2064
2069
2067
2062
2057
2054
2057
2057
2058
2057
2056
2056
2057
2058
2057
2057
2056
2056
2056
2055
2055
2055
2055
2057
2056
2056
2053
2052
2052
2053
2057
2059
2061
2060
2058
2057
2055
2055
2054
2055
2055
2055
2056
2056
2057
2057
2057
2057
2057
2056
2055
2057
2058
2058
2057
2054
2052
2049
2048
2048
2052
2058
2063
2067
2066
2063
2058
2053
2052
2052
2053
2053
2053
2054
2054
2054
2053
2053
2053
2052
2053
2052
2052
2052
2053
2052
2053
2054
2052
2048
2047
2046
2049
2054
2059
2061
2059
2055
2051
2048
2048
2048
2049
2049
2049
2049
2050
2049
2050
2049
2049
2049
2049
2049
2049
2049
2048
2050
2048
2048
2047
2045
2045
2047
2049
2053
2055
2054
2051
2048
2045
2047
2046
2048
2048
2048
2048
2048
2048
2047
2047
2047
2047
2048
2047
2048
2048
2047
2048
2048
2048
2044
2041
2039
2041
2047
2053
2058
2058
2054
2049
2046
2045
2044
2043
2042
2040
2039
2039
2040
2040
2041
2041
2043
2044
2045
2046
2046
2045
2044
2046
2047
2047
2044
2040
2039
2041
2047
2051
2052
2052
2049
2046
2038
2023
2000
1980
1974
1998
2051
2120
2183
2219
2218
2186
2140
2098
2068
2053
2045
2040
2038
2034
2032
2026
2021
2017
2017
2021
2024
2026
2022
2017
2012
2007
2007
2006
2006
2004
2002
2002
2002
2001
2000
1999
1998
1996
1994
1992
1990
1989
1985
1986
1983
1980
1974
1968
1965
1963
1964
1966
1967
1967
1967
1965
1961
1959
1954
1950
1948
1950
1954
1958
1963
1969
1976
1983
1991
1999
2007
2014
2021
2025
2032
2036
2039
2040
2039
2040
2042
2049
2056
2063
2064
2061
2057
2053
2053
2053
2054
2055
2054
2054
2055
2056
2056
2055
2054
2053
2052
2052
2053
2054
2054
2054
2055
2053
2052
2048
2045
2046
2049
2057
2063
2066
2063
2056
2052
2049
2051
2052
2055
2055
2055
2054
2054
2054
2053
2054
2053
2053
2053
2054
2054
2054
2055
2054
2054
2053
2049
2048
2048
2051
2056
2062
2063
2060
2055
2050
2049
2050
2052
2053
2053
2052
2051
2051
2051
2051
2051
2051
2050
2050
2051
2051
2051
2051
2052
2052
2048
2048
2044
2043
2046
2050
2056
2060
2060
2057
2051
2048
2046
2047
2048
2049
2049
2049
2048
2048
2048
2048
2048
2048
2049
2049
2049
2049
2049
2050
2049
2048
2045
2041
2041
2044
2050
2056
2059
2058
2053
2049
2048
2047
2048
2048
2048
2048
2047
2047
2046
2046
2048
2051
2054
2054
2053
2049
2046
2043
2042
2044
2042
2039
2035
2033
2036
2040
2047
2049
2049
2048
2045
2043
2046
2047
2047
2047
2046
2047
2046
2046
2047
2046
2047
2046
2047
2047
2047
2048
2044
2032
2010
1982
1962
1966
2009
2080
2163
2225
2248
2227
2177
2125
2085
2060
2052
2048
2044
2038
2033
2029
2027
2025
2023
2021
2019
2018
2016
2015
2014
2012
2009
2011
2009
2010
2005
1999
1993
1992
1996
2004
2011
2011
2006
1997
1988
1987
1983
1985
1982
1979
1976
1974
1971
1968
1965
1962
1959
1956
1953
1950
1948
1946
1947
1947
1947
1947
1947
1949
1955
1965
1976
1987
1996
2003
2010
2015
2023
2028
2034
2039
2043
2047
2049
2052
2055
2057
2058
2059
2059
2060
2061
2061
2062
2063
2063
2064
2062
2060
2057
2057
2059
2063
2066
2067
2065
2061
2059
2058
2057
2057
2058
2058
2058
2058
2058
2057
2057
2057
2057
2057
2057
2057
2057
2057
2057
2058
2059
2059
2057
2056
2054
2055
2058
2062
2064
2063
2061
2058
2056
2057
2057
2058
2058
2058
2057
2057
2058
2057
2057
2056
2056
2055
2055
2056
2056
2055
2055
2056
2055
2054
2052
2050
2052
2054
2057
2057
2056
2054
2053
2053
2055
2056
2054
2052
2051
2051
2052
2051
2052
2051
2051
2051
2051
2051
2050
2050
2048
2050
2050
2050
2048
2047
2047
2048
2052
2056
2057
2055
2050
2046
2042
2042
2042
2043
2043
2044
2045
2046
2046
2047
2047
2048
2048
2048
2049
2048
2048
2048
2048
2049
2048
2047
2044
2042
2043
2045
2049
2048
2033
2004
1972
1954
1971
2027
2108
2190
2241
2249
2217
2163
2113
2078
2059
2051
2047
2041
2035
2030
2025
2024
2022
2020
2018
2013
2010
2009
2011
2015
2017
2016
2012
2008
2003
2001
2002
2001
2001
1999
1998
1996
1995
1993
1992
1990
1988
1986
1983
1981
1978
1973
1970
1970
1968
1964
1957
1949
1944
1944
1949
1955
1959
1956
1951
1946
1946
1952
1958
1966
1973
1980
1989
1998
2007
2016
2024
2031
2036
2041
2044
2048
2050
2053
2058
2059
2060
2057
2056
2056
2059
2065
2069
2071
2069
2065
2062
2061
2063
2063
2064
2063
2062
2061
2061
2061
2061
2061
2061
2060
2059
2058
2058
2058
2058
2057
2060
2060
2057
2053
2048
2049
2053
2060
2066
2067
2064
2059
2055
2054
2056
2056
2057
2057
2058
2057
2058
2058
2058
2058
2057
2057
2057
2057
2057
2057
2057
2057
2057
2056
2055
2054
2053
2055
2057
2059
2060
2059
2057
2055
2053
2054
2054
2055
2054
2054
2054
2054
2054
2054
2054
2053
2053
2053
2053
2053
2053
2053
2054
2055
2055
2052
2050
2048
2049
2053
2057
2060
2059
2056
2053
2052
2052
2053
2051
2048
2047
2048
2048
2048
2043
2038
2037
2041
2051
2061
2066
2063
2056
2052
2048
2049
2048
2048
2047
2047
2050
2054
2057
2058
2056
2054
2050
2040
2021
1995
1973
1973
2006
2070
2147
2211
2240
2229
2188
2137
2096
2069
2055
2048
2044
2042
2039
2035
2029
2025
2022
2022
2025
2028
2027
2024
2019
2016
2016
2015
2014
2013
2010
2009
2008
2007
2006
2005
2004
2003
2001
1999
1996
1995
1992
1991
1988
1985
1983
1978
1974
1970
1970
1970
1970
1968
1964
1959
1955
1951
1952
1951
1953
1954
1956
1959
1965
1972
1979
1988
1997
2005
2013
2020
2028
2033
2037
2045
2048
2055
2054
2051
2048
2048
2054
2066
2077
2080
2077
2069
2061
2062
2061
2066
2066
2066
2065
2065
2065
2065
2065
2065
2064
2064
2063
2063
2062
2061
2063
2063
2063
2061
2059
2057
2057
2060
2062
2065
2065
2064
2062
2060
2059
2059
2059
2059
2059
2059
2059
2060
2060
2060
2060
2059
2059
2058
2058
2058
2059
2059
2060
2062
2060
2057
2053
2052
2054
2059
2064
2065
2063
2058
2055
2053
2054
2055
2055
2055
2055
2055
2055
2055
2055
2055
2054
2054
2054
2053
2053
2053
2054
2055
2055
2053
2050
2048
2048
2052
2057
2062
2063
2061
2058
2052
2050
2049
2048
2048
2047
2046
2046
2047
2048
2048
2048
2049
2050
2050
2051
2052
2051
2053
2053
2054
2053
2050
2048
2046
2048
2052
2058
2060
2060
2055
2046
2029
2005
1984
1974
1994
2047
2121
2195
2239
2244
2212
2161
2113
2079
2061
2052
2048
2044
2041
2038
2034
2029
2023
2019
2018
2022
2027
2029
2028
2023
2018
2013
2012
2012
2012
2010
2009
2007
2006
2005
2003
2001
2000
1998
1996
1994
1992
1990
1988
1986
1984
1980
1975
1968
1963
1960
1961
1963
1964
1961
1955
1949
1944
1945
1944
1945
1947
1949
1955
1962
1970
1979
1989
1999
2007
2017
2024
2031
2036
2041
2044
2050
2054
2058
2056
2053
2052
2056
2064
2072
2076
2075
2070
2067
2063
2066
2066
2067
2066
2066
2066
2066
2065
2065
2065
2066
2065
2064
2064
2063
2064
2061
2063
2063
2062
2061
2059
2059
2060
2063
2067
2069
2069
2066
2063
2060
2061
2061
2061
2061
2061
2063
2062
2063
2062
2062
2062
2061
2061
2060
2060
2060
2059
2061
2061
2062
2059
2054
2050
2049
2055
2062
2067
2069
2065
2061
2057
2055
2056
2056
2057
2056
2056
2057
2057
2058
2058
2058
2059
2058
2057
2056
2054
2053
2050
2050
2050
2050
2049
2048
2049
2051
2056
2059
2061
2061
2058
2057
2056
2056
2057
2057
2057
2057
2056
2056
2056
2056
2057
2058
2056
2045
2022
1990
1964
1961
1998
2071
2160
2234
2268
2257
2212
2159
2117
2089
2074
2065
2057
2048
2043
2039
2037
2034
2032
2029
2027
2026
2024
2022
2021
2019
2019
2018
2017
2015
2013
2012
2012
2010
2007
2003
2000
1999
2001
2001
2004
2001
1995
1989
1983
1980
1978
1976
1974
1971
1967
1963
1958
1953
1950
1947
1945
1943
1942
1941
1942
1942
1948
1953
1960
1966
1972
1981
1993
2007
2023
2036
2043
2046
2048
2048
2051
2056
2060
2063
2065
2066
2067
2067
2067
2068
2068
2070
2070
2071
2071
2071
2071
2069
2072
2071
2070
2067
2063
2062
2064
2071
2076
2076
2073
2068
2064
2062
2065
2065
2065
2064
2063
2062
2062
2063
2062
2063
2062
2062
2061
2061
2061
2060
2061
2061
2060
2061
2059
2058
2057
2061
2064
2067
2069
2066
2064
2060
2058
2061
2060
2062
2061
2062
2061
2061
2061
2060
2059
2058
2057
2056
2054
2054
2052
2050
2054
2055
2055
2053
2049
2047
2049
2056
2064
2069
2066
2062
2056
2052
2054
2055
2055
2054
2054
2055
2056
2057
2055
2046
2024
1993
1966
1962
1997
2069
2160
2238
2274
2263
2216
2158
2111
2079
2063
2055
2051
2049
2049
2050
2048
2041
2033
2026
2023
2022
2024
2022
2020
2019
2018
2017
2015
2014
2013
2012
2010
2009
2008
2008
2006
2003
1998
1995
1993
1994
1996
1997
1993
1988
1981
1976
1972
1969
1966
1962
1958
1954
1951
1949
1947
1945
1944
1943
1943
1946
1951
1959
1968
1977
1988
1998
2007
2014
2020
2027
2035
2043
2050
2056
2058
2060
2060
2059
2062
2063
2065
2065
2066
2067
2067
2068
2068
2068
2068
2067
2068
2068
2068
2068
2067
2069
2068
2067
2064
2062
2061
2062
2065
2068
2068
2067
2064
2062
2059
2058
2059
2059
2061
2064
2064
2063
2061
2059
2059
2059
2060
2060
2061
2061
2062
2061
2062
2063
2062
2060
2057
2055
2056
2059
2064
2067
2068
2065
2061
2059
2058
2059
2059
2059
2059
2058
2058
2058
2058
2057
2058
2058
2057
2057
2056
2055
2056
2056
2057
2056
2056
2053
2051
2050
2052
2056
2060
2062
2061
2059
2057
2057
2056
2055
2054
2052
2051
2049
2048
2048
2048
2049
2049
2050
2050
2051
2052
2052
2053
2055
2056
2056
2053
2051
2049
2051
2056
2061
2063
2060
2056
2054
2053
2057
2057
2049
2031
2003
1978
1970
1995
2055
2134
2206
2246
2244
2206
2153
2107
2075
2062
2057
2052
2047
2036
2029
2025
2027
2035
2041
2043
2039
2030
2021
2018
2017
2016
2017
2015
2014
2013
2012
2011
2010
2009
2007
2005
2003
2002
2001
1999
2000
1999
1997
1993
1987
1982
1979
1979
1981
1982
1980
1974
1967
1961
1958
1956
1953
1952
1951
1952
1954
1957
1961
1967
1974
1982
1990
2000
2008
2017
2025
2031
2038
2043
2047
2048
2048
2050
2054
2059
2064
2066
2066
2063
2062
2061
2062
2063
2063
2063
2064
2064
2064
2065
2065
2064
2064
2064
2063
2062
2062
2061
2062
2063
2062
2060
2057
2054
2054
2057
2061
2065
2065
2063
2060
2055
2055
2056
2055
2057
2057
2057
2058
2058
2058
2057
2057
2057
2057
2058
2058
2058
2058
2059
2059
2059
2058
2056
2053
2053
2055
2059
2063
2065
2063
2063
2059
2057
2057
2057
2058
2060
2062
2062
2062
2059
2057
2056
2056
2057
2057
2057
2057
2057
2057
2059
2058
2057
2054
2050
2048
2050
2055
2062
2065
2064
2060
2056
2054
2054
2054
2054
2054
2054
2053
2053
2052
2053
2053
2053
2054
2053
2053
2052
2053
2053
2053
2055
2054
2052
2049
2047
2048
2052
2058
2062
2061
2058
2054
2051
2052
2054
2053
2053
2051
2052
2051
2051
2051
2051
2052
2052
2052
2052
2052
2052
2051
2050
2053
2053
2053
2049
2045
2042
2045
2051
2059
2063
2060
2054
2048
2042
2043
2043
2044
2044
2044
2045
2046
2045
2046
2047
2048
2049
2049
2049
2050
2050
2048
2051
2051
2051
2049
2045
2042
2042
2048
2056
2062
2061
2050
2030
2004
1987
1988
2018
2072
2140
2198
2226
2219
2183
2137
2097
2070
2055
2048
2044
2039
2035
2034
2031
2029
2024
2020
2017
2015
2016
2018
2021
2020
2018
2015
2011
2010
2008
2007
2007
2005
2004
2003
2002
2001
2000
1998
1996
1994
1992
1990
1987
1985
1984
1982
1980
1976
1971
1966
1962
1961
1962
1964
1963
1960
1956
1952
1951
1950
1952
1956
1960
1967
1973
1980
1988
1996
2004
2012
2019
2026
2032
2038
2042
2046
2049
2053
2054
2054
2054
2054
2056
2060
2064
2067
2065
2063
2060
2058
2059
2059
2060
2059
2060
2059
2059
2059
2058
2058
2057
2057
2057
2057
2057
2056
2056
2056
2057
2056
2054
2052
2051
2052
2055
2060
2062
2062
2059
2056
2055
2055
2056
2056
2056
2056
2057
2059
2060
2059
2058
2057
2057
2058
2059
2059
2060
2059
2061
2061
2062
2061
2058
2057
2057
2059
2063
2065
2066
2063
2060
2057
2055
2055
2055
2055
2056
2058
2057
2053
2048
2046
2048
2055
2062
2066
2064
2058
2054
2050
2053
2054
2055
2051
2048
2048
2050
2056
2060
2061
2059
2055
2052
2053
2053
2054
2054
2052
2052
2051
2051
2052
2051
2052
2052
2052
2052
2052
2053
2051
2052
2055
2055
2054
2049
2045
2042
2046
2053
2060
2064
2061
2056
2050
2048
2048
2048
2049
2050
2049
2050
2050
2050
2050
2050
2050
2050
2050
2050
2049
2048
2047
2048
2048
2048
2046
2043
2042
2045
2048
2052
2054
2053
2050
2048
2045
2047
2047
2048
2048
2047
2045
2043
2041
2040
2039
2039
2040
2041
2041
2041
2041
2042
2045
2047
2047
2044
2040
2038
2039
2045
2051
2054
2055
2051
2048
2046
2047
2048
2049
2050
2046
2033
2012
1989
1976
1988
2032
2098
2166
2213
2223
2199
2154
2108
2075
2055
2044
2036
2030
2027
2027
2030
2031
2029
2024
2019
2015
2014
2013
2013
2012
2011
2011
2010
2009
2008
2006
2005
2004
2003
2002
2001
2000
1999
1997
1997
1994
1993
1988
1982
1979
1978
1980
1982
1982
1977
1971
1964
1957
1957
1954
1953
1950
1948
1947
1946
1946
1946
1948
1951
1955
1962
1969
1978
1987
1996
2004
2013
2020
2024
2028
2032
2037
2045
2052
2057
2058
2057
2056
2055
2055
2060
2061
2062
2061
2061
2061
2061
2063
2064
2064
2064
2063
2063
2062
2063
2061
2062
2062
2062
2059
2056
2054
2054
2058
2062
2065
2066
2064
2061
2059
2058
2058
2059
2058
2059
2059
2060
2060
2059
2059
2060
2061
2062
2062
2062
2062
2062
2061
2062
2061
2061
2058
2055
2056
2058
2064
2069
2070
2068
2065
2062
2062
2061
2060
2061
2060
2060
2059
2059
2058
2058
2058
2057
2057
2056
2055
2054
2053
2051
2054
2054
2054
2051
2049
2048
2049
2054
2059
2061
2059
2057
2055
2051
2053
2050
2049
2048
2050
2053
2055
2057
2057
2057
2056
2056
2056
2056
2055
2056
2054
2056
2056
2056
2054
2051
2049
2049
2052
2058
2061
2062
2059
2056
2051
2052
2052
2053
2052
2051
2051
2052
2054
2055
2055
2054
2053
2051
2049
2048
2047
2045
2045
2048
2048
2046
2042
2037
2037
2044
2052
2060
2061
2056
2049
2044
2041
2043
2043
2044
2042
2042
2043
2044
2044
2044
2043
2036
2017
1989
1962
1952
1978
2040
2123
2199
2241
2235
2192
2138
2094
2070
2060
2054
2048
2037
2027
2020
2017
2015
2014
2012
2010
2008
2008
2006
2005
2004
2003
2003
2001
2001
1999
1997
1996
1998
1995
1993
1987
1981
1979
1983
1989
1995
1996
1992
1984
1976
1971
1971
1968
1967
1964
1961
1958
1955
1951
1949
1945
1942
1941
1939
1939
1939
1940
1943
1948
1955
1961
1967
1972
1980
1992
2006
2019
2029
2033
2033
2032
2034
2038
2043
2048
2049
2050
2050
2051
2053
2056
2060
2061
2061
2059
2058
2059
2058
2060
2060
2060
2059
2055
2053
2052
2055
2061
2067
2069
2068
2063
2059
2057
2057
2058
2058
2057
2057
2057
2057
2057
2057
2057
2057
2057
2057
2058
2058
2057
2057
2058
2059
2059
2058
2055
2051
2051
2054
2060
2066
2068
2066
2061
2057
2057
2056
2057
2058
2057
2057
2057
2057
2056
2056
2057
2057
2058
2058
2057
2057
2056
2055
2058
2058
2058
2054
2049
2047
2049
2055
2062
2066
2064
2059
2055
2050
2054
2055
2056
2055
2054
2053
2052
2052
2053
2052
2053
2053
2052
2052
2052
2052
2049
2051
2051
2051
2050
2048
2048
2048
2051
2056
2061
2061
2059
2054
2049
2049
2049
2051
2051
2051
2052
2052
2052
2053
2053
2052
2051
2050
2051
2052
2055
2055
2056
2055
2054
2048
2042
2036
2034
2039
2048
2057
2060
2056
2051
2048
2046
2048
2049
2050
2049
2049
2050
2051
2051
2051
2050
2049
2048
2048
2049
2050
2051
2051
2049
2037
2012
1985
1965
1974
2016
2087
2164
2221
2241
2223
2179
2129
2088
2061
2047
2043
2040
2038
2035
2031
2029
2026
2024
2022
2020
2020
2019
2018
2016
2020
2018
2015
2009
2003
2000
2005
2014
2022
2024
2017
2007
1999
1992
1994
1994
1993
1992
1989
1987
1985
1982
1979
1976
1973
1970
1967
1965
1962
1960
1955
1954
1952
1950
1948
1944
1945
1948
1955
1964
1971
1977
1982
1987
1993
2003
2011
2018
2027
2032
2037
2041
2043
2046
2049
2053
2056
2057
2058
2058
2058
2057
2060
2061
2060
2059
2057
2055
2056
2058
2063
2066
2068
2066
2064
2061
2060
2060
2059
2058
2058
2057
2057
2057
2057
2056
2056
2057
2057
2057
2057
2057
2057
2057
2058
2057
2056
2055
2052
2052
2054
2059
2062
2064
2063
2061
2058
2057
2057
2057
2057
2057
2058
2058
2058
2059
2059
2060
2060
2059
2058
2057
2057
2054
2055
2058
2056
2056
2051
2048
2047
2049
2055
2061
2064
2061
2056
2053
2051
2055
2056
2057
2056
2054
2054
2054
2053
2054
2053
2052
2052
2052
2053
2052
2053
2051
2053
2054
2053
2051
2048
2048
2049
2053
2057
2059
2057
2055
2052
2049
2051
2051
2052
2051
2051
2051
2051
2052
2052
2052
2051
2051
2050
2048
2048
2048
2048
2051
2051
2051
2048
2046
2043
2044
2048
2052
2054
2054
2051
2048
2046
2047
2047
2047
2047
2047
2047
2047
2048
2048
2049
2050
2050
2049
2048
2048
2046
2044
2043
2045
2044
2042
2038
2034
2034
2039
2047
2053
2055
2051
2047
2041
2040
2043
2044
2046
2047
2048
2048
2048
2048
2048
2050
2050
2051
2046
2032
2009
1985
1971
1990
2037
2107
2174
2218
2226
2203
2162
2121
2089
2067
2053
2045
2036
2034
2030
2029
2027
2025
2023
2022
2020
2019
2018
2017
2016
2015
2015
2012
2010
2007
2007
2005
2003
1999
1995
1992
1992
1995
2000
2003
2001
1997
1992
1987
1985
1983
1981
1979
1977
1975
1972
1968
1963
1959
1956
1954
1953
1951
1950
1947
1945
1946
1947
1951
1952
1954
1958
1966
1979
1993
2006
2015
2020
2023
2027
2031
2038
2041
2045
2048
2050
2052
2054
2055
2057
2058
2059
2060
2060
2060
2060
2060
2060
2062
2062
2061
2058
2055
2054
2056
2061
2066
2066
2064
2061
2058
2057
2057
2057
2056
2055
2056
2056
2056
2056
2055
2056
2055
2055
2055
2055
2055
2055
2055
2056
2056
2057
2054
2052
2051
2053
2056
2060
2062
2061
2059
2056
2053
2055
2054
2056
2056
2055
2055
2054
2054
2054
2055
2055
2055
2054
2054
2054
2052
2051
2052
2054
2055
2051
2047
2042
2043
2049
2058
2065
2065
2060
2053
2048
2048
2049
2051
2049
2048
2048
2047
2048
2047
2048
2047
2047
2047
2047
2047
2046
2045
2047
2047
2048
2047
2044
2041
2040
2043
2047
2051
2051
2050
2048
2046
2046
2046
2047
2047
2047
2047
2048
2048
2049
2050
2051
2051
2050
2050
2049
2048
2048
2045
2048
2047
2046
2043
2039
2038
2043
2050
2058
2061
2060
2056
2052
2049
2051
2052
2053
2053
2054
2053
2053
2052
2053
2054
2055
2056
2054
2043
2020
1989
1967
1967
2005
2076
2159
2227
2257
2245
2204
2154
2113
2085
2069
2060
2053
2048
2043
2041
2037
2035
2033
2031
2030
2028
2027
2026
2025
2023
2022
2021
2020
2019
2018
2018
2016
2012
2008
2005
2006
2009
2012
2012
2008
2003
1998
1994
1993
1992
1990
1986
1983
1980
1977
1973
1969
1964
1961
1958
1956
1954
1953
1952
1949
1950
1951
1953
1955
1960
1967
1977
1991
2004
2014
2022
2026
2032
2036
2042
2048
2051
2054
2058
2060
2062
2063
2064
2065
2066
2067
2067
2068
2068
2068
2068
2068
2069
2068
2066
2064
2062
2062
2066
2071
2074
2072
2069
2064
2060
2060
2060
2061
2062
2064
2063
2058
2054
2052
2054
2061
2069
2073
2071
2065
2060
2056
2056
2060
2061
2061
2059
2055
2054
2055
2060
2064
2067
2065
2062
2060
2057
2060
2060
2061
2059
2057
2057
2058
2059
2060
2060
2059
2058
2058
2058
2057
2057
2056
2056
2058
2059
2057
2053
2049
2048
2049
2056
2062
2063
2061
2057
2051
2050
2051
2053
2052
2052
2052
2052
2053
2053
2053
2052
2052
2052
2052
2052
2052
2051
2053
2053
2054
2052
2050
2048
2047
2048
2052
2056
2057
2056
2053
2050
2050
2050
2050
2051
2050
2050
2051
2051
2051
2051
2050
2049
2048
2048
2048
2048
2050
2050
2052
2051
2048
2044
2039
2037
2039
2044
2048
2051
2051
2049
2048
2048
2048
2050
2051
2051
2052
2052
2052
2052
2052
2052
2052
2052
2051
2051
2052
2054
2053
2058
2053
2040
2013
1983
1964
1976
2026
2102
2181
2235
2249
2225
2175
2129
2091
2069
2057
2051
2047
2042
2038
2035
2032
2031
2029
2027
2026
2025
2024
2021
2022
2022
2020
2017
2013
2010
2010
2012
2016
2017
2016
2011
2007
2003
2002
2002
2001
2000
1998
1997
1992
1993
1989
1985
1981
1976
1974
1974
1974
1973
1970
1966
1961
1957
1953
1951
1948
1949
1954
1963
1970
1976
1979
1983
1988
1996
2006
2014
2022
2029
2034
2040
2045
2048
2052
2055
2058
2061
2062
2064
2064
2065
2066
2068
2069
2069
2067
2065
2065
2067
2071
2075
2075
2073
2070
2067
2066
2066
2065
2065
2064
2064
2062
2062
2061
2061
2061
2060
2060
2059
2059
2059
2058
2058
2061
2060
2060
2056
2053
2051
2054
2061
2066
2069
2066
2062
2059
2057
2061
2061
2062
2062
2060
2060
2061
2061
2061
2061
2060
2060
2060
2060
2059
2059
2057
2059
2058
2058
2055
2052
2051
2052
2057
2062
2065
2064
2062
2057
2053
2054
2053
2055
2055
2056
2056
2055
2055
2054
2055
2054
2055
2054
2053
2054
2053
2052
2054
2055
2054
2053
2049
2046
2044
2046
2051
2056
2059
2059
2056
2052
2051
2050
2049
2051
2050
2050
2050
2051
2051
2051
2051
2051
2051
2050
2050
2049
2049
2050
2051
2051
2049
2046
2043
2044
2048
2054
2059
2059
2055
2049
2046
2045
2044
2043
2042
2041
2042
2043
2044
2045
2046
2046
2047
2048
2048
2048
2049
2049
2048
2051
2049
2049
2046
2042
2040
2042
2048
2054
2058
2055
2042
2018
1987
1968
1967
2003
2068
2146
2210
2239
2226
2184
2133
2093
2066
2052
2048
2043
2039
2034
2033
2030
2027
2023
2018
2015
2015
2017
2021
2022
2020
2016
2011
2007
2007
2007
2007
2006
2005
2004
2002
2001
1999
1999
1997
1995
1993
1991
1989
1987
1986
1985
1984
1979
1973
1965
1957
1955
1957
1962
1965
1962
1954
1947
1942
1939
1942
1943
1945
1949
1953
1960
1968
1977
1985
1995
2004
2012
2021
2028
2034
2039
2043
2048
2050
2053
2054
2055
2056
2060
2065
2069
2071
2070
2068
2065
2065
2066
2067
2068
2068
2068
2067
2066
2066
2067
2068
2067
2067
2066
2064
2063
2062
2060
2064
2064
2064
2062
2059
2057
2059
2063
2068
2070
2068
2064
2062
2058
2062
2063
2064
2064
2062
2062
2063
2064
2065
2065
2065
2064
2064
2064
2063
2064
2061
2063
2063
2063
2063
2060
2058
2057
2059
2063
2065
2066
2064
2061
2057
2058
2058
2060
2059
2059
2059
2058
2059
2058
2059
2058
2059
2058
2057
2058
2058
2057
2058
2059
2059
2056
2053
2050
2050
2054
2061
2067
2068
2064
2060
2055
2051
2051
2049
2049
2049
2049
2051
2052
2052
2052
2053
2054
2055
2056
2056
2057
2057
2057
2058
2058
2057
2053
2050
2050
2051
2057
2062
2064
2063
2057
2042
2016
1985
1963
1966
2009
2085
2174
2242
2269
2251
2202
2147
2104
2077
2064
2058
2052
2047
2043
2038
2033
2027
2023
2022
2025
2029
2030
2028
2023
2018
2014
2013
2014
2013
2011
2010
2009
2008
2007
2006
2004
2002
2001
1999
1998
1996
1994
1993
1989
1989
1987
1982
1977
1970
1965
1963
1964
1966
1967
1963
1958
1951
1945
1942
1943
1944
1947
1951
1956
1962
1970
1979
1989
1998
2008
2017
2024
2030
2034
2038
2043
2048
2053
2055
2054
2052
2052
2057
2063
2070
2072
2069
2066
2063
2062
2064
2064
2065
2064
2063
2064
2064
2064
2064
2063
2063
2062
2062
2061
2060
2058
2059
2060
2059
2058
2055
2052
2052
2055
2060
2064
2064
2060
2056
2052
2053
2054
2055
2055
2055
2055
2054
2055
2055
2055
2056
2055
2055
2055
2055
2056
2055
2054
2057
2057
2057
2054
2050
2048
2049
2054
2059
2061
2059
2055
2052
2050
2054
2054
2054
2053
2051
2050
2051
2051
2052
2051
2051
2050
2050
2050
2050
2051
2048
2051
2050
2050
2049
2047
2047
2047
2049
2053
2055
2056
2055
2052
2049
2050
2050
2051
2050
2049
2048
2047
2045
2044
2044
2043
2044
2045
2046
2047
2047
2047
2048
2050
2050
2048
2046
2043
2044
2048
2054
2058
2059
2056
2051
2048
2048
2050
2050
2049
2042
2024
1999
1976
1971
1997
2056
2134
2204
2242
2239
2202
2152
2106
2076
2059
2049
2042
2035
2031
2029
2032
2033
2032
2029
2023
2019
2017
2016
2015
2015
2013
2012
2012
2011
2010
2008
2007
2005
2003
2002
2000
2000
2000
1996
2000
1996
1993
1988
1982
1978
1979
1983
1986
1986
1981
1973
1967
1958
1958
1954
1952
1951
1949
1948
1947
1947
1947
1949
1953
1958
1965
1973
1981
1991
1999
2007
2015
2022
2027
2030
2034
2039
2046
2052
2057
2059
2059
2058
2057
2058
2061
2062
2063
2063
2064
2064
2064
2064
2064
2064
2063
2064
2065
2064
2064
2063
2062
2062
2062
2061
2059
2057
2056
2058
2062
2066
2068
2065
2062
2060
2058
2059
2058
2058
2059
2059
2059
2059
2059
2059
2059
2060
2060
2060
2060
2061
2061
2060
2061
2060
2060
2057
2054
2054
2056
2061
2065
2066
2065
2062
2059
2057
2059
2059
2059
2057
2058
2057
2057
2057
2056
2057
2058
2058
2058
2058
2057
2056
2056
2057
2058
2059
2056
2053
2050
2051
2054
2058
2062
2061
2059
2056
2052
2054
2053
2055
2055
2054
2054
2054
2053
2053
2053
2053
2053
2053
2053
2053
2053
2052
2055
2056
2056
2053
2049
2046
2045
2047
2050
2053
2053
2051
2048
2046
2048
2048
2049
2050
2051
2052
2052
2052
2052
2053
2053
2053
2053
2052
2052
2050
2049
2050
2054
2055
2054
2044
2024
1997
1975
1968
1992
2048
2121
2193
2238
2242
2213
2162
2114
2080
2060
2052
2048
2043
2039
2035
2033
2030
2028
2026
2024
2023
2022
2021
2020
2019
2015
2010
2008
2008
2012
2016
2017
2015
2009
2004
2000
1999
1998
1999
1997
1996
1994
1992
1989
1986
1984
1981
1978
1975
1972
1969
1965
1960
1961
1956
1952
1946
1940
1937
1937
1943
1949
1953
1954
1955
1959
1962
1974
1983
1993
2003
2011
2020
2028
2034
2039
2043
2048
2050
2053
2056
2058
2061
2061
2063
2064
2065
2065
2063
2062
2063
2066
2070
2071
2071
2068
2066
2064
2064
2065
2066
2065
2064
2064
2063
2061
2061
2061
2061
2061
2061
2062
2062
2062
2060
2060
2060
2059
2059
2057
2056
2055
2058
2062
2067
2069
2067
2064
2061
2060
2060
2059
2060
2060
2060
2060
2059
2059
2059
2059
2059
2059
2059
2059
2059
2058
2057
2058
2058
2058
2057
2055
2054
2055
2058
2060
2062
2060
2057
2055
2054
2056
2056
2056
2056
2056
2055
2055
2056
2057
2058
2058
2056
2055
2054
2052
2050
2048
2050
2048
2049
2048
2047
2047
2048
2054
2058
2061
2060
2057
2055
2052
2055
2056
2058
2056
2051
2048
2047
2048
2055
2061
2064
2063
2058
2050
2033
2007
1976
1959
1973
2025
2105
2186
2243
2259
2236
2191
2143
2106
2080
2064
2053
2046
2042
2036
2034
2031
2029
2027
2026
2024
2024
2022
2020
2019
2016
2015
2014
2013
2012
2012
2012
2010
2007
2003
1999
2000
2001
2004
2004
2001
1996
1991
1987
1986
1984
1982
1978
1975
1972
1968
1965
1961
1958
1954
1951
1948
1946
1943
1943
1943
1947
1949
1951
1953
1956
1965
1979
1995
2011
2021
2026
2028
2031
2034
2041
2045
2048
2051
2054
2056
2057
2059
2060
2061
2061
2062
2062
2063
2063
2063
2064
2064
2064
2065
2063
2061
2059
2059
2062
2066
2069
2068
2066
2061
2058
2057
2056
2059
2058
2058
2058
2058
2058
2057
2057
2056
2055
2055
2055
2055
2055
2056
2056
2057
2057
2055
2053
2051
2052
2055
2059
2062
2063
2060
2057
2055
2054
2056
2056
2057
2057
2057
2057
2056
2055
2055
2055
2056
2057
2057
2055
2054
2049
2048
2049
2051
2054
2053
2052
2051
2051
2056
2061
2064
2061
2060
2055
2051
2051
2051
2052
2052
2051
2051
2051
2050
2050
2051
2051
2051
2051
2051
2052
2053
2053
2054
2054
2052
2049
2044
2041
2041
2046
2050
2054
2054
2050
2046
2044
2045
2047
2049
2050
2051
2051
2050
2050
2050
2051
2051
2051
2050
2050
2049
2049
2049
2052
2053
2051
2038
2016
1988
1970
1977
2016
2083
2157
2217
2245
2232
2196
2145
2103
2073
2055
2048
2044
2039
2036
2033
2031
2029
2027
2024
2022
2019
2016
2016
2017
2018
2015
2008
2002
2000
2004
2013
2021
2022
2017
2007
1998
1994
1996
1996
1997
1994
1992
1991
1988
1986
1983
1981
1978
1975
1973
1970
1967
1962
1960
1957
1955
1950
1945
1941
1939
1943
1950
1959
1965
1967
1970
1973
1980
1989
1999
2008
2015
2022
2029
2034
2040
2043
2047
2050
2052
2054
2056
2057
2059
2059
2062
2063
2062
2059
2055
2054
2057
2063
2070
2072
2070
2066
2061
2058
2059
2059
2059
2059
2059
2059
2059
2059
2059
2059
2059
2059
2058
2057
2056
2056
2056
2058
2060
2059
2055
2051
2049
2050
2057
2064
2069
2068
2063
2058
2054
2054
2055
2057
2057
2057
2058
2058
2057
2057
2056
2056
2056
2056
2056
2055
2055
2055
2056
2056
2057
2053
2050
2048
2048
2052
2059
2062
2062
2058
2053
2049
2049
2051
2053
2053
2053
2053
2053
2053
2052
2052
2052
2052
2052
2053
2053
2052
2051
2052
2052
2051
2048
2046
2045
2047
2052
2058
2061
2060
2056
2052
2049
2049
2049
2050
2049
2050
2050
2050
2050
2049
2048
2048
2049
2050
2050
2050
2049
2048
2048
2049
2049
2048
2047
2045
2045
2048
2050
2052
2051
2049
2047
2046
2046
2048
2048
2048
2048
2048
2047
2047
2047
2047
2048
2047
2047
2047
2047
2047
2046
2045
2048
2048
2048
2047
2044
2041
2041
2045
2049
2052
2050
2046
2041
2037
2039
2039
2040
2042
2041
2041
2042
2043
2044
2045
2046
2046
2046
2046
2046
2046
2045
2046
2045
2044
2043
2040
2037
2038
2040
2035
2021
1998
1976
1973
2002
2063
2139
2200
2227
2215
2175
2129
2092
2068
2055
2047
2039
2031
2026
2023
2023
2021
2020
2021
2019
2016
2011
2006
2004
2007
2012
2015
2016
2013
2009
2005
2001
2001
1999
1999
1998
1997
1997
1996
1994
1992
1990
1988
1986
1984
1981
1979
1977
1974
1972
1968
1964
1958
1951
1947
1946
1949
1952
1953
1952
1948
1944
1943
1946
1950
1956
1963
1970
1979
1988
1997
2005
2013
2020
2026
2032
2037
2042
2046
2048
2053
2055
2056
2054
2051
2051
2055
2062
2069
2072
2070
2066
2063
2058
2061
2061
2062
2062
2062
2062
2062
2060
2059
2058
2058
2057
2058
2060
2061
2060
2055
2052
2051
2054
2059
2063
2063
2061
2058
2058
2058
2060
2060
2058
2056
2056
2057
2058
2058
2059
2059
2059
2059
2058
2058
2058
2058
2058
2058
2058
2059
2058
2059
2058
2057
2055
2054
2053
2054
2056
2059
2061
2062
2060
2058
2057
2056
2056
2055
2056
2056
2055
2055
2055
2055
2054
2054
2055
2055
2055
2055
2055
2054
2054
2054
2054
2055
2052
2049
2048
2050
2055
2060
2062
2061
2057
2053
2050
2049
2048
2048
2047
2046
2047
2047
2048
2048
2049
2050
2051
2052
2052
2053
2052
2051
2053
2052
2052
2050
2048
2048
2049
2053
2056
2058
2056
2054
2052
2045
2030
2002
1972
1958
1976
2036
2122
2205
2258
2263
2229
2174
2123
2088
2067
2059
2051
2048
2041
2036
2032
2027
2023
2021
2022
2025
2026
2025
2022
2018
2014
2013
2012
2012
2010
2009
2007
2006
2005
2004
2003
2002
2001
1999
1996
1995
1993
1991
1990
1990
1987
1981
1975
1969
1966
1967
1969
1969
1966
1959
1952
1946
1942
1942
1940
1939
1940
1942
1947
1952
1960
1968
1977
1987
1996
2006
2014
2022
2030
2035
2042
2046
2049
2050
2050
2052
2055
2062
2068
2070
2070
2067
2065
2063
2064
2065
2065
2065
2065
2066
2066
2067
2067
2067
2066
2064
2064
2063
2063
2062
2060
2064
2063
2061
2059
2055
2053
2054
2059
2064
2067
2067
2064
2062
2055
2057
2055
2054
2057
2058
2059
2059
2058
2058
2057
2058
2058
2059
2060
2059
2060
2059
2060
2059
2058
2056
2052
2052
2054
2059
2063
2064
2062
2058
2055
2053
2054
2055
2056
2055
2055
2055
2055
2055
2055
2054
2054
2053
2053
2053
2054
2054
2054
2054
2055
2054
2056
2054
2051
2048
2048
2050
2052
2055
2054
2051
2049
2047
2048
2047
2049
2049
2049
2050
2051
2052
2052
2052
2052
2052
2053
2052
2052
2051
2052
2052
2052
2052
2049
2048
2047
2040
2025
2001
1978
1973
2002
2066
2150
2222
2257
2248
2204
2150
2104
2075
2060
2053
2048
2043
2038
2035
2032
2031
2028
2024
2024
2023
2022
2019
2015
2013
2012
2015
2018
2020
2017
2013
2009
2005
2006
2006
2006
2004
2002
1999
1999
1997
1996
1994
1992
1989
1986
1983
1980
1977
1973
1972
1969
1966
1960
1954
1950
1948
1950
1954
1956
1956
1956
1955
1955
1961
1967
1977
1986
1995
2004
2012
2020
2026
2033
2038
2043
2046
2048
2051
2054
2056
2059
2063
2064
2062
2058
2056
2055
2060
2067
2073
2075
2071
2068
2064
2062
2063
2063
2063
2063
2063
2064
2063
2062
2060
2059
2059
2058
2059
2059
2059
2059
2059
2059
2058
2057
2054
2051
2051
2053
2058
2062
2064
2063
2059
2056
2054
2056
2057
2057
2057
2057
2057
2057
2057
2057
2057
2057
2057
2056
2056
2056
2056
2054
2058
2058
2057
2053
2048
2047
2048
2054
2061
2065
2063
2058
2054
2049
2052
2051
2052
2053
2053
2053
2053
2053
2052
2051
2051
2051
2051
2052
2052
2052
2051
2053
2053
2052
2051
2048
2047
2048
2051
2056
2058
2058
2054
2051
2048
2048
2049
2050
2050
2050
2050
2050
2050
2050
2049
2049
2049
2049
2050
2051
2052
2052
2052
2051
2050
2048
2045
2043
2042
2043
2045
2047
2048
2048
2048
2048
2048
2048
2048
2048
2049
2048
2049
2049
2050
2049
2049
2049
2048
2048
2048
2049
2050
2051
2050
2042
2024
1997
1975
1972
2003
2065
2142
2207
2239
2230
2191
2142
2101
2072
2057
2048
2045
2040
2036
2033
2030
2029
2027
2025
2023
2021
2020
2018
2015
2017
2016
2014
2012
2008
2005
2003
2006
2009
2011
2010
2007
2004
1999
2000
1998
1996
1996
1992
1990
1987
1985
1983
1980
1977
1974
1972
1969
1966
1963
1958
1958
1955
1953
1949
1945
1943
1945
1950
1958
1964
1969
1974
1979
1981
1987
1991
2000
2010
2024
2036
2043
2046
2045
2044
2046
2049
2052
2054
2055
2056
2057
2059
2062
2062
2061
2057
2054
2053
2057
2062
2066
2068
2066
2062
2058
2056
2057
2056
2057
2056
2056
2057
2056
2056
2056
2056
2056
2055
2055
2055
2055
2055
2056
2057
2057
2055
2051
2048
2048
2052
2060
2065
2065
2063
2058
2054
2053
2055
2056
2056
2055
2056
2056
2057
2056
2056
2055
2055
2054
2054
2054
2055
2055
2053
2057
2055
2054
2052
2048
2047
2048
2051
2056
2059
2059
2056
2053
2048
2049
2048
2047
2048
2048
2048
2047
2046
2046
2045
2045
2045
2045
2045
2044
2044
2042
2044
2044
2043
2042
2038
2037
2037
2041
2046
2048
2047
2044
2041
2038
2038
2039
2040
2040
2040
2040
2040
2039
2039
2039
2039
2039
2039
2039
2039
2039
2039
2038
2039
2039
2038
2037
2037
2038
2040
2041
2040
2039
2035
2032
2032
2032
2034
2034
2033
2033
2033
2033
2036
2036
2037
2038
2039
2039
2040
2039
2039
2039
2038
2039
2039
2039
2038
2036
2036
2037
2036
2025
2004
1980
1965
1980
2028
2099
2171
2217
2226
2199
2153
2107
2072
2051
2042
2037
2032
2028
2025
2023
2020
2016
2017
2014
2013
2009
2005
2002
2003
2006
2009
2011
2008
2004
2001
1997
1999
1998
1997
1995
1992
1991
1990
1989
1988
1987
1985
1982
1980
1978
1976
1974
1969
1969
1964
1962
1958
1953
1949
1946
1946
1948
1949
1948
1946
1943
1940
1942
1944
1951
1956
1963
1971
1979
1987
1995
2004
2011
2018
2024
2029
2034
2038
2041
2043
2048
2049
2049
2048
2047
2048
2051
2058
2062
2064
2061
2057
2054
2052
2054
2053
2053
2053
2053
2054
2054
2054
2053
2052
2052
2051
2051
2051
2051
2052
2051
2053
2052
2051
2048
2046
2046
2048
2053
2057
2058
2057
2054
2051
2049
2050
2051
2052
2051
2052
2052
2052
2053
2053
2052
2052
2051
2051
2051
2052
2052
2050
2053
2052
2051
2048
2045
2044
2046
2050
2055
2057
2056
2052
2049
2046
2048
2047
2047
2048
2048
2048
2048
2048
2048
2047
2048
2048
2048
2048
2047
2047
2047
2048
2048
2047
2044
2041
2041
2042
2047
2051
2052
2051
2048
2045
2043
2044
2045
2046
2045
2045
2045
2045
2044
2044
2044
2044
2044
2044
2044
2044
2044
2044
2044
2045
2044
2044
2041
2039
2038
2042
2046
2049
2050
2047
2044
2043
2044
2048
2048
2048
2047
2044
2043
2042
2040
2038
2037
2037
2037
2038
2038
2039
2039
2041
2043
2044
2044
2041
2039
2039
2042
2048
2051
2052
2050
2047
2042
2042
2043
2045
2046
2047
2046
2038
2020
1993
1968
1960
1984
2042
2120
2193
2235
2233
2199
2150
2103
2072
2052
2042
2038
2036
2038
2039
2037
2032
2025
2021
2018
2020
2019
2018
2016
2014
2012
2012
2011
2011
2010
2008
2007
2006
2004
2004
2004
2001
2002
2000
1999
1996
1992
1990
1988
1988
1990
1990
1987
1984
1978
1972
1969
1966
1964
1960
1958
1955
1953
1951
1949
1949
1949
1951
1952
1955
1959
1965
1974
1982
1993
2001
2008
2013
2017
2024
2033
2043
2051
2057
2058
2058
2058
2057
2061
2061
2063
2063
2064
2066
2066
2066
2066
2066
2066
2066
2066
2066
2066
2067
2065
2066
2065
2064
2061
2058
2057
2058
2063
2066
2068
2067
2063
2061
2059
2060
2061
2061
2060
2060
2061
2061
2061
2061
2061
2061
2061
2061
2061
2062
2062
2061
2064
2063
2062
2059
2056
2055
2057
2063
2069
2071
2069
2064
2061
2056
2059
2058
2058
2059
2059
2059
2059
2059
2059
2058
2058
2057
2057
2057
2057
2058
2057
2057
2058
2057
2056
2054
2052
2052
2054
2058
2060
2060
2057
2054
2052
2052
2053
2054
2054
2054
2054
2054
2053
2052
2052
2052
2053
2055
2056
2053
2050
2046
2046
2050
2056
2060
2059
2054
2050
2050
2054
2059
2061
2056
2050
2046
2043
2043
2044
2046
2048
2048
2048
2047
2047
2048
2049
2051
2051
2051
2051
2050
2051
2050
2052
2052
2051
2048
2046
2046
2048
2053
2058
2052
2033
2001
1971
1957
1979
2040
2120
2198
2245
2248
2214
2161
2113
2081
2062
2054
2049
2044
2039
2034
2031
2031
2028
2027
2022
2018
2015
2015
2018
2021
2023
2020
2016
2013
2008
2010
2008
2008
2006
2005
2004
2003
2002
2001
1999
1998
1996
1994
1992
1990
1988
1983
1983
1980
1975
1971
1964
1960
1958
1961
1965
1965
1962
1957
1952
1948
1949
1950
1953
1957
1961
1968
1975
1984
1992
2001
2009
2017
2025
2031
2036
2041
2045
2049
2053
2055
2055
2053
2052
2054
2060
2067
2072
2073
2070
2066
2063
2063
2064
2063
2064
2064
2064
2064
2064
2064
2064
2063
2062
2061
2060
2060
2059
2059
2060
2063
2063
2060
2056
2052
2052
2057
2063
2069
2070
2067
2063
2058
2057
2058
2059
2060
2060
2062
2062
2062
2062
2061
2062
2061
2062
2062
2062
2062
2060
2061
2063
2063
2062
2058
2055
2054
2056
2061
2066
2068
2066
2063
2058
2055
2058
2057
2059
2058
2058
2058
2057
2058
2058
2057
2056
2056
2056
2056
2057
2057
2056
2057
2059
2058
2054
2050
2048
2049
2056
2064
2068
2065
2060
2054
2051
2051
2055
2056
2055
2054
2054
2053
2054
2054
2054
2054
2054
2054
2054
2055
2055
2055
2056
2055
2055
2053
2052
2050
2050
2054
2058
2061
2064
2061
2056
2052
2048
2046
2046
2048
2049
2049
2049
2048
2048
2048
2050
2051
2052
2053
2053
2053
2053
2051
2052
2052
2052
2051
2049
2048
2050
2053
2058
2058
2051
2033
2006
1981
1971
1991
2044
2116
2188
2233
2238
2207
2159
2113
2080
2061
2052
2048
2043
2039
2035
2033
2031
2029
2026
2023
2020
2020
2020
2022
2023
2021
2018
2015
2012
2012
2011
2010
2008
2007
2005
2003
2002
2002
2001
2000
1998
1997
1994
1992
1989
1985
1985
1982
1980
1976
1970
1964
1962
1962
1965
1966
1963
1958
1952
1947
1947
1947
1950
1951
1954
1958
1963
1970
1977
1986
1994
2003
2011
2018
2025
2030
2036
2042
2047
2050
2052
2051
2051
2052
2058
2063
2069
2070
2068
2065
2063
2062
2065
2065
2065
2063
2063
2063
2064
2064
2064
2063
2061
2060
2060
2059
2059
2060
2059
2061
2060
2060
2059
2056
2055
2057
2061
2064
2065
2064
2061
2059
2057
2058
2059
2059
2060
2060
2060
2061
2061
2061
2060
2061
2060
2060
2060
2061
2060
2058
2061
2060
2060
2057
2053
2052
2054
2060
2064
2067
2065
2061
2057
2053
2057
2056
2056
2057
2056
2056
2056
2056
2055
2055
2055
2055
2055
2056
2056
2056
2055
2056
2056
2055
2053
2049
2048
2049
2054
2061
2062
2061
2058
2054
2052
2053
2055
2055
2056
2055
2054
2053
2050
2048
2047
2046
2046
2047
2048
2048
2049
2049
2051
2053
2053
2051
2047
2045
2046
2052
2060
2066
2065
2057
2054
2049
2049
2052
2052
2052
2049
2039
2016
1985
1959
1959
1998
2072
2162
2234
2265
2250
2203
2148
2104
2077
2062
2053
2046
2040
2037
2037
2037
2036
2031
2026
2021
2020
2019
2019
2019
2017
2015
2014
2013
2012
2011
2010
2008
2007
2006
2004
2003
1999
1999
1999
1997
1995
1990
1987
1984
1985
1986
1986
1983
1978
1971
1964
1960
1957
1954
1951
1948
1944
1941
1939
1937
1937
1938
1940
1943
1949
1955
1963
1973
1982
1993
2003
2012
2018
2023
2030
2037
2046
2054
2061
2063
2063
2062
2061
2063
2065
2067
2067
2066
2066
2066
2067
2067
2067
2067
2068
2068
2067
2068
2067
2066
2066
2066
2065
2063
2060
2057
2057
2061
2065
2071
2075
2073
2066
2057
2049
2050
2054
2065
2074
2075
2071
2063
2057
2055
2058
2061
2061
2061
2060
2060
2061
2061
2062
2062
2061
2058
2055
2054
2056
2060
2066
2068
2066
2061
2056
2052
2053
2056
2058
2060
2059
2058
2055
2053
2051
2051
2050
2050
2051
2052
2053
2054
2053
2057
2056
2058
2053
2048
2046
2047
2053
2063
2069
2069
2063
2057
2051
2054
2054
2057
2051
2033
2005
1975
1959
1978
2038
2124
2211
2268
2278
2245
2190
2134
2098
2075
2065
2058
2048
2040
2035
2035
2039
2040
2039
2034
2028
2022
2020
2019
2019
2018
2016
2014
2013
2012
2010
2009
2009
2008
2007
2006
2004
2002
2000
1997
1997
1995
1991
1984
1978
1976
1979
1984
1987
1986
1977
1966
1960
1953
1952
1948
1945
1941
1940
1941
1942
1944
1945
1947
1953
1960
1972
1981
1991
2001
2010
2020
2029
2036
2040
2043
2045
2050
2058
2066
2070
2070
2067
2064
2063
2065
2067
2068
2068
2067
2067
2068
2068
2068
2069
2068
2069
2068
2068
2068
2067
2066
2067
2067
2066
2062
2059
2057
2059
2064
2070
2073
2071
2066
2061
2057
2058
2059
2061
2061
2061
2060
2059
2059
2060
2060
2060
2060
2060
2060
2060
2060
2059
2061
2061
2060
2058
2055
2053
2054
2059
2066
2070
2070
2066
2061
2058
2058
2058
2059
2059
2057
2057
2057
2056
2055
2054
2054
2054
2053
2053
2053
2053
2054
2056
2058
2059
2058
2054
2050
2050
2053
2060
2065
2066
2062
2057
2054
2054
2057
2057
2052
2036
2010
1983
1967
1981
2034
2113
2196
2252
2266
2237
2184
2132
2093
2073
2062
2056
2048
2038
2033
2032
2035
2040
2040
2037
2030
2025
2018
2018
2019
2019
2018
2018
2016
2014
2012
2010
2010
2009
2009
2008
2005
2005
2004
2001
2002
2000
1997
1990
1983
1979
1979
1984
1988
1990
1984
1975
1966
1958
1957
1955
1953
1951
1949
1949
1950
1950
1951
1954
1959
1967
1975
1986
1994
2003
2010
2020
2030
2036
2039
2039
2039
2043
2052
2065
2073
2074
2070
2064
2061
2060
2065
2066
2067
2067
2066
2067
2067
2067
2067
2067
2067
2068
2067
2068
2067
2066
2065
2064
2063
2061
2058
2056
2056
2059
2064
2069
2071
2068
2063
2062
2058
2057
2056
2056
2057
2058
2060
2061
2061
2059
2058
2058
2057
2060
2060
2060
2060
2058
2057
2058
2060
2061
2063
2062
2061
2061
2060
2060
2058
2056
2056
2054
2055
2056
2056
2056
2056
2055
2055
2055
2055
2055
2056
2055
2055
2055
2056
2055
2054
2055
2054
2055
2053
2052
2051
2052
2055
2058
2059
2058
2056
2053
2052
2054
2054
2056
2056
2055
2054
2053
2052
2050
2049
2048
2048
2047
2047
2047
2048
2047
2048
2049
2050
2049
2048
2047
2048
2052
2057
2060
2059
2056
2052
2049
2048
2050
2051
2052
2053
2051
2040
2021
1995
1976
1979
2012
2073
2146
2206
2234
2223
2185
2139
2098
2069
2051
2042
2037
2037
2040
2043
2042
2036
2029
2023
2019
2021
2020
2019
2017
2016
2015
2013
2013
2012
2010
2009
2007
2006
2004
2003
2002
2001
2001
2002
1999
1994
1989
1986
1985
1989
1994
1995
1991
1983
1975
1969
1965
1966
1965
1962
1959
1956
1954
1953
1952
1951
1951
1953
1956
1960
1966
1973
1980
1989
1998
2006
2011
2016
2021
2028
2036
2045
2052
2054
2054
2053
2052
2054
2056
2058
2059
2060
2060
2060
2061
2060
2060
2060
2060
2060
2060
2060
2060
2060
2061
2061
2061
2059
2057
2055
2055
2058
2061
2063
2062
2059
2057
2055
2055
2056
2057
2057
2057
2057
2057
2057
2057
2057
2057
2057
2057
2057
2058
2058
2058
2058
2058
2059
2057
2055
2054
2055
2059
2062
2064
2064
2061
2058
2057
2055
2058
2059
2057
2056
2054
2054
2054
2055
2055
2057
2058
2058
2055
2051
2048
2046
2050
2059
2063
2063
2058
2051
2048
2051
2056
2061
2059
2055
2052
2050
2051
2053
2053
2053
2053
2054
2053
2054
2053
2053
2053
2053
2053
2053
2053
2053
2051
2053
2053
2053
2053
2050
2048
2048
2050
2054
2056
2058
2056
2054
2051
2050
2051
2052
2052
2051
2051
2050
2050
2051
2051
2051
2051
2051
2051
2050
2050
2050
2049
2051
2051
2049
2049
2047
2045
2045
2048
2052
2057
2058
2056
2053
2049
2048
2047
2048
2049
2049
2049
2049
2050
2048
2048
2046
2043
2042
2041
2042
2043
2043
2044
2046
2046
2044
2041
2038
2039
2045
2052
2057
2058
2054
2049
2046
2044
2047
2045
2046
2047
2048
2050
2048
2040
2022
1999
1982
1982
2012
2067
2136
2193
2222
2217
2182
2136
2094
2064
2049
2044
2045
2044
2042
2038
2032
2028
2023
2022
2020
2019
2018
2017
2017
2016
2014
2013
2011
2010
2009
2008
2006
2006
2005
2003
2005
2003
2002
1997
1991
1989
1990
1995
1999
2000
1996
1988
1982
1975
1975
1972
1970
1968
1965
1963
1960
1958
1956
1954
1952
1951
1951
1952
1953
1956
1960
1966
1972
1979
1985
1991
1998
2006
2016
2026
2032
2037
2039
2041
2044
2046
2049
2051
2053
2055
2056
2057
2058
2058
2058
2058
2058
2058
2058
2058
2059
2058
2057
2058
2058
2057
2055
2053
2053
2055
2059
2061
2062
2059
2057
2056
2055
2055
2057
2056
2056
2054
2054
2053
2054
2056
2058
2059
2058
2057
2056
2055
2056
2056
2058
2059
2058
2057
2056
2055
2055
2059
2062
2064
2062
2059
2057
2055
2055
2056
2056
2056
2056
2056
2056
2056
2055
2055
2055
2055
2055
2054
2055
2054
2053
2054
2053
2055
2052
2050
2050
2050
2054
2056
2058
2058
2056
2054
2051
2053
2052
2052
2052
2051
2052
2051
2051
2052
2052
2052
2052
2052
2051
2051
2052
2049
2052
2051
2052
2051
2048
2048
2048
2049
2054
2058
2059
2057
2054
2050
2049
2048
2050
2050
2050
2051
2051
2052
2052
2053
2052
2051
2050
2048
2047
2045
2043
2043
2043
2044
2046
2044
2043
2043
2047
2050
2055
2057
2054
2052
2050
2049
2051
2050
2050
2049
2048
2048
2048
2048
2049
2050
2050
2043
2024
1996
1970
1960
1987
2049
2132
2206
2245
2241
2204
2154
2113
2087
2071
2061
2052
2043
2036
2033
2031
2029
2027
2025
2024
2023
2022
2020
2018
2016
2015
2013
2012
2012
2012
2009
2011
2009
2006
2002
1997
1995
1997
2003
2007
2007
2004
1997
1992
1987
1987
1984
1981
1978
1975
1973
1970
1967
1964
1961
1958
1954
1952
1951
1949
1949
1948
1952
1954
1956
1960
1963
1971
1981
1994
2007
2017
2024
2028
2032
2036
2042
2046
2050
2053
2055
2057
2059
2060
2062
2063
2064
2064
2064
2064
2064
2065
2065
2065
2067
2065
2063
2058
2055
2056
2062
2069
2073
2073
2068
2062
2058
2057
2060
2060
2061
2060
2059
2058
2056
2057
2058
2060
2061
2061
2060
2059
2058
2058
2058
2059
2060
2060
2059
2058
2057
2057
2061
2064
2066
2066
2063
2060
2059
2059
2060
2061
2060
2060
2060
2060
2060
2059
2060
2060
2059
2059
2058
2059
2058
2057
2058
2057
2058
2056
2054
2053
2055
2058
2061
2063
2062
2060
2057
2055
2056
2056
2057
2056
2056
2055
2055
2055
2055
2056
2056
2056
2056
2055
2055
2054
2053
2056
2056
2056
2054
2051
2049
2050
2055
2061
2065
2064
2061
2057
2054
2054
2053
2053
2051
2049
2048
2048
2048
2049
2049
2050
2051
2051
2051
2052
2053
2054
2055
2056
2055
2054
2050
2048
2048
2052
2056
2060
2061
2058
2057
2055
2050
2041
2018
1992
1975
1983
2027
2096
2172
2228
2246
2226
2180
2131
2093
2068
2057
2050
2048
2043
2040
2034
2030
2027
2025
2028
2033
2033
2027
2018
2010
2006
2012
2022
2028
2028
2022
2014
2008
2005
2007
2007
2005
2004
2003
2001
2001
2000
1996
1997
1994
1992
1987
1981
1977
1977
1979
1980
1980
1976
1969
1963
1957
1956
1954
1953
1952
1951
1952
1954
1956
1960
1965
1972
1980
1988
1997
2005
2013
2019
2027
2035
2039
2043
2044
2046
2049
2055
2062
2066
2067
2066
2063
2062
2062
2063
2064
2065
2065
2065
2065
2064
2064
2063
2063
2063
2063
2063
2063
2062
2062
2060
2062
2059
2059
2055
2052
2053
2057
2063
2067
2069
2066
2062
2059
2056
2059
2057
2060
2059
2058
2058
2056
2056
2057
2060
2062
2062
2062
2060
2059
2057
2059
2060
2060
2058
2056
2054
2054
2056
2061
2064
2064
2061
2058
2054
2054
2055
2055
2056
2056
2056
2056
2055
2055
2054
2055
2055
2055
2055
2054
2055
2054
2054
2054
2054
2054
2052
2050
2050
2052
2056
2059
2060
2058
2056
2054
2052
2053
2054
2054
2053
2053
2053
2053
2053
2053
2053
2053
2053
2053
2053
2053
2052
2050
2053
2052
2053
2050
2048
2047
2048
2051
2055
2058
2056
2054
2051
2049
2052
2052
2054
2052
2051
2051
2050
2049
2048
2047
2045
2044
2044
2043
2044
2045
2046
2047
2048
2048
2048
2047
2045
2045
2048
2052
2056
2057
2056
2053
2050
2048
2048
2047
2048
2049
2049
2043
2026
2000
1976
1969
1994
2050
2125
2195
2235
2236
2203
2155
2109
2077
2057
2047
2042
2038
2038
2039
2037
2034
2029
2024
2020
2019
2018
2017
2016
2015
2014
2013
2012
2011
2009
2008
2007
2005
2004
2003
2002
1999
2001
1999
1998
1993
1987
1984
1984
1987
1991
1993
1989
1982
1975
1967
1966
1964
1961
1959
1956
1954
1952
1949
1947
1945
1945
1946
1948
1952
1955
1961
1966
1975
1983
1990
1998
2003
2010
2018
2028
2039
2046
2049
2049
2049
2050
2052
2055
2057
2059
2059
2060
2060
2061
2061
2061
2061
2061
2061
2061
2061
2062
2062
2059
2062
2059
2057
2053
2051
2052
2056
2064
2068
2069
2065
2060
2058
2055
2059
2059
2059
2056
2058
2058
2057
2057
2056
2056
2058
2060
2062
2061
2060
2059
2057
2058
2060
2060
2058
2056
2055
2056
2059
2062
2063
2061
2057
2055
2054
2056
2057
2057
2056
2056
2056
2056
2056
2056
2056
2056
2056
2056
2056
2056
2055
2054
2054
2054
2055
2053
2052
2051
2052
2055
2057
2058
2057
2056
2053
2051
2052
2052
2053
2052
2052
2052
2052
2052
2052
2052
2052
2052
2052
2052
2052
2051
2050
2053
2054
2055
2053
2050
2048
2048
2049
2053
2055
2053
2049
2045
2043
2045
2046
2048
2047
2047
2048
2049
2051
2051
2051
2050
2050
2050
2050
2050
2050
2050
2050
2051
2051
2051
2049
2046
2035
2017
1991
1969
1964
1993
2058
2142
2217
2258
2251
2209
2153
2106
2077
2062
2055
2050
2044
2039
2034
2031
2029
2026
2024
2023
2023
2022
2020
2015
2012
2012
2013
2017
2019
2018
2014
2008
2004
2002
2002
2002
2001
2000
1998
1997
1996
1994
1992
1989
1987
1984
1981
1979
1976
1974
1969
1969
1965
1960
1953
1945
1942
1943
1948
1952
1953
1951
1948
1947
1948
1955
1963
1970
1980
1989
1999
2009
2016
2024
2029
2035
2041
2045
2049
2052
2055
2056
2060
2062
2061
2061
2058
2059
2061
2066
2071
2073
2072
2068
2065
2064
2064
2065
2065
2065
2064
2063
2063
2062
2062
2061
2061
2061
2061
2061
2061
2062
2061
2061
2063
2061
2058
2053
2050
2052
2058
2067
2073
2073
2068
2063
2059
2058
2062
2062
2062
2061
2059
2062
2061
2061
2060
2059
2059
2060
2062
2063
2063
2061
2059
2059
2059
2060
2059
2057
2055
2055
2059
2062
2064
2063
2060
2058
2055
2056
2058
2059
2059
2060
2060
2060
2058
2057
2057
2057
2053
2048
2044
2044
2048
2054
2061
2063
2061
2055
2050
2049
2053
2058
2060
2062
2060
2059
2056
2054
2055
2055
2056
2056
2057
2058
2057
2051
2033
2005
1976
1963
1984
2044
2129
2211
2261
2267
2233
2177
2124
2088
2067
2057
2054
2051
2048
2044
2040
2035
2032
2030
2028
2027
2025
2023
2022
2021
2020
2019
2018
2016
2015
2014
2012
2011
2010
2008
2007
2007
2005
2004
2000
1996
1994
1995
1996
1997
1995
1990
1986
1981
1978
1977
1973
1970
1965
1961
1960
1958
1956
1954
1952
1951
1950
1952
1956
1960
1966
1972
1983
1992
2000
2005
2009
2015
2024
2038
2049
2056
2058
2055
2054
2054
2058
2062
2063
2063
2064
2064
2065
2066
2066
2067
2066
2067
2067
2067
2067
2067
2066
2068
2068
2067
2064
2061
2059
2060
2064
2068
2071
2069
2067
2063
2059
2061
2060
2061
2061
2062
2062
2062
2061
2061
2061
2061
2061
2061
2062
2061
2062
2061
2062
2063
2061
2059
2057
2057
2058
2062
2066
2069
2068
2066
2062
2060
2060
2060
2061
2061
2061
2061
2060
2061
2060
2061
2060
2060
2060
2059
2059
2059
2060
2059
2059
2059
2058
2057
2056
2056
2059
2063
2066
2067
2064
2060
2055
2051
2050
2050
2051
2051
2052
2053
2053
2054
2054
2055
2055
2055
2056
2057
2058
2057
2058
2058
2058
2056
2052
2051
2050
2054
2060
2065
2059
2041
2012
1983
1972
1992
2048
2125
2200
2248
2255
2225
2175
2126
2090
2069
2058
2053
2048
2045
2040
2038
2036
2033
2031
2027
2024
2021
2023
2025
2027
2027
2024
2020
2016
2014
2014
2013
2013
2011
2009
2007
2006
2005
2004
2003
2002
2000
1998
1995
1993
1990
1986
1985
1982
1978
1973
1968
1964
1963
1964
1964
1964
1960
1956
1952
1949
1950
1951
1954
1957
1963
1970
1977
1986
1994
2003
2011
2018
2026
2031
2037
2042
2047
2051
2055
2058
2059
2057
2056
2058
2063
2068
2073
2073
2070
2068
2065
2065
2067
2066
2067
2065
2064
2065
2064
2064
2065
2064
2063
2062
2062
2062
2062
2062
2061
2064
2064
2064
2060
2055
2053
2054
2062
2070
2073
2071
2065
2061
2058
2060
2062
2062
2062
2062
2062
2062
2063
2062
2062
2062
2062
2062
2062
2062
2061
2060
2062
2061
2062
2059
2057
2055
2058
2062
2066
2068
2067
2064
2060
2056
2058
2058
2059
2059
2059
2059
2059
2058
2057
2057
2058
2059
2060
2061
2061
2060
2058
2058
2057
2054
2051
2048
2046
2047
2050
2055
2060
2060
2058
2055
2053
2054
2055
2056
2057
2057
2057
2057
2057
2056
2055
2054
2055
2056
2057
2059
2058
2049
2029
2001
1977
1971
2000
2062
2144
2220
2263
2262
2224
2169
2118
2083
2063
2054
2050
2047
2043
2039
2036
2032
2030
2027
2027
2025
2023
2021
2019
2018
2018
2017
2018
2018
2015
2011
2007
2003
2005
2006
2009
2009
2006
2002
1998
1996
1994
1993
1991
1988
1986
1982
1980
1977
1973
1971
1967
1964
1961
1958
1955
1951
1947
1947
1946
1946
1946
1945
1946
1952
1961
1971
1981
1989
1995
2001
2006
2017
2024
2031
2037
2042
2046
2049
2052
2055
2059
2061
2062
2060
2058
2057
2058
2061
2065
2068
2068
2065
2062
2060
2062
2065
2070
2073
2072
2068
2064
2061
2061
2062
2064
2063
2063
2062
2061
2061
2061
2061
2062
2062
2063
2062
2062
2062
2063
2064
2064
2065
2063
2059
2056
2056
2060
2065
2070
2072
2069
2065
2061
2060
2060
2059
2059
2059
2059
2060
2061
2060
2059
2058
2058
2057
2058
2058
2057
2057
2057
2061
2061
2060
2054
2048
2048
2051
2059
2066
2070
2068
2064
2059
2056
2056
2054
2052
2050
2048
2048
2049
2050
2051
2051
2051
2051
2052
2053
2055
2054
2055
2056
2056
2056
2052
2048
2045
2049
2056
2065
2066
2061
2053
2048
2048
2042
2024
1994
1967
1968
2011
2092
2183
2253
2274
2251
2198
2143
2102
2076
2065
2057
2054
2048
2042
2035
2028
2024
2025
2029
2035
2038
2035
2029
2022
2016
2016
2015
2016
2015
2014
2011
2009
2008
2006
2005
2004
2003
2002
2000
1999
1997
1995
1991
1992
1987
1982
1973
1966
1963
1968
1975
1979
1978
1969
1960
1951
1946
1948
1947
1948
1947
1947
1949
1953
1958
1966
1975
1984
1995
2004
2012
2019
2026
2032
2041
2048
2051
2053
2051
2050
2054
2059
2069
2073
2072
2068
2065
2062
2063
2064
2066
2065
2065
2064
2065
2065
2065
2065
2064
2064
2063
2062
2061
2061
2059
2062
2063
2063
2059
2054
2051
2052
2059
2066
2072
2071
2067
2063
2057
2058
2059
2059
2060
2060
2061
2061
2061
2061
2061
2062
2061
2060
2060
2061
2061
2060
2061
2061
2061
2059
2057
2056
2056
2059
2063
2066
2066
2064
2061
2058
2058
2058
2059
2057
2057
2057
2057
2058
2058
2058
2060
2060
2060
2058
2058
2057
2057
2057
2055
2053
2049
2046
2043
2043
2048
2054
2060
2062
2060
2057
2055
2053
2054
2054
2054
2054
2055
2056
2055
2055
2054
2054
2055
2056
2057
2056
2050
2033
2005
1980
1966
1984
2037
2115
2196
2250
2263
2237
2186
2133
2094
2070
2055
2052
2046
2041
2037
2035
2033
2031
2029
2027
2025
2022
2022
2020
2019
2018
2016
2014
2015
2015
2014
2010
2005
2001
2001
2005
2010
2013
2011
2006
2000
1992
1991
1989
1989
1989
1989
1987
1984
1978
1972
1967
1963
1960
1959
1957
1954
1952
1951
1950
1953
1952
1951
1950
1951
1958
1969
1985
1998
2007
2012
2015
2020
2026
2035
2041
2046
2048
2051
2053
2056
2057
2059
2060
2062
2064
2064
2065
2065
2065
2065
2066
2065
2063
2061
2060
2061
2064
2067
2069
2069
2066
2064
2063
2061
2061
2060
2061
2061
2061
2062
2060
2060
2060
2060
2061
2062
2062
2061
2060
2057
2058
2063
2066
2065
2060
2054
2051
2055
2061
2072
2074
2071
2066
2061
2059
2062
2062
2062
2061
2062
2062
2062
2062
2062
2062
2061
2061
2061
2060
2060
2059
2058
2059
2059
2059
2057
2056
2055
2057
2061
2063
2065
2062
2059
2056
2054
2056
2057
2058
2058
2059
2059
2059
2058
2057
2056
2055
2053
2051
2050
2050
2050
2050
2051
2052
2052
2050
2049
2050
2052
2056
2060
2062
2061
2058
2056
2055
2056
2056
2055
2054
2054
2055
2056
2055
2045
2024
1997
1974
1975
2010
2077
2158
2224
2257
2246
2203
2149
2102
2071
2056
2053
2053
2052
2048
2042
2036
2030
2028
2027
2025
2024
2023
2021
2021
2020
2019
2017
2016
2014
2013
2012
2011
2009
2008
2006
2007
2005
2003
1999
1994
1992
1991
1994
1996
1996
1992
1987
1982
1977
1975
1972
1969
1965
1963
1961
1959
1957
1954
1953
1951
1951
1952
1954
1957
1962
1966
1974
1983
1991
1998
2004
2011
2019
2028
2038
2046
2049
2051
2052
2051
2055
2057
2060
2061
2062
2063
2064
2064
2064
2064
2064
2063
2063
2064
2064
2064
2063
2064
2066
2064
2062
2057
2053
2053
2057
2064
2070
2071
2068
2063
2059
2057
2058
2059
2060
2060
2060
2060
2060
2060
2061
2061
2061
2062
2062
2062
2061
2062
2062
2062
2062
2060
2059
2057
2058
2061
2065
2068
2069
2066
2063
2060
2060
2059
2059
2060
2059
2059
2059
2058
2058
2058
2058
2058
2060
2060
2058
2056
2055
2053
2058
2060
2061
2057
2051
2048
2048
2052
2062
2066
2065
2061
2056
2052
2053
2054
2054
2054
2054
2053
2052
2052
2052
2053
2054
2054
2055
2055
2056
2055
2054
2053
2052
2051
2048
2046
2044
2044
2047
2050
2053
2052
2052
2050
2049
2051
2052
2054
2053
2052
2051
2051
2052
2054
2056
2053
2048
2046
2046
2051
2059
2061
2050
2026
1993
1968
1972
2013
2085
2166
2230
2256
2239
2192
2138
2095
2068
2055
2050
2045
2041
2037
2034
2031
2029
2026
2025
2023
2022
2020
2019
2017
2016
2015
2015
2014
2011
2008
2004
2002
2004
2007
2008
2008
2005
2001
1997
1995
1994
1992
1991
1988
1986
1984
1981
1979
1976
1973
1970
1966
1964
1962
1960
1957
1955
1956
1953
1951
1947
1944
1946
1951
1961
1970
1978
1983
1987
1994
2001
2010
2018
2024
2029
2035
2040
2045
2048
2050
2053
2055
2057
2058
2059
2060
2061
2061
2064
2063
2063
2060
2057
2056
2059
2063
2068
2069
2067
2063
2059
2056
2058
2057
2059
2059
2059
2059
2059
2059
2059
2059
2059
2059
2059
2059
2059
2060
2059
2060
2063
2062
2060
2056
2052
2052
2056
2063
2070
2071
2070
2065
2061
2057
2060
2060
2061
2062
2062
2060
2060
2059
2059
2059
2059
2060
2059
2059
2059
2059
2057
2061
2059
2057
2053
2049
2050
2056
2064
2069
2070
2065
2060
2056
2053
2057
2056
2057
2057
2057
2057
2056
2056
2055
2055
2056
2056
2056
2057
2057
2056
2054
2054
2054
2054
2054
2054
2054
2054
2056
2058
2060
2059
2057
2056
2055
2056
2056
2055
2054
2052
2050
2048
2048
2047
2048
2048
2049
2050
2050
2051
2051
2052
2053
2053
2055
2053
2052
2051
2051
2053
2055
2057
2055
2054
2053
2052
2054
2054
2047
2027
2000
1976
1972
2001
2062
2141
2211
2247
2242
2203
2151
2106
2075
2059
2051
2047
2041
2036
2032
2030
2029
2030
2029
2027
2025
2022
2020
2019
2018
2017
2015
2013
2012
2010
2009
2008
2006
2005
2004
2003
2001
2000
1998
1997
1995
1995
1993
1990
1985
1980
1976
1976
1977
1978
1976
1970
1965
1960
1958
1957
1954
1952
1950
1948
1948
1948
1949
1951
1954
1958
1964
1971
1979
1988
1997
2003
2015
2023
2028
2030
2030
2033
2040
2050
2060
2065
2064
2060
2058
2056
2059
2062
2063
2062
2063
2062
2063
2063
2062
2061
2060
2060
2060
2060
2060
2060
2058
2060
2061
2060
2056
2052
2049
2050
2056
2064
2069
2068
2063
2058
2054
2056
2059
2060
2060
2059
2059
2060
2060
2061
2060
2059
2059
2059
2060
2060
2060
2058
2059
2060
2060
2059
2056
2054
2055
2057
2061
2063
2064
2061
2057
2055
2054
2056
2057
2057
2058
2057
2057
2056
2055
2055
2055
2055
2055
2055
2054
2055
2054
2054
2053
2053
2050
2049
2049
2050
2053
2057
2059
2059
2057
2054
2052
2049
2048
2047
2045
2045
2045
2046
2047
2047
2047
2048
2048
2049
2051
2051
2050
2052
2052
2052
2050
2049
2047
2045
2046
2048
2053
2057
2058
2056
2048
2032
2004
1973
1951
1961
2011
2094
2183
2248
2267
2242
2190
2135
2095
2069
2057
2051
2046
2040
2035
2031
2028
2023
2018
2015
2017
2020
2022
2022
2018
2015
2011
2007
2008
2007
2006
2004
2003
2002
2001
1999
1998
1997
1996
1994
1993
1991
1989
1987
1983
1982
1980
1977
1973
1968
1964
1961
1960
1961
1962
1960
1957
1952
1947
1945
1944
1945
1947
1949
1953
1958
1966
1974
1983
1992
2001
2010
2017
2024
2030
2034
2041
2046
2048
2050
2049
2048
2049
2054
2061
2066
2068
2066
2063
2060
2060
2063
2062
2063
2062
2061
2061
2061
2060
2060
2060
2059
2058
2058
2057
2057
2058
2056
2060
2061
2060
2055
2049
2047
2048
2056
2065
2069
2067
2061
2056
2053
2054
2057
2057
2057
2057
2057
2058
2059
2059
2059
2058
2058
2058
2058
2059
2059
2057
2059
2059
2059
2056
2053
2051
2052
2056
2061
2064
2063
2061
2057
2053
2055
2054
2056
2055
2055
2055
2055
2055
2055
2054
2054
2054
2054
2054
2054
2054
2053
2055
2056
2054
2051
2048
2046
2048
2053
2056
2058
2055
2052
2051
2054
2058
2060
2056
2050
2045
2043
2043
2045
2046
2047
2047
2048
2048
2048
2050
2050
2051
2051
2052
2051
2050
2048
2047
2047
2048
2051
2055
2057
2057
2055
2050
2039
2018
1990
1970
1971
2007
2075
2155
2221
2250
2237
2193
2141
2098
2070
2055
2048
2046
2042
2039
2034
2028
2022
2019
2020
2024
2028
2028
2024
2020
2015
2013
2012
2012
2011
2010
2009
2007
2006
2004
2002
2002
2000
2000
1999
1997
1996
1993
1991
1989
1987
1986
1982
1978
1973
1971
1970
1970
1970
1967
1963
1959
1955
1954
1953
1953
1952
1952
1953
1956
1960
1966
1973
1980
1988
1996
2004
2012
2020
2026
2033
2038
2043
2044
2047
2049
2053
2057
2062
2064
2064
2063
2062
2063
2065
2065
2066
2064
2063
2063
2063
2064
2064
2064
2063
2063
2062
2061
2061
2061
2062
2063
2063
2062
2060
2057
2056
2056
2059
2063
2065
2066
2064
2061
2060
2060
2061
2060
2061
2060
2060
2061
2061
2062
2062
2062
2061
2060
2060
2061
2061
2061
2060
2063
2061
2060
2057
2054
2053
2054
2060
2064
2066
2066
2063
2061
2057
2058
2057
2055
2056
2057
2057
2057
2057
2056
2056
2056
2056
2056
2055
2056
2055
2054
2056
2056
2057
2055
2052
2049
2050
2053
2058
2063
2065
2064
2061
2055
2055
2053
2052
2052
2050
2049
2048
2048
2048
2049
2049
2050
2051
2053
2054
2055
2054
2055
2058
2056
2055
2051
2048
2048
2051
2057
2063
2065
2064
2060
2056
2048
2034
2008
1982
1969
1989
2045
2124
2202
2252
2258
2226
2174
2124
2088
2067
2057
2051
2047
2043
2039
2033
2028
2025
2025
2027
2031
2033
2031
2027
2022
2017
2017
2015
2015
2014
2012
2012
2010
2008
2007
2006
2004
2003
2002
2000
1999
1995
1993
1995
1992
1988
1980
1973
1969
1969
1974
1978
1978
1973
1965
1958
1953
1953
1951
1950
1949
1949
1949
1952
1956
1961
1968
1975
1983
1992
2001
2010
2017
2024
2031
2037
2042
2045
2048
2049
2053
2058
2063
2067
2067
2066
2064
2062
2064
2065
2066
2066
2066
2066
2066
2065
2065
2064
2064
2064
2064
2064
2063
2062
2060
2062
2063
2064
2063
2061
2058
2057
2059
2063
2068
2068
2067
2064
2061
2061
2062
2063
2063
2063
2062
2062
2063
2063
2064
2064
2064
2063
2062
2062
2062
2062
2063
2063
2062
2061
2058
2056
2056
2058
2061
2064
2066
2064
2062
2059
2058
2058
2057
2058
2057
2057
2058
2058
2058
2058
2057
2057
2056
2057
2057
2057
2058
2056
2058
2058
2057
2053
2050
2049
2051
2056
2061
2063
2063
2061
2059
2056
2055
2052
2050
2048
2048
2048
2048
2049
2050
2051
2051
2052
2052
2053
2055
2055
2055
2056
2056
2056
2054
2052
2049
2050
2053
2057
2061
2061
2061
2056
2042
2020
1988
1962
1960
1997
2070
2160
2235
2271
2260
2214
2158
2112
2082
2066
2059
2053
2048
2046
2040
2034
2028
2022
2020
2022
2027
2031
2030
2027
2021
2017
2013
2014
2013
2012
2011
2010
2008
2006
2004
2003
2001
2000
1999
1998
1996
1994
1992
1990
1988
1985
1980
1974
1969
1966
1967
1968
1968
1966
1960
1955
1949
1946
1945
1943
1943
1944
1946
1950
1954
1959
1967
1976
1986
1996
2005
2013
2021
2028
2032
2042
2047
2048
2051
2049
2048
2051
2058
2066
2073
2075
2073
2070
2064
2065
2064
2064
2067
2067
2066
2065
2065
2065
2065
2064
2064
2063
2063
2063
2062
2062
2062
2063
2063
2061
2058
2056
2058
2061
2065
2068
2067
2064
2061
2058
2060
2060
2062
2061
2061
2061
2061
2062
2062
2063
2063
2062
2062
2061
2061
2061
2060
2061
2061
2062
2060
2058
2056
2057
2058
2062
2064
2064
2064
2062
2060
2060
2059
2059
2059
2058
2056
2057
2059
2060
2057
2053
2050
2050
2054
2062
2069
2070
2066
2060
2054
2051
2048
2046
2044
2045
2049
2055
2059
2059
2058
2054
2052
2053
2053
2056
2056
2056
2056
2056
2056
2056
2056
2055
2054
2055
2056
2057
2057
2053
2041
2016
1985
1962
1969
2017
2099
2190
2257
2277
2250
2196
2138
2096
2072
2060
2054
2048
2044
2041
2037
2034
2031
2029
2027
2026
2024
2022
2022
2020
2018
2019
2017
2016
2013
2009
2006
2006
2008
2011
2013
2011
2007
2003
1998
1998
1996
1996
1993
1991
1988
1985
1983
1980
1977
1974
1970
1967
1964
1962
1959
1957
1955
1956
1954
1950
1945
1942
1944
1954
1968
1982
1991
1997
2000
2004
2010
2020
2029
2035
2041
2046
2048
2051
2053
2056
2058
2060
2062
2063
2064
2065
2066
2066
2066
2066
2065
2063
2062
2063
2066
2069
2071
2072
2069
2067
2065
2063
2063
2062
2062
2062
2062
2063
2062
2061
2061
2061
2061
2061
2061
2060
2060
2060
2058
2063
2063
2063
2060
2055
2052
2053
2058
2065
2070
2071
2068
2064
2059
2061
2059
2060
2060
2061
2060
2060
2060
2060
2061
2060
2061
2060
2060
2060
2059
2059
2059
2059
2060
2058
2056
2054
2055
2057
2060
2062
2061
2060
2057
2054
2056
2056
2058
2057
2056
2056
2057
2058
2059
2060
2060
2059
2057
2055
2053
2051
2049
2049
2050
2050
2050
2049
2048
2048
2051
2055
2060
2060
2059
2057
2055
2055
2055
2056
2055
2055
2054
2053
2054
2055
2057
2058
2056
2047
2025
1998
1975
1974
2009
2074
2156
2222
2253
2242
2200
2150
2107
2080
2065
2056
2050
2044
2040
2037
2034
2032
2029
2028
2026
2025
2024
2023
2021
2019
2018
2017
2016
2015
2014
2012
2013
2012
2009
2006
2001
1997
1996
1999
2002
2004
2003
1999
1994
1989
1986
1983
1978
1976
1975
1972
1970
1967
1963
1960
1957
1955
1953
1951
1951
1950
1950
1953
1957
1960
1962
1964
1970
1982
1999
2015
2027
2033
2034
2036
2036
2042
2048
2050
2054
2056
2059
2061
2061
2063
2063
2064
2065
2065
2066
2065
2065
2064
2067
2067
2065
2062
2058
2057
2058
2063
2069
2071
2070
2066
2062
2058
2060
2061
2061
2062
2062
2062
2062
2061
2061
2061
2061
2061
2061
2061
2062
2062
2062
2061
2064
2064
2062
2058
2053
2053
2058
2065
2071
2071
2065
2060
2056
2056
2064
2065
2065
2064
2062
2062
2062
2060
2060
2060
2060
2061
2061
2061
2060
2059
2059
2060
2061
2060
2058
2055
2055
2055
2058
2062
2063
2062
2060
2059
2059
2058
2058
2057
2056
2054
2056
2056
2057
2058
2059
2059
2058
2056
2054
2052
2050
2048
2048
2048
2049
2048
2048
2046
2048
2052
2058
2063
2063
2060
2058
2053
2054
2055
2056
2055
2054
2054
2054
2054
2056
2056
2057
2056
2048
2029
2001
1977
1971
2000
2063
2143
2212
2248
2243
2206
2157
2116
2087
2069
2058
2050
2045
2041
2038
2036
2032
2028
2026
2024
2024
2023
2022
2021
2018
2017
2015
2014
2014
2014
2014
2013
2010
2007
2003
2001
2000
2003
2005
2006
2003
1998
1993
1989
1986
1987
1983
1980
1977
1975
1972
1969
1966
1963
1960
1957
1955
1953
1951
1950
1950
1950
1953
1955
1959
1962
1965
1972
1981
1995
2010
2021
2028
2031
2034
2036
2041
2046
2050
2052
2054
2056
2058
2060
2061
2062
2062
2063
2064
2065
2065
2066
2064
2066
2065
2064
2060
2055
2052
2054
2059
2066
2071
2069
2065
2061
2056
2058
2059
2060
2061
2059
2060
2060
2060
2061
2061
2060
2060
2059
2059
2059
2059
2059
2062
2063
2063
2061
2057
2054
2054
2057
2064
2070
2070
2067
2061
2057
2055
2057
2059
2060
2060
2060
2059
2058
2057
2057
2058
2059
2059
2059
2059
2058
2058
2056
2058
2058
2054
2052
2048
2048
2050
2054
2059
2061
2064
2065
2066
2062
2062
2056
2052
2053
2053
2055
2054
2054
2054
2054
2055
2054
2054
2053
2053
2053
2053
2056
2057
2057
2054
2049
2046
2046
2049
2053
2055
2053
2049
2047
2046
2048
2049
2050
2049
2049
2049
2051
2051
2051
2052
2052
2053
2052
2052
2051
2051
2049
2052
2052
2053
2051
2044
2026
2003
1982
1971
1989
2038
2108
2183
2233
2249
2224
2175
2124
2085
2062
2052
2047
2044
2039
2035
2031
2028
2026
2023
2022
2018
2019
2018
2017
2014
2011
2007
2006
2008
2013
2016
2015
2011
2006
2000
1999
1999
1998
1996
1994
1993
1992
1991
1989
1987
1984
1981
1977
1974
1969
1966
1962
1963
1962
1961
1957
1949
1941
1936
1936
1940
1944
1946
1945
1946
1947
1954
1962
1971
1980
1989
1999
2008
2016
2024
2030
2036
2040
2045
2048
2051
2054
2057
2058
2062
2063
2062
2060
2058
2057
2059
2065
2070
2072
2070
2067
2064
2062
2063
2063
2062
2061
2061
2061
2061
2062
2062
2062
2062
2062
2061
2061
2061
2061
2060
2062
2063
2063
2060
2057
2055
2056
2061
2065
2069
2068
2066
2062
2059
2060
2060
2062
2062
2062
2062
2062
2061
2061
2061
2060
2060
2060
2060
2059
2059
2059
2059
2063
2061
2059
2054
2050
2049
2054
2061
2067
2068
2065
2060
2057
2055
2058
2059
2059
2058
2057
2054
2053
2050
2050
2049
2049
2050
2050
2052
2052
2054
2054
2055
2056
2054
2053
2051
2052
2055
2059
2062
2063
2061
2058
2055
2054
2056
2056
2058
2056
2044
2020
1987
1963
1965
2010
2089
2180
2252
2281
2262
2212
2153
2113
2084
2068
2057
2048
2040
2038
2042
2045
2046
2040
2032
2026
2020
2022
2023
2024
2022
2021
2017
2015
2014
2011
2013
2011
2009
2008
2006
2005
2003
2000
1998
1997
1996
1993
1990
1986
1984
1983
1983
1983
1979
1974
1968
1962
1960
1957
1956
1952
1950
1947
1946
1945
1945
1948
1951
1955
1961
1968
1977
1987
1996
2005
2015
2023
2029
2034
2038
2043
2048
2055
2061
2063
2064
2064
2064
2064
2066
2067
2066
2066
2066
2067
2067
2068
2068
2068
2068
2067
2066
2065
2065
2066
2066
2065
2065
2063
2061
2059
2059
2061
2063
2065
2066
2064
2062
2060
2059
2059
2060
2060
2060
2060
2061
2061
2061
2061
2061
2061
2061
2061
2061
2060
2061
2061
2063
2064
2063
2061
2058
2056
2057
2061
2065
2067
2068
2066
2064
2061
2060
2059
2057
2059
2060
2061
2062
2063
2061
2060
2058
2057
2056
2054
2054
2052
2051
2053
2055
2055
2051
2047
2044
2048
2055
2064
2070
2069
2064
2059
2053
2055
2056
2055
2056
2056
2058
2058
2058
2057
2049
2032
2004
1977
1969
1995
2058
2140
2221
2264
2262
2221
2161
2110
2078
2065
2062
2060
2054
2047
2039
2032
2032
2030
2029
2028
2026
2025
2024
2022
2020
2019
2017
2016
2015
2014
2013
2012
2010
2008
2009
2007
2005
1999
1994
1992
1993
1998
2002
2003
1998
1991
1984
1977
1978
1974
1971
1967
1963
1960
1957
1954
1953
1950
1950
1948
1949
1949
1951
1955
1960
1968
1975
1983
1991
1998
2007
2015
2026
2036
2042
2047
2048
2049
2051
2052
2055
2058
2061
2065
2067
2066
2065
2064
2064
2064
2066
2066
2066
2066
2066
2064
2064
2063
2065
2063
2061
2060
2060
2062
2064
2066
2066
2065
2062
2060
2061
2061
2063
2062
2062
2061
2061
2061
2062
2063
2062
2062
2062
2062
2062
2062
2061
2062
2063
2062
2060
2059
2058
2060
2063
2067
2069
2068
2065
2062
2060
2060
2060
2062
2062
2063
2063
2063
2063
2061
2060
2058
2056
2056
2054
2053
2053
2053
2054
2056
2057
2057
2057
2056
2057
2059
2061
2063
2062
2061
2059
2058
2058
2059
2058
2058
2059
2061
2063
2058
2040
2009
1978
1964
1989
2052
2139
2219
2264
2263
2228
2173
2123
2087
2063
2052
2049
2049
2050
2048
2044
2038
2033
2028
2028
2027
2026
2024
2023
2021
2020
2019
2018
2017
2015
2014
2012
2011
2010
2008
2006
2006
2004
2003
1999
1994
1989
1988
1990
1992
1994
1989
1984
1978
1971
1971
1967
1965
1961
1957
1955
1953
1950
1949
1947
1946
1947
1949
1954
1959
1966
1973
1983
1994
2003
2011
2015
2021
2028
2037
2047
2053
2058
2059
2058
2059
2060
2062
2064
2066
2066
2067
2067
2067
2067
2068
2068
2068
2067
2067
2067
2068
2068
2066
2068
2066
2064
2060
2057
2057
2061
2068
2074
2075
2072
2066
2064
2060
2065
2065
2065
2064
2064
2064
2064
2065
2065
2064
2065
2064
2065
2064
2064
2062
2063
2065
2064
2064
2060
2058
2056
2058
2064
2069
2071
2068
2064
2061
2058
2059
2059
2060
2060
2062
2063
2063
2061
2058
2056
2054
2052
2052
2052
2053
2053
2051
2055
2055
2056
2053
2051
2050
2053
2059
2065
2068
2067
2062
2059
2054
2055
2055
2055
2057
2058
2059
2054
2037
2008
1977
1959
1975
2033
2119
2207
2265
2274
2244
2188
2133
2094
2069
2058
2052
2049
2049
2048
2045
2041
2034
2029
2026
2024
2024
2023
2022
2021
2019
2018
2016
2015
2013
2012
2011
2009
2008
2007
2005
2006
2004
2003
1998
1993
1988
1986
1988
1990
1992
1989
1984
1977
1969
1966
1963
1960
1957
1953
1950
1948
1946
1944
1943
1942
1943
1945
1949
1955
1962
1970
1978
1991
2000
2009
2015
2019
2025
2033
2043
2052
2057
2059
2059
2058
2059
2062
2063
2064
2064
2065
2065
2065
2066
2065
2065
2065
2065
2065
2064
2065
2064
2062
2063
2062
2062
2059
2057
2055
2057
2060
2064
2067
2066
2063
2060
2058
2059
2058
2060
2060
2060
2061
2061
2061
2060
2060
2060
2060
2060
2061
2061
2061
2060
2061
2064
2062
2060
2056
2052
2052
2057
2064
2070
2071
2067
2062
2056
2052
2053
2052
2051
2051
2051
2051
2052
2052
2053
2054
2055
2056
2056
2057
2057
2057
2056
2058
2058
2056
2053
2049
2048
2051
2057
2063
2066
2062
2048
2024
1990
1965
1961
1998
2073
2166
2245
2281
2269
2220
2161
2112
2082
2067
2059
2054
2048
2041
2042
2037
2033
2027
2021
2017
2019
2025
2031
2032
2028
2022
2016
2010
2012
2012
2011
2008
2006
2003
2002
2002
2003
2003
2000
1998
1995
1992
1990
1987
1984
1981
1979
1977
1972
1968
1962
1959
1958
1958
1958
1955
1951
1947
1944
1944
1945
1948
1951
1957
1964
1972
1982
1992
2002
2012
2020
2027
2033
2039
2043
2047
2051
2055
2058
2059
2059
2057
2058
2061
2066
2071
2071
2070
2066
2063
2063
2064
2066
2066
2066
2065
2064
2064
2063
2063
2063
2063
2063
2062
2062
2062
2062
2062
2062
2062
2061
2060
2057
2056
2058
2060
2063
2065
2065
2063
2060
2059
2060
2060
2061
2060
2061
2060
2061
2061
2061
2060
2060
2060
2059
2060
2059
2059
2060
2062
2061
2059
2056
2053
2053
2058
2064
2068
2067
2063
2058
2054
2051
2051
2050
2050
2050
2051
2052
2053
2054
2054
2055
2055
2056
2056
2057
2057
2057
2056
2057
2058
2057
2053
2048
2047
2050
2058
2064
2060
2039
2005
1974
1966
1998
2067
2154
2229
2266
2257
2213
2156
2109
2078
2062
2055
2050
2047
2042
2039
2035
2034
2031
2028
2024
2019
2017
2017
2021
2025
2026
2024
2019
2014
2011
2009
2009
2009
2008
2007
2006
2004
2002
2000
1998
1997
1995
1993
1990
1988
1985
1983
1980
1979
1974
1969
1961
1955
1955
1959
1965
1969
1967
1961
1955
1951
1951
1959
1962
1967
1973
1981
1990
1999
2009
2018
2025
2031
2037
2043
2047
2049
2052
2054
2058
2060
2061
2062
2061
2061
2058
2059
2061
2065
2070
2073
2074
2071
2066
2064
2060
2060
2060
2061
2059
2061
2063
2064
2064
2062
2061
2061
2060
2061
2059
2060
2059
2060
2058
2057
2056
2057
2060
2063
2066
2066
2064
2062
2059
2060
2061
2061
2061
2061
2061
2061
2062
2062
2062
2061
2061
2061
2061
2061
2061
2060
2061
2061
2061
2060
2058
2057
2057
2059
2062
2064
2063
2062
2060
2059
2060
2059
2060
2058
2058
2057
2058
2059
2059
2059
2059
2059
2058
2057
2057
2057
2058
2059
2061
2061
2059
2058
2055
2055
2055
2056
2055
2053
2051
2050
2050
2050
2053
2052
2052
2053
2054
2055
2057
2057
2057
2056
2056
2055
2055
2055
2054
2054
2053
2055
2057
2057
2055
2048
2032
2011
1992
1984
2002
2048
2117
2187
2233
2245
2218
2172
2123
2087
2065
2055
2050
2046
2042
2038
2035
2033
2030
2028
2026
2022
2023
2024
2023
2018
2012
2008
2008
2013
2019
2022
2020
2014
2009
2003
2003
2003
2002
2001
1999
1998
1996
1993
1992
1989
1987
1985
1982
1980
1977
1975
1971
1969
1969
1965
1961
1954
1948
1947
1952
1960
1965
1966
1964
1961
1963
1968
1979
1987
1995
2003
2012
2019
2026
2031
2036
2041
2045
2049
2052
2054
2056
2058
2059
2061
2062
2061
2059
2056
2056
2059
2063
2068
2070
2068
2065
2061
2059
2059
2060
2061
2061
2061
2060
2059
2058
2059
2059
2060
2061
2061
2060
2060
2059
2060
2061
2062
2061
2059
2056
2056
2059
2063
2067
2068
2066
2063
2060
2060
2060
2060
2062
2061
2061
2060
2059
2059
2060
2062
2063
2064
2062
2060
2060
2059
2060
2060
2060
2060
2057
2056
2055
2057
2061
2063
2065
2063
2060
2057
2056
2057
2057
2058
2057
2057
2057
2056
2056
2056
2056
2056
2056
2056
2056
2056
2056
2056
2056
2056
2055
2053
2051
2050
2053
2057
2060
2062
2060
2058
2056
2055
2056
2055
2055
2052
2050
2048
2048
2048
2047
2048
2048
2048
2049
2049
2050
2051
2052
2054
2055
2054
2052
2049
2048
2048
2052
2056
2057
2056
2053
2052
2051
2052
2051
2037
2015
1990
1976
1987
2031
2100
2175
2228
2245
2224
2179
2130
2091
2067
2054
2050
2048
2044
2038
2031
2027
2025
2027
2030
2032
2031
2027
2023
2018
2017
2016
2015
2012
2011
2010
2009
2008
2006
2004
2002
2001
1999
1998
1997
1995
1992
1992
1991
1989
1983
1976
1971
1970
1973
1978
1980
1977
1969
1962
1956
1953
1954
1953
1952
1952
1952
1953
1954
1958
1962
1968
1975
1982
1990
1998
2006
2013
2021
2029
2034
2038
2039
2041
2045
2050
2057
2062
2063
2062
2059
2058
2059
2060
2061
2062
2062
2062
2062
2061
2061
2061
2061
2061
2060
2060
2060
2060
2060
2059
2062
2060
2059
2056
2054
2055
2059
2066
2070
2071
2068
2063
2061
2058
2062
2062
2062
2062
2062
2062
2062
2062
2062
2062
2062
2061
2061
2061
2061
2061
2061
2062
2063
2065
2064
2064
2063
2063
2066
2068
2069
2068
2064
2062
2060
2061
2062
2062
2060
2062
2060
2059
2057
2055
2055
2055
2057
2058
2058
2057
2054
2053
2053
2054
2055
2054
2053
2051
2051
2053
2056
2059
2059
2058
2056
2054
2054
2054
2055
2055
2055
2055
2054
2053
2052
2051
2049
2048
2047
2046
2046
2046
2047
2047
2048
2048
2048
2048
2048
2049
2051
2054
2056
2055
2054
2052
2052
2052
2051
2052
2049
2049
2051
2051
2048
2033
2007
1977
1958
1971
2023
2102
2186
2243
2256
2228
2175
2120
2082
2059
2050
2049
2047
2043
2038
2033
2029
2025
2022
2021
2018
2016
2015
2014
2013
2013
2012
2011
2009
2008
2006
2004
2003
2000
1998
1998
1998
1997
1994
1989
1985
1983
1983
1986
1987
1986
1982
1976
1971
1966
1963
1961
1957
1955
1954
1952
1946
1941
1936
1935
1939
1946
1953
1955
1955
1956
1958
1968
1977
1989
1995
2001
2010
2019
2030
2040
2046
2048
2049
2051
2051
2055
2057
2059
2061
2061
2062
2062
2062
2063
2063
2063
2064
2064
2065
2065
2065
2064
2064
2067
2065
2063
2058
2055
2057
2063
2071
2074
2073
2069
2063
2061
2062
2064
2064
2064
2063
2064
2063
2064
2064
2064
2064
2065
2065
2065
2065
2065
2065
2065
2066
2065
2063
2060
2058
2059
2064
2069
2073
2074
2071
2068
2065
2064
2066
2066
2067
2068
2068
2069
2069
2069
2069
2070
2071
2071
2071
2071
2070
2072
2070
2074
2075
2072
2067
2061
2057
2058
2066
2072
2075
2072
2067
2064
2062
2065
2068
2069
2068
2067
2068
2067
2066
2064
2063
2062
2063
2064
2064
2064
2063
2061
2063
2060
2049
2023
1990
1961
1961
2004
2082
2174
2244
2270
2249
2197
2139
2093
2066
2051
2045
2039
2033
2027
2023
2020
2017
2014
2011
2009
2008
2006
2004
2002
2002
2000
1997
1991
1985
1984
1987
1994
2000
1999
1994
1986
1981
1979
1980
1980
1979
1977
1976
1975
1974
1972
1971
1968
1966
1964
1961
1959
1957
1955
1953
1951
1951
1948
1947
1945
1945
1948
1954
1963
1971
1978
1986
1993
2001
2011
2021
2029
2035
2041
2047
2051
2055
2059
2062
2064
2066
2067
2068
2069
2070
2071
2073
2074
2074
2073
2071
2069
2070
2073
2076
2079
2078
2076
2073
2071
2070
2070
2070
2071
2070
2071
2071
2071
2069
2066
2063
2061
2062
2064
2067
2070
2068
2070
2068
2068
2065
2062
2060
2061
2067
2072
2077
2076
2073
2069
2064
2066
2066
2068
2069
2068
2068
2068
2068
2068
2067
2067
2067
2067
2067
2067
2067
2065
2066
2067
2067
2066
2061
2058
2056
2060
2066
2071
2072
2069
2064
2061
2059
2059
2058
2058
2058
2058
2058
2057
2057
2057
2057
2059
2061
2062
2063
2062
2061
2058
2057
2056
2054
2050
2048
2047
2048
2053
2060
2063
2062
2059
2056
2054
2055
2055
2056
2055
2056
2056
2056
2055
2054
2054
2055
2055
2055
2055
2051
2041
2018
1995
1975
1975
2008
2070
2150
2218
2255
2249
2208
2153
2104
2072
2054
2049
2047
2044
2039
2036
2033
2029
2027
2024
2023
2021
2019
2018
2018
2018
2017
2014
2012
2008
2005
1997
1994
1989
1989
1994
1999
2002
2000
1994
1988
1981
1981
1979
1979
1977
1973
1971
1969
1967
1966
1964
1962
1959
1956
1954
1952
1951
1949
1949
1949
1947
1945
1942
1942
1947
1958
1973
1987
1998
2004
2007
2010
2015
2023
2029
2035
2039
2042
2045
2048
2051
2053
2055
2056
2057
2058
2059
2060
2060
2062
2063
2063
2061
2056
2052
2051
2055
2062
2069
2072
2069
2063
2057
2055
2057
2057
2059
2059
2058
2058
2057
2057
2056
2056
2056
2056
2057
2057
2057
2058
2057
2059
2060
2059
2056
2050
2048
2049
2056
2064
2070
2070
2065
2060
2055
2055
2057
2059
2059
2059
2060
2060
2060
2060
2060
2059
2060
2061
2062
2062
2062
2060
2061
2060
2062
2059
2056
2052
2053
2057
2064
2069
2069
2065
2061
2056
2056
2057
2060
2061
2061
2062
2061
2060
2060
2060
2061
2062
2061
2061
2060
2061
2061
2062
2064
2062
2059
2054
2052
2054
2060
2069
2074
2074
2070
2063
2057
2054
2055
2055
2057
2056
2057
2057
2057
2057
2060
2062
2063
2064
2063
2063
2063
2063
2062
2063
2064
2062
2059
2057
2057
2061
2068
2073
2066
2045
2015
1990
1986
2022
2086
2165
2230
2260
2248
2205
2154
2111
2083
2071
2066
2064
2059
2056
2053
2049
2052
2051
2049
2044
2038
2034
2035
2043
2051
2057
2053
2046
2038
2032
2033
2037
2038
2036
2032
2027
2023
2021
2020
2021
2018
2014
2011
2007
2005
2004
2001
2000
1996
1992
1987
1982
1978
1974
1971
1969
1970
1970
1973
1974
1972
1971
1967
1967
1968
1973
1980
1987
1994
2001
2008
2015
2021
2026
2030
2035
2037
2039
2041
2044
2045
2044
2041
2037
2038
2043
2050
2056
2055
2050
2043
2037
2035
2036
2037
2036
2035
2034
2034
2033
2032
2031
2030
2029
2029
2027
2026
2026
2026
2026
2027
2030
2029
2028
2027
2027
2030
2034
2040
2043
2045
2044
2043
2044
2045
2048
2049
2050
2052
2053
2055
2057
2058
2059
2060
2060
2061
2062
2062
2064
2064
2067
2067
2066
2064
2062
2061
2064
2069
2073
2074
2073
2070
2068
2067
2069
2069
2069
2068
2068
2069
2069
2069
2069
2069
2069
2069
2068
2068
2069
2069
2068
2071
2071
2070
2067
2063
2062
2063
2068
2073
2075
2074
2070
2068
2064
2065
2065
2066
2066
2067
2068
2069
2068
2068
2066
2065
2063
2061
2060
2058
2058
2058
2060
2061
2060
2059
2055
2054
2056
2062
2069
2072
2071
2068
2063
2060
2060
2061
2062
2061
2062
2062
2063
2064
2063
2053
2034
2008
1985
1983
2015
2079
2159
2225
2257
2245
2200
2143
2097
2070
2062
2064
2067
2065
2058
2050
2042
2039
2038
2036
2035
2033
2032
2032
2031
2030
2029
2028
2028
2026
2025
2023
2021
2020
2017
2018
2018
2016
2011
2004
2000
2000
2006
2012
2013
2010
2001
1993
1986
1984
1981
1978
1973
1969
1965
1961
1957
1953
1950
1947
1947
1944
1943
1943
1942
1944
1952
1959
1968
1972
1976
1980
1987
1995
2008
2016
2020
2021
2021
2021
2025
2027
2032
2034
2036
2039
2041
2043
2046
2048
2048
2050
2052
2053
2055
2056
2057
2058
2059
2059
2057
2054
2052
2052
2056
2062
2067
2067
2065
2062
2059
2058
2060
2060
2060
2059
2059
2059
2060
2060
2060
2060
2060
2061
2060
2061
2061
2061
2061
2062
2063
2063
2062
2060
2058
2059
2059
2062
2063
2063
2062
2060
2059
2059
2059
2059
2059
2059
2059
2060
2060
2060
2059
2059
2058
2058
2058
2058
2058
2057
2058
2059
2058
2056
2054
2052
2053
2055
2059
2061
2060
2058
2056
2055
2055
2056
2056
2056
2056
2056
2055
2053
2051
2049
2048
2047
2046
2047
2048
2048
2048
2051
2051
2052
2052
2050
2050
2051
2054
2059
2061
2061
2059
2056
2053
2054
2055
2057
2059
2058
2055
2043
2019
1990
1966
1971
2016
2093
2180
2245
2268
2244
2193
2139
2097
2072
2057
2050
2047
2046
2048
2048
2045
2040
2034
2031
2029
2029
2027
2025
2024
2023
2023
2022
2021
2019
2018
2016
2015
2014
2013
2010
2009
2007
2007
2005
2002
1997
1993
1990
1991
1994
1996
1995
1990
1983
1977
1971
1970
1968
1966
1964
1960
1958
1955
1953
1952
1952
1954
1956
1961
1965
1971
1979
1986
1999
2008
2015
2017
2019
2024
2033
2046
2056
2062
2062
2059
2057
2055
2060
2061
2062
2062
2063
2063
2063
2064
2064
2065
2065
2064
2065
2063
2063
2061
2059
2062
2063
2064
2060
2056
2052
2053
2058
2062
2068
2066
2062
2058
2055
2056
2056
2057
2057
2057
2057
2057
2057
2057
2057
2057
2058
2058
2058
2057
2057
2056
2057
2059
2058
2056
2051
2048
2049
2055
2063
2069
2068
2063
2057
2051
2051
2053
2054
2053
2053
2052
2053
2053
2053
2054
2053
2052
2052
2051
2051
2051
2050
2052
2052
2052
2050
2048
2045
2045
2048
2051
2056
2058
2055
2052
2048
2048
2048
2048
2048
2048
2048
2047
2048
2048
2049
2050
2049
2048
2048
2046
2045
2043
2041
2042
2042
2042
2040
2038
2037
2039
2043
2048
2052
2051
2049
2047
2045
2046
2047
2048
2047
2047
2047
2047
2048
2048
2049
2048
2043
2026
2001
1976
1963
1982
2040
2119
2195
2240
2241
2206
2153
2107
2077
2061
2053
2048
2041
2035
2032
2027
2025
2026
2025
2021
2014
2009
2007
2010
2018
2024
2025
2020
2012
2006
2003
2003
2005
2003
2001
1996
1993
1991
1993
1997
1998
1996
1992
1986
1982
1978
1977
1974
1971
1967
1964
1961
1958
1954
1950
1947
1945
1944
1941
1940
1938
1938
1939
1942
1946
1950
1954
1959
1967
1979
1993
2007
2018
2023
2026
2029
2031
2037
2042
2045
2048
2049
2052
2053
2055
2056
2057
2058
2058
2059
2058
2058
2058
2056
2059
2058
2058
2055
2051
2049
2050
2056
2062
2065
2063
2059
2054
2050
2052
2052
2053
2052
2053
2052
2053
2053
2053
2054
2053
2052
2053
2053
2053
2052
2050
2052
2053
2056
2056
2053
2049
2048
2050
2053
2060
2059
2057
2054
2051
2051
2050
2052
2052
2051
2051
2051
2051
2051
2052
2051
2051
2051
2050
2050
2051
2051
2051
2053
2052
2050
2047
2045
2045
2048
2052
2054
2051
2048
2044
2043
2042
2046
2047
2047
2047
2048
2048
2049
2049
2050
2049
2049
2049
2049
2049
2049
2048
2048
2048
2051
2051
2049
2040
2018
1987
1959
1953
1983
2050
2140
2221
2266
2263
2221
2162
2111
2078
2061
2053
2049
2043
2038
2033
2030
2027
2024
2021
2020
2019
2019
2018
2016
2012
2008
2005
2006
2009
2012
2012
2010
2005
2001
1999
1998
1998
1996
1994
1992
1990
1989
1987
1985
1982
1979
1976
1973
1970
1967
1963
1958
1958
1953
1950
1944
1938
1935
1935
1939
1944
1948
1950
1951
1954
1959
1969
1977
1988
1999
2008
2017
2025
2032
2037
2041
2045
2048
2051
2055
2056
2058
2059
2062
2064
2063
2062
2058
2057
2058
2064
2070
2073
2072
2069
2065
2063
2062
2063
2063
2062
2061
2061
2061
2061
2061
2060
2059
2059
2059
2058
2059
2059
2058
2058
2059
2058
2055
2052
2049
2050
2056
2063
2069
2071
2067
2062
2057
2056
2059
2059
2060
2060
2060
2060
2059
2059
2059
2059
2059
2060
2060
2059
2059
2059
2057
2060
2060
2059
2056
2052
2051
2053
2059
2065
2068
2065
2061
2056
2053
2057
2058
2059
2059
2059
2058
2055
2054
2053
2052
2051
2051
2051
2052
2052
2051
2050
2052
2054
2056
2057
2056
2054
2054
2056
2060
2063
2062
2060
2056
2053
2054
2055
2058
2059
2056
2046
2024
1995
1972
1973
2011
2081
2166
2233
2262
2246
2199
2144
2103
2075
2061
2051
2044
2039
2040
2044
2047
2046
2040
2032
2025
2022
2023
2023
2023
2021
2020
2019
2018
2016
2016
2014
2013
2011
2009
2008
2007
2005
2005
2004
2003
2001
1998
1994
1991
1989
1989
1990
1989
1985
1980
1973
1969
1966
1964
1962
1959
1957
1954
1953
1952
1952
1953
1956
1960
1965
1972
1980
1989
1998
2007
2017
2024
2029
2033
2037
2043
2049
2056
2061
2064
2064
2063
2063
2064
2065
2066
2067
2068
2069
2069
2068
2068
2068
2068
2068
2068
2067
2068
2067
2065
2068
2066
2067
2064
2062
2061
2061
2065
2068
2071
2070
2067
2065
2062
2063
2063
2064
2065
2064
2065
2065
2065
2065
2064
2064
2063
2063
2064
2064
2065
2065
2064
2065
2064
2064
2061
2060
2060
2063
2068
2070
2069
2067
2064
2062
2062
2063
2063
2062
2061
2062
2061
2062
2061
2061
2060
2060
2061
2061
2061
2061
2060
2060
2060
2060
2058
2057
2055
2055
2058
2062
2066
2068
2066
2063
2060
2057
2057
2054
2053
2051
2050
2050
2050
2052
2052
2053
2054
2055
2056
2056
2056
2056
2056
2060
2060
2059
2055
2050
2048
2051
2059
2066
2070
2069
2065
2054
2036
2013
1987
1973
1988
2040
2113
2190
2241
2252
2226
2176
2127
2088
2069
2058
2052
2048
2046
2043
2040
2036
2031
2027
2027
2028
2031
2032
2030
2026
2022
2019
2019
2017
2016
2015
2013
2012
2011
2009
2008
2007
2005
2004
2003
2001
1999
1997
1995
1991
1992
1989
1985
1979
1973
1970
1968
1968
1968
1966
1966
1965
1965
1961
1958
1954
1950
1950
1953
1959
1965
1972
1981
1989
1997
2006
2013
2022
2029
2034
2041
2047
2050
2052
2052
2052
2053
2059
2066
2072
2074
2072
2069
2065
2065
2066
2066
2068
2067
2066
2066
2066
2066
2066
2065
2065
2065
2064
2064
2063
2063
2063
2064
2066
2065
2062
2058
2057
2059
2063
2069
2071
2070
2067
2063
2060
2061
2062
2062
2062
2063
2063
2063
2063
2063
2063
2063
2063
2062
2062
2063
2063
2062
2063
2063
2063
2062
2060
2058
2059
2061
2064
2066
2066
2064
2061
2058
2058
2058
2059
2059
2059
2059
2059
2059
2059
2059
2058
2058
2058
2058
2058
2058
2059
2059
2059
2060
2057
2055
2052
2053
2055
2060
2063
2064
2063
2060
2059
2059
2060
2062
2061
2060
2058
2056
2054
2052
2052
2052
2052
2053
2053
2054
2054
2055
2055
2057
2058
2059
2056
2052
2049
2051
2056
2064
2069
2068
2064
2059
2055
2057
2056
2059
2050
2030
2003
1979
1973
2002
2064
2145
2215
2252
2244
2204
2150
2103
2077
2062
2055
2050
2042
2037
2034
2036
2039
2040
2038
2032
2027
2022
2022
2021
2021
2020
2020
2018
2017
2015
2013
2013
2011
2009
2008
2006
2006
2004
2000
2001
1998
1996
1993
1989
1987
1985
1986
1986
1985
1982
1976
1970
1964
1961
1957
1955
1953
1950
1948
1946
1945
1945
1946
1950
1954
1960
1967
1976
1986
1994
2003
2012
2020
2027
2032
2037
2043
2049
2056
2062
2064
2065
2063
2063
2064
2066
2069
2069
2068
2068
2068
2069
2069
2069
2069
2069
2067
2066
2065
2065
2066
2066
2067
2068
2067
2065
2063
2062
2063
2066
2068
2070
2068
2066
2065
2063
2064
2064
2065
2064
2064
2065
2065
2066
2066
2065
2065
2064
2064
2063
2064
2063
2065
2066
2066
2065
2062
2060
2060
2061
2066
2068
2069
2067
2064
2062
2061
2061
2062
2061
2061
2061
2061
2061
2061
2061
2061
2062
2062
2062
2062
2061
2060
2059
2058
2055
2055
2051
2049
2049
2051
2054
2059
2062
2062
2061
2059
2057
2057
2057
2059
2059
2059
2059
2059
2059
2058
2057
2057
2058
2059
2060
2058
2046
2020
1987
1963
1963
2005
2082
2173
2247
2280
2266
2217
2158
2111
2080
2064
2060
2055
2049
2045
2040
2037
2034
2032
2029
2027
2025
2024
2023
2022
2021
2020
2019
2017
2018
2017
2012
2006
2000
1997
2002
2009
2016
2017
2011
2003
1995
1991
1990
1990
1987
1984
1981
1979
1975
1972
1968
1965
1962
1958
1955
1952
1949
1947
1944
1946
1947
1948
1949
1950
1954
1965
1982
1999
2012
2019
2022
2025
2029
2037
2045
2049
2052
2055
2057
2059
2062
2063
2065
2065
2066
2067
2067
2068
2067
2068
2068
2069
2069
2067
2066
2065
2066
2069
2072
2074
2072
2069
2066
2064
2064
2064
2065
2064
2063
2063
2062
2063
2062
2063
2063
2063
2063
2062
2062
2062
2062
2063
2063
2063
2062
2061
2060
2061
2063
2066
2067
2067
2066
2064
2063
2064
2063
2063
2061
2060
2060
2061
2061
2062
2062
2061
2061
2061
2060
2060
2060
2059
2059
2060
2061
2060
2059
2058
2056
2058
2061
2065
2066
2065
2062
2058
2055
2053
2052
2052
2051
2051
2052
2053
2054
2055
2055
2056
2057
2057
2057
2057
2058
2057
2060
2059
2058
2056
2055
2055
2057
2061
2063
2063
2059
2047
2024
1993
1973
1974
2013
2084
2169
2236
2263
2245
2196
2141
2099
2072
2060
2055
2051
2047
2042
2041
2037
2035
2030
2027
2024
2024
2025
2027
2029
2027
2024
2020
2016
2015
2013
2014
2013
2012
2011
2009
2008
2006
2005
2003
2001
2000
1998
1996
1994
1992
1989
1988
1984
1980
1974
1968
1964
1965
1967
1968
1966
1962
1956
1953
1951
1953
1955
1959
1960
1963
1967
1975
1988
2003
2016
2025
2030
2032
2034
2039
2045
2049
2055
2057
2057
2056
2054
2054
2060
2068
2076
2079
2076
2071
2068
2064
2067
2067
2067
2066
2066
2067
2066
2066
2064
2064
2064
2065
2067
2069
2070
2071
2071
2074
2074
2073
2069
2064
2063
2067
2075
2083
2085
2082
2076
2071
2069
2070
2073
2073
2072
2073
2073
2072
2072
2071
2072
2072
2073
2073
2072
2072
2071
2071
2073
2073
2072
2068
2066
2064
2068
2072
2076
2078
2075
2071
2068
2065
2068
2067
2068
2067
2067
2066
2066
2066
2066
2066
2066
2066
2065
2064
2064
2065
2064
2064
2063
2062
2064
2063
2063
2063
2062
2063
2065
2066
2067
2066
2063
2059
2057
2054
2056
2057
2057
2058
2059
2060
2062
2063
2062
2062
2060
2060
2060
2060
2062
2064
2063
2061
2056
2052
2052
2058
2066
2071
2063
2042
2010
1981
1975
2006
2066
2144
2211
2246
2241
2204
2154
2109
2077
2060
2052
2050
2047
2045
2043
2038
2037
2035
2032
2027
2022
2019
2020
2025
2031
2033
2031
2025
2019
2014
2014
2014
2014
2012
2011
2009
2008
2007
2006
2004
2002
2000
1998
1996
1994
1992
1989
1987
1984
1982
1977
1971
1966
1964
1965
1968
1971
1968
1963
1957
1953
1953
1955
1960
1965
1970
1977
1985
1993
2002
2010
2018
2024
2031
2037
2042
2048
2051
2055
2058
2059
2060
2058
2058
2059
2064
2070
2075
2077
2075
2071
2069
2067
2067
2067
2066
2065
2065
2065
2065
2065
2064
2063
2063
2062
2063
2064
2065
2065
2063
2063
2063
2062
2060
2058
2057
2059
2065
2070
2073
2071
2067
2064
2061
2062
2063
2063
2063
2064
2065
2064
2064
2064
2064
2066
2065
2064
2064
2063
2063
2062
2064
2064
2064
2061
2057
2056
2057
2063
2069
2072
2070
2066
2061
2057
2058
2059
2060
2060
2060
2059
2059
2059
2059
2059
2058
2058
2058
2059
2059
2058
2057
2059
2060
2059
2057
2052
2049
2049
2054
2061
2069
2070
2068
2064
2058
2055
2054
2051
2051
2049
2048
2048
2048
2049
2049
2050
2051
2053
2054
2055
2055
2054
2054
2054
2055
2054
2052
2050
2049
2052
2056
2061
2063
2062
2058
2054
2048
2031
2005
1976
1961
1978
2033
2113
2193
2246
2255
2223
2169
2118
2083
2063
2055
2050
2049
2044
2039
2031
2023
2018
2019
2025
2031
2035
2032
2026
2020
2013
2015
2013
2014
2013
2011
2010
2009
2008
2007
2005
2003
2001
1999
1997
1996
1995
1992
1992
1990
1987
1981
1974
1971
1970
1973
1976
1975
1970
1962
1954
1949
1948
1947
1947
1946
1946
1947
1949
1954
1959
1967
1974
1983
1992
2001
2011
2019
2026
2034
2039
2044
2046
2046
2047
2049
2055
2062
2069
2071
2069
2065
2062
2061
2061
2063
2064
2064
2064
2064
2065
2064
2063
2063
2061
2061
2062
2063
2065
2066
2067
2064
2060
2056
2052
2051
2054
2059
2064
2067
2066
2063
2059
2055
2057
2057
2058
2058
2060
2060
2060
2060
2060
2060
2060
2060
2061
2061
2061
2061
2061
2060
2061
2061
2060
2058
2055
2054
2057
2061
2066
2069
2067
2064
2061
2056
2058
2057
2057
2058
2057
2057
2057
2056
2056
2056
2057
2058
2059
2059
2058
2058
2055
2057
2055
2053
2050
2046
2044
2045
2049
2055
2059
2059
2056
2053
2050
2053
2054
2054
2055
2055
2055
2054
2054
2054
2055
2054
2053
2054
2055
2057
2056
2053
2044
2021
1993
1969
1969
2009
2081
2169
2238
2267
2249
2199
2141
2095
2068
2056
2050
2048
2043
2039
2036
2033
2032
2029
2028
2026
2024
2022
2021
2020
2018
2017
2016
2016
2015
2012
2010
2008
2008
2010
2011
2010
2008
2004
2000
1997
1996
1995
1993
1991
1989
1986
1983
1980
1978
1975
1972
1969
1966
1963
1958
1956
1957
1955
1952
1946
1940
1940
1946
1959
1975
1986
1993
1995
1998
2002
2012
2020
2027
2034
2039
2044
2048
2051
2055
2057
2059
2061
2061
2063
2064
2065
2066
2065
2067
2067
2067
2065
2063
2062
2063
2066
2068
2070
2070
2067
2065
2062
2063
2063
2062
2062
2062
2062
2062
2063
2063
2062
2062
2061
2061
2061
2061
2061
2061
2062
2061
2062
2061
2059
2058
2058
2060
2064
2067
2067
2065
2063
2060
2060
2059
2061
2061
2061
2061
2061
2061
2060
2060
2060
2060
2060
2060
2060
2060
2060
2060
2061
2060
2059
2056
2053
2053
2055
2059
2063
2064
2062
2059
2057
2057
2057
2057
2056
2056
2057
2057
2058
2059
2058
2057
2056
2055
2053
2052
2050
2050
2048
2050
2050
2049
2048
2044
2043
2047
2054
2062
2066
2064
2059
2055
2050
2053
2054
2054
2053
2052
2053
2054
2056
2056
2054
2044
2022
1996
1975
1978
2015
2078
2157
2216
2239
2221
2174
2124
2086
2066
2058
2055
2050
2044
2038
2033
2032
2030
2028
2026
2024
2023
2021
2020
2019
2019
2018
2016
2015
2014
2013
2011
2009
2011
2010
2008
2003
2000
1996
1994
1996
1999
2002
2003
2001
1997
1991
1984
1981
1977
1975
1973
1970
1967
1963
1961
1959
1957
1955
1953
1952
1951
1952
1952
1958
1962
1969
1976
1982
1990
1999
2009
2020
2030
2036
2041
2042
2044
2048
2050
2054
2056
2058
2060
2061
2062
2063
2064
2064
2064
2065
2064
2065
2064
2063
2063
2064
2063
2063
2061
2058
2058
2060
2064
2068
2069
2067
2064
2060
2058
2060
2059
2060
2060
2060
2060
2061
2061
2061
2061
2061
2060
2060
2059
2059
2060
2059
2062
2062
2061
2059
2055
2054
2056
2059
2064
2066
2066
2063
2060
2057
2058
2058
2058
2058
2059
2059
2059
2058
2057
2058
2057
2058
2057
2057
2057
2057
2058
2060
2061
2061
2058
2055
2052
2051
2052
2054
2056
2055
2053
2051
2049
2049
2050
2053
2054
2055
2055
2056
2055
2055
2055
2054
2055
2055
2055
2054
2054
2054
2055
2058
2059
2053
2039
2011
1983
1967
1982
2033
2107
2183
2233
2242
2213
2163
2113
2077
2058
2050
2047
2043
2039
2036
2033
2031
2029
2027
2025
2023
2022
2020
2021
2020
2018
2014
2010
2007
2009
2013
2017
2019
2016
2012
2006
2001
2000
1999
1998
1997
1994
1992
1989
1986
1983
1981
1979
1976
1973
1970
1966
1963
1957
1957
1954
1952
1947
1943
1940
1940
1945
1951
1957
1961
1963
1967
1972
1983
1994
2003
2012
2020
2027
2033
2039
2044
2048
2051
2054
2057
2058
2060
2060
2061
2063
2064
2066
2064
2061
2060
2059
2063
2066
2070
2070
2069
2067
2064
2063
2062
2061
2061
2059
2061
2061
2061
2062
2061
2062
2061
2060
2060
2060
2061
2060
2060
2061
2061
2061
2059
2057
2057
2058
2062
2065
2065
2064
2060
2058
2058
2058
2059
2059
2059
2059
2059
2060
2060
2060
2059
2058
2056
2053
2051
2049
2049
2049
2053
2054
2053
2051
2049
2048
2051
2057
2062
2065
2063
2059
2056
2052
2054
2053
2054
2054
2055
2056
2056
2056
2049
2030
1999
1965
1950
1971
2037
2128
2216
2271
2275
2235
2173
2117
2081
2064
2061
2060
2056
2048
2041
2035
2030
2028
2026
2024
2022
2022
2021
2020
2019
2018
2016
2014
2013
2012
2010
2010
2008
2006
2006
2004
2002
2000
1996
1992
1990
1989
1990
1992
1991
1988
1981
1975
1970
1966
1964
1961
1958
1954
1952
1949
1946
1943
1941
1940
1940
1942
1945
1950
1958
1967
1978
1987
1997
2004
2009
2017
2027
2038
2048
2054
2056
2056
2055
2056
2058
2060
2063
2064
2065
2065
2065
2065
2065
2065
2066
2066
2066
2066
2065
2065
2065
2065
2064
2063
2061
2059
2058
2061
2066
2070
2070
2067
2063
2059
2058
2061
2063
2062
2057
2052
2052
2056
2063
2069
2069
2066
2060
2056
2056
2057
2059
2057
2059
2059
2059
2058
2057
2056
2057
2060
2063
2063
2061
2056
2052
2048
2049
2050
2051
2051
2052
2052
2052
2053
2054
2055
2056
2056
2056
2056
2056
2055
2055
2056
2055
2056
2054
2051
2048
2048
2046
2032
2007
1978
1965
1988
2052
2142
2224
2269
2264
2218
2158
2109
2077
2062
2056
2052
2048
2042
2038
2035
2032
2029
2028
2026
2025
2024
2021
2019
2017
2016
2019
2021
2021
2020
2015
2011
2008
2006
2005
2004
2004
2003
2001
1999
1997
1995
1992
1990
1988
1985
1982
1979
1976
1972
1971
1967
1964
1959
1954
1950
1950
1953
1956
1958
1957
1956
1957
1958
1967
1975
1985
1994
2005
2015
2023
2032
2038
2043
2048
2051
2055
2057
2060
2063
2064
2066
2068
2069
2067
2066
2066
2066
2070
2073
2075
2074
2071
2070
2068
2068
2069
2069
2068
2068
2068
2068
2067
2067
2067
2067
2067
2067
2067
2067
2067
2066
2067
2066
2067
2065
2064
2063
2063
2065
2068
2070
2070
2069
2066
2065
2065
2064
2066
2066
2067
2067
2068
2069
2068
2068
2068
2067
2065
2064
2062
2061
2059
2060
2060
2061
2060
2059
2057
2058
2062
2066
2071
2071
2070
2066
2064
2063
2064
2065
2064
2064
2064
2064
2065
2065
2064
2056
2038
2011
1985
1980
2010
2075
2157
2226
2257
2243
2195
2139
2096
2073
2065
2066
2064
2057
2051
2046
2041
2042
2041
2040
2038
2035
2033
2031
2030
2029
2028
2027
2026
2025
2023
2022
2021
2018
2019
2018
2017
2011
2005
2001
2001
2008
2014
2016
2012
2004
1995
1989
1987
1986
1984
1980
1977
1974
1971
1969
1966
1965
1963
1963
1962
1962
1964
1967
1972
1981
1989
1997
2004
2011
2018
2028
2038
2049
2056
2059
2059
2058
2058
2063
2065
2069
2070
2070
2070
2070
2070
2072
2072
2072
2072
2072
2071
2072
2072
2071
2071
2072
2071
2070
2067
2062
2061
2063
2069
2075
2077
2076
2071
2066
2063
2064
2064
2065
2065
2064
2064
2064
2064
2065
2065
2065
2065
2064
2065
2064
2065
2065
2066
2066
2066
2065
2062
2061
2061
2063
2068
2071
2071
2070
2066
2062
2062
2062
2064
2064
2064
2065
2065
2064
2063
2061
2060
2058
2057
2056
2054
2056
2055
2057
2058
2057
2055
2054
2054
2057
2061
2066
2068
2067
2064
2061
2058
2058
2058
2058
2059
2061
2061
2061
2052
2035
2009
1985
1979
2006
2065
2142
2209
2243
2236
2197
2146
2100
2071
2055
2050
2049
2049
2049
2047
2042
2037
2032
2030
2028
2028
2027
2026
2024
2023
2022
2020
2018
2017
2016
2015
2013
2012
2011
2010
2008
2008
2006
2002
1998
1994
1993
1994
1996
1996
1994
1989
1982
1977
1973
1971
1968
1965
1962
1959
1956
1954
1952
1951
1950
1950
1952
1954
1959
1964
1972
1980
1990
1999
2006
2012
2017
2023
2032
2042
2050
2056
2057
2057
2056
2054
2058
2060
2062
2063
2062
2062
2061
2061
2062
2062
2062
2062
2062
2062
2061
2061
2058
2061
2061
2061
2058
2056
2055
2057
2061
2065
2067
2065
2062
2059
2057
2059
2059
2059
2059
2059
2059
2059
2059
2059
2060
2059
2059
2059
2059
2059
2058
2057
2059
2060
2060
2057
2053
2050
2050
2055
2062
2067
2068
2063
2058
2054
2053
2055
2057
2058
2056
2056
2055
2055
2055
2055
2055
2054
2054
2054
2054
2054
2053
2053
2053
2054
2053
2052
2050
2049
2050
2054
2057
2059
2058
2055
2052
2050
2050
2051
2051
2050
2051
2051
2052
2052
2053
2053
2053
2051
2049
2048
2045
2044
2043
2046
2046
2046
2044
2042
2040
2043
2048
2052
2057
2056
2054
2051
2047
2048
2048
2048
2048
2048
2049
2049
2049
2050
2050
2049
2043
2028
2004
1977
1966
1985
2044
2126
2204
2245
2237
2192
2134
2087
2062
2053
2051
2045
2039
2032
2029
2027
2026
2024
2022
2021
2020
2019
2018
2016
2015
2013
2012
2011
2010
2009
2007
2007
2005
2004
2003
2000
1997
1995
1995
1997
1999
1999
1997
1992
1986
1983
1981
1980
1978
1975
1973
1971
1968
1965
1963
1961
1959
1957
1956
1955
1954
1954
1956
1959
1961
1966
1969
1974
1982
1992
2005
2017
2025
2030
2032
2033
2036
2040
2044
2048
2050
2052
2054
2055
2055
2056
2056
2057
2057
2057
2057
2056
2057
2057
2056
2056
2055
2053
2050
2049
2052
2057
2061
2062
2060
2056
2053
2050
2053
2055
2056
2056
2054
2054
2053
2053
2053
2054
2055
2055
2055
2055
2055
2055
2053
2055
2055
2056
2055
2053
2053
2053
2057
2060
2062
2061
2057
2055
2052
2054
2054
2054
2054
2055
2055
2054
2054
2054
2054
2054
2054
2054
2054
2055
2054
2053
2054
2055
2055
2052
2049
2046
2046
2050
2056
2061
2061
2057
2053
2049
2048
2051
2053
2054
2052
2051
2051
2050
2050
2051
2051
2051
2051
2051
2051
2051
2049
2050
2050
2051
2051
2051
2050
2051
2052
2055
2056
2055
2052
2048
2044
2043
2042
2043
2044
2045
2045
2046
2047
2047
2048
2048
2049
2049
2049
2049
2049
2050
2048
2050
2050
2049
2048
2046
2046
2047
2049
2046
2031
2005
1980
1974
1998
2059
2133
2198
2229
2220
2181
2131
2089
2062
2049
2045
2041
2038
2035
2032
2030
2027
2026
2024
2023
2020
2016
2015
2015
2017
2019
2020
2018
2013
2010
2007
2007
2006
2005
2004
2003
2002
2001
1999
1998
1996
1994
1992
1990
1988
1986
1984
1980
1979
1976
1974
1970
1966
1962
1960
1960
1962
1963
1962
1960
1957
1955
1956
1958
1964
1969
1976
1983
1991
1999
2007
2014
2022
2028
2033
2038
2043
2046
2049
2052
2055
2056
2056
2056
2057
2058
2061
2064
2067
2067
2066
2063
2061
2059
2059
2060
2061
2061
2061
2060
2059
2058
2058
2058
2058
2058
2059
2058
2058
2059
2058
2059
2057
2057
2054
2052
2052
2054
2059
2064
2066
2065
2062
2059
2054
2057
2057
2059
2059
2059
2059
2057
2056
2057
2057
2058
2059
2058
2057
2057
2057
2055
2058
2059
2058
2055
2050
2048
2049
2057
2063
2066
2064
2058
2054
2051
2053
2054
2054
2053
2054
2053
2053
2054
2053
2054
2053
2053
2053
2052
2053
2052
2052
2053
2052
2052
2050
2048
2046
2048
2051
2055
2057
2058
2055
2051
2047
2048
2048
2050
2052
2052
2051
2049
2048
2045
2044
2044
2044
2044
2044
2045
2045
2045
2044
2048
2048
2049
2047
2042
2041
2043
2048
2055
2058
2057
2052
2048
2046
2048
2049
2050
2048
2035
2013
1987
1967
1972
2012
2080
2157
2215
2235
2213
2166
2115
2078
2056
2047
2042
2036
2030
2028
2028
2030
2031
2029
2026
2021
2016
2015
2013
2013
2011
2011
2010
2010
2008
2007
2005
2004
2002
2000
1999
1997
1996
1994
1995
1994
1991
1987
1981
1977
1976
1978
1980
1980
1977
1971
1965
1959
1957
1955
1953
1951
1950
1948
1946
1945
1945
1946
1947
1951
1955
1961
1969
1977
1985
1994
2003
2011
2017
2022
2026
2032
2039
2046
2052
2054
2055
2054
2054
2055
2056
2058
2059
2059
2060
2060
2060
2060
2059
2058
2058
2058
2058
2058
2058
2059
2058
2059
2058
2056
2053
2052
2053
2056
2059
2062
2062
2060
2056
2055
2055
2056
2057
2057
2057
2057
2057
2057
2057
2057
2057
2057
2057
2058
2058
2057
2057
2056
2056
2056
2055
2053
2051
2051
2053
2058
2062
2063
2061
2058
2056
2053
2055
2054
2054
2054
2053
2053
2051
2048
2047
2047
2050
2054
2057
2058
2057
2055
2053
2055
2056
2056
2053
2048
2044
2042
2046
2049
2055
2057
2054
2048
2041
2039
2042
2049
2057
2062
2061
2056
2051
2047
2049
2049
2051
2051
2050
2050
2050
2050
2051
2050
2037
2010
1975
1948
1954
2005
2090
2187
2253
2274
2245
2186
2128
2087
2065
2057
2053
2049
2044
2038
2033
2029
2025
2025
2023
2021
2019
2018
2016
2016
2016
2014
2013
2007
2003
2003
2005
2011
2015
2014
2010
2002
1997
1995
1996
1994
1992
1990
1986
1985
1984
1981
1979
1975
1973
1971
1968
1965
1960
1957
1953
1953
1952
1950
1946
1942
1940
1945
1954
1965
1975
1980
1985
1989
1995
2006
2015
2024
2029
2035
2041
2046
2049
2051
2054
2055
2056
2058
2059
2061
2062
2062
2065
2066
2064
2061
2056
2054
2057
2064
2072
2077
2076
2071
2065
2059
2058
2059
2059
2059
2060
2060
2060
2059
2059
2059
2059
2059
2058
2057
2057
2057
2058
2060
2060
2059
2055
2052
2050
2053
2059
2066
2070
2069
2064
2060
2055
2055
2056
2058
2059
2058
2058
2058
2058
2057
2056
2056
2056
2056
2057
