2141
2075
1995
1924
1881
1872
1887
1911
1933
1945
1952
1956
1960
1963
1964
1965
1965
1966
1968
1970
1973
1975
1978
1979
1979
1978
1978
1978
1979
1981
1982
1984
1984
1985
1985
1987
1990
1992
1995
1997
1998
2000
2002
2006
2011
2016
2021
2026
2031
2034
2038
2042
2045
2048
2051
2053
2053
2050
2047
2040
2031
2020
2009
1998
1989
1981
1975
1971
1967
1964
1961
1959
1957
1956
1956
1957
1957
1958
1958
1958
1958
1958
1958
1958
1956
1956
1956
1957
1958
1960
1960
1960
1960
1960
1961
1962
1962
1962
1962
1963
1963
1963
1964
1964
1964
1965
1965
1966
1966
1966
1965
1964
1963
1963
1964
1966
1967
1967
1967
1966
1965
1965
1965
1965
1965
1966
1966
1967
1967
1967
1967
1966
1966
1966
1965
1965
1965
1965
1966
1966
1967
1966
1965
1964
1964
1965
1966
1967
1967
1966
1964
1962
1962
1963
1965
1967
1969
1971
1972
1972
1972
1971
1970
1969
1968
1968
1968
1969
1968
1968
1967
1966
1966
1966
1967
1967
1969
1971
1970
1966
1959
1950
1946
1954
1980
2022
2073
2127
2169
2184
2162
2104
2024
1944
1890
1871
1883
1909
1934
1949
1955
1957
1960
1962
1964
1967
1968
1969
1970
1970
1970
1971
1971
1971
1971
1972
1973
1975
1977
1978
1979
1980
1980
1980
1981
1982
1984
1987
1990
1993
1995
1997
2000
2002
2006
2011
2016
2022
2027
2031
2034
2037
2040
2042
2044
2045
2045
2043
2039
2031
2021
2010
1999
1989
1980
1974
1969
1965
1962
1958
1954
1950
1947
1944
1942
1942
1942
1943
1943
1942
1940
1939
1938
1940
1942
1945
1946
1946
1943
1941
1938
1937
1937
1936
1937
1937
1937
1938
1937
1936
1934
1932
1930
1929
1929
1930
1931
1934
1936
1938
1939
1937
1934
1930
1926
1924
1921
1920
1919
1920
1923
1927
1931
1935
1937
1937
1936
1934
1932
1931
1929
1927
1926
1925
1925
1925
1925
1925
1924
1924
1925
1926
1927
1927
1927
1927
1927
1927
1928
1928
1928
1928
1927
1926
1926
1926
1927
1929
1929
1929
1927
1924
1922
1921
1923
1928
1933
1936
1938
1938
1937
1937
1937
1938
1939
1940
1939
1939
1938
1938
1937
1936
1936
1936
1936
1937
1938
1941
1943
1944
1942
1935
1925
1916
1917
1933
1966
2013
2068
2121
2158
2165
2133
2067
1987
1915
1874
1867
1884
1908
1926
1934
1936
1938
1940
1942
1944
1945
1946
1948
1949
1949
1950
1951
1951
1951
1949
1946
1944
1945
1950
1955
1959
1960
1959
1958
1961
1967
1972
1976
1977
1977
1977
1978
1981
1985
1990
1995
2001
2006
2010
2014
2017
2021
2025
2031
2036
2039
2040
2039
2034
2028
2019
2008
1997
1986
1979
1974
1973
1972
1971
1967
1961
1956
1953
1953
1955
1958
1961
1963
1963
1962
1961
1959
1958
1958
1959
1961
1962
1963
1963
1963
1962
1961
1962
1963
1965
1966
1967
1968
1968
1968
1967
1966
1967
1968
1971
1973
1973
1971
1966
1963
1962
1964
1967
1971
1974
1974
1973
1971
1969
1968
1969
1969
1971
1972
1973
1973
1974
1973
1971
1970
1969
1970
1971
1972
1972
1973
1974
1975
1976
1976
1974
1973
1971
1971
1971
1972
1972
1972
1971
1969
1968
1968
1968
1969
1970
1970
1969
1967
1966
1966
1967
1967
1968
1967
1967
1967
1968
1969
1970
1969
1967
1963
1961
1959
1959
1958
1958
1958
1959
1960
1961
1961
1962
1963
1963
1962
1956
1948
1941
1943
1962
2000
2052
2112
2168
2203
2202
2159
2082
1995
1923
1885
1884
1905
1931
1948
1955
1956
1958
1960
1962
1964
1965
1966
1968
1969
1971
1972
1972
1971
1970
1969
1970
1972
1975
1978
1980
1983
1985
1986
1987
1988
1988
1989
1991
1993
1996
1999
2002
2004
2007
2010
2013
2018
2023
2028
2034
2039
2044
2047
2049
2052
2053
2052
2049
2044
2035
2025
2014
2003
1993
1985
1979
1974
1970
1967
1964
1963
1962
1962
1963
1963
1963
1962
1961
1960
1961
1962
1963
1964
1965
1966
1967
1967
1968
1969
1969
1969
1969
1968
1968
1968
1968
1969
1969
1969
1969
1968
1967
1967
1968
1970
1973
1975
1977
1977
1978
1977
1976
1974
1972
1971
1970
1971
1973
1975
1976
1976
1976
1974
1973
1972
1972
1972
1972
1973
1973
1974
1974
1973
1971
1971
1971
1973
1976
1979
1980
1980
1979
1978
1978
1977
1977
1977
1977
1978
1979
1980
1980
1979
1977
1975
1973
1974
1975
1978
1980
1981
1981
1980
1978
1977
1978
1980
1983
1986
1989
1990
1990
1989
1987
1984
1981
1979
1978
1978
1980
1982
1984
1984
1985
1986
1986
1985
1980
1971
1962
1959
1972
2005
2054
2116
2175
2214
2218
2179
2104
2015
1937
1893
1887
1907
1934
1954
1961
1961
1962
1964
1968
1974
1980
1984
1987
1989
1988
1988
1987
1987
1987
1987
1987
1988
1989
1990
1993
1995
1997
1999
2000
2001
2001
2000
1999
2000
2004
2011
2019
2026
2031
2034
2037
2040
2045
2050
2055
2061
2066
2070
2073
2075
2075
2074
2072
2067
2060
2051
2042
2032
2022
2011
2002
1995
1991
1989
1987
1986
1984
1983
1983
1983
1983
1982
1980
1978
1977
1976
1976
1977
1978
1980
1981
1981
1980
1979
1978
1979
1979
1979
1979
1979
1981
1983
1985
1985
1983
1982
1981
1983
1986
1989
1989
1987
1984
1982
1981
1982
1983
1984
1985
1986
1987
1988
1988
1987
1986
1985
1984
1985
1985
1985
1985
1985
1984
1984
1984
1986
1988
1989
1990
1989
1987
1986
1985
1986
1987
1987
1988
1989
1990
1991
1991
1990
1989
1988
1987
1987
1988
1989
1990
1992
1993
1994
1995
1997
1998
2000
2001
2003
2003
2003
2002
1999
1996
1995
1995
1996
1999
2002
2003
2003
2003
2003
2002
1999
1993
1985
1982
1990
2015
2056
2110
2168
2215
2236
2221
2167
2087
2005
1945
1920
1928
1953
1979
1995
2000
2002
2004
2006
2008
2010
2011
2013
2013
2013
2013
2012
2013
2016
2019
2020
2020
2019
2018
2018
2020
2023
2024
2024
2024
2024
2026
2029
2031
2032
2033
2033
2036
2041
2048
2053
2058
2061
2063
2067
2071
2076
2080
2083
2085
2087
2086
2083
2078
2071
2062
2054
2046
2038
2029
2021
2013
2007
2002
1998
1996
1996
1996
1995
1994
1992
1991
1991
1991
1991
1990
1990
1990
1990
1990
1989
1987
1986
1986
1987
1988
1989
1988
1988
1989
1989
1990
1990
1989
1988
1987
1988
1989
1990
1991
1991
1991
1990
1989
1988
1988
1989
1991
1992
1991
1990
1988
1988
1988
1989
1989
1989
1989
1989
1990
1991
1992
1991
1991
1990
1990
1990
1990
1990
1990
1989
1988
1987
1986
1986
1987
1988
1990
1990
1991
1990
1989
1988
1987
1987
1988
1990
1990
1990
1989
1988
1987
1987
1988
1989
1988
1987
1986
1986
1986
1985
1985
1985
1986
1988
1991
1993
1994
1994
1993
1992
1991
1990
1990
1990
1990
1990
1990
1990
1989
1988
1987
1985
1984
1985
1987
1990
1991
1988
1980
1970
1964
1971
1994
2034
2085
2143
2193
2221
2212
2162
2081
1996
1932
1903
1908
1931
1955
1971
1977
1980
1982
1984
1985
1985
1986
1987
1987
1987
1987
1988
1990
1992
1993
1993
1993
1994
1995
1997
1998
1998
1997
1998
1999
2003
2006
2009
2010
2010
2009
2010
2010
2013
2018
2024
2032
2039
2044
2048
2049
2052
2055
2059
2061
2062
2062
2061
2057
2052
2046
2036
2025
2015
2007
2002
1999
1996
1992
1987
1982
1978
1975
1974
1974
1975
1976
1976
1976
1975
1974
1973
1973
1973
1975
1976
1976
1976
1976
1975
1975
1975
1975
1975
1975
1976
1977
1977
1976
1975
1975
1976
1977
1978
1978
1977
1976
1976
1976
1976
1975
1974
1973
1973
1974
1976
1978
1980
1979
1978
1975
1972
1972
1973
1975
1976
1977
1976
1974
1974
1974
1975
1974
1973
1972
1972
1972
1973
1974
1974
1973
1973
1973
1973
1973
1973
1973
1972
1971
1971
1970
1971
1973
1974
1973
1972
1970
1969
1971
1973
1975
1976
1974
1972
1970
1970
1971
1972
1973
1973
1973
1973
1970
1967
1965
1965
1967
1971
1974
1976
1975
1974
1972
1971
1971
1971
1973
1974
1976
1975
1973
1970
1968
1968
1968
1969
1969
1969
1968
1968
1968
1967
1966
1966
1967
1968
1965
1959
1951
1944
1948
1968
2005
2052
2107
2157
2187
2183
2139
2063
1978
1909
1876
1879
1903
1929
1946
1951
1951
1951
1952
1952
1953
1953
1954
1955
1957
1960
1962
1962
1961
1958
1957
1957
1958
1960
1963
1966
1968
1969
1970
1969
1968
1968
1969
1971
1973
1976
1979
1981
1984
1985
1987
1990
1995
2001
2008
2013
2018
2022
2025
2028
2029
2028
2026
2023
2019
2014
2008
2000
1991
1982
1973
1965
1958
1952
1948
1945
1944
1943
1944
1945
1946
1946
1944
1943
1941
1941
1942
1943
1944
1944
1943
1942
1942
1944
1945
1946
1946
1947
1947
1947
1947
1948
1948
1949
1950
1950
1950
1949
1949
1949
1951
1952
1953
1952
1951
1950
1950
1951
1953
1955
1955
1955
1955
1955
1955
1956
1956
1956
1955
1955
1955
1956
1956
1957
1957
1958
1959
1960
1961
1961
1960
1960
1960
1962
1963
1964
1964
1964
1964
1965
1965
1966
1966
1966
1967
1968
1970
1972
1974
1974
1973
1973
1972
1973
1973
1974
1976
1977
1978
1978
1979
1980
1981
1982
1983
1984
1984
1985
1986
1987
1987
1987
1986
1985
1986
1989
1992
1993
1993
1992
1992
1994
1998
2002
2005
2006
2005
2004
2004
2003
2003
2002
2002
2002
2004
2006
2008
2007
2007
2008
2009
2010
2007
2001
1994
1994
2010
2044
2092
2150
2206
2241
2244
2207
2136
2052
1981
1940
1935
1955
1983
2004
2014
2017
2019
2023
2027
2031
2033
2035
2036
2037
2038
2040
2041
2043
2044
2045
2046
2047
2048
2050
2053
2056
2059
2061
2063
2066
2068
2070
2071
2073
2076
2080
2085
2091
2095
2098
2101
2104
2109
2115
2122
2128
2133
2137
2140
2142
2144
2145
2144
2139
2133
2125
2117
2108
2099
2090
2083
2077
2073
2071
2069
2068
2066
2064
2063
2063
2064
2065
2066
2066
2066
2067
2067
2068
2069
2069
2069
2069
2070
2071
2072
2072
2073
2074
2075
2076
2076
2076
2075
2075
2076
2078
2080
2082
2082
2083
2083
2083
2083
2083
2083
2084
2085
2087
2088
2088
2088
2087
2086
2085
2084
2085
2086
2088
2091
2092
2092
2092
2090
2090
2090
2092
2093
2094
2094
2092
2091
2091
2093
2095
2096
2096
2095
2094
2093
2094
2095
2097
2098
2098
2097
2096
2095
2094
2094
2094
2094
2095
2097
2098
2099
2099
2099
2099
2101
2103
2104
2105
2104
2103
2102
2101
2101
2101
2100
2098
2097
2097
2096
2096
2097
2098
2100
2101
2099
2093
2083
2075
2077
2096
2136
2190
2249
2298
2321
2306
2252
2171
2087
2025
1998
2005
2031
2056
2074
2081
2083
2085
2086
2088
2089
2090
2092
2095
2096
2096
2095
2094
2094
2094
2096
2097
2097
2097
2098
2100
2101
2102
2102
2101
2102
2103
2105
2108
2111
2114
2116
2118
2122
2125
2128
2131
2134
2138
2143
2149
2155
2159
2161
2162
2161
2160
2159
2155
2149
2141
2131
2121
2110
2101
2093
2086
2079
2074
2069
2065
2062
2060
2059
2058
2058
2058
2058
2059
2059
2059
2058
2057
2056
2055
2055
2054
2055
2055
2055
2055
2054
2053
2052
2052
2052
2052
2053
2053
2053
2053
2053
2053
2054
2054
2053
2052
2051
2051
2050
2049
2049
2048
2048
2047
2047
2046
2046
2046
2046
2046
2047
2046
2045
2043
2042
2042
2042
2043
2044
2045
2044
2044
2042
2041
2040
2039
2040
2041
2042
2042
2042
2040
2039
2037
2037
2037
2038
2038
2038
2038
2038
2037
2035
2033
2031
2030
2032
2033
2035
2035
2035
2034
2034
2034
2035
2036
2036
2036
2035
2034
2033
2032
2031
2029
2027
2027
2027
2028
2029
2030
2031
2030
2025
2017
2008
2004
2012
2036
2075
2125
2179
2226
2249
2236
2185
2104
2021
1958
1931
1939
1965
1991
2007
2011
2012
2014
2016
2018
2019
2020
2020
2019
2019
2019
2019
2019
2019
2021
2023
2025
2026
2026
2024
2023
2023
2024
2026
2027
2028
2028
2029
2031
2032
2035
2038
2041
2044
2047
2049
2052
2055
2059
2063
2068
2071
2073
2075
2077
2079
2079
2078
2074
2069
2061
2053
2046
2038
2029
2021
2014
2008
2003
1999
1996
1994
1993
1993
1992
1991
1990
1988
1987
1987
1988
1989
1990
1990
1990
1989
1988
1988
1988
1988
1988
1988
1987
1988
1988
1988
1988
1988
1986
1985
1985
1985
1987
1988
1988
1988
1988
1988
1987
1987
1987
1986
1986
1987
1986
1986
1985
1984
1984
1984
1985
1985
1985
1985
1985
1984
1983
1982
1982
1982
1983
1984
1984
1983
1983
1982
1981
1981
1980
1979
1979
1980
1981
1982
1983
1982
1982
1981
1981
1981
1981
1980
1979
1978
1977
1977
1976
1976
1977
1978
1979
1981
1983
1984
1985
1986
1986
1985
1984
1983
1981
1980
1979
1977
1976
1975
1975
1976
1977
1977
1977
1978
1978
1976
1972
1965
1958
1958
1971
2002
2046
2100
2154
2192
2200
2167
2098
2012
1935
1889
1881
1900
1928
1951
1962
1965
1967
1968
1967
1966
1966
1966
1968
1970
1972
1974
1975
1975
1975
1974
1974
1975
1976
1977
1978
1979
1979
1980
1981
1982
1983
1985
1987
1989
1991
1994
1996
1999
2001
2004
2007
2010
2014
2018
2024
2028
2032
2034
2036
2037
2038
2038
2036
2032
2026
2019
2010
2002
1993
1984
1975
1968
1963
1959
1958
1957
1957
1956
1954
1952
1950
1949
1949
1949
1950
1951
1951
1951
1950
1950
1950
1950
1950
1951
1951
1952
1952
1952
1952
1951
1950
1950
1950
1951
1952
1954
1955
1955
1954
1953
1951
1950
1950
1951
1953
1953
1953
1953
1952
1951
1950
1949
1949
1950
1951
1952
1953
1953
1953
1953
1952
1952
1952
1952
1953
1953
1953
1952
1951
1949
1948
1948
1949
1951
1953
1955
1955
1954
1952
1950
1949
1949
1951
1952
1954
1955
1955
1954
1951
1949
1947
1946
1947
1949
1952
1954
1955
1956
1956
1956
1957
1957
1958
1958
1959
1959
1958
1956
1955
1953
1951
1951
1952
1953
1955
1955
1954
1954
1953
1952
1947
1940
1934
1935
1950
1982
2029
2083
2135
2170
2174
2138
2067
1983
1908
1866
1860
1880
1908
1929
1940
1944
1947
1949
1951
1952
1952
1953
1954
1954
1954
1955
1956
1957
1958
1959
1960
1960
1959
1959
1959
1960
1962
1964
1966
1967
1968
1969
1971
1972
1974
1976
1978
1982
1986
1991
1995
1999
2003
2007
2010
2014
2018
2021
2023
2025
2025
2024
2021
2016
2009
2002
1994
1986
1979
1971
1964
1957
1952
1947
1944
1941
1939
1939
1938
1938
1938
1937
1936
1935
1935
1936
1937
1938
1939
1939
1938
1937
1936
1935
1934
1934
1935
1936
1938
1940
1941
1941
1940
1938
1938
1937
1937
1938
1938
1937
1936
1935
1935
1936
1937
1939
1939
1939
1938
1937
1936
1934
1933
1931
1931
1932
1935
1938
1939
1939
1939
1939
1939
1939
1938
1936
1934
1933
1932
1933
1935
1937
1939
1940
1941
1940
1939
1938
1937
1938
1939
1939
1938
1937
1936
1937
1940
1943
1944
1943
1940
1937
1936
1937
1938
1940
1940
1939
1938
1938
1939
1940
1941
1941
1940
1938
1937
1936
1935
1935
1935
1935
1936
1937
1937
1937
1938
1939
1940
1936
1928
1917
1913
1925
1958
2009
2068
2122
2156
2155
2115
2044
1959
1885
1842
1836
1858
1888
1913
1925
1927
1927
1928
1929
1932
1935
1937
1939
1939
1940
1940
1940
1940
1941
1942
1943
1944
1945
1947
1949
1951
1952
1953
1952
1952
1953
1956
1959
1962
1964
1966
1968
1970
1972
1975
1979
1984
1990
1996
2003
2008
2012
2014
2015
2015
2015
2015
2014
2012
2006
1997
1986
1974
1963
1953
1946
1941
1938
1936
1934
1932
1930
1929
1927
1926
1925
1925
1925
1925
1927
1928
1928
1927
1925
1924
1924
1925
1927
1929
1930
1930
1931
1931
1931
1931
1931
1931
1932
1933
1935
1936
1937
1937
1936
1935
1935
1935
1936
1937
1938
1938
1938
1938
1938
1938
1938
1939
1940
1941
1941
1940
1939
1937
1935
1936
1938
1940
1943
1944
1945
1946
1945
1945
1944
1944
1943
1944
1945
1946
1947
1947
1947
1947
1948
1949
1948
1947
1945
1943
1942
1944
1947
1949
1951
1950
1948
1948
1949
1952
1955
1956
1956
1956
1955
1954
1954
1953
1953
1953
1953
1954
1953
1952
1952
1953
1956
1959
1959
1955
1946
1939
1943
1963
2002
2051
2107
2153
2176
2165
2116
2040
1958
1896
1868
1873
1898
1924
1942
1949
1952
1955
1957
1959
1960
1960
1961
1962
1963
1965
1967
1968
1969
1968
1967
1966
1966
1967
1970
1973
1977
1979
1979
1979
1979
1979
1982
1986
1991
1996
2000
2003
2006
2007
2010
2013
2017
2023
2029
2035
2040
2043
2046
2047
2047
2046
2044
2041
2036
2029
2021
2012
2002
1993
1984
1976
1971
1967
1966
1966
1966
1965
1962
1960
1959
1958
1957
1958
1959
1960
1961
1961
1962
1961
1961
1960
1959
1959
1959
1960
1961
1963
1964
1964
1963
1963
1962
1962
1963
1964
1964
1964
1963
1963
1962
1962
1962
1962
1963
1964
1966
1966
1966
1965
1963
1963
1963
1964
1966
1967
1966
1965
1964
1963
1962
1963
1964
1965
1965
1966
1966
1966
1965
1964
1962
1962
1962
1964
1965
1967
1968
1967
1965
1963
1961
1962
1964
1966
1966
1966
1965
1964
1964
1965
1964
1964
1965
1966
1968
1971
1972
1972
1971
1970
1969
1969
1970
1970
1970
1969
1968
1967
1967
1967
1967
1968
1969
1970
1969
1966
1959
1950
1946
1955
1981
2024
2076
2133
2178
2195
2172
2111
2026
1943
1887
1871
1887
1917
1943
1957
1960
1961
1961
1962
1964
1966
1967
1968
1969
1970
1970
1971
1972
1973
1974
1974
1975
1976
1978
1979
1980
1980
1980
1981
1982
1984
1987
1989
1991
1993
1996
1998
2002
2005
2008
2010
2014
2018
2023
2029
2035
2038
2040
2041
2041
2042
2042
2042
2039
2033
2025
2016
2007
1998
1990
1984
1978
1973
1969
1966
1964
1963
1962
1961
1960
1959
1958
1957
1958
1959
1960
1960
1960
1960
1961
1961
1961
1961
1962
1961
1961
1961
1961
1961
1961
1962
1963
1963
1962
1961
1960
1960
1961
1962
1963
1964
1965
1965
1965
1965
1965
1964
1964
1963
1962
1962
1962
1962
1962
1963
1962
1962
1962
1962
1963
1963
1964
1965
1965
1966
1965
1964
1963
1962
1962
1963
1964
1965
1965
1965
1966
1966
1966
1965
1964
1963
1963
1964
1966
1968
1969
1969
1967
1964
1962
1961
1962
1963
1966
1968
1969
1970
1970
1970
1971
1972
1973
1972
1972
1971
1970
1970
1969
1969
1968
1969
1969
1969
1968
1968
1968
1969
1970
1969
1964
1957
1949
1947
1957
1984
2027
2079
2135
2179
2195
2172
2111
2027
1946
1891
1874
1887
1913
1937
1952
1957
1961
1965
1967
1969
1969
1969
1969
1971
1972
1973
1974
1974
1975
1975
1976
1977
1977
1978
1978
1979
1980
1981
1982
1984
1986
1988
1989
1990
1992
1995
1998
2002
2005
2008
2011
2015
2020
2024
2027
2030
2033
2036
2040
2043
2045
2045
2043
2040
2034
2027
2019
2011
2002
1993
1985
1978
1973
1969
1967
1965
1963
1961
1959
1959
1959
1961
1962
1961
1960
1959
1958
1959
1961
1963
1964
1963
1962
1961
1961
1961
1962
1963
1964
1964
1964
1964
1963
1963
1963
1963
1964
1966
1967
1968
1969
1968
1968
1967
1966
1965
1965
1966
1966
1967
1968
1968
1969
1969
1970
1969
1968
1967
1967
1967
1969
1971
1972
1972
1971
1970
1969
1970
1970
1971
1972
1972
1971
1970
1970
1970
1971
1972
1973
1973
1974
1974
1974
1975
1975
1976
1976
1976
1975
1974
1973
1973
1973
1974
1975
1976
1976
1976
1978
1981
1983
1985
1986
1985
1983
1982
1982
1982
1981
1981
1981
1981
1982
1982
1981
1980
1979
1980
1983
1983
1980
1972
1964
1963
1978
2013
2062
2120
2172
2204
2202
2160
2086
2002
1930
1892
1890
1913
1942
1964
1974
1976
1978
1979
1981
1983
1985
1986
1987
1988
1989
1990
1992
1994
1995
1996
1996
1996
1996
1997
1998
1999
2000
2001
2003
2004
2005
2006
2008
2011
2014
2018
2021
2023
2025
2027
2031
2037
2043
2048
2052
2055
2057
2059
2061
2063
2065
2064
2061
2056
2050
2043
2034
2025
2016
2007
2000
1994
1991
1988
1987
1986
1985
1984
1982
1980
1979
1978
1978
1979
1981
1981
1982
1981
1981
1980
1981
1982
1982
1983
1982
1981
1981
1981
1983
1984
1985
1986
1986
1986
1986
1986
1986
1985
1983
1982
1982
1982
1983
1985
1987
1988
1988
1988
1987
1986
1986
1986
1986
1987
1986
1986
1986
1986
1986
1985
1985
1985
1986
1987
1987
1987
1987
1987
1987
1987
1988
1988
1988
1988
1989
1989
1988
1987
1986
1985
1985
1985
1986
1988
1990
1991
1992
1991
1990
1990
1992
1994
1997
1998
1998
1996
1994
1992
1991
1990
1989
1988
1989
1990
1991
1992
1992
1992
1990
1988
1983
1977
1971
1972
1988
2024
2074
2134
2188
2216
2206
2155
2074
1990
1923
1891
1893
1917
1944
1965
1975
1979
1982
1984
1987
1990
1992
1994
1996
1997
1999
2000
2001
2001
2000
2000
2000
2001
2002
2004
2006
2008
2010
2012
2014
2014
2015
2015
2016
2018
2020
2023
2026
2030
2034
2039
2044
2048
2052
2056
2060
2063
2066
2070
2073
2075
2075
2073
2068
2062
2054
2046
2037
2028
2019
2010
2002
1995
1989
1985
1983
1982
1982
1981
1980
1979
1979
1980
1980
1980
1979
1978
1978
1977
1978
1978
1979
1979
1979
1980
1980
1980
1981
1981
1982
1982
1982
1981
1980
1979
1980
1981
1983
1984
1983
1981
1980
1979
1980
1982
1984
1986
1986
1985
1984
1982
1981
1980
1980
1979
1980
1980
1980
1981
1981
1981
1981
1980
1979
1979
1979
1980
1981
1981
1980
1980
1979
1979
1979
1979
1979
1978
1978
1977
1979
1981
1984
1985
1984
1981
1979
1979
1983
1987
1990
1991
1990
1987
1983
1981
1980
1980
1981
1983
1984
1984
1983
1982
1982
1982
1983
1982
1978
1971
1964
1964
1981
2016
2064
2119
2168
2196
2191
2148
2075
1992
1924
1889
1889
1913
1941
1961
1970
1971
1973
1974
1977
1978
1979
1979
1980
1980
1981
1982
1983
1984
1985
1986
1987
1987
1988
1988
1989
1990
1990
1991
1991
1992
1994
1996
1999
2002
2005
2008
2011
2013
2016
2019
2022
2027
2032
2036
2040
2044
2046
2048
2049
2050
2050
2049
2047
2042
2035
2027
2017
2006
1997
1989
1984
1981
1978
1976
1973
1971
1969
1969
1969
1968
1966
1964
1963
1963
1965
1967
1968
1968
1967
1965
1964
1964
1965
1967
1967
1967
1968
1969
1970
1970
1969
1968
1967
1968
1970
1972
1972
1972
1971
1970
1970
1970
1970
1971
1970
1970
1970
1969
1970
1971
1972
1973
1974
1974
1974
1974
1974
1974
1974
1973
1972
1971
1970
1971
1971
1972
1972
1974
1975
1977
1977
1976
1975
1974
1974
1976
1977
1977
1976
1973
1971
1971
1973
1977
1980
1981
1981
1980
1978
1978
1978
1979
1980
1982
1984
1984
1982
1979
1976
1974
1975
1977
1978
1979
1979
1980
1981
1982
1979
1972
1962
1956
1961
1982
2022
2072
2129
2178
2204
2193
2143
2064
1980
1915
1887
1894
1920
1947
1964
1969
1970
1971
1972
1974
1976
1979
1981
1982
1981
1980
1979
1979
1980
1982
1984
1986
1987
1987
1987
1986
1985
1986
1988
1991
1993
1995
1995
1996
1998
2000
2003
2006
2009
2013
2017
2022
2028
2032
2036
2039
2042
2046
2048
2051
2052
2052
2050
2048
2041
2033
2024
2015
2007
1999
1992
1986
1981
1978
1976
1975
1973
1971
1969
1968
1968
1969
1970
1970
1970
1968
1967
1967
1967
1968
1970
1972
1973
1974
1974
1972
1971
1970
1970
1970
1971
1973
1974
1975
1975
1974
1973
1972
1972
1972
1973
1975
1976
1977
1977
1976
1975
1973
1971
1970
1971
1974
1977
1978
1978
1977
1974
1972
1972
1972
1973
1974
1973
1973
1971
1971
1971
1971
1971
1971
1971
1971
1971
1971
1971
1971
1971
1971
1970
1970
1970
1971
1972
1972
1972
1971
1970
1971
1972
1974
1975
1975
1975
1975
1975
1976
1977
1978
1978
1979
1979
1979
1978
1976
1973
1971
1970
1970
1972
1973
1975
1975
1977
1978
1977
1972
1964
1953
1945
1949
1970
2008
2058
2115
2166
2196
2191
2146
2069
1983
1912
1877
1878
1901
1928
1947
1955
1958
1961
1963
1964
1964
1964
1963
1964
1965
1967
1968
1969
1970
1970
1971
1971
1972
1972
1972
1973
1974
1976
1978
1981
1983
1984
1984
1983
1983
1985
1988
1993
1997
2001
2005
2008
2012
2016
2021
2025
2030
2033
2035
2037
2038
2039
2039
2037
2032
2024
2014
2004
1995
1987
1981
1976
1972
1968
1964
1959
1955
1953
1954
1956
1958
1959
1958
1957
1956
1954
1954
1955
1955
1956
1957
1958
1959
1958
1957
1956
1956
1956
1957
1959
1962
1963
1964
1963
1962
1961
1960
1960
1961
1962
1963
1964
1965
1965
1965
1964
1963
1963
1964
1965
1967
1968
1968
1966
1964
1963
1964
1966
1968
1969
1970
1969
1968
1968
1968
1968
1969
1970
1970
1971
1972
1974
1974
1974
1974
1973
1973
1973
1975
1976
1976
1977
1977
1978
1979
1980
1980
1980
1980
1979
1978
1976
1975
1975
1977
1980
1982
1984
1986
1987
1988
1989
1990
1990
1989
1987
1986
1986
1987
1989
1990
1991
1991
1991
1990
1988
1988
1988
1990
1992
1992
1989
1982
1974
1971
1980
2007
2050
2105
2162
2206
2222
2199
2138
2054
1973
1918
1900
1913
1942
1968
1984
1990
1992
1994
1996
1997
1999
2000
2001
2003
2005
2007
2008
2008
2009
2009
2010
2012
2013
2015
2017
2018
2018
2019
2019
2020
2022
2025
2028
2032
2035
2038
2041
2043
2045
2048
2052
2058
2065
2071
2076
2080
2083
2085
2087
2088
2089
2090
2089
2087
2081
2074
2064
2055
2047
2040
2034
2028
2023
2019
2017
2016
2015
2015
2014
2013
2012
2012
2012
2013
2013
2014
2014
2013
2012
2012
2013
2015
2017
2019
2019
2020
2020
2020
2019
2018
2018
2019
2021
2023
2025
2025
2023
2022
2021
2020
2021
2022
2024
2025
2025
2024
2023
2022
2021
2021
2021
2023
2024
2024
2024
2023
2022
2022
2022
2023
2023
2024
2024
2024
2023
2023
2022
2021
2022
2023
2024
2025
2024
2024
2025
2026
2026
2026
2025
2024
2024
2024
2026
2027
2027
2027
2026
2026
2027
2028
2029
2031
2032
2032
2032
2032
2032
2031
2030
2029
2027
2026
2026
2026
2027
2028
2028
2027
2027
2027
2028
2030
2028
2022
2013
2006
2009
2030
2070
2126
2187
2237
2256
2234
2173
2088
2005
1945
1922
1932
1959
1986
2005
2012
2015
2017
2020
2023
2025
2027
2027
2028
2029
2029
2031
2031
2032
2032
2032
2032
2033
2034
2036
2037
2039
2039
2040
2041
2042
2044
2047
2050
2053
2056
2057
2059
2061
2065
2070
2075
2080
2084
2088
2092
2096
2100
2103
2104
2104
2103
2101
2098
2093
2086
2076
2065
2053
2044
2036
2030
2025
2021
2018
2015
2013
2012
2011
2010
2010
2009
2010
2011
2011
2011
2010
2009
2008
2008
2008
2008
2009
2009
2010
2010
2010
2010
2009
2009
2009
2008
2008
2009
2009
2010
2010
2009
2009
2009
2009
2009
2010
2011
2011
2012
2012
2011
2010
2009
2008
2008
2007
2008
2008
2008
2008
2008
2008
2007
2006
2005
2005
2005
2007
2008
2009
2009
2008
2007
2006
2005
2005
2005
2006
2007
2007
2007
2006
2004
2003
2003
2004
2006
2006
2006
2005
2005
2006
2008
2010
2012
2012
2011
2010
2009
2008
2007
2006
2005
2004
2004
2004
2004
2003
2003
2003
2004
2003
1999
1991
1984
1983
1997
2029
2075
2131
2185
2221
2226
2191
2121
2036
1961
1916
1909
1928
1956
1978
1988
1990
1992
1993
1995
1997
2000
2002
2004
2004
2004
2004
2004
2004
2005
2006
2007
2008
2008
2007
2007
2007
2009
2012
2014
2017
2019
2019
2020
2020
2021
2022
2025
2029
2034
2039
2043
2046
2049
2052
2055
2059
2062
2065
2068
2070
2071
2070
2068
2064
2057
2048
2039
2029
2020
2012
2006
2001
1997
1992
1988
1985
1983
1982
1982
1983
1984
1985
1985
1985
1985
1984
1983
1982
1982
1982
1982
1983
1983
1984
1985
1985
1984
1983
1982
1982
1983
1984
1986
1986
1986
1984
1983
1983
1983
1983
1983
1983
1984
1985
1985
1986
1985
1984
1983
1983
1983
1984
1985
1984
1983
1982
1982
1982
1982
1982
1982
1982
1982
1983
1984
1984
1983
1982
1981
1980
1981
1982
1984
1984
1983
1982
1981
1980
1980
1979
1979
1980
1981
1981
1981
1981
1981
1981
1981
1983
1985
1986
1987
1987
1987
1987
1987
1987
1986
1985
1984
1984
1983
1983
1982
1981
1981
1982
1982
1980
1976
1968
1962
1963
1979
2012
2059
2115
2170
2205
2206
2166
2091
2004
1931
1892
1889
1911
1938
1958
1967
1971
1974
1975
1974
1973
1972
1974
1976
1979
1981
1982
1982
1981
1981
1982
1982
1983
1984
1985
1985
1987
1988
1989
1989
1990
1992
1994
1996
1998
2001
2002
2004
2006
2010
2014
2018
2023
2028
2032
2036
2039
2042
2044
2046
2047
2048
2048
2046
2043
2036
2028
2018
2008
1997
1988
1980
1974
1970
1968
1968
1967
1966
1965
1964
1963
1963
1963
1963
1963
1964
1964
1965
1965
1965
1964
1963
1963
1962
1963
1963
1964
1964
1965
1966
1967
1966
1965
1964
1964
1964
1965
1965
1966
1966
1966
1965
1965
1965
1965
1965
1966
1966
1966
1966
1966
1966
1966
1965
1965
1965
1965
1965
1966
1966
1965
1965
1965
1965
1966
1965
1965
1965
1965
1966
1967
1967
1966
1965
1965
1965
1966
1967
1966
1966
1966
1966
1967
1967
1966
1964
1963
1962
1962
1963
1964
1966
1966
1967
1968
1968
1970
1971
1972
1972
1972
1970
1969
1969
1969
1969
1967
1966
1964
1963
1963
1964
1965
1965
1966
1967
1966
1962
1954
1945
1943
1955
1985
2031
2086
2142
2184
2196
2169
2103
2017
1934
1881
1866
1883
1913
1939
1954
1958
1959
1959
1958
1958
1959
1961
1964
1967
1969
1969
1968
1967
1966
1966
1967
1968
1970
1972
1974
1976
1976
1976
1976
1976
1977
1980
1983
1987
1990
1993
1994
1996
1998
2001
2005
2010
2015
2019
2022
2025
2028
2030
2032
2034
2036
2037
2037
2035
2030
2021
2009
1998
1988
1980
1975
1970
1966
1962
1959
1957
1955
1954
1953
1953
1953
1954
1955
1955
1955
1954
1953
1952
1951
1951
1952
1953
1955
1955
1955
1954
1952
1952
1952
1953
1954
1955
1955
1956
1957
1958
1958
1957
1956
1956
1957
1959
1960
1960
1959
1959
1958
1959
1959
1960
1960
1961
1961
1961
1961
1962
1962
1962
1961
1959
1959
1960
1962
1964
1965
1965
1963
1962
1962
1963
1964
1965
1966
1967
1967
1966
1965
1963
1963
1964
1966
1968
1969
1969
1969
1968
1967
1966
1965
1965
1966
1966
1966
1967
1967
1967
1967
1968
1970
1971
1973
1973
1974
1975
1976
1978
1979
1979
1978
1978
1977
1977
1977
1976
1974
1973
1972
1972
1973
1975
1977
1980
1982
1981
1977
1969
1960
1956
1967
1997
2044
2100
2157
2199
2209
2179
2111
2025
1943
1892
1880
1899
1931
1958
1974
1978
1979
1979
1979
1981
1982
1983
1985
1986
1988
1989
1990
1990
1989
1989
1990
1992
1995
1998
2000
2000
2000
2000
2000
2002
2004
2007
2010
2013
2016
2017
2018
2020
2023
2027
2032
2038
2044
2048
2052
2055
2056
2057
2060
2062
2066
2068
2067
2063
2056
2048
2039
2029
2020
2011
2005
2000
1995
1991
1987
1983
1980
1978
1977
1978
1980
1981
1982
1982
1981
1980
1980
1981
1983
1984
1985
1984
1982
1981
1981
1982
1983
1984
1984
1983
1983
1983
1983
1984
1985
1985
1986
1985
1984
1985
1986
1987
1989
1990
1989
1987
1985
1984
1985
1987
1989
1991
1990
1989
1987
1986
1985
1985
1986
1986
1986
1987
1988
1989
1990
1990
1989
1988
1987
1986
1987
1989
1990
1989
1989
1989
1989
1989
1989
1989
1987
1986
1986
1988
1990
1993
1995
1996
1995
1995
1995
1997
1998
1999
1999
1999
1997
1996
1994
1992
1991
1991
1993
1996
1997
1997
1996
1995
1995
1996
1995
1991
1984
1977
1978
1994
2030
2080
2139
2191
2219
2209
2159
2080
1995
1928
1896
1899
1923
1950
1970
1979
1983
1987
1990
1993
1995
1996
1996
1997
1999
2002
2003
2005
2006
2005
2005
2004
2004
2005
2007
2009
2011
2013
2014
2016
2018
2021
2022
2023
2024
2025
2028
2031
2035
2040
2045
2049
2053
2058
2064
2069
2073
2076
2079
2081
2082
2082
2080
2076
2071
2063
2055
2047
2037
2028
2018
2010
2004
2001
1998
1997
1996
1996
1995
1994
1992
1991
1991
1991
1992
1992
1993
1993
1994
1995
1994
1994
1993
1993
1994
1996
1997
1998
1998
1998
1997
1997
1997
1998
1999
2002
2004
2005
2006
2005
2004
2003
2002
2002
2003
2005
2006
2008
2008
2008
2007
2006
2005
2005
2006
2006
2008
2008
2009
2008
2009
2010
2010
2011
2010
2010
2010
2011
2012
2012
2012
2011
2011
2012
2014
2014
2014
2013
2012
2011
2011
2012
2014
2016
2017
2019
2020
2022
2024
2023
2022
2020
2019
2019
2021
2022
2022
2021
2020
2019
2019
2019
2020
2021
2023
2025
2024
2019
2010
2002
2002
2017
2050
2099
2155
2209
2243
2245
2208
2136
2050
1976
1935
1930
1952
1981
2003
2015
2019
2022
2023
2024
2024
2023
2023
2025
2027
2029
2031
2032
2032
2031
2030
2030
2031
2033
2036
2038
2039
2038
2038
2038
2039
2042
2045
2048
2051
2053
2055
2056
2057
2059
2062
2066
2072
2077
2082
2086
2089
2092
2094
2096
2098
2098
2098
2095
2090
2083
2074
2065
2057
2049
2043
2035
2028
2023
2020
2018
2017
2017
2015
2014
2013
2013
2013
2012
2011
2010
2009
2009
2010
2010
2011
2011
2012
2012
2012
2012
2011
2011
2010
2011
2011
2011
2011
2011
2011
2012
2013
2014
2014
2014
2013
2012
2012
2013
2015
2015
2013
2010
2007
2006
2007
2009
2010
2010
2009
2007
2006
2006
2006
2007
2006
2005
2003
2003
2004
2005
2005
2004
2001
1999
1998
1999
2002
2004
2005
2004
2003
2002
2001
2000
1999
1999
2000
2001
2002
2002
2003
2003
2004
2005
2005
2003
2002
2001
2001
2002
2002
2001
1999
1997
1995
1995
1996
1996
1996
1995
1993
1988
1980
1971
1968
1978
2005
2048
2102
2158
2202
2219
2197
2137
2051
1967
1908
1887
1899
1927
1953
1969
1973
1974
1974
1975
1977
1980
1982
1984
1984
1983
1982
1982
1982
1984
1985
1986
1987
1987
1988
1989
1989
1989
1989
1991
1993
1995
1998
2000
2001
2001
2002
2003
2006
2009
2014
2019
2024
2030
2034
2038
2041
2043
2045
2048
2050
2052
2053
2051
2048
2041
2032
2023
2014
2005
1997
1989
1983
1977
1974
1972
1971
1969
1968
1967
1966
1966
1968
1969
1969
1969
1968
1967
1967
1968
1969
1970
1971
1971
1970
1969
1968
1967
1966
1965
1965
1966
1967
1968
1968
1968
1967
1966
1966
1967
1970
1972
1974
1974
1973
1972
1971
1970
1971
1971
1970
1970
1971
1971
1972
1973
1973
1973
1973
1974
1975
1976
1975
1975
1975
1975
1976
1977
1976
1975
1974
1974
1975
1976
1977
1977
1977
1977
1978
1979
1980
1980
1980
1978
1978
1979
1981
1984
1987
1989
1988
1987
1985
1984
1984
1984
1984
1983
1982
1981
1981
1982
1984
1986
1987
1985
1980
1971
1963
1964
1980
2016
2066
2125
2181
2216
2214
2170
2092
2003
1930
1892
1892
1916
1945
1965
1973
1975
1976
1978
1981
1983
1984
1985
1986
1987
1988
1988
1987
1986
1986
1988
1991
1994
1996
1998
1998
1997
1997
1998
1999
2001
2003
2005
2006
2008
2010
2012
2015
2018
2022
2025
2030
2034
2039
2043
2047
2050
2053
2057
2060
2063
2063
2062
2058
2053
2047
2039
2031
2022
2013
2004
1997
1991
1987
1983
1981
1979
1978
1977
1977
1977
1978
1978
1979
1978
1978
1978
1978
1978
1978
1979
1979
1979
1979
1979
1979
1979
1979
1979
1980
1980
1980
1980
1980
1979
1978
1978
1978
1979
1981
1982
1982
1982
1982
1981
1981
1980
1980
1979
1978
1978
1978
1978
1978
1977
1976
1975
1976
1977
1977
1977
1977
1976
1976
1976
1975
1974
1974
1974
1975
1976
1977
1976
1975
1973
1972
1972
1973
1975
1976
1977
1977
1977
1977
1978
1978
1977
1976
1974
1973
1974
1975
1976
1976
1976
1975
1975
1975
1975
1977
1979
1981
1980
1976
1968
1958
1952
1959
1984
2028
2083
2143
2190
2207
2183
2119
2033
1949
1893
1876
1890
1918
1943
1958
1963
1965
1967
1969
1971
1973
1976
1978
1979
1980
1981
1981
1980
1981
1982
1983
1984
1986
1987
1988
1989
1991
1993
1993
1993
1994
1994
1996
1999
2002
2005
2008
2010
2011
2014
2018
2023
2028
2033
2036
2038
2040
2041
2043
2045
2046
2047
2046
2043
2036
2026
2016
2005
1997
1990
1984
1979
1974
1969
1965
1962
1959
1957
1956
1956
1956
1957
1957
1957
1956
1956
1956
1957
1958
1959
1959
1960
1960
1960
1960
1960
1960
1960
1960
1960
1959
1959
1960
1961
1963
1964
1965
1966
1966
1967
1968
1968
1969
1969
1968
1968
1968
1967
1967
1968
1968
1969
1968
1966
1964
1963
1964
1964
1964
1963
1962
1964
1968
1974
1978
1980
1978
1974
1971
1968
1968
1969
1972
1974
1975
1974
1974
1974
1974
1975
1976
1977
1977
1976
1975
1973
1971
1968
1966
1965
1966
1967
1968
1967
1967
1967
1968
1968
1963
1955
1947
1945
1958
1991
2042
2101
2157
2192
2189
2145
2067
1980
1907
1867
1865
1887
1916
1939
1951
1955
1959
1962
1966
1969
1971
1974
1976
1978
1979
1980
1982
1983
1985
1987
1989
1990
1989
1989
1989
1991
1993
1996
2000
2002
2005
2007
2009
2011
2014
2017
2020
2023
2027
2032
2036
2041
2045
2048
2052
2056
2060
2063
2066
2067
2066
2063
2059
2053
2046
2037
2026
2016
2008
2000
1994
1988
1982
1978
1975
1973
1972
1971
1970
1969
1968
1968
1968
1968
1968
1968
1968
1968
1969
1969
1968
1968
1967
1966
1966
1966
1967
1968
1969
1969
1970
1969
1969
1969
1969
1970
1971
1972
1973
1973
1972
1972
1971
1971
1972
1972
1972
1972
1973
1974
1974
1974
1973
1972
1971
1971
1972
1974
1976
1976
1976
1974
1972
1970
1969
1969
1969
1970
1971
1973
1973
1973
1973
1973
1973
1975
1976
1977
1978
1977
1977
1976
1976
1975
1975
1974
1973
1973
1973
1973
1974
1975
1977
1977
1974
1967
1959
1956
1964
1989
2031
2084
2142
2186
2201
2177
2115
2032
1953
1900
1882
1892
1916
1938
1953
1959
1963
1967
1971
1974
1977
1979
1982
1983
1984
1984
1984
1984
1984
1985
1987
1988
1989
1989
1990
1991
1992
1994
1996
1999
2001
2003
2003
2005
2006
2009
2012
2016
2020
2024
2028
2032
2036
2040
2043
2047
2050
2053
2056
2059
2059
2059
2056
2052
2046
2039
2031
2022
2013
2005
1997
1990
1983
1978
1974
1972
1971
1971
1972
1972
1972
1971
1971
1971
1972
1974
1975
1976
1976
1976
1975
1974
1974
1974
1973
1974
1974
1975
1976
1976
1976
1975
1975
1974
1975
1976
1977
1978
1980
1980
1981
1981
1980
1980
1980
1981
1981
1982
1982
1982
1982
1981
1981
1981
1981
1981
1981
1982
1982
1982
1983
1982
1982
1981
1981
1981
1982
1983
1985
1986
1986
1986
1985
1985
1986
1986
1987
1988
1988
1987
1986
1985
1985
1986
1986
1987
1987
1987
1987
1987
1988
1989
1989
1987
1982
1973
1967
1968
1985
2020
2068
2125
2178
2210
2209
2169
2097
2013
1943
1904
1901
1921
1947
1966
1975
1978
1981
1985
1988
1991
1992
1992
1992
1992
1993
1994
1995
1997
1998
1999
1999
2000
2000
2001
2002
2003
2005
2007
2008
2010
2012
2013
2014
2016
2017
2019
2022
2026
2030
2034
2038
2043
2047
2051
2055
2058
2061
2064
2066
2067
2067
2065
2060
2054
2048
2040
2032
2023
2013
2005
1997
1992
1988
1985
1983
1980
1979
1978
1978
1979
1979
1979
1978
1977
1976
1975
1976
1976
1977
1977
1977
1977
1976
1976
1975
1974
1974
1974
1975
1975
1974
1973
1973
1972
1972
1972
1972
1972
1973
1973
1973
1973
1972
1972
1971
1971
1972
1973
1973
1974
1974
1973
1972
1971
1970
1969
1970
1970
1971
1972
1972
1972
1970
1969
1967
1966
1966
1967
1969
1971
1972
1972
1972
1972
1973
1975
1976
1977
1977
1976
1976
1975
1973
1972
1970
1970
1970
1971
1972
1973
1973
1973
1974
1974
1971
1964
1955
1949
1954
1975
2015
2067
2124
2172
2195
2181
2128
2049
1967
1906
1879
1884
1906
1931
1947
1954
1957
1961
1963
1965
1966
1966
1967
1968
1969
1970
1971
1972
1973
1974
1975
1975
1975
1976
1976
1978
1979
1981
1982
1983
1984
1985
1986
1987
1989
1993
1997
2001
2005
2009
2012
2015
2018
2022
2025
2029
2033
2036
2039
2041
2042
2042
2040
2036
2030
2023
2014
2005
1996
1988
1981
1975
1969
1965
1961
1959
1958
1957
1958
1958
1958
1957
1957
1956
1956
1956
1957
1958
1959
1960
1960
1960
1959
1959
1958
1959
1960
1961
1961
1960
1959
1958
1958
1958
1959
1960
1961
1962
1962
1962
1962
1961
1960
1960
1959
1960
1960
1961
1961
1962
1962
1961
1961
1960
1960
1960
1961
1962
1962
1963
1963
1963
1963
1964
1964
1964
1964
1964
1963
1962
1961
1961
1961
1962
1963
1965
1965
1966
1967
1968
1969
1971
1971
1971
1971
1970
1970
1970
1969
1968
1966
1965
1964
1964
1965
1966
1968
1969
1971
1970
1965
1956
1946
1942
1951
1981
2028
2086
2144
2185
2193
2160
2091
2005
1926
1878
1866
1883
1910
1933
1947
1952
1955
1957
1958
1959
1960
1961
1962
1964
1965
1966
1966
1967
1967
1968
1968
1969
1969
1970
1970
1970
1970
1971
1971
1972
1973
1974
1976
1978
1981
1983
1986
1989
1992
1996
2001
2006
2011
2016
2020
2023
2026
2029
2031
2032
2033
2034
2032
2029
2022
2014
2004
1993
1983
1974
1967
1962
1958
1955
1953
1951
1949
1948
1948
1948
1949
1949
1949
1948
1947
1947
1947
1947
1947
1947
1948
1948
1949
1949
1949
1949
1948
1948
1949
1951
1952
1953
1953
1952
1951
1951
1951
1952
1953
1954
1954
1955
1955
1955
1955
1955
1955
1955
1956
1956
1956
1957
1957
1958
1958
1957
1957
1956
1956
1957
1958
1959
1960
1960
1959
1958
1958
1957
1957
1957
1958
1960
1961
1963
1963
1963
1963
1963
1964
1966
1967
1967
1967
1967
1967
1966
1964
1963
1962
1961
1962
1963
1964
1965
1966
1967
1966
1961
1953
1944
1942
1954
1985
2035
2093
2151
2189
2192
2154
2080
1993
1917
1872
1864
1882
1909
1932
1944
1950
1954
1958
1961
1965
1967
1969
1970
1970
1970
1971
1971
1972
1974
1975
1977
1978
1978
1978
1979
1980
1981
1983
1986
1988
1991
1992
1994
1995
1996
1998
2001
2005
2011
2016
2021
2025
2029
2033
2037
2040
2044
2047
2049
2051
2053
2052
2049
2044
2037
2028
2018
2008
1999
1990
1983
1977
1972
1968
1965
1963
1962
1962
1961
1961
1961
1961
1961
1961
1961
1960
1960
1961
1961
1962
1963
1964
1964
1964
1964
1964
1964
1964
1964
1964
1965
1965
1966
1966
1965
1966
1967
1967
1968
1969
1969
1970
1970
1970
1969
1968
1967
1967
1968
1969
1970
1970
1970
1969
1968
1968
1969
1970
1970
1971
1971
1971
1971
1971
1971
1971
1971
1972
1974
1975
1977
1977
1976
1975
1974
1975
1977
1978
1980
1980
1980
1979
1979
1978
1977
1977
1976
1975
1975
1977
1978
1979
1981
1982
1981
1977
1969
1961
1959
1969
1998
2043
2098
2153
2193
2202
2172
2106
2021
1943
1893
1879
1894
1921
1945
1960
1967
1971
1976
1980
1983
1985
1986
1987
1988
1990
1991
1992
1993
1995
1996
1997
1998
1998
1999
2000
2001
2002
2003
2005
2008
2010
2012
2013
2015
2017
2020
2023
2028
2032
2036
2041
2045
2049
2053
2057
2061
2065
2068
2072
2075
2076
2075
2072
2066
2059
2050
2041
2032
2022
2013
2006
2000
1995
1990
1987
1985
1984
1983
1984
1984
1984
1984
1983
1982
1983
1983
1985
1986
1986
1986
1985
1984
1984
1984
1985
1986
1987
1989
1990
1991
1992
1991
1990
1989
1989
1989
1990
1991
1992
1993
1993
1993
1992
1992
1992
1993
1993
1994
1993
1993
1993
1993
1994
1995
1996
1995
1995
1995
1995
1996
1996
1996
1996
1996
1995
1994
1994
1994
1995
1996
1997
1997
1997
1996
1996
1997
1999
2002
2003
2003
2002
2001
2000
1999
1998
1998
1997
1996
1996
1997
1998
1998
1998
1999
2000
1999
1995
1987
1979
1977
1988
2017
2061
2116
2170
2209
2219
2191
2126
2043
1965
1915
1901
1915
1941
1965
1979
1985
1989
1992
1994
1996
1998
1999
2000
2001
2002
2004
2005
2007
2008
2008
2009
2009
2010
2012
2013
2015
2017
2018
2019
2020
2021
2022
2023
2025
2028
2031
2035
2039
2042
2046
2048
2052
2056
2061
2066
2070
2073
2075
2078
2080
2081
2080
2077
2072
2065
2056
2048
2038
2029
2020
2013
2007
2002
1998
1995
1994
1993
1993
1993
1993
1992
1991
1991
1990
1991
1991
1992
1992
1992
1992
1992
1992
1992
1993
1993
1994
1995
1996
1996
1996
1996
1996
1996
1996
1997
1997
1998
1998
1998
1998
1998
1997
1997
1998
1998
1999
2000
2001
2001
2001
2000
1999
1998
1998
1998
1999
1999
2000
2000
2000
2000
2000
2000
2000
2000
2000
2000
2000
2001
2001
2000
2000
1999
2000
2001
2002
2004
2004
2003
2002
2000
1998
1997
1998
2001
2003
2005
2006
2007
2007
2007
2007
2007
2007
2008
2008
2008
2007
2006
2005
2004
2003
2003
2003
2004
2004
2004
2005
2006
2005
2000
1991
1984
1985
2003
2038
2085
2141
2192
2224
2225
2187
2115
2032
1960
1919
1914
1933
1960
1980
1990
1993
1995
1998
2000
2002
2004
2006
2007
2008
2008
2008
2009
2009
2011
2012
2013
2014
2015
2015
2016
2016
2017
2018
2020
2022
2024
2027
2029
2030
2032
2034
2036
2039
2042
2046
2049
2054
2059
2063
2067
2071
2073
2076
2078
2080
2081
2081
2079
2075
2067
2058
2048
2039
2030
2022
2016
2011
2006
2003
2000
1997
1996
1995
1994
1994
1994
1994
1993
1993
1994
1993
1993
1993
1992
1992
1993
1993
1994
1994
1993
1993
1992
1992
1992
1992
1992
1993
1993
1993
1992
1992
1991
1991
1991
1992
1993
1993
1994
1994
1993
1992
1991
1991
1991
1992
1992
1992
1991
1991
1990
1990
1990
1990
1990
1991
1991
1992
1992
1992
1992
1991
1991
1990
1990
1991
1991
1992
1992
1992
1992
1991
1991
1990
1990
1990
1991
1992
1993
1993
1992
1991
1991
1990
1991
1991
1992
1992
1992
1992
1991
1991
1991
1991
1991
1992
1993
1993
1993
1991
1990
1989
1988
1988
1989
1990
1992
1993
1993
1993
1993
1993
1994
1996
1997
1997
1997
1996
1995
1994
1992
1991
1989
1989
1990
1990
1991
1991
1992
1993
1992
1988
1980
1972
1968
1975
1999
2039
2087
2140
2186
2210
2202
2156
2080
1999
1935
1904
1907
1929
1953
1968
1973
1975
1977
1979
1981
1982
1983
1984
1984
1985
1985
1985
1986
1987
1989
1990
1990
1990
1990
1990
1990
1991
1993
1994
1996
1998
1999
2001
2003
2004
2005
2006
2009
2012
2017
2021
2025
2029
2033
2036
2040
2045
2048
2051
2054
2056
2056
2056
2053
2049
2044
2036
2028
2019
2011
2003
1996
1990
1985
1981
1977
1975
1974
1973
1973
1972
1972
1971
1971
1971
1970
1971
1971
1972
1972
1973
1973
1972
1972
1971
1971
1971
1971
1972
1973
1974
1974
1974
1973
1973
1973
1972
1973
1973
1973
1974
1973
1973
1973
1972
1973
1973
1974
1974
1974
1974
1973
1973
1972
1972
1972
1972
1972
1972
1972
1972
1972
1971
1971
1971
1971
1971
1972
1972
1973
1973
1973
1973
1973
1973
1974
1974
1975
1976
1976
1976
1976
1975
1974
1974
1974
1975
1975
1975
1975
1975
1975
1975
1975
1975
1975
1974
1974
1974
1974
1975
1975
1975
1975
1975
1975
1974
1974
1975
1975
1976
1975
1975
1974
1973
1973
1974
1975
1977
1978
1979
1980
1979
1979
1980
1981
1982
1982
1981
1981
1980
1979
1978
1977
1975
1975
1975
1975
1976
1977
1977
1978
1979
1977
1972
1963
1956
1956
1971
2002
2047
2100
2153
2192
2204
2177
2114
2032
1954
1904
1890
1904
1928
1948
1958
1961
1963
1965
1968
1970
1971
1972
1972
1973
1973
1973
1974
1974
1976
1977
1978
1978
1979
1979
1980
1981
1982
1983
1984
1985
1987
1988
1989
1991
1992
1994
1997
2000
2003
2007
2011
2015
2019
2024
2027
2031
2035
2038
2042
2045
2047
2048
2047
2044
2038
2031
2023
2014
2005
1997
1990
1984
1978
1972
1968
1964
1962
1961
1961
1961
1961
1960
1960
1959
1959
1959
1959
1959
1959
1960
1961
1961
1961
1961
1961
1960
1960
1959
1959
1960
1960
1961
1961
1961
1960
1960
1960
1960
1961
1961
1962
1962
1962
1962
1961
1961
1961
1961
1961
1961
1961
1961
1961
1961
1961
1962
1961
1961
1961
1961
1961
1961
1962
1962
1962
1961
1961
1961
1962
1962
1962
1962
1962
1962
1962
1962
1962
1962
1963
1963
1964
1963
1963
1963
1962
1962
1961
1961
1962
1962
1962
1963
1963
1963
1962
1962
1962
1962
1962
1963
1964
1964
1964
1963
1962
1961
1960
1960
1961
1962
1961
1961
1960
1959
1959
1961
1962
1963
1964
1964
1965
1965
1966
1966
1966
1966
1966
1965
1965
1964
1963
1962
1961
1961
1961
1961
1961
1962
1964
1965
1964
1960
1952
1943
1940
1950
1977
2022
2075
2132
2176
2192
2170
2110
2028
1948
1894
1875
1886
1911
1933
1946
1950
1952
1954
1955
1957
1958
1960
1962
1965
1967
1968
1968
1968
1969
1970
1971
1972
1973
1974
1975
1975
1976
1977
1978
1979
1980
1982
1984
1986
1987
1989
1992
1994
1997
2000
2004
2008
2012
2018
2022
2027
2030
2032
2034
2036
2038
2039
2040
2039
2035
2029
2021
2011
2001
1992
1983
1976
1971
1966
1962
1958
1955
1952
1951
1950
1950
1950
1950
1950
1949
1949
1949
1949
1949
1948
1948
1948
1949
1950
1950
1950
1949
1949
1948
1948
1949
1950
1951
1951
1952
1952
1951
1951
1951
1951
1951
1952
1952
1952
1952
1952
1952
1952
1952
1952
1953
1954
1955
1955
1954
1953
1951
1950
1950
1950
1951
1952
1953
1954
1954
1953
1953
1952
1952
1952
1952
1953
1953
1954
1954
1954
1954
1954
1953
1953
1953
1953
1954
1954
1955
1956
1957
1957
1957
1957
1957
1957
1959
1960
1961
1961
1960
1958
1957
1956
1955
1954
1954
1953
1953
1953
1953
1953
1954
1955
1957
1957
1953
1945
1935
1931
1940
1967
2013
2070
2129
2173
2185
2155
2088
2002
1922
1871
1857
1871
1897
1920
1934
1939
1943
1946
1949
1951
1953
1954
1955
1957
1958
1959
1960
1961
1961
1962
1963
1964
1965
1967
1968
1969
1969
1970
1971
1972
1974
1976
1978
1981
1983
1986
1989
1991
1994
1997
2001
2005
2010
2016
2021
2026
2031
2035
2038
2040
2041
2041
2040
2037
2032
2025
2016
2005
1994
1984
1975
1968
1963
1960
1957
1955
1954
1952
1951
1950
1950
1950
1950
1950
1950
1950
1951
1951
1952
1952
1953
1953
1953
1954
1955
1956
1956
1956
1955
1955
1956
1956
1957
1958
1959
1959
1959
1959
1959
1959
1960
1960
1961
1961
1962
1963
1963
1963
1963
1963
1963
1963
1963
1963
1964
1964
1965
1965
1965
1964
1964
1964
1965
1965
1966
1967
1967
1967
1967
1967
1967
1967
1967
1968
1969
1970
1970
1970
1970
1970
1969
1968
1968
1968
1968
1970
1971
1972
1973
1974
1974
1974
1974
1976
1977
1979
1979
1979
1978
1977
1976
1976
1975
1975
1975
1975
1976
1975
1975
1976
1977
1977
1973
1966
1957
1954
1963
1988
2030
2082
2138
2183
2203
2187
2132
2052
1972
1915
1891
1899
1922
1945
1959
1965
1968
1971
1974
1976
1977
1977
1977
1978
1980
1981
1983
1984
1985
1986
1986
1987
1987
1988
1989
1991
1992
1993
1994
1995
1996
1998
1999
2002
2004
2007
2011
2014
2017
2020
2023
2027
2031
2036
2041
2046
2050
2054
2058
2061
2062
2063
2062
2059
2054
2048
2040
2030
2020
2011
2003
1996
1990
1985
1981
1979
1978
1977
1977
1977
1976
1975
1975
1975
1975
1975
1976
1976
1976
1976
1976
1976
1976
1976
1977
1977
1978
1978
1978
1978
1978
1978
1979
1979
1979
1979
1980
1981
1981
1981
1981
1980
1980
1980
1980
1981
1981
1982
1983
1983
1983
1982
1982
1982
1983
1983
1984
1984
1984
1984
1983
1983
1983
1983
1984
1984
1985
1985
1985
1985
1985
1985
1985
1985
1986
1986
1986
1985
1984
1983
1983
1984
1985
1986
1987
1988
1989
1990
1991
1992
1992
1992
1991
1991
1991
1991
1990
1989
1988
1987
1986
1986
1986
1986
1987
1989
1991
1990
1986
1978
1968
1964
1974
2000
2044
2097
2154
2199
2217
2196
2137
2054
1974
1919
1900
1911
1936
1959
1971
1975
1977
1979
1981
1982
1984
1985
1986
1987
1988
1989
1989
1990
1991
1991
1992
1992
1994
1995
1996
1997
1998
1998
1998
1999
2000
2002
2004
2007
2009
2011
2013
2015
2018
2022
2026
2031
2036
2041
2045
2048
2052
2055
2058
2060
2061
2062
2061
2058
2053
2047
2038
2028
2018
2008
2000
1993
1987
1983
1980
1978
1977
1975
1974
1974
1973
1974
1974
1974
1974
1973
1973
1973
1973
1973
1973
1974
1974
1975
1975
1974
1974
1973
1973
1973
1973
1974
1975
1975
1975
1976
1975
1975
1975
1975
1975
1976
1976
1977
1977
1977
1976
1976
1975
1976
1977
1978
1979
1980
1980
1979
1979
1978
1978
1978
1979
1980
1980
1980
1980
1979
1979
1979
1979
1979
1980
1980
1981
1981
1981
1981
1980
1980
1979
1979
1979
1979
1981
1982
1983
1983
1983
1983
1984
1985
1986
1987
1988
1988
1987
1986
1985
1984
1982
1981
1980
1980
1981
1982
1982
1982
1983
1983
1983
1980
1974
1965
1959
1964
1984
2022
2072
2128
2179
2208
2202
2155
2078
1994
1927
1895
1897
1919
1944
1961
1968
1971
1974
1976
1978
1979
1980
1981
1981
1982
1983
1985
1986
1987
1987
1988
1987
1987
1988
1989
1990
1991
1993
1994
1996
1997
1998
1999
2001
2002
2005
2007
2010
2014
2018
2022
2025
2029
2033
2037
2042
2047
2050
2053
2056
2057
2058
2057
2054
2050
2044
2036
2027
2017
2008
1999
1990
1983
1978
1975
1972
1971
1970
1969
1968
1967
1967
1966
1966
1966
1966
1967
1967
1967
1967
1966
1966
1966
1966
1967
1967
1968
1968
1969
1969
1968
1968
1967
1967
1967
1968
1968
1969
1969
1970
1970
1969
1969
1968
1968
1969
1969
1970
1970
1971
1971
1971
1970
1970
1970
1971
1971
1971
1971
1971
1971
1971
1971
1970
1970
1971
1971
1972
1973
1973
1973
1973
1973
1973
1973
1973
1973
1973
1973
1972
1972
1972
1973
1974
1975
1976
1976
1977
1978
1979
1980
1980
1980
1979
1979
1978
1977
1977
1976
1975
1975
1975
1974
1974
1975
1976
1978
1979
1976
1969
1960
1954
1959
1982
2025
2079
2139
2187
2207
2188
2129
2045
1961
1902
1880
1889
1915
1940
1955
1962
1965
1968
1970
1973
1974
1976
1977
1979
1980
1982
1982
1983
1983
1984
1984
1985
1986
1986
1987
1987
1989
1991
1993
1994
1996
1997
1999
2001
2004
2007
2010
2013
2017
2020
2024
2029
2033
2038
2043
2047
2050
2054
2056
2058
2059
2059
2058
2056
2051
2045
2035
2025
2014
2003
1994
1987
1982
1978
1975
1973
1971
1969
1967
1966
1965
1964
1964
1965
1965
1966
1966
1965
1965
1965
1965
1965
1965
1965
1965
1966
1966
1966
1966
1965
1965
1966
1967
1968
1969
1969
1969
1969
1969
1969
1969
1969
1969
1970
1970
1970
1971
1970
1970
1970
1970
1970
1971
1971
1972
1972
1972
1972
1971
1971
1970
1971
1971
1972
1973
1973
1973
1972
1972
1972
1973
1973
1973
1974
1974
1974
1973
1972
1971
1972
1973
1974
1976
1978
1979
1980
1981
1981
1981
1982
1982
1982
1981
1981
1981
1980
1980
1979
1978
1977
1977
1978
1978
1979
1981
1983
1981
1976
1967
1958
1955
1968
1999
2046
2102
2158
2197
2204
2172
2103
2020
1945
1900
1891
1908
1934
1955
1965
1969
1971
1973
1975
1978
1979
1981
1982
1983
1984
1984
1985
1985
1986
1987
1989
1991
1993
1994
1995
1995
1995
1996
1998
1999
2001
2003
2005
2007
2008
2010
2012
2016
2019
2024
2028
2032
2037
2041
2045
2048
2052
2056
2059
2061
2063
2063
2061
2057
2050
2042
2032
2022
2013
2006
1999
1993
1987
1983
1980
1978
1976
1975
1974
1974
1974
1974
1975
1975
1975
1975
1974
1974
1974
1975
1975
1976
1976
1975
1975
1975
1975
1976
1976
1977
1977
1977
1977
1977
1977
1976
1976
1976
1977
1977
1977
1977
1976
1976
1976
1977
1977
1977
1977
1977
1978
1978
1978
1978
1978
1977
1977
1977
1977
1978
1979
1980
1980
1980
1979
1978
1978
1978
1978
1979
1980
1980
1980
1980
1980
1979
1979
1979
1979
1978
1978
1979
1980
1982
1982
1983
1983
1984
1985
1987
1989
1991
1991
1990
1989
1987
1986
1985
1984
1984
1984
1985
1985
1985
1985
1985
1986
1987
1987
1982
1974
1966
1963
1974
2002
2046
2100
2155
2198
2211
2186
2123
2040
1961
1910
1895
1909
1935
1957
1970
1975
1978
1980
1982
1983
1983
1984
1985
1986
1988
1989
1990
1991
1992
1992
1993
1993
1994
1994
1995
1996
1997
1998
1999
1999
2000
2002
2004
2006
2009
2011
2014
2016
2019
2022
2025
2029
2034
2039
2043
2048
2051
2054
2057
2059
2060
2059
2058
2054
2049
2043
2034
2024
2015
2006
1998
1991
1986
1982
1979
1978
1976
1975
1974
1973
1972
1972
1972
1972
1972
1972
1972
1972
1972
1973
1973
1973
1972
1972
1972
1972
1972
1972
1972
1972
1972
1972
1972
1972
1972
1972
1972
1973
1972
1972
1971
1971
1971
1970
1970
1971
1971
1971
1970
1970
1969
1969
1969
1969
1970
1970
1970
1970
1969
1969
1968
1967
1967
1968
1968
1968
1968
1969
1968
1968
1968
1968
1968
1967
1967
1968
1968
1968
1968
1968
1967
1966
1966
1965
1965
1965
1965
1966
1967
1967
1968
1968
1969
1969
1971
1972
1973
1974
1973
1972
1970
1969
1968
1966
1966
1965
1965
1965
1966
1965
1966
1966
1968
1968
1965
1958
1950
1944
1949
1970
2008
2057
2112
2160
2186
2177
2129
2052
1970
1907
1878
1882
1905
1929
1946
1953
1956
1958
1960
1961
1961
1961
1962
1962
1964
1965
1967
1968
1969
1969
1970
1970
1970
1971
1972
1973
1974
1975
1976
1976
1977
1978
1980
1981
1984
1986
1989
1992
1996
1999
2002
2005
2009
2014
2019
2025
2029
2033
2036
2039
2040
2041
2040
2038
2034
2028
2020
2010
2001
1991
1982
1975
1969
1964
1961
1959
1958
1956
1955
1954
1953
1952
1952
1953
1953
1953
1954
1954
1953
1953
1953
1953
1953
1953
1954
1955
1955
1956
1956
1956
1956
1955
1955
1955
1956
1957
1958
1958
1958
1958
1957
1957
1958
1958
1958
1959
1959
1959
1959
1959
1958
1959
1959
1959
1960
1961
1961
1962
1962
1961
1960
1960
1961
1961
1963
1964
1964
1964
1964
1963
1963
1963
1963
1964
1964
1965
1965
1966
1966
1966
1966
1965
1965
1964
1964
1964
1963
1964
1964
1965
1966
1967
1968
1969
1970
1971
1973
1974
1974
1973
1972
1971
1970
1969
1968
1968
1968
1968
1968
1968
1967
1968
1969
1971
1971
1968
1960
1951
1947
1955
1979
2020
2072
2128
2173
2193
2174
2118
2038
1957
1901
1881
1892
1917
1941
1955
1961
1963
1966
1967
1969
1970
1971
1972
1974
1975
1977
1977
1978
1978
1978
1979
1980
1981
1982
1984
1985
1986
1988
1988
1989
1990
1991
1992
1995
1997
1999
2002
2004
2007
2011
2015
2019
2024
2029
2034
2038
2041
2045
2047
2048
2050
2051
2051
2049
2045
2038
2029
2020
2010
2001
1993
1986
1980
1975
1972
1970
1969
1968
1966
1965
1964
1964
1964
1965
1966
1966
1966
1965
1965
1964
1964
1964
1965
1966
1967
1968
1968
1968
1967
1967
1967
1967
1967
1968
1969
1969
1970
1970
1970
1969
1969
1969
1970
1970
1971
1971
1971
1971
1971
1970
1970
1970
1971
1971
1972
1972
1972
1971
1971
1970
1970
1970
1971
1971
1971
1971
1972
1971
1971
1971
1972
1972
1973
1973
1973
1974
1974
1974
1973
1972
1971
1970
1970
1971
1972
1974
1975
1977
1977
1977
1977
1978
1979
1980
1981
1982
1982
1981
1979
1978
1976
1975
1975
1976
1977
1977
1978
1978
1979
1980
1980
1977
1969
1961
1956
1963
1988
2031
2085
2142
2188
2204
2182
2121
2039
1957
1902
1882
1892
1917
1941
1956
1962
1965
1969
1972
1975
1977
1978
1979
1979
1980
1981
1982
1984
1985
1986
1987
1987
1988
1988
1990
1991
1993
1994
1996
1997
1998
1999
2000
2002
2004
2006
2009
2013
2016
2020
2024
2028
2033
2038
2043
2048
2052
2056
2060
2063
2065
2065
2064
2061
2055
2048
2039
2029
2019
2010
2002
1994
1988
1983
1978
1975
1973
1972
1972
1971
1971
1970
1970
1969
1969
1969
1969
1969
1969
1968
1968
1967
1967
1967
1967
1968
1969
1969
1969
1969
1969
1969
1969
1970
1970
1971
1971
1971
1971
1971
1971
1971
1971
1971
1971
1972
1972
1973
1973
1973
1972
1972
1972
1972
1972
1973
1973
1973
1973
1974
1974
1973
1973
1973
1973
1973
1974
1975
1976
1976
1976
1975
1974
1973
1972
1971
1972
1973
1974
1975
1975
1975
1975
1976
1977
1978
1980
1980
1981
1980
1980
1979
1978
1977
1976
1976
1976
1977
1978
1979
1979
1980
1980
1980
1978
1972
1964
1958
1962
1984
2024
2076
2134
2182
2203
2186
2131
2051
1971
1911
1885
1892
1915
1940
1957
1966
1970
1974
1977
1979
1981
1982
1982
1983
1984
1986
1987
1989
1990
1991
1991
1991
1992
1992
1993
1995
1996
1998
1999
2001
2002
2003
2004
2006
2008
2010
2013
2016
2020
2024
2028
2032
2037
2041
2046
2050
2054
2058
2062
2064
2066
2066
2065
2061
2055
2048
2038
2028
2018
2009
2000
1992
1985
1979
1976
1973
1972
1972
1972
1971
1970
1970
1969
1968
1968
1968
1969
1969
1969
1969
1969
1969
1968
1968
1968
1969
1970
1970
1971
1971
1971
1970
1970
1970
1970
1971
1973
1974
1974
1974
1974
1973
1973
1972
1972
1972
1973
1973
1974
1974
1974
1974
1973
1972
1972
1972
1973
1974
1974
1974
1974
1974
1974
1973
1973
1974
1974
1975
1975
1975
1974
1973
1972
1972
1972
1973
1975
1976
1977
1978
1978
1978
1978
1979
1980
1980
1981
1982
1982
1981
1980
1978
1976
1975
1975
1975
1976
1977
1978
1979
1980
1979
1975
1968
1959
1955
1961
1985
2025
2074
2128
2172
2192
2177
2125
2048
1969
1910
1886
1893
1916
1941
1956
1962
1965
1967
1970
1972
1973
1974
1975
1975
1976
1976
1977
1978
1979
1980
1981
1981
1982
1982
1982
1983
1983
1985
1986
1988
1989
1991
1992
1994
1995
1997
1999
2002
2005
2010
2014
2018
2022
2026
2030
2033
2037
2040
2043
2046
2048
2048
2047
2042
2036
2028
2018
2009
2000
1991
1983
1976
1971
1966
1962
1960
1958
1957
1956
1956
1956
1956
1956
1955
1955
1954
1954
1954
1955
1955
1955
1955
1955
1954
1954
1954
1954
1955
1956
1957
1958
1958
1958
1957
1957
1957
1957
1957
1958
1959
1959
1959
1959
1959
1958
1958
1958
1958
1959
1959
1959
1959
1959
1959
1958
1958
1959
1959
1960
1961
1961
1961
1961
1961
1960
1960
1959
1960
1960
1961
1961
1961
1961
1961
1960
1959
1959
1958
1959
1960
1961
1961
1962
1961
1961
1962
1963
1965
1967
1968
1969
1969
1968
1967
1966
1965
1964
1963
1963
1963
1964
1965
1965
1965
1966
1967
1965
1960
1952
1945
1944
1958
1988
2032
2084
2136
2174
2184
2155
2091
2009
1935
1889
1878
1893
1918
1939
1950
1954
1957
1959
1962
1963
1964
1964
1964
1965
1966
1968
1969
1970
1970
1970
1971
1971
1971
1972
1973
1974
1976
1978
1979
1980
1981
1982
1983
1985
1987
1990
1993
1996
1999
2002
2006
2010
2014
2019
2023
2028
2031
2034
2037
2039
2041
2040
2038
2034
2029
2021
2012
2003
1993
1985
1977
1970
1966
1962
1960
1959
1958
1957
1956
1956
1955
1954
1953
1953
1954
1954
1955
1956
1956
1956
1956
1955
1955
1956
1956
1957
1958
1958
1958
1958
1958
1958
1958
1958
1958
1958
1959
1960
1961
1961
1961
1961
1962
1962
1963
1964
1965
1965
1965
1965
1965
1966
1966
1967
1968
1968
1969
1969
1970
1971
1971
1971
1971
1971
1972
1973
1974
1975
1975
1975
1975
1974
1974
1975
1975
1977
1978
1979
1979
1979
1979
1979
1979
1979
1980
1980
1980
1980
1980
1979
1978
1977
1978
1980
1982
1984
1985
1986
1987
1988
1989
1989
1990
1990
1990
1990
1990
1989
1988
1988
1987
1987
1987
1987
1988
1989
1991
1993
1993
1990
1982
1973
1968
1974
1996
2036
2085
2141
2189
2215
2205
2156
2079
1999
1938
1911
1917
1940
1964
1979
1984
1986
1988
1989
1991
1993
1995
1997
1999
2000
2001
2001
2002
2002
2004
2005
2007
2008
2009
2010
2010
2011
2011
2013
2015
2017
2019
2022
2023
2025
2027
2029
2031
2034
2037
2041
2046
2050
2054
2059
2063
2067
2070
2074
2077
2079
2080
2080
2078
2074
2068
2060
2051
2042
2034
2026
2019
2014
2010
2006
2003
2001
1999
1999
1998
1999
2000
2000
2000
2000
2000
1999
1999
2000
2000
2001
2002
2002
2002
2002
2002
2001
2002
2002
2002
2003
2004
2005
2006
2006
2007
2007
2007
2007
2007
2008
2008
2009
2009
2009
2009
2009
2009
2009
2009
2010
2010
2010
2010
2009
2009
2009
2009
2010
2010
2011
2011
2012
2012
2012
2012
2011
2011
2011
2012
2012
2013
2013
2013
2013
2013
2012
2012
2013
2013
2014
2014
2014
2014
2014
2014
2014
2014
2015
2015
2015
2015
2015
2015
2015
2015
2015
2015
2014
2014
2013
2013
2013
2013
2014
2015
2016
2016
2017
2017
2018
2020
2021
2022
2022
2021
2020
2018
2017
2016
2016
2015
2015
2015
2015
2015
2014
2014
2015
2016
2015
2011
2003
1995
1992
2002
2029
2071
2123
2177
2218
2232
2208
2148
2067
1991
1940
1925
1938
1963
1986
1999
2003
2005
2007
2008
2008
2009
2009
2010
2012
2013
2015
2015
2016
2016
2015
2015
2016
2017
2018
2020
2021
2021
2022
2022
2023
2024
2025
2027
2029
2031
2033
2035
2038
2041
2044
2048
2051
2055
2060
2064
2068
2071
2074
2077
2079
2080
2081
2081
2079
2074
2068
2060
2050
2041
2031
2023
2015
2010
2006
2003
2000
1998
1996
1995
1993
1992
1992
1992
1993
1993
1994
1994
1994
1993
1993
1992
1992
1992
1992
1992
1992
1992
1992
1992
1991
1991
1991
1991
1991
1992
1992
1993
1992
1992
1991
1991
1990
1990
1991
1991
1992
1993
1993
1992
1992
1991
1990
1991
1991
1992
1992
1992
1991
1990
1990
1989
1990
1990
1989
1989
1988
1988
1988
1987
1987
1987
1987
1987
1987
1987
1987
1987
1987
1987
1986
1986
1987
1987
1988
1988
1987
1986
1985
1984
1984
1984
1983
1983
1982
1982
1982
1983
1983
1984
1984
1985
1986
1988
1989
1990
1991
1992
1992
1991
1990
1988
1987
1986
1985
1984
1984
1984
1984
1984
1984
1985
1987
1985
1980
1971
1962
1961
1974
2005
2053
2110
2166
2201
2202
2162
2087
2001
1927
1886
1881
1902
1929
1951
1962
1966
1969
1971
1973
1974
1976
1976
1977
1978
1980
1981
1982
1983
1984
1984
1984
1983
1983
1984
1986
1988
1989
1991
1992
1993
1994
1996
1997
2000
2002
2005
2008
2012
2015
2018
2022
2026
2030
2036
2042
2047
2051
2054
2056
2058
2059
2060
2059
2055
2050
2042
2033
2022
2010
1999
1990
1982
1976
1971
1968
1966
1964
1963
1963
1962
1961
1961
1960
1960
1961
1961
1961
1961
1960
1959
1958
1957
1957
1957
1958
1958
1959
1959
1960
1960
1960
1960
1961
1961
1962
1963
1963
1963
1963
1963
1963
1963
1963
1964
1964
1965
1965
1965
1965
1964
1963
1963
1963
1963
1964
1965
1965
1965
1965
1964
1964
1964
1964
1964
1964
1965
1965
1965
1965
1965
1963
1962
1961
1961
1962
1964
1967
1968
1968
1968
1968
1968
1969
1970
1971
1972
1972
1971
1970
1969
1967
1966
1965
1965
1966
1967
1967
1968
1969
1970
1970
1967
1961
1952
1945
1948
1967
2006
2058
2117
2167
2191
2177
2122
2041
1956
1894
1868
1875
1900
1926
1944
1952
1956
1960
1964
1967
1970
1971
1971
1972
1973
1974
1975
1976
1977
1978
1979
1979
1980
1981
1982
1983
1985
1987
1988
1989
1990
1991
1992
1993
1995
1997
2000
2004
2008
2012
2017
2022
2026
2031
2035
2040
2044
2048
2052
2056
2059
2059
2057
2052
2046
2038
2028
2018
2007
1997
1988
1980
1973
1968
1964
1962
1960
1960
1960
1960
1960
1960
1960
1959
1959
1959
1959
1959
1960
1960
1960
1960
1959
1959
1959
1959
1959
1960
1961
1962
1962
1962
1962
1961
1961
1962
1963
1963
1964
1965
1965
1966
1965
1965
1965
1965
1965
1966
1967
1968
1968
1968
1967
1967
1966
1967
1967
1968
1968
1969
1969
1969
1968
1968
1967
1967
1967
1967
1968
1968
1968
1968
1969
1969
1969
1968
1967
1966
1966
1966
1967
1968
1969
1970
1970
1971
1972
1973
1974
1976
1976
1976
1975
1974
1973
1972
1971
1971
1971
1971
1971
1972
1971
1971
1972
1973
1973
1970
1962
1953
1950
1958
1983
2024
2076
2132
2179
2199
2182
2125
2044
1962
1904
1882
1891
1916
1941
1956
1962
1965
1968
1970
1971
1972
1972
1973
1974
1975
1977
1978
1979
1979
1979
1979
1980
1980
1981
1983
1984
1986
1987
1987
1988
1989
1990
1992
1994
1996
1999
2001
2004
2007
2010
2014
2018
2022
2027
2032
2037
2041
2045
2048
2050
2051
2052
2050
2048
2043
2036
2027
2017
2007
1997
1988
1981
1975
1971
1968
1967
1966
1965
1964
1963
1963
1962
1962
1963
1963
1964
1964
1965
1965
1964
1963
1963
1962
1962
1963
1963
1964
1964
1964
1964
1964
1964
1965
1965
1965
1966
1966
1965
1965
1965
1966
1966
1966
1967
1967
1968
1968
1968
1968
1968
1968
1967
1967
1967
1968
1969
1969
1969
1969
1968
1968
1968
1968
1968
1969
1969
1970
1970
1969
1969
1969
1969
1969
1969
1970
1971
1971
1971
1971
1970
1969
1967
1967
1967
1968
1970
1972
1973
1973
1973
1973
1974
1975
1976
1977
1977
1977
1976
1974
1973
1971
1970
1970
1970
1971
1972
1972
1972
1973
1974
1973
1971
1964
1955
1950
1954
1973
2009
2057
2112
2164
2197
2195
2152
2077
1992
1923
1887
1887
1907
1932
1949
1957
1960
1963
1965
1967
1968
1969
1969
1969
1970
1971
1972
1973
1974
1975
1976
1977
1977
1978
1978
1979
1980
1981
1983
1984
1986
1987
1988
1989
1991
1993
1996
1999
2003
2007
2011
2015
2019
2023
2028
2032
2037
2042
2046
2048
2051
2052
2051
2049
2045
2038
2031
2022
2013
2004
1996
1988
1982
1977
1973
1970
1968
1967
1967
1967
1968
1967
1967
1967
1967
1968
1969
1969
1970
1971
1971
1971
1971
1971
1971
1972
1972
1973
1974
1975
1976
1976
1976
1976
1977
1977
1978
1979
1981
1982
1983
1983
1984
1984
1984
1984
1985
1986
1988
1989
1989
1990
1990
1990
1991
1991
1992
1993
1994
1995
1996
1997
1997
1997
1998
1998
1999
2000
2001
2002
2003
2004
2005
2005
2006
2007
2008
2009
2010
2011
2012
2012
2012
2012
2012
2012
2013
2014
2015
2016
2017
2018
2018
2018
2018
2019
2020
2021
2022
2023
2022
2021
2021
2020
2021
2023
2026
2028
2030
2031
2032
2033
2033
2034
2035
2036
2037
2037
2037
2037
2036
2035
2034
2033
2033
2034
2035
2036
2037
2039
2040
2039
2035
2027
2018
2015
2026
2051
2095
2148
2204
2249
2267
2247
2188
2106
2026
1971
1952
1964
1989
2012
2026
2030
2032
2035
2037
2040
2042
2043
2043
2043
2043
2044
2044
2045
2046
2048
2048
2050
2050
2050
2050
2050
2050
2051
2053
2054
2056
2057
2059
2060
2061
2063
2065
2068
2071
2075
2079
2084
2088
2093
2097
2101
2104
2107
2110
2113
2115
2116
2115
2113
2108
2101
2093
2083
2073
2063
2054
2047
2040
2035
2030
2026
2023
2021
2020
2020
2021
2021
2021
2021
2020
2019
2018
2018
2018
2019
2019
2019
2019
2018
2018
2017
2017
2017
2017
2017
2018
2018
2017
2017
2017
2016
2016
2016
2017
2018
2019
2020
2020
2020
2019
2018
2018
2017
2017
2018
2019
2020
2021
2020
2019
2018
2018
2018
2018
2019
2020
2021
2020
2020
2020
2020
2020
2020
2021
2022
2022
2022
2022
2022
2021
2020
2020
2020
2020
2021
2022
2023
2023
2024
2024
2023
2023
2022
2022
2023
2023
2023
2023
2022
2021
2021
2021
2021
2023
2025
2026
2027
2028
2028
2029
2029
2030
2030
2030
2030
2029
2028
2027
2026
2025
2025
2024
2025
2025
2026
2026
2027
2028
2027
2022
2015
2006
2003
2013
2041
2085
2142
2199
2242
2254
2226
2160
2075
1996
1944
1929
1944
1970
1993
2007
2011
2013
2017
2020
2023
2026
2028
2029
2029
2030
2030
2031
2032
2033
2035
2036
2037
2037
2038
2038
2038
2039
2040
2042
2044
2046
2047
2048
2049
2051
2053
2055
2058
2061
2065
2070
2074
2079
2083
2088
2092
2096
2100
2103
2106
2109
2110
2110
2107
2102
2094
2084
2073
2063
2054
2047
2039
2033
2027
2023
2020
2018
2017
2016
2016
2016
2016
2016
2016
2015
2015
2015
2015
2015
2015
2015
2015
2015
2015
2015
2015
2014
2014
2015
2015
2016
2016
2017
2017
2016
2016
2016
2016
2017
2018
2019
2019
2020
2019
2019
2018
2018
2019
2019
2020
2020
2020
2019
2019
2018
2018
2018
2018
2018
2019
2019
2019
2019
2019
2019
2018
2017
2017
2018
2018
2019
2019
2019
2019
2018
2018
2017
2017
2017
2017
2017
2018
2018
2017
2017
2016
2016
2016
2016
2017
2018
2018
2018
2017
2016
2014
2013
2013
2014
2015
2017
2018
2019
2019
2019
2020
2021
2022
2023
2023
2023
2021
2020
2018
2017
2016
2015
2015
2015
2016
2017
2017
2018
2019
2018
2015
2007
1998
1993
1997
2016
2051
2099
2153
2202
2232
2229
2186
2112
2029
1961
1927
1928
1949
1974
1992
1999
2002
2004
2007
2009
2010
2010
2011
2011
2012
2012
2013
2014
2015
2016
2016
2017
2017
2018
2018
2019
2020
2020
2022
2023
2024
2026
2027
2028
2029
2031
2033
2035
2038
2042
2046
2050
2054
2058
2062
2066
2070
2074
2077
2081
2083
2084
2084
2082
2078
2072
2064
2056
2048
2039
2030
2022
2015
2008
2003
2000
1997
1995
1994
1994
1993
1993
1992
1992
1991
1991
1991
1991
1992
1992
1992
1992
1992
1991
1991
1990
1990
1991
1992
1992
1992
1992
1992
1992
1991
1991
1991
1991
1992
1993
1993
1994
1994
1993
1993
1993
1993
1993
1993
1993
1993
1993
1993
1992
1992
1991
1991
1991
1991
1991
1991
1991
1991
1990
1989
1989
1989
1989
1989
1990
1990
1991
1991
1990
1990
1989
1990
1990
1991
1991
1992
1991
1991
1990
1989
1988
1989
1989
1990
1991
1991
1991
1991
1991
1990
1990
1990
1990
1991
1992
1992
1991
1990
1988
1987
1987
1988
1990
1991
1992
1993
1994
1994
1995
1996
1997
1997
1996
1996
1995
1994
1993
1992
1991
1990
1989
1989
1989
1990
1991
1992
1993
1991
1986
1977
1968
1967
1979
2008
2051
2104
2159
2201
2216
2192
2131
2048
1971
1919
1902
1914
1938
1959
1971
1975
1978
1979
1981
1982
1983
1984
1984
1985
1985
1985
1985
1985
1985
1985
1984
1984
1984
1984
1984
1985
1985
1986
1987
1988
1989
1990
1991
1993
1994
1996
1998
2001
2004
2008
2012
2017
2021
2024
2028
2031
2035
2040
2043
2047
2048
2049
2049
2048
2044
2038
2030
2021
2011
2002
1994
1987
1981
1976
1971
1968
1965
1962
1961
1960
1959
1959
1959
1960
1960
1960
1960
1959
1957
1956
1956
1957
1958
1959
1959
1958
1957
1955
1954
1954
1956
1957
1959
1959
1959
1959
1958
1958
1959
1959
1960
1961
1963
1963
1964
1964
1965
1966
1968
1968
1968
1967
1965
1964
1965
1967
1969
1971
1972
1971
1971
1971
1971
1973
1974
1974
1974
1974
1975
1976
1977
1977
1978
1978
1978
1979
1980
1979
1978
1977
1977
1979
1981
1981
1980
1977
1975
1975
1977
1981
1985
1988
1989
1988
1987
1984
1982
1980
1979
1981
1985
1990
1995
1998
1999
2000
2000
2001
2001
2001
2000
1998
1996
1995
1995
1997
1998
2000
2001
2001
2001
2000
2000
2001
2001
1998
1992
1983
1977
1980
2000
2036
2085
2141
2194
2227
2226
2183
2108
2022
1952
1915
1915
1937
1963
1981
1988
1990
1992
1994
1997
2000
2001
2001
2001
2002
2003
2003
2004
2005
2006
2007
2009
2011
2013
2014
2015
2015
2017
2019
2021
2022
2023
2024
2025
2026
2028
2030
2033
2035
2039
2044
2048
2053
2058
2061
2064
2067
2070
2074
2078
2081
2084
2085
2083
2078
2070
2061
2053
2046
2038
2029
2021
2012
2004
1999
1995
1993
1993
1993
1992
1991
1989
1988
1986
1985
1985
1985
1985
1985
1985
1985
1985
1985
1985
1986
1985
1984
1983
1982
1983
1985
1986
1987
1986
1985
1983
1982
1982
1984
1985
1985
1984
1983
1981
1980
1980
1981
1982
1983
1984
1984
1983
1981
1979
1978
1978
1980
1981
1982
1982
1982
1982
1982
1981
1980
1979
1978
1979
1979
1979
1979
1979
1979
1980
1980
1979
1978
1977
1977
1978
1979
1980
1981
1981
1980
1980
1980
1979
1977
1976
1975
1974
1974
1975
1976
1977
1978
1979
1980
1982
1983
1984
1984
1983
1981
1978
1977
1976
1976
1976
1976
1976
1975
1973
1972
1971
1973
1977
1980
1979
1972
1961
1951
1949
1964
1999
2048
2108
2165
2202
2204
2164
2088
1999
1924
1884
1880
1901
1928
1947
1956
1958
1961
1964
1966
1967
1968
1968
1969
1969
1970
1970
1971
1972
1972
1972
1972
1973
1974
1976
1977
1978
1978
1979
1980
1982
1983
1984
1985
1985
1986
1988
1991
1994
1997
2001
2005
2010
2014
2019
2023
2026
2030
2033
2036
2038
2040
2040
2040
2036
2031
2024
2015
2004
1993
1982
1972
1964
1959
1956
1954
1952
1949
1947
1945
1944
1944
1945
1945
1946
1945
1944
1943
1942
1942
1942
1943
1944
1945
1946
1946
1946
1944
1942
1941
1941
1942
1943
1945
1945
1946
1945
1945
1944
1944
1943
1942
1942
1943
1944
1945
1945
1945
1944
1943
1943
1944
1944
1945
1946
1946
1946
1946
1945
1943
1943
1943
1944
1945
1946
1947
1947
1947
1947
1947
1946
1946
1946
1947
1948
1949
1950
1950
1950
1949
1948
1948
1947
1947
1947
1948
1948
1949
1950
1950
1951
1952
1954
1955
1956
1956
1957
1958
1958
1957
1956
1954
1952
1951
1950
1949
1948
1947
1946
1946
1945
1946
1947
1947
1945
1937
1927
1919
1921
1939
1975
2025
2080
2132
2162
2157
2111
2034
1947
1878
1845
1847
1871
1899
1918
1927
1930
1932
1934
1936
1937
1938
1938
1938
1938
1938
1939
1941
1941
1941
1942
1942
1943
1945
1948
1950
1952
1952
1952
1952
1952
1954
1957
1961
1964
1967
1969
1971
1974
1979
1984
1990
1995
1999
2004
2008
2014
2018
2022
2025
2027
2029
2030
2030
2028
2022
2014
2003
1993
1983
1974
1967
1962
1958
1954
1952
1950
1949
1948
1947
1946
1947
1948
1950
1952
1954
1956
1957
1958
1959
1959
1960
1962
1963
1964
1965
1965
1966
1967
1968
1970
1972
1974
1975
1975
1976
1976
1977
1977
1978
1979
1980
1981
1982
1983
1984
1986
1987
1988
1989
1990
1990
1991
1992
1993
1994
1996
1997
1998
1998
1999
1999
2001
2003
2005
2007
2008
2008
2007
2008
2008
2009
2010
2010
2011
2011
2011
2010
2009
2007
2006
2005
2005
2006
2007
2007
2008
2009
2009
2010
2011
2012
2014
2015
2015
2015
2014
2013
2012
2010
2009
2007
2006
2006
2006
2007
2007
2008
2009
2011
2011
2007
1998
1988
1983
1992
2019
2063
2119
2178
2220
2230
2198
2130
2045
1968
1922
1912
1928
1954
1976
1989
1995
2000
2005
2008
2010
2010
2009
2008
2009
2010
2012
2014
2016
2018
2019
2020
2021
2022
2022
2024
2025
2027
2029
2032
2034
2035
2036
2036
2036
2037
2040
2043
2047
2050
2053
2055
2058
2061
2065
2068
2072
2076
2079
2082
2084
2085
2085
2083
2079
2073
2066
2057
2048
2039
2029
2019
2010
2001
1994
1990
1987
1986
1985
1983
1981
1979
1977
1974
1972
1971
1971
1971
1971
1971
1970
1968
1967
1966
1966
1967
1968
1968
1967
1965
1964
1962
1961
1961
1961
1961
1962
1962
1963
1962
1962
1960
1959
1959
1960
1960
1961
1962
1962
1961
1961
1960
1959
1958
1957
1956
1956
1957
1956
1956
1954
1952
1950
1949
1949
1949
1949
1949
1949
1948
1946
1945
1945
1945
1946
1947
1947
1948
1948
1949
1949
1949
1950
1951
1953
1954
1954
1952
1950
1948
1947
1946
1946
1945
1945
1944
1945
1946
1947
1948
1949
1949
1947
1941
1933
1926
1926
1939
1971
2020
2076
2129
2160
2153
2104
2027
1941
1873
1841
1843
1867
1896
1917
1928
1932
1935
1939
1942
1945
1948
1949
1951
1952
1952
1953
1953
1954
1956
1958
1960
1961
1962
1962
1962
1963
1965
1967
1968
1969
1970
1971
1972
1974
1976
1979
1981
1985
1989
1993
1999
2004
2010
2015
2021
2025
2029
2032
2035
2037
2039
2040
2039
2035
2028
2019
2009
1999
1989
1980
1972
1966
1961
1957
1953
1949
1946
1943
1942
1942
1942
1943
1944
1944
1943
1943
1944
1944
1944
1944
1945
1945
1946
1946
1947
1948
1949
1949
1949
1949
1948
1948
1949
1950
1951
1951
1951
1952
1953
1954
1954
1955
1955
1954
1954
1954
1954
1955
1955
1956
1955
1954
1952
1951
1952
1954
1955
1956
1956
1956
1957
1958
1960
1961
1962
1962
1963
1964
1967
1969
1971
1971
1970
1968
1967
1967
1968
1969
1969
1968
1968
1968
1968
1968
1969
1970
1971
1973
1973
1971
1964
1955
1948
1951
1971
2009
2057
2109
2152
2171
2154
2102
2027
1949
1892
1869
1876
1900
1926
1944
1952
1955
1956
1956
1956
1957
1958
1960
1961
1961
1959
1958
1957
1957
1957
1956
1955
1954
1953
1953
1953
1953
1953
1954
1955
1956
1958
1960
1962
1963
1964
1964
1963
1964
1966
1969
1972
1976
1979
1981
1984
1987
1990
1993
1997
2000
2001
2001
1999
1995
1988
1979
1968
1957
1947
1939
1934
1930
1926
1923
1920
1918
1918
1917
1917
1917
1918
1918
1919
1920
1921
1920
1920
1920
1920
1920
1920
1921
1922
1923
1925
1926
1926
1926
1925
1925
1925
1926
1927
1928
1929
1929
1929
1929
1929
1929
1929
1931
1932
1933
1933
1934
1935
1935
1936
1936
1937
1938
1939
1939
1939
1940
1940
1942
1943
1945
1945
1946
1946
1947
1948
1949
1949
1949
1948
1947
1947
1947
1947
1947
1947
1947
1946
1946
1945
1945
1946
1947
1949
1951
1952
1949
1941
1931
1927
1934
1960
2004
2059
2114
2154
2161
2128
2060
1976
1901
1856
1847
1866
1894
1919
1933
1938
1941
1944
1946
1948
1950
1951
1953
1955
1956
1958
1959
1959
1960
1960
1961
1962
1963
1964
1965
1966
1967
1968
1970
1972
1975
1977
1979
1981
1983
1985
1987
1990
1993
1997
2001
2007
2012
2017
2021
2025
2028
2030
2032
2034
2035
2036
2034
2030
2024
2015
2005
1994
1984
1976
1968
1963
1958
1955
1953
1951
1949
1948
1947
1946
1946
1947
1948
1948
1949
1948
1948
1947
1947
1948
1949
1951
1952
1952
1951
1950
1949
1948
1949
1950
1951
1953
1954
1955
1955
1954
1954
1954
1955
1955
1956
1957
1957
1958
1959
1959
1959
1958
1958
1957
1958
1959
1960
1961
1961
1960
1960
1959
1959
1960
1961
1961
1962
1962
1962
1961
1961
1961
1961
1961
1961
1961
1963
1965
1967
1968
1968
1968
1967
1967
1968
1970
1972
1973
1973
1972
1970
1969
1968
1968
1968
1967
1967
1967
1967
1967
1967
1967
1968
1969
1966
1961
1953
1948
1952
1970
2003
2048
2100
2149
2179
2176
2134
2061
1981
1918
1888
1891
1913
1938
1954
1961
1964
1966
1968
1969
1970
1970
1970
1972
1973
1975
1976
1976
1975
1974
1974
1975
1975
1977
1978
1979
1981
1983
1985
1987
1989
1990
1991
1992
1995
1998
2002
2005
2008
2010
2014
2017
2021
2025
2030
2034
2038
2042
2045
2048
2049
2049
2049
2048
2044
2039
2032
2024
2015
2006
1998
1991
1985
1980
1975
1973
1971
1970
1970
1969
1968
1966
1965
1965
1965
1966
1967
1967
1968
1968
1968
1968
1968
1968
1968
1968
1969
1970
1970
1970
1969
1968
1967
1967
1967
1967
1968
1967
1966
1965
1964
1964
1964
1963
1963
1962
1962
1962
1964
1965
1966
1966
1966
1966
1966
1966
1966
1966
1966
1965
1964
1963
1963
1963
1963
1964
1964
1963
1962
1961
1960
1960
1961
1963
1965
1966
1967
1968
1968
1969
1970
1971
1972
1972
1971
1971
1970
1970
1968
1967
1965
1964
1963
1963
1963
1964
1965
1967
1969
1968
1962
1955
1949
1951
1969
2003
2049
2104
2153
2182
2177
2133
2057
1975
1909
1878
1881
1905
1932
1950
1958
1961
1963
1965
1966
1968
1968
1969
1970
1970
1971
1971
1971
1971
1972
1973
1975
1975
1975
1976
1976
1976
1977
1978
1980
1981
1983
1985
1986
1987
1988
1989
1991
1994
1998
2002
2006
2011
2015
2018
2022
2025
2027
2030
2032
2034
2035
2035
2033
2029
2022
2013
2004
1995
1987
1980
1973
1968
1963
1959
1955
1953
1951
1949
1949
1948
1949
1949
1949
1949
1948
1948
1947
1947
1947
1947
1948
1949
1949
1949
1948
1947
1946
1946
1946
1947
1948
1948
1947
1946
1945
1945
1945
1946
1946
1947
1947
1947
1946
1945
1944
1944
1943
1943
1944
1945
1945
1946
1945
1945
1944
1944
1944
1944
1944
1944
1945
1945
1945
1945
1944
1944
1944
1944
1944
1944
1945
1945
1946
1946
1945
1944
1943
1942
1941
1941
1943
1945
1947
1947
1946
1946
1946
1948
1950
1952
1952
1952
1951
1949
1948
1946
1945
1944
1944
1944
1944
1944
1945
1945
1946
1947
1946
1944
1938
1930
1924
1927
1943
1976
2021
2073
2121
2149
2143
2099
2027
1946
1882
1852
1855
1878
1905
1924
1934
1940
1943
1946
1947
1949
1950
1951
1952
1953
1955
1957
1959
1962
1964
1965
1965
1966
1966
1967
1967
1968
1969
1970
1972
1973
1973
1973
1973
1974
1976
1980
1986
1993
1998
2001
2003
2004
2006
2011
2017
2023
2028
2030
2032
2032
2033
2034
2033
2030
2024
2015
2004
1992
1981
1971
1962
1954
1948
1943
1939
1937
1935
1933
1932
1930
1929
1929
1929
1931
1932
1933
1933
1933
1933
1933
1934
1934
1935
1934
1933
1932
1932
1932
1932
1933
1933
1933
1932
1932
1932
1932
1933
1934
1935
1937
1938
1939
1939
1940
1940
1941
1942
1942
1943
1943
1943
1942
1942
1943
1945
1947
1948
1950
1950
1950
1950
1952
1953
1954
1954
1954
1953
1954
1956
1958
1960
1962
1964
1965
1967
1969
1970
1971
1971
1970
1970
1969
1968
1967
1967
1966
1966
1965
1965
1965
1965
1966
1968
1970
1971
1970
1964
1955
1949
1952
1973
2013
2067
2126
2171
2183
2154
2086
2002
1926
1880
1871
1890
1919
1944
1959
1965
1969
1972
1975
1976
1977
1978
1980
1983
1986
1988
1988
1988
1989
1989
1990
1989
1989
1989
1990
1993
1997
2000
2002
2003
2004
2004
2006
2008
2012
2015
2019
2023
2026
2029
2032
2036
2041
2046
2051
2056
2061
2064
2066
2068
2068
2068
2067
2064
2059
2052
2045
2034
2024
2015
2007
2001
1996
1992
1989
1988
1987
1987
1986
1986
1985
1985
1985
1986
1987
1989
1989
1990
1990
1990
1990
1991
1991
1991
1992
1992
1993
1993
1994
1994
1994
1993
1993
1993
1993
1994
1995
1996
1996
1996
1995
1994
1993
1994
1994
1995
1996
1996
1996
1995
1995
1995
1995
1996
1996
1996
1996
1996
1996
1995
1995
1995
1995
1995
1996
1996
1996
1996
1996
1997
1998
1998
1999
1999
1998
1997
1996
1995
1996
1997
1999
2001
2002
2003
2003
2004
2006
2007
2008
2009
2009
2008
2007
2006
2005
2004
2004
2005
2005
2005
2004
2003
2003
2005
2007
2006
2001
1994
1989
1991
2007
2038
2080
2131
2181
2214
2214
2175
2103
2020
1951
1917
1918
1941
1968
1988
1997
2000
2003
2004
2005
2005
2006
2007
2008
2010
2012
2013
2013
2013
2013
2013
2013
2014
2016
2017
2019
2021
2022
2022
2022
2022
2022
2023
2025
2028
2031
2035
2037
2039
2041
2044
2048
2051
2056
2060
2064
2067
2069
2071
2072
2073
2074
2074
2073
2070
2065
2058
2049
2041
2031
2022
2015
2010
2006
2003
2000
1997
1995
1994
1992
1991
1990
1990
1990
1991
1992
1993
1993
1992
1990
1989
1989
1989
1990
1991
1993
1994
1995
1994
1993
1993
1994
1994
1995
1995
1994
1993
1992
1990
1990
1989
1989
1990
1991
1992
1993
1993
1993
1993
1993
1992
1993
1993
1994
1994
1995
1994
1992
1991
1989
1988
1988
1988
1989
1990
1991
1991
1990
1989
1989
1989
1990
1992
1994
1995
1995
1995
1995
1995
1995
1996
1997
1998
1998
1998
1998
1997
1996
1995
1995
1994
1994
1995
1996
1997
1999
2001
2001
1996
1987
1977
1974
1982
2008
2048
2100
2155
2198
2215
2194
2134
2052
1974
1922
1906
1920
1946
1968
1981
1986
1988
1990
1992
1994
1995
1997
1998
1998
1998
1998
1998
1999
2000
2001
2002
2003
2003
2003
2003
2004
2004
2005
2006
2007
2008
2009
2010
2011
2012
2014
2016
2019
2022
2026
2029
2033
2037
2040
2044
2047
2049
2052
2055
2057
2059
2059
2057
2052
2047
2039
2030
2021
2013
2005
1998
1991
1985
1980
1976
1973
1972
1971
1971
1972
1973
1973
1974
1975
1975
1975
1975
1975
1975
1975
1975
1976
1976
1976
1976
1976
1976
1976
1975
1975
1974
1974
1974
1974
1973
1972
1972
1972
1972
1972
1972
1972
1972
1971
1971
1970
1970
1969
1969
1970
1970
1971
1972
1972
1972
1971
1971
1971
1972
1973
1974
1974
1974
1973
1973
1973
1973
1973
1973
1972
1972
1971
1971
1972
1972
1973
1974
1974
1975
1976
1977
1980
1981
1982
1981
1980
1978
1977
1977
1976
1975
1974
1973
1973
1974
1974
1974
1976
1977
1978
1975
1968
1959
1954
1961
1983
2022
2070
2124
2168
2187
2169
2113
2034
1955
1900
1882
1895
1922
1947
1962
1968
1971
1973
1975
1976
1977
1977
1977
1977
1978
1979
1981
1982
1982
1982
1982
1982
1983
1984
1985
1986
1987
1987
1988
1989
1990
1991
1993
1995
1998
2000
2002
2004
2006
2008
2011
2015
2019
2023
2027
2031
2035
2037
2039
2040
2041
2042
2042
2040
2036
2029
2021
2012
2002
1993
1986
1980
1975
1971
1969
1967
1966
1964
1963
1962
1962
1961
1961
1961
1961
1961
1961
1961
1961
1962
1962
1962
1962
1963
1964
1964
1965
1965
1965
1964
1964
1965
1965
1966
1966
1967
1968
1967
1967
1966
1966
1966
1967
1968
1969
1969
1969
1968
1968
1968
1968
1968
1968
1968
1969
1970
1970
1969
1969
1968
1967
1967
1967
1968
1969
1969
1969
1969
1969
1968
1967
1966
1965
1966
1967
1969
1970
1971
1970
1970
1970
1971
1973
1975
1976
1976
1975
1974
1973
1971
1970
1969
1969
1969
1969
1970
1970
1970
1971
1971
1971
1968
1961
1953
1949
1957
1980
2019
2067
2119
2160
2175
2154
2097
2019
1943
1891
1875
1889
1915
1939
1954
1960
1963
1966
1969
1970
1971
1971
1971
1972
1973
1975
1976
1977
1978
1978
1978
1978
1978
1979
1979
1981
1982
1984
1986
1987
1988
1989
1990
1991
1992
1995
1997
2001
2004
2008
2011
2014
2017
2021
2024
2028
2031
2034
2036
2038
2039
2039
2037
2034
2030
2024
2017
2009
2001
1992
1984
1977
1972
1968
1965
1963
1962
1961
1961
1960
1959
1958
1958
1957
1957
1958
1959
1959
1960
1960
1959
1959
1958
1958
1958
1958
1959
1960
1960
1961
1961
1960
1960
1959
1959
1960
1960
1961
1962
1962
1962
1961
1960
1959
1960
1961
1962
1962
1962
1962
1961
1961
1961
1961
1961
1961
1962
1962
1963
1963
1962
1961
1961
1961
1962
1962
1963
1963
1964
1964
1964
1964
1963
1962
1961
1961
1961
1962
1964
1965
1966
1966
1966
1966
1967
1968
1970
1971
1972
1971
1970
1968
1968
1967
1966
1966
1966
1966
1967
1967
1966
1966
1967
1968
1967
1962
1954
1947
1948
1962
1993
2037
2088
2137
2167
2165
2126
2056
1977
1910
1876
1875
1896
1923
1944
1954
1959
1962
1964
1965
1966
1967
1968
1969
1970
1971
1973
1974
1975
1975
1975
1976
1976
1976
1977
1979
1980
1981
1983
1984
1984
1985
1986
1987
1989
1991
1994
1997
2000
2003
2006
2009
2012
2016
2019
2023
2026
2030
2033
2035
2036
2036
2036
2034
2030
2025
2019
2012
2004
1995
1988
1980
1974
1969
1966
1964
1963
1962
1961
1960
1959
1958
1957
1957
1957
1957
1958
1958
1959
1959
1959
1959
1958
1958
1958
1958
1959
1960
1960
1960
1960
1960
1960
1960
1960
1960
1961
1962
1962
1963
1963
1962
1962
1961
1961
1961
1962
1962
1963
1963
1963
1963
1962
1962
1962
1963
1963
1964
1964
1964
1963
1962
1962
1962
1962
1963
1964
1965
1966
1966
1966
1965
1964
1964
1963
1964
1964
1963
1963
1962
1962
1961
1961
1961
1962
1962
1963
1964
1964
1965
1966
1967
1967
1967
1966
1965
1965
1965
1964
1963
1962
1960
1959
1958
1957
1958
1959
1961
1962
1959
1951
1941
1935
1939
1960
1999
2048
2101
2143
2157
2135
2078
2001
1927
1876
1859
1872
1897
1922
1939
1946
1949
1952
1954
1956
1957
1958
1960
1961
1962
1962
1963
1964
1965
1967
1969
1970
1970
1970
1971
1972
1973
1974
1975
1976
1977
1979
1981
1984
1986
1989
1991
1994
1997
2000
2005
2009
2013
2017
2021
2024
2027
2029
2031
2033
2035
2036
2037
2035
2032
2026
2019
2011
2001
1993
1985
1978
1973
1969
1965
1962
1959
1957
1956
1956
1956
1955
1955
1954
1953
1952
1952
1951
1951
1951
1952
1952
1953
1952
1951
1951
1950
1950
1950
1950
1951
1952
1953
1954
1954
1953
1952
1952
1952
1953
1954
1955
1955
1956
1957
1957
1957
1956
1956
1956
1956
1957
1958
1958
1958
1958
1958
1959
1959
1959
1959
1958
1958
1958
1959
1961
1963
1964
1965
1965
1966
1967
1968
1969
1969
1969
1968
1968
1967
1967
1967
1967
1966
1966
1966
1967
1967
1967
1967
1968
1970
1971
1970
1965
1957
1950
1953
1971
2010
2063
2122
2169
2184
2156
2090
2004
1924
1872
1859
1875
1904
1931
1949
1958
1963
1968
1972
1975
1977
1978
1979
1981
1983
1984
1986
1986
1986
1987
1987
1988
1989
1991
1993
1995
1996
1997
1998
1999
2000
2001
2003
2005
2007
2010
2013
2015
2018
2022
2026
2030
2035
2039
2044
2048
2051
2054
2056
2057
2058
2058
2056
2053
2048
2041
2031
2021
2010
2000
1991
1983
1977
1973
1970
1968
1967
1965
1964
1963
1962
1962
1961
1961
1961
1961
1960
1960
1959
1959
1959
1959
1959
1959
1959
1959
1959
1960
1960
1960
1960
1960
1961
1961
1962
1962
1962
1962
1961
1960
1960
1960
1960
1960
1960
1961
1961
1960
1959
1958
1956
1956
1956
1958
1960
1961
1962
1962
1961
1960
1960
1960
1960
1960
1959
1959
1958
1958
1959
1960
1961
1961
1962
1963
1964
1965
1966
1967
1966
1965
1964
1963
1963
1964
1964
1963
1963
1962
1962
1962
1963
1965
1968
1970
1970
1965
1957
1951
1954
1973
2008
2053
2103
2145
2165
2153
2105
2034
1958
1901
1877
1884
1909
1936
1955
1963
1967
1969
1971
1972
1974
1975
1977
1979
1981
1982
1984
1985
1985
1986
1987
1988
1989
1991
1993
1994
1995
1996
1997
1999
2000
2003
2005
2008
2011
2013
2015
2018
2020
2023
2026
2030
2034
2039
2044
2048
2052
2055
2057
2059
2060
2061
2061
2059
2055
2049
2042
2033
2024
2016
2010
2005
2001
1999
1997
1996
1995
1993
1992
1991
1990
1991
1992
1994
1997
1999
1999
1998
1996
1994
1993
1995
1999
2003
2007
2008
2007
2006
2004
2004
2004
2005
2007
2008
2010
2012
2014
2014
2013
2012
2010
2010
2010
2010
2011
2012
2012
2012
2012
2013
2013
2014
2015
2017
2019
2021
2022
2022
2022
2022
2023
2023
2024
2024
2025
2026
2028
2029
2029
2028
2027
2027
2028
2029
2030
2031
2031
2032
2032
2033
2032
2029
2022
2015
2013
2023
2049
2091
2143
2196
2235
2246
2220
2161
2082
2008
1960
1945
1958
1982
2005
2019
2024
2028
2031
2034
2036
2037
2037
2037
2037
2038
2039
2042
2044
2046
2047
2047
2048
2048
2048
2049
2050
2052
2053
2054
2056
2057
2058
2058
2058
2060
2063
2068
2073
2079
2084
2087
2089
2092
2096
2100
2103
2106
2109
2110
2112
2113
2113
2111
2106
2099
2089
2079
2070
2062
2057
2052
2048
2044
2040
2037
2035
2033
2033
2032
2032
2030
2029
2028
2028
2029
2030
2031
2031
2031
2030
2029
2028
2029
2031
2032
2033
2033
2033
2033
2033
2033
2033
2032
2032
2033
2034
2034
2035
2036
2036
2036
2035
2034
2033
2033
2034
2035
2037
2038
2038
2038
2038
2038
2037
2037
2036
2036
2036
2037
2038
2038
2037
2035
2034
2034
2035
2037
2039
2041
2040
2039
2037
2035
2033
2032
2030
2029
2027
2025
2024
2023
2023
2024
2025
2025
2024
2019
2011
2004
2003
2016
2048
2095
2152
2205
2238
2236
2195
2122
2039
1969
1930
1924
1943
1968
1990
2002
2007
2010
2013
2015
2016
2017
2017
2018
2018
2019
2020
2022
2023
2024
2024
2023
2023
2023
2024
2025
2028
2031
2033
2036
2037
2038
2038
2039
2040
2042
2045
2049
2053
2056
2059
2062
2066
2071
2076
2081
2085
2088
2091
2093
2095
2096
2095
2093
2088
2081
2072
2062
2051
2041
2030
2021
2014
2010
2008
2008
2009
2009
2008
2006
2004
2003
2004
2004
2005
2004
2003
2002
2002
2002
2003
2003
2004
2005
2005
2005
2005
2006
2007
2007
2008
2007
2007
2007
2006
2006
2006
2006
2007
2008
2008
2008
2008
2008
2008
2009
2009
2010
2009
2009
2010
2011
2012
2013
2014
2015
2015
2016
2016
2015
2014
2013
2012
2011
2011
2010
2009
2008
2006
2005
2005
2006
2007
2007
2008
2009
2010
2011
2007
1999
1989
1983
1990
2016
2060
2118
2178
2223
2234
2203
2134
2048
1970
1922
1910
1927
1954
1976
1989
1993
1996
1999
2003
2007
2010
2012
2013
2014
2016
2018
2021
2023
2024
2025
2026
2027
2028
2029
2030
2030
2032
2034
2035
2037
2040
2042
2045
2047
2049
2050
2052
2054
2057
2062
2067
2073
2077
2081
2084
2086
2088
2090
2092
2094
2096
2096
2093
2086
2077
2067
2056
2047
2037
2029
2023
2018
2013
2010
2006
2004
2002
2000
2000
2000
2000
2000
2000
2000
2000
1999
1998
1998
1997
1996
1996
1995
1996
1997
1998
1998
1998
1996
1995
1995
1995
1997
2000
2002
2002
2002
2001
2000
1999
1999
1999
2001
2002
2004
2004
2004
2004
2003
2003
2003
2005
2006
2008
2010
2011
2011
2011
2010
2010
2010
2011
2012
2012
2012
2011
2010
2009
2008
2007
2007
2006
2007
2007
2007
2006
2006
2005
2004
2005
2007
2007
2003
1995
1985
1979
1985
2010
2054
2111
2170
2214
2227
2199
2133
2048
1969
1918
1903
1917
1943
1966
1980
1985
1988
1992
1994
1996
1998
1999
2000
2003
2005
2007
2009
2011
2012
2011
2011
2010
2010
2011
2013
2016
2017
2018
2018
2018
2018
2019
2020
2022
2025
2028
2032
2035
2037
2040
2042
2046
2049
2054
2058
2062
2066
2069
2072
2073
2073
2071
2068
2063
2057
2048
2038
2028
2017
2008
2000
1994
1990
1987
1985
1984
1984
1983
1983
1982
1980
1979
1977
1977
1976
1977
1977
1976
1975
1974
1973
1972
1972
1972
1973
1973
1974
1975
1976
1975
1974
1973
1973
1975
1976
1977
1978
1978
1978
1978
1978
1979
1979
1979
1979
1978
1978
1978
1978
1979
1980
1980
1980
1979
1979
1979
1979
1979
1979
1978
1978
1977
1976
1976
1976
1977
1977
1978
1978
1978
1978
1978
1979
1980
1981
1982
1982
1982
1981
1980
1979
1978
1977
1976
1977
1978
1979
1980
1979
1979
1980
1981
1979
1974
1966
1957
1955
1965
1992
2034
2086
2141
2183
2197
2172
2111
2029
1951
1899
1884
1896
1921
1944
1957
1961
1963
1965
1966
1966
1967
1967
1967
1968
1969
1969
1970
1970
1971
1972
1973
1973
1974
1975
1975
1976
1978
1979
1979
1980
1981
1981
1983
1984
1987
1989
1992
1995
1998
2002
2006
2010
2014
2019
2023
2027
2031
2034
2036
2037
2037
2036
2034
2030
2024
2017
2008
1999
1989
1981
1973
1967
1962
1958
1955
1954
1953
1952
1951
1950
1949
1949
1949
1949
1950
1950
1950
1950
1950
1949
1948
1947
1946
1946
1946
1946
1946
1946
1946
1946
1947
1946
1946
1946
1946
1946
1947
1948
1949
1949
1948
1947
1946
1945
1944
1945
1946
1947
1947
1947
1947
1946
1945
1945
1944
1944
1944
1944
1945
1945
1945
1945
1943
1942
1941
1941
1941
1942
1942
1941
1940
1938
1937
1936
1937
1937
1938
1939
1940
1941
1942
1942
1943
1943
1944
1945
1945
1945
1944
1943
1942
1940
1939
1938
1938
1938
1939
1940
1940
1939
1939
1940
1941
1940
1935
1927
1919
1920
1935
1967
2013
2068
2123
2160
2165
2129
2058
1975
1903
1863
1857
1875
1899
1918
1927
1930
1933
1936
1938
1940
1940
1941
1941
1942
1944
1946
1947
1949
1949
1950
1951
1951
1952
1953
1954
1955
1957
1958
1959
1959
1960
1960
1961
1963
1966
1969
1973
1977
1980
1984
1987
1991
1995
1999
2003
2007
2011
2015
2019
2021
2021
2020
2018
2014
2008
2001
1992
1983
1973
1964
1956
1949
1943
1940
1937
1936
1936
1936
1936
1935
1934
1933
1933
1933
1935
1936
1938
1938
1938
1938
1937
1937
1936
1936
1937
1937
1937
1937
1937
1937
1937
1937
1938
1938
1939
1940
1940
1941
1941
1940
1940
1939
1939
1939
1940
1942
1943
1944
1944
1943
1943
1942
1941
1941
1942
1943
1944
1945
1945
1944
1943
1942
1942
1943
1944
1944
1945
1946
1946
1946
1946
1945
1944
1945
1946
1947
1948
1948
1948
1947
1947
1947
1947
1947
1947
1948
1949
1949
1949
1949
1948
1947
1947
1948
1948
1949
1949
1949
1949
1948
1948
1948
1948
1948
1948
1948
1948
1948
1949
1948
1948
1947
1946
1946
1947
1948
1949
1949
1950
1949
1949
1948
1948
1948
1948
1948
1947
1947
1948
1948
1948
1948
1948
1948
1948
1948
1949
1949
1950
1950
1950
1949
1950
1950
1951
1953
1954
1955
1955
1955
1953
1951
1949
1948
1946
1946
1946
1946
1947
1948
1947
1946
1946
1946
1948
1948
1944
1936
1928
1923
1930
1953
1993
2045
2102
2153
2179
2168
2115
2036
1953
1893
1868
1874
1896
1916
1929
1933
1935
1936
1938
1939
1940
1941
1941
1941
1941
1942
1942
1944
1945
1947
1948
1948
1949
1950
1950
1951
1951
1951
1952
1953
1954
1956
1958
1960
1962
1964
1966
1968
1971
1973
1976
1979
1983
1988
1993
1997
2001
2004
2007
2009
2010
2012
2013
2014
2012
2008
2002
1993
1984
1974
1966
1960
1954
1949
1945
1942
1939
1937
1936
1934
1932
1930
1929
1929
1929
1929
1930
1930
1931
1931
1930
1930
1929
1928
1928
1929
1930
1931
1931
1931
1929
1928
1928
1930
1931
1932
1932
1931
1931
1931
1931
1931
1933
1934
1936
1937
1938
1937
1934
1932
1930
1929
1930
1931
1932
1933
1934
1934
1935
1935
1935
1935
1936
1937
1938
1937
1937
1936
1935
1935
1937
1939
1941
1942
1943
1942
1942
1942
1943
1943
1943
1943
1943
1944
1945
1946
1947
1947
1948
1948
1947
1947
1946
1945
1946
1946
1947
1949
1950
1950
1951
1951
1951
1951
1952
1953
1955
1957
1958
1957
1957
1956
1955
1956
1957
1958
1958
1958
1957
1957
1958
1961
1963
1964
1964
1963
1963
1963
1964
1967
1969
1971
1972
1972
1971
1971
1971
1970
1969
1967
1966
1965
1966
1968
1969
1969
1968
1967
1967
1967
1965
1959
1952
1949
1960
1986
2028
2079
2134
2178
2198
2182
2128
2049
1970
1913
1893
1902
1926
1947
1959
1962
1964
1968
1971
1974
1976
1976
1976
1976
1978
1980
1982
1985
1986
1987
1987
1987
1987
1988
1988
1989
1990
1992
1995
1998
2000
2002
2003
2003
2004
2006
2010
2014
2018
2021
2022
2023
2026
2030
2036
2043
2048
2051
2055
2058
2061
2062
2062
2060
2056
2051
2045
2036
2026
2016
2006
1997
1991
1986
1982
1980
1978
1977
1977
1977
1978
1977
1975
1973
1971
1971
1971
1973
1974
1975
1975
1974
1973
1972
1972
1971
1971
1972
1972
1973
1973
1974
1974
1974
1974
1973
1973
1974
1975
1976
1977
1977
1977
1976
1976
1976
1976
1977
1977
1978
1978
1977
1977
1976
1976
1977
1977
1977
1978
1978
1978
1977
1976
1975
1975
1975
1975
1976
1976
1977
1977
1977
1977
1977
1976
1976
1976
1977
1977
1977
1977
1977
1977
1978
1978
1978
1977
1977
1977
1978
1978
1979
1978
1978
1977
1978
1978
1979
1979
1979
1979
1979
1980
1981
1981
1980
1979
1978
1978
1979
1980
1981
1981
1980
1979
1979
1979
1981
1982
1983
1983
1983
1983
1983
1983
1983
1984
1986
1988
1990
1991
1990
1990
1989
1989
1989
1990
1990
1990
1990
1988
1987
1985
1984
1983
1983
1983
1984
1986
1988
1989
1990
1987
1981
1973
1965
1965
1980
2010
2054
2107
2160
2200
2212
2186
2123
2042
1964
1914
1900
1915
1941
1962
1973
1976
1978
1980
1983
1985
1987
1987
1986
1986
1987
1988
1990
1992
1993
1994
1995
1995
1996
1996
1997
1997
1998
1999
2001
2003
2005
2006
2007
2008
2009
2010
2013
2016
2020
2024
2028
2032
2036
2040
2044
2048
2052
2056
2060
2063
2066
2067
2067
2065
2061
2054
2047
2038
2029
2019
2010
2001
1993
1987
1982
1978
1974
1971
1970
1970
1970
1970
1969
1968
1968
1967
1966
1966
1967
1968
1969
1968
1967
1965
1964
1964
1964
1965
1966
1966
1967
1967
1966
1966
1965
1965
1965
1966
1967
1967
1967
1968
1968
1968
1967
1966
1966
1966
1966
1967
1967
1967
1967
1967
1966
1966
1967
1967
1968
1968
1967
1967
1967
1966
1966
1966
1966
1966
1967
1968
1968
1968
1968
1967
1966
1965
1965
1966
1967
1969
1970
1971
1971
1970
1970
1969
1970
1971
1972
1973
1973
1973
1973
1972
1972
1972
1972
1973
1974
1975
1975
1975
1975
1974
1973
1972
1972
1972
1973
1974
1974
1974
1974
1973
1973
1974
1975
1977
1978
1979
1980
1981
1981
1981
1981
1980
1980
1980
1980
1980
1981
1980
1979
1977
1975
1973
1971
1971
1971
1972
1972
1973
1973
1974
1974
1971
1966
1957
1951
1952
1968
2000
2046
2099
2151
2187
2193
2160
2094
2012
1939
1895
1885
1901
1925
1945
1955
1959
1962
1965
1967
1970
1971
1972
1973
1973
1974
1974
1975
1976
1977
1979
1979
1980
1980
1980
1981
1982
1983
1984
1986
1987
1988
1989
1991
1992
1995
1997
1999
2002
2005
2008
2012
2016
2020
2025
2029
2034
2039
2044
2048
2049
2051
2052
2051
2050
2048
2043
2036
2027
2017
2008
1998
1989
1981
1974
1969
1966
1964
1963
1963
1962
1961
1961
1960
1960
1960
1960
1960
1961
1961
1961
1961
1960
1959
1959
1959
1960
1961
1963
1963
1964
1964
1964
1963
1963
1962
1962
1963
1965
1966
1968
1968
1968
1968
1968
1968
1968
1969
1970
1970
1970
1968
1967
1966
1967
1968
1969
1971
1971
1972
1972
1972
1971
1970
1969
1969
1971
1972
1973
1974
1974
1973
1972
1971
1971
1971
1972
1973
1973
1974
1973
1973
1973
1973
1973
1973
1973
1974
1975
1976
1977
1976
1975
1975
1975
1975
1976
1977
1977
1977
1976
1976
1976
1976
1976
1976
1977
1978
1980
1982
1984
1984
1984
1982
1981
1982
1983
1985
1987
1987
1987
1987
1986
1985
1983
1981
1980
1979
1980
1980
1980
1979
1979
1979
1981
1982
1981
1976
1967
1960
1961
1978
2011
2058
2112
2162
2194
2193
2153
2082
1998
1927
1888
1883
1903
1929
1949
1959
1963
1966
1969
1972
1974
1975
1975
1976
1977
1978
1979
1980
1981
1982
1982
1981
1981
1982
1983
1985
1987
1988
1989
1989
1989
1989
1990
1991
1993
1996
1999
2001
2002
2003
2005
2008
2012
2017
2022
2027
2032
2035
2038
2041
2043
2044
2045
2044
2042
2038
2031
2023
2014
2004
1993
1982
1972
1964
1958
1954
1951
1949
1948
1947
1945
1944
1943
1942
1943
1943
1944
1944
1943
1942
1941
1941
1940
1941
1941
1941
1940
1940
1941
1941
1941
1941
1941
1940
1941
1941
1942
1942
1942
1941
1940
1939
1939
1939
1940
1941
1942
1942
1942
1942
1942
1942
1943
1943
1944
1945
1945
1945
1945
1945
1945
1945
1945
1945
1945
1946
1947
1948
1949
1949
1949
1949
1949
1949
1950
1951
1951
1952
1953
1954
1953
1952
1951
1951
1951
1951
1952
1952
1952
1952
1951
1951
1951
1951
1951
1952
1952
1953
1953
1953
1953
1952
1951
1951
1951
1953
1955
1957
1958
1958
1959
1959
1959
1959
1960
1961
1962
1963
1963
1962
1961
1959
1958
1958
1958
1958
1959
1959
1960
1960
1962
1963
1963
1961
1954
1945
1941
1946
1967
2005
2052
2105
2152
2179
2175
2134
2063
1983
1917
1881
1879
1899
1924
1942
1952
1956
1959
1961
1963
1964
1964
1965
1966
1967
1969
1970
1971
1972
1973
1974
1974
1975
1976
1977
1978
1979
1980
1981
1982
1984
1985
1986
1987
1989
1991
1994
1997
2001
2005
2009
2012
2016
2020
2023
2028
2032
2037
2042
2047
2049
2051
2052
2051
2049
2046
2039
2031
2021
2011
2001
1992
1984
1977
1972
1969
1967
1965
1963
1961
1960
1959
1959
1959
1959
1959
1959
1960
1960
1960
1959
1958
1957
1958
1958
1960
1962
1964
1964
1964
1963
1962
1962
1961
1961
1962
1963
1964
1966
1967
1967
1967
1966
1965
1965
1966
1968
1969
1970
1970
1969
1968
1967
1967
1967
1969
1970
1971
1972
1973
1973
1972
1972
1972
1972
1972
1973
1973
1973
1974
1974
1973
1973
1974
1974
1975
1976
1977
1977
1977
1976
1975
1974
1975
1976
1979
1981
1983
1983
1983
1982
1982
1983
1984
1985
1985
1985
1985
1984
1982
1981
1979
1979
1979
1979
1980
1980
1981
1983
1984
1984
1980
1973
1963
1958
1965
1990
2033
2086
2143
2188
2207
2188
2131
2050
1969
1911
1889
1898
1922
1945
1959
1964
1968
1972
1977
1981
1983
1983
1983
1983
1983
1984
1986
1988
1989
1991
1991
1992
1993
1993
1994
1994
1995
1997
1998
1999
2001
2002
2004
2006
2007
2009
2011
2014
2018
2022
2026
2030
2034
2039
2044
2048
2052
2056
2060
2064
2067
2069
2069
2067
2064
2058
2050
2041
2031
2021
2012
2003
1996
1989
1984
1979
1977
1975
1975
1975
1976
1976
1976
1976
1975
1975
1974
1973
1973
1973
1974
1975
1975
1975
1974
1973
1973
1974
1975
1976
1977
1977
1978
1978
1978
1978
1978
1978
1979
1979
1980
1979
1979
1979
1979
1980
1981
1981
1981
1981
1981
1981
1982
1982
1982
1982
1982
1982
1983
1985
1986
1987
1987
1987
1987
1987
1987
1987
1988
1989
1990
1991
1991
1990
1989
1988
1988
1988
1989
1990
1991
1992
1993
1995
1996
1996
1995
1995
1995
1996
1998
2000
2001
2000
1999
1997
1995
1995
1994
1994
1994
1993
1993
1992
1992
1992
1993
1994
1993
1990
1983
1975
1971
1979
2004
2046
2098
2154
2197
2213
2190
2129
2047
1967
1912
1893
1905
1930
1954
1969
1975
1978
1981
1984
1985
1986
1986
1987
1988
1989
1990
1991
1991
1991
1990
1990
1990
1990
1991
1992
1993
1993
1993
1993
1994
1995
1997
1999
2001
2003
2005
2007
2009
2012
2014
2018
2022
2026
2030
2035
2039
2044
2048
2049
2051
2052
2053
2052
2051
2048
2041
2032
2022
2011
2000
1989
1980
1973
1967
1962
1959
1957
1955
1952
1950
1948
1946
1946
1946
1946
1947
1947
1947
1946
1944
1943
1942
1942
1942
1942
1943
1943
1943
1943
1942
1941
1941
1941
1942
1943
1943
1942
1941
1941
1941
1942
1942
1943
1943
1943
1943
1943
1943
1942
1942
1942
1941
1940
1940
1941
1943
1944
1945
1944
1944
1943
1943
1942
1943
1943
1944
1944
1945
1944
1943
1942
1942
1943
1945
1948
1950
1951
1951
1950
1949
1948
1948
1950
1951
1952
1952
1952
1951
1951
1950
1949
1948
1948
1948
1949
1950
1952
1953
1953
1953
1951
1946
1938
1930
1929
1941
1973
2021
2080
2137
2174
2175
2135
2060
1974
1900
1857
1850
1869
1895
1918
1931
1937
1942
1946
1949
1953
1955
1957
1958
1958
1960
1961
1963
1965
1967
1968
1969
1970
1970
1971
1972
1974
1975
1977
1978
1980
1982
1984
1986
1987
1989
1991
1993
1996
2000
2005
2010
2015
2019
2024
2029
2034
2040
2045
2049
2052
2054
2054
2052
2049
2044
2036
2027
2017
2006
1996
1987
1978
1971
1966
1962
1960
1958
1957
1956
1955
1955
1955
1955
1954
1953
1953
1953
1953
1955
1956
1956
1956
1955
1954
1954
1954
1955
1956
1957
1957
1957
1956
1956
1957
1957
1958
1959
1960
1961
1961
1962
1962
1961
1961
1961
1962
1962
1963
1964
1964
1964
1964
1964
1964
1964
1964
1964
1965
1965
1966
1967
1967
1967
1966
1966
1966
1967
1969
1970
1971
1972
1973
1973
1974
1975
1975
1975
1976
1976
1975
1975
1974
1973
1972
1971
1971
1971
1972
1973
1973
1973
1974
1975
1975
1971
1964
1955
1952
1961
1988
2032
2086
2142
2183
2194
2167
2104
2022
1945
1894
1879
1892
1918
1941
1956
1962
1965
1969
1972
1975
1978
1979
1980
1980
1981
1982
1983
1985
1986
1986
1986
1986
1986
1986
1987
1989
1991
1993
1996
1998
2000
2001
2003
2004
2006
2009
2012
2015
2019
2023
2028
2032
2037
2042
2047
2051
2056
2061
2065
2068
2070
2070
2069
2067
2062
2055
2047
2036
2026
2016
2007
2000
1993
1988
1984
1982
1980
1980
1980
1980
1980
1979
1978
1978
1978
1978
1979
1979
1979
1979
1979
1979
1979
1978
1978
1979
1980
1980
1981
1981
1981
1982
1982
1982
1981
1981
1981
1983
1985
1986
1985
1984
1983
1982
1983
1983
1984
1985
1985
1985
1986
1986
1985
1985
1984
1984
1984
1985
1986
1987
1987
1988
1988
1988
1987
1986
1986
1987
1988
1989
1989
1989
1989
1988
1988
1989
1990
1990
1991
1991
1990
1989
1988
1988
1988
1990
1991
1992
1993
1994
1995
1995
1996
1997
1997
1997
1997
1997
1997
1996
1995
1994
1992
1991
1991
1990
1991
1991
1991
1992
1994
1994
1992
1985
1975
1969
1972
1991
2027
2074
2128
2178
2209
2209
2171
2100
2019
1950
1913
1909
1928
1952
1970
1977
1979
1982
1985
1988
1991
1992
1994
1995
1996
1996
1996
1996
1996
1997
1999
2000
2002
2003
2003
2004
2005
2006
2007
2009
2011
2013
2015
2015
2016
2018
2020
2023
2027
2030
2035
2039
2043
2047
2051
2055
2058
2062
2066
2071
2075
2077
2078
2076
2073
2067
2060
2052
2044
2035
2026
2017
2010
2004
1999
1996
1993
1991
1990
1990
1989
1989
1988
1987
1987
1986
1986
1986
1987
1987
1988
1988
1988
1988
1988
1987
1986
1986
1985
1985
1986
1987
1987
1986
1985
1984
1984
1985
1986
1987
1987
1987
1986
1985
1984
1983
1983
1984
1985
1985
1986
1985
1985
1984
1984
1983
1983
1983
1983
1983
1982
1982
1982
1982
1981
1981
1981
1981
1982
1983
1983
1983
1981
1979
1978
1978
1977
1978
1978
1978
1978
1977
1976
1975
1974
1974
1974
1976
1977
1979
1980
1980
1980
1979
1978
1977
1977
1976
1976
1977
1977
1976
1975
1974
1973
1972
1972
1972
1972
1972
1973
1975
1975
1973
1966
1955
1947
1946
1961
1993
2040
2094
2147
2182
2186
2151
2082
1999
1926
1884
1876
1893
1918
1937
1946
1949
1951
1953
1956
1958
1959
1960
1961
1962
1962
1963
1964
1964
1965
1965
1966
1967
1967
1967
1967
1967
1968
1969
1970
1972
1973
1975
1976
1978
1979
1980
1982
1984
1988
1993
1998
2002
2007
2012
2016
2020
2024
2028
2031
2034
2036
2038
2038
2035
2030
2022
2013
2004
1995
1986
1977
1969
1963
1957
1953
1950
1948
1947
1947
1947
1947
1947
1947
1947
1946
1946
1946
1946
1946
1947
1947
1947
1947
1946
1945
1945
1945
1945
1946
1946
1947
1947
1949
1949
1950
1950
1950
1950
1950
1950
1949
1949
1950
1951
1952
1953
1954
1954
1954
1954
1954
1955
1955
1955
1954
1954
1954
1954
1954
1955
1955
1955
1955
1954
1954
1954
1955
1956
1957
1957
1958
1958
1958
1958
1958
1958
1958
1959
1959
1960
1961
1961
1962
1961
1961
1960
1960
1961
1962
1964
1965
1966
1966
1965
1964
1963
1962
1962
1964
1966
1969
1971
1973
1973
1972
1971
1971
1972
1974
1976
1977
1977
1976
1974
1973
1971
1970
1970
1970
1971
1972
1973
1974
1974
1975
1975
1972
1966
1958
1953
1957
1975
2011
2059
2114
2164
2194
2189
2145
2071
1989
1921
1887
1886
1905
1930
1946
1954
1957
1959
1961
1964
1966
1966
1967
1967
1967
1968
1969
1971
1972
1973
1973
1974
1974
1974
1974
1975
1977
1979
1981
1982
1983
1983
1984
1985
1986
1988
1991
1994
1998
2002
2006
2009
2013
2018
2022
2027
2032
2037
2040
2044
2046
2048
2048
2048
2046
2041
2034
2025
2016
2007
1998
1988
1980
1972
1966
1962
1959
1958
1956
1955
1955
1955
1954
1954
1954
1953
1953
1953
1954
1955
1956
1956
1956
1955
1954
1954
1954
1955
1956
1956
1957
1957
1958
1958
1958
1958
1959
1959
1960
1961
1961
1961
1961
1960
1960
1961
1961
1961
1961
1962
1962
1963
1963
1963
1963
1962
1962
1962
1962
1963
1963
1963
1962
1961
1961
1961
1962
1962
1963
1963
1963
1963
1962
1961
1961
1962
1963
1965
1966
1967
1967
1966
1965
1965
1964
1965
1965
1965
1966
1968
1969
1970
1970
1971
1971
1972
1973
1974
1975
1975
1975
1974
1973
1972
1970
1969
1969
1969
1970
1971
1971
1971
1971
1971
1972
1971
1967
1959
1951
1952
1967
2000
2048
2104
2158
2192
2193
2155
2083
1998
1925
1884
1878
1897
1924
1946
1958
1963
1967
1970
1972
1973
1974
1975
1976
1978
1979
1981
1982
1983
1983
1983
1984
1984
1985
1986
1987
1989
1990
1990
1991
1992
1993
1994
1995
1997
1999
2002
2005
2008
2012
2015
2019
2022
2027
2031
2037
2042
2047
2049
2052
