2026
2022
2024
2026
2029
2031
2032
2032
2032
2032
2032
2032
2033
2033
2033
2033
2034
2033
2034
2034
2033
2031
2029
2027
2029
2033
2039
2042
2041
2038
2035
2032
2032
2031
2032
2032
2034
2035
2036
2037
2037
2037
2037
2037
2037
2038
2038
2038
2035
2038
2039
2039
2038
2035
2035
2035
2038
2042
2044
2042
2040
2038
2035
2036
2036
2036
2035
2035
2034
2034
2034
2035
2035
2034
2033
2032
2031
2032
2032
2032
2032
2033
2033
2032
2029
2025
2024
2027
2032
2038
2040
2038
2035
2032
2032
2033
2033
2033
2031
2030
2030
2031
2032
2032
2032
2032
2032
2032
2031
2031
2030
2031
2033
2033
2032
2028
2024
2023
2026
2033
2038
2040
2038
2034
2030
2029
2031
2029
2029
2029
2029
2031
2032
2033
2032
2032
2031
2031
2031
2032
2032
2032
2030
2033
2033
2032
2028
2023
2020
2022
2029
2039
2045
2045
2040
2034
2028
2029
2029
2032
2033
2034
2034
2034
2033
2033
2033
2034
2034
2034
2034
2033
2032
2030
2032
2033
2032
2030
2025
2022
2023
2029
2037
2043
2043
2039
2032
2027
2026
2030
2037
2047
2056
2063
2065
2060
2049
2038
2028
2023
2022
2025
2028
2030
2031
2032
2033
2033
2030
2026
2023
2023
2028
2034
2039
2040
2037
2033
2030
2029
2030
2031
2032
2031
2032
2031
2031
2031
2032
2033
2033
2034
2034
2033
2032
2032
2031
2035
2036
2038
2035
2031
2028
2027
2033
2040
2045
2046
2043
2040
2036
2036
2036
2038
2039
2040
2040
2040
2040
2040
2040
2039
2039
2038
2038
2038
2038
2037
2037
2036
2034
2032
2030
2029
2030
2034
2038
2041
2040
2038
2035
2033
2033
2033
2034
2034
2035
2036
2036
2037
2035
2035
2035
2034
2035
2036
2036
2037
2034
2035
2036
2035
2033
2030
2028
2029
2036
2043
2047
2046
2040
2034
2030
2030
2033
2033
2033
2033
2033
2033
2034
2034
2034
2033
2033
2033
2033
2034
2034
2034
2034
2035
2035
2034
2031
2029
2028
2031
2036
2040
2041
2039
2037
2034
2034
2035
2036
2036
2035
2035
2034
2034
2035
2034
2035
2035
2035
2035
2035
2035
2035
2034
2037
2035
2035
2032
2031
2030
2033
2038
2041
2043
2042
2039
2037
2034
2036
2035
2035
2036
2036
2036
2037
2037
2037
2038
2037
2037
2036
2035
2035
2035
2035
2038
2038
2038
2035
2030
2026
2029
2039
2055
2070
2076
2074
2065
2054
2052
2054
2063
2074
2083
2092
2097
2103
2108
2111
2115
2116
2119
2120
2122
2124
2123
2128
2130
2130
2127
2126
2126
2128
2129
2131
2130
2129
2130
2134
2136
2136
2135
2130
2126
2126
2126
2128
2127
2127
2127
2126
2126
2125
2124
2124
2123
2122
2123
2124
2124
2122
2119
2116
2115
2117
2121
2124
2124
2122
2119
2115
2114
2113
2112
2112
2110
2109
2108
2107
2106
2104
2103
2102
2100
2101
2099
2098
2096
2096
2096
2096
2095
2091
2089
2087
2088
2092
2093
2095
2091
2088
2084
2084
2084
2084
2083
2082
2082
2081
2081
2080
2080
2079
2079
2078
2077
2076
2076
2075
2075
2076
2075
2073
2070
2067
2066
2068
2071
2074
2075
2073
2071
2068
2066
2065
2064
2063
2063
2063
2064
2064
2064
2063
2061
2061
2060
2060
2060
2060
2060
2057
2059
2058
2056
2053
2050
2048
2050
2054
2058
2061
2059
2056
2053
2050
2051
2051
2050
2052
2051
2051
2050
2050
2051
2051
2051
2051
2051
2049
2050
2049
2048
2048
2048
2048
2046
2044
2042
2041
2045
2048
2050
2050
2048
2046
2043
2044
2045
2045
2044
2042
2041
2040
2041
2045
2051
2061
2070
2075
2073
2064
2053
2042
2034
2033
2032
2034
2034
2034
2035
2037
2041
2044
2045
2044
2041
2040
2038
2039
2037
2038
2038
2038
2038
2039
2039
2039
2039
2039
2039
2039
2038
2037
2037
2036
2039
2039
2039
2037
2034
2031
2032
2035
2040
2045
2046
2045
2043
2038
2040
2038
2039
2040
2040
2041
2040
2041
2041
2041
2042
2042
2042
2041
2041
2041
2038
2040
2041
2040
2038
2034
2032
2032
2036
2039
2042
2041
2038
2035
2032
2032
2033
2032
2033
2033
2033
2032
2032
2032
2032
2032
2032
2032
2032
2032
2032
2031
2032
2032
2033
2032
2029
2027
2026
2029
2034
2039
2041
2040
2036
2032
2031
2031
2030
2032
2032
2033
2033
2033
2033
2033
2033
2032
2032
2032
2032
2033
2032
2032
2032
2031
2031
2030
2029
2029
2030
2033
2035
2037
2037
2035
2032
2031
2031
2032
2032
2032
2031
2031
2031
2032
2032
2032
2032
2031
2031
2031
2032
2032
2030
2032
2032
2031
2029
2026
2024
2026
2032
2037
2041
2040
2037
2034
2030
2032
2031
2032
2032
2032
2033
2032
2032
2032
2033
2034
2034
2033
2033
2032
2032
2031
2034
2034
2034
2032
2029
2027
2028
2032
2039
2048
2057
2063
2065
2060
2053
2044
2034
2029
2027
2028
2030
2031
2032
2033
2034
2034
2033
2033
2034
2034
2034
2034
2034
2035
2033
2033
2033
2032
2034
2036
2038
2039
2038
2037
2035
2034
2034
2035
2035
2035
2036
2036
2036
2036
2035
2036
2036
2036
2037
2036
2036
2035
2036
2038
2038
2038
2035
2032
2032
2036
2042
2046
2046
2045
2041
2038
2038
2039
2039
2039
2039
2038
2038
2038
2037
2037
2037
2037
2037
2036
2036
2035
2033
2034
2036
2036
2035
2032
2028
2026
2028
2032
2037
2041
2042
2040
2036
2033
2034
2032
2032
2033
2033
2034
2034
2034
2035
2034
2034
2034
2034
2034
2034
2035
2033
2036
2036
2035
2032
2028
2026
2028
2033
2039
2041
2040
2036
2033
2031
2031
2033
2032
2033
2032
2032
2031
2031
2031
2031
2031
2032
2032
2032
2032
2032
2031
2032
2032
2033
2031
2028
2025
2025
2029
2035
2040
2041
2039
2035
2030
2030
2030
2030
2032
2032
2034
2035
2035
2036
2036
2036
2035
2034
2035
2034
2034
2037
2036
2037
2035
2033
2030
2028
2030
2033
2038
2041
2041
2039
2035
2034
2032
2032
2032
2031
2032
2034
2040
2048
2057
2064
2066
2062
2053
2043
2034
2028
2028
2027
2032
2034
2034
2032
2029
2028
2030
2036
2041
2044
2043
2040
2037
2033
2036
2034
2035
2035
2036
2037
2038
2039
2038
2038
2038
2038
2038
2039
2038
2038
2037
2040
2039
2040
2039
2037
2037
2038
2041
2044
2047
2047
2046
2044
2043
2043
2044
2045
2046
2046
2047
2048
2048
2045
2042
2040
2041
2045
2050
2055
2054
2050
2046
2042
2042
2041
2041
2039
2038
2040
2042
2044
2044
2042
2040
2038
2037
2037
2037
2038
2037
2038
2037
2037
2037
2036
2037
2037
2037
2037
2037
2037
2037
2038
2039
2038
2037
2036
2034
2034
2035
2038
2040
2041
2040
2038
2037
2036
2036
2035
2034
2035
2035
2037
2037
2038
2038
2038
2038
2038
2038
2038
2037
2036
2035
2037
2038
2039
2037
2033
2031
2032
2035
2040
2044
2045
2043
2039
2036
2037
2037
2038
2039
2039
2039
2039
2039
2040
2039
2039
2038
2038
2038
2038
2038
2036
2039
2039
2039
2038
2035
2033
2033
2037
2042
2045
2045
2041
2038
2034
2034
2038
2044
2053
2062
2069
2070
2064
2054
2044
2035
2031
2030
2031
2033
2034
2035
2038
2039
2039
2038
2035
2033
2033
2036
2041
2045
2047
2045
2043
2041
2040
2040
2040
2041
2040
2041
2041
2041
2042
2041
2042
2041
2041
2042
2042
2043
2043
2044
2046
2045
2044
2040
2037
2037
2041
2047
2051
2055
2054
2051
2048
2047
2048
2048
2049
2049
2049
2049
2049
2049
2049
2049
2049
2048
2048
2047
2047
2046
2046
2048
2047
2045
2040
2036
2035
2038
2044
2048
2050
2048
2045
2042
2039
2041
2039
2039
2039
2039
2040
2040
2040
2040
2040
2040
2040
2040
2040
2040
2040
2039
2042
2042
2041
2039
2036
2035
2037
2041
2045
2048
2048
2045
2043
2041
2041
2041
2041
2042
2042
2041
2041
2041
2040
2042
2041
2042
2042
2042
2042
2041
2041
2042
2042
2043
2041
2039
2037
2039
2041
2045
2047
2047
2045
2043
2040
2040
2040
2042
2043
2044
2045
2045
2046
2046
2046
2045
2045
2045
2045
2045
2045
2045
2045
2046
2045
2045
2042
2040
2041
2043
2047
2048
2048
2048
2047
2047
2044
2044
2042
2043
2048
2056
2067
2076
2079
2075
2066
2054
2046
2040
2038
2038
2041
2042
2044
2047
2047
2045
2041
2036
2036
2041
2048
2054
2055
2052
2048
2042
2042
2044
2045
2046
2046
2046
2045
2045
2045
2045
2046
2046
2047
2046
2045
2046
2044
2048
2048
2048
2047
2044
2042
2043
2048
2053
2057
2057
2054
2052
2049
2049
2050
2050
2050
2051
2051
2051
2052
2052
2052
2052
2051
2050
2049
2049
2048
2048
2048
2048
2048
2048
2046
2044
2044
2045
2047
2048
2048
2048
2046
2045
2044
2044
2045
2044
2044
2044
2044
2044
2044
2045
2045
2045
2045
2045
2044
2044
2044
2043
2045
2043
2045
2043
2041
2040
2041
2044
2048
2049
2048
2047
2044
2041
2042
2042
2043
2043
2043
2043
2043
2043
2043
2043
2043
2043
2042
2042
2042
2042
2043
2043
2044
2043
2042
2040
2039
2040
2043
2046
2048
2048
2046
2044
2042
2042
2042
2042
2042
2043
2043
2043
2043
2043
2043
2044
2044
2045
2046
2046
2046
2043
2045
2044
2043
2042
2040
2040
2041
2044
2046
2046
2045
2042
2040
2039
2040
2041
2041
2040
2040
2041
2041
2041
2040
2039
2038
2039
2045
2053
2063
2070
2072
2067
2057
2048
2039
2033
2030
2031
2034
2038
2042
2044
2043
2041
2038
2037
2036
2038
2038
2038
2039
2039
2039
2039
2039
2039
2039
2039
2039
2038
2039
2038
2039
2041
2039
2037
2034
2032
2033
2037
2042
2046
2046
2043
2041
2039
2039
2041
2040
2039
2038
2039
2039
2040
2041
2041
2042
2043
2044
2043
2043
2042
2039
2040
2042
2044
2042
2038
2033
2028
2031
2036
2044
2049
2048
2044
2037
2032
2031
2033
2034
2034
2034
2033
2033
2033
2033
2033
2033
2032
2032
2032
2032
2032
2032
2032
2034
2033
2031
2026
2024
2025
2031
2039
2043
2042
2038
2034
2031
2029
2032
2031
2031
2031
2031
2032
2032
2031
2031
2030
2031
2030
2030
2031
2030
2031
2032
2032
2032
2029
2029
2028
2028
2028
2028
2028
2030
2035
2039
2040
2039
2035
2032
2028
2028
2030
2031
2031
2031
2032
2032
2032
2032
2032
2031
2031
2031
2030
2033
2032
2033
2031
2028
2028
2030
2034
2038
2039
2039
2036
2035
2032
2033
2032
2032
2032
2032
2032
2032
2031
2032
2032
2032
2032
2032
2033
2033
2033
2031
2031
2030
2031
2032
2037
2045
2055
2065
2068
2063
2052
2040
2029
2023
2024
2025
2028
2029
2031
2032
2032
2033
2033
2033
2034
2034
2034
2034
2033
2033
2032
2035
2035
2035
2034
2031
2030
2031
2035
2038
2041
2041
2039
2036
2034
2034
2035
2035
2037
2037
2037
2037
2037
2037
2038
2037
2037
2038
2039
2040
2041
2041
2042
2041
2043
2042
2040
2040
2040
2042
2045
2048
2049
2048
2046
2042
2041
2041
2041
2041
2040
2040
2038
2038
2038
2037
2037
2037
2037
2037
2036
2037
2037
2036
2039
2038
2037
2034
2032
2032
2033
2038
2042
2043
2042
2039
2037
2035
2036
2035
2036
2037
2038
2038
2038
2037
2037
2037
2037
2037
2037
2037
2036
2035
2035
2037
2037
2037
2036
2033
2031
2032
2034
2039
2043
2044
2042
2039
2034
2035
2033
2034
2035
2034
2035
2035
2035
2035
2035
2035
2034
2035
2034
2034
2034
2033
2035
2036
2035
2034
2031
2029
2030
2034
2038
2040
2040
2037
2035
2033
2034
2036
2036
2037
2036
2035
2035
2035
2035
2036
2036
2036
2035
2035
2035
2035
2034
2035
2035
2036
2036
2033
2032
2031
2034
2038
2041
2041
2039
2036
2035
2039
2049
2060
2069
2070
2066
2055
2043
2034
2029
2029
2030
2033
2035
2035
2037
2036
2038
2039
2038
2037
2033
2032
2032
2035
2039
2042
2043
2041
2040
2037
2037
2038
2037
2038
2037
2038
2038
2038
2039
2039
2039
2039
2039
2039
2039
2039
2040
2039
2042
2042
2041
2038
2035
2035
2038
2045
2049
2052
2050
2048
2044
2041
2043
2042
2043
2043
2044
2045
2045
2044
2043
2042
2042
2041
2040
2040
2039
2038
2037
2040
2039
2037
2035
2032
2032
2033
2037
2041
2043
2042
2039
2036
2034
2035
2035
2035
2036
2036
2036
2035
2035
2035
2036
2035
2035
2035
2035
2035
2036
2036
2036
2035
2036
2033
2031
2031
2031
2035
2038
2040
2040
2037
2036
2032
2034
2035
2035
2036
2034
2035
2034
2034
2035
2035
2035
2036
2036
2036
2036
2036
2035
2034
2036
2036
2036
2035
2033
2032
2033
2037
2040
2041
2041
2038
2036
2034
2035
2035
2035
2035
2035
2036
2037
2036
2037
2037
2037
2038
2038
2038
2038
2038
2037
2040
2041
2041
2038
2035
2033
2035
2038
2043
2047
2047
2044
2041
2037
2038
2037
2037
2038
2037
2038
2038
2038
2039
2039
2039
2038
2038
2039
2044
2053
2062
2072
2075
2072
2059
2046
2035
2031
2034
2040
2046
2047
2045
2043
2041
2041
2041
2043
2043
2043
2043
2043
2043
2043
2043
2044
2044
2045
2044
2045
2044
2044
2046
2045
2046
2045
2043
2042
2042
2044
2048
2050
2051
2051
2048
2047
2047
2047
2047
2047
2047
2047
2048
2048
2048
2049
2049
2049
2050
2050
2050
2050
2051
2050
2052
2051
2050
2048
2043
2044
2046
2050
2052
2052
2048
2046
2046
2045
2048
2046
2044
2043
2041
2043
2042
2042
2041
2041
2041
2040
2040
2040
2041
2040
2039
2041
2041
2040
2037
2034
2033
2036
2041
2045
2047
2045
2042
2038
2035
2036
2036
2036
2036
2036
2037
2036
2036
2036
2036
2037
2036
2036
2035
2034
2034
2033
2035
2035
2035
2033
2031
2030
2030
2032
2036
2037
2036
2034
2032
2030
2031
2031
2032
2032
2031
2031
2031
2030
2031
2031
2031
2031
2030
2030
2031
2031
2032
2030
2032
2033
2031
2027
2024
2023
2028
2034
2040
2041
2038
2034
2029
2027
2030
2031
2031
2032
2033
2034
2031
2027
2024
2024
2028
2036
2041
2040
2035
2027
2020
2022
2026
2030
2030
2028
2026
2026
2030
2037
2040
2038
2034
2030
2024
2026
2030
2036
2047
2056
2063
2065
2058
2048
2037
2028
2023
2022
2023
2026
2028
2029
2033
2033
2032
2029
2024
2022
2022
2027
2035
2041
2043
2040
2035
2030
2031
2031
2031
2032
2032
2032
2032
2032
2032
2032
2032
2030
2030
2031
2031
2031
2031
2032
2034
2034
2033
2029
2026
2026
2030
2037
2043
2045
2043
2038
2034
2032
2035
2035
2037
2037
2037
2038
2038
2038
2038
2038
2038
2037
2036
2036
2035
2035
2033
2034
2034
2032
2028
2025
2024
2029
2036
2042
2043
2040
2035
2030
2028
2030
2031
2031
2030
2030
2030
2030
2030
2031
2032
2031
2032
2032
2031
2030
2031
2030
2031
2032
2032
2030
2026
2025
2026
2030
2036
2039
2038
2034
2031
2029
2031
2032
2033
2031
2030
2029
2030
2030
2031
2031
2032
2033
2032
2032
2032
2031
2030
2032
2032
2032
2028
2025
2023
2025
2031
2039
2044
2043
2040
2035
2029
2031
2030
2031
2032
2033
2034
2034
2035
2035
2035
2036
2036
2036
2036
2036
2036
2035
2037
2037
2037
2035
2031
2028
2027
2030
2036
2042
2044
2041
2038
2034
2032
2032
2034
2035
2035
2034
2033
2033
2034
2039
2047
2056
2065
2069
2065
2055
2043
2032
2027
2029
2029
2029
2027
2026
2029
2035
2040
2043
2041
2038
2035
2033
2033
2034
2034
2033
2033
2034
2034
2035
2034
2035
2034
2034
2035
2035
2036
2035
2035
2036
2036
2035
2034
2032
2032
2034
2039
2042
2044
2043
2040
2037
2035
2035
2035
2035
2035
2035
2037
2038
2038
2038
2038
2038
2038
2038
2038
2038
2038
2037
2039
2038
2038
2034
2030
2028
2029
2034
2039
2043
2042
2038
2034
2029
2032
2032
2034
2033
2033
2033
2034
2034
2035
2034
2034
2033
2033
2033
2033
2033
2031
2035
2036
2037
2036
2031
2028
2027
2032
2038
2044
2045
2043
2039
2035
2035
2035
2034
2034
2034
2034
2034
2035
2034
2033
2033
2034
2035
2036
2036
2036
2035
2034
2035
2036
2035
2033
2030
2029
2032
2037
2043
2046
2043
2038
2034
2032
2033
2036
2036
2036
2035
2035
2037
2039
2040
2039
2037
2035
2034
2034
2034
2036
2034
2037
2037
2036
2033
2030
2029
2032
2037
2042
2043
2041
2037
2035
2033
2037
2038
2038
2038
2038
2037
2037
2036
2036
2035
2035
2035
2035
2036
2036
2036
2034
2035
2035
2035
2033
2031
2030
2032
2036
2040
2041
2038
2035
2033
2035
2045
2054
2064
2070
2068
2060
2049
2039
2032
2030
2030
2032
2035
2037
2037
2038
2037
2039
2039
2037
2034
2030
2029
2031
2037
2043
2046
2045
2041
2037
2035
2034
2037
2037
2037
2037
2037
2038
2038
2038
2038
2038
2038
2038
2038
2038
2038
2038
2038
2039
2040
2039
2037
2036
2037
2040
2044
2048
2048
2046
2044
2041
2041
2041
2043
2043
2042
2043
2043
2042
2042
2041
2040
2039
2039
2038
2037
2037
2036
2035
2036
2034
2035
2034
2032
2031
2032
2033
2035
2037
2036
2035
2033
2030
2031
2030
2032
2031
2031
2032
2032
2033
2033
2033
2032
2032
2032
2032
2033
2032
2033
2034
2033
2033
2030
2028
2027
2030
2034
2039
2041
2040
2037
2033
2031
2034
2033
2034
2034
2033
2033
2033
2033
2033
2032
2032
2031
2031
2031
2031
2031
2029
2033
2034
2034
2032
2029
2027
2028
2032
2037
2039
2039
2037
2035
2033
2033
2033
2032
2032
2033
2033
2034
2035
2035
2035
2035
2036
2035
2035
2036
2036
2037
2039
2039
2041
2040
2039
2038
2038
2039
2042
2045
2045
2045
2042
2040
2039
2038
2039
2039
2038
2037
2037
2036
2036
2037
2036
2036
2036
2036
2035
2035
2035
2033
2037
2037
2035
2032
2029
2030
2031
2033
2034
2032
2032
2037
2048
2059
2072
2075
2069
2057
2044
2032
2024
2021
2023
2024
2026
2027
2027
2028
2028
2028
2027
2028
2029
2028
2027
2025
2023
2024
2027
2031
2033
2032
2031
2028
2025
2026
2026
2026
2026
2027
2027
2027
2027
2027
2027
2027
2028
2029
2030
2030
2030
2029
2029
2032
2031
2030
2026
2024
2024
2029
2037
2042
2044
2041
2037
2034
2032
2035
2035
2036
2036
2036
2036
2036
2036
2036
2035
2035
2035
2035
2034
2033
2033
2032
2032
2033
2032
2031
2029
2028
2029
2032
2036
2037
2036
2033
2031
2029
2029
2031
2032
2032
2032
2032
2033
2033
2032
2032
2031
2031
2032
2032
2032
2032
2032
2033
2032
2031
2030
2029
2030
2032
2035
2037
2037
2035
2033
2032
2031
2032
2032
2032
2033
2034
2035
2035
2035
2034
2034
2033
2035
2035
2036
2036
2035
2034
2036
2037
2037
2035
2032
2031
2032
2035
2040
2044
2043
2040
2036
2033
2035
2036
2037
2037
2038
2038
2038
2038
2038
2038
2038
2038
2038
2038
2037
2038
2036
2039
2039
2038
2038
2034
2033
2032
2035
2039
2042
2044
2044
2043
2040
2039
2037
2035
2038
2044
2052
2065
2076
2080
2077
2067
2054
2042
2035
2033
2034
2036
2040
2042
2044
2043
2041
2038
2038
2041
2047
2051
2052
2051
2048
2044
2044
2044
2046
2046
2046
2045
2045
2045
2046
2046
2046
2046
2046
2046
2046
2046
2045
2046
2048
2047
2045
2043
2041
2042
2047
2051
2055
2054
2051
2048
2047
2047
2049
2050
2051
2050
2049
2049
2049
2050
2051
2051
2051
2051
2050
2049
2049
2048
2048
2049
2049
2048
2046
2042
2040
2041
2044
2048
2051
2052
2049
2046
2043
2043
2042
2041
2042
2043
2044
2043
2044
2044
2044
2044
2043
2043
2044
2043
2044
2043
2045
2044
2044
2043
2041
2041
2042
2045
2048
2049
2048
2046
2045
2044
2045
2045
2045
2045
2045
2045
2046
2046
2046
2045
2045
2045
2045
2045
2046
2046
2046
2045
2047
2047
2045
2042
2039
2040
2045
2050
2054
2055
2051
2048
2045
2044
2046
2046
2046
2046
2047
2047
2047
2048
2047
2048
2048
2048
2048
2048
2049
2048
2048
2049
2049
2049
2048
2048
2048
2049
2052
2054
2056
2055
2054
2051
2048
2049
2048
2048
2048
2048
2048
2048
2049
2049
2050
2048
2048
2047
2047
2048
2047
2045
2047
2045
2045
2046
2049
2056
2068
2078
2083
2080
2068
2054
2042
2033
2034
2035
2037
2038
2038
2038
2037
2037
2037
2038
2039
2039
2040
2040
2040
2041
2039
2042
2042
2042
2041
2039
2039
2039
2043
2046
2048
2048
2046
2044
2043
2044
2044
2044
2045
2045
2046
2046
2047
2047
2048
2048
2048
2049
2050
2050
2051
2052
2051
2054
2055
2054
2052
2050
2050
2053
2058
2062
2063
2061
2058
2055
2052
2053
2052
2052
2051
2051
2050
2050
2050
2049
2049
2049
2048
2048
2048
2048
2048
2048
2049
2048
2048
2046
2044
2044
2047
2050
2053
2056
2053
2050
2048
2045
2047
2048
2051
2051
2051
2050
2049
2049
2050
2051
2051
2050
2050
2049
2049
2049
2048
2050
2050
2049
2047
2044
2042
2044
2048
2052
2054
2053
2050
2048
2045
2048
2048
2048
2048
2048
2048
2048
2048
2049
2049
2050
2049
2049
2049
2048
2049
2048
2050
2049
2048
2048
2045
2045
2046
2049
2052
2054
2053
2050
2048
2044
2046
2046
2046
2048
2048
2049
2048
2048
2048
2048
2048
2048
2048
2048
2048
2048
2048
2048
2048
2048
2048
2047
2046
2045
2047
2048
2051
2054
2055
2054
2052
2050
2049
2048
2052
2056
2066
2075
2084
2087
2082
2073
2062
2052
2048
2046
2047
2048
2050
2052
2051
2053
2052
2050
2049
2048
2050
2053
2055
2056
2054
2052
2049
2049
2048
2051
2052
2053
2051
2048
2046
2046
2050
2055
2060
2061
2060
2056
2053
2052
2054
2055
2055
2053
2051
2049
2050
2052
2057
2061
2062
2061
2058
2054
2055
2055
2056
2057
2056
2057
2056
2057
2057
2057
2057
2056
2055
2055
2054
2054
2052
2054
2054
2053
2052
2048
2047
2046
2048
2052
2055
2055
2053
2051
2050
2049
2049
2048
2048
2048
2048
2048
2049
2048
2048
2048
2048
2048
2048
2048
2048
2048
2048
2048
2048
2048
2046
2043
2043
2045
2048
2052
2053
2052
2049
2046
2045
2044
2045
2045
2045
2044
2044
2044
2044
2044
2044
2045
2045
2044
2044
2043
2044
2044
2045
2047
2046
2042
2037
2035
2037
2044
2050
2054
2052
2048
2044
2039
2039
2041
2041
2042
2044
2045
2045
2043
2042
2042
2041
2044
2044
2044
2044
2044
2043
2043
2044
2043
2041
2038
2037
2038
2041
2047
2048
2048
2045
2042
2039
2040
2041
2041
2041
2042
2042
2043
2042
2041
2041
2043
2048
2058
2070
2078
2079
2071
2061
2049
2040
2035
2032
2033
2036
2041
2047
2050
2050
2048
2044
2041
2041
2042
2041
2042
2041
2041
2041
2041
2040
2041
2040
2040
2041
2041
2041
2040
2040
2040
2040
2042
2041
2039
2037
2037
2038
2041
2044
2045
2044
2042
2040
2039
2039
2041
2042
2042
2043
2043
2044
2044
2044
2045
2045
2046
2046
2046
2046
2047
2046
2048
2048
2047
2045
2042
2041
2042
2044
2046
2047
2045
2044
2042
2040
2041
2040
2040
2040
2040
2041
2042
2042
2042
2042
2042
2042
2041
2041
2041
2041
2039
2041
2040
2040
2038
2035
2033
2034
2036
2040
2043
2043
2041
2038
2034
2035
2035
2036
2035
2035
2035
2034
2035
2036
2036
2036
2036
2036
2036
2036
2036
2035
2037
2038
2037
2037
2034
2033
2033
2037
2041
2044
2045
2043
2041
2039
2039
2039
2038
2040
2040
2041
2042
2044
2043
2043
2042
2042
2041
2042
2042
2042
2041
2043
2043
2044
2043
2041
2038
2039
2041
2045
2048
2049
2048
2046
2042
2040
2038
2040
2044
2052
2063
2073
2078
2076
2068
2055
2045
2038
2035
2036
2039
2042
2042
2047
2047
2048
2046
2042
2041
2042
2047
2053
2056
2057
2055
2052
2047
2048
2047
2046
2048
2049
2050
2051
2050
2050
2049
2049
2050
2050
2050
2050
2050
2049
2051
2052
2051
2049
2047
2047
2048
2053
2058
2061
2060
2057
2055
2053
2055
2055
2055
2055
2056
2057
2058
2058
2058
2057
2056
2056
2056
2056
2056
2056
2054
2054
2054
2052
2049
2047
2044
2045
2048
2053
2056
2056
2052
2048
2047
2045
2047
2047
2047
2047
2046
2046
2045
2044
2045
2044
2044
2044
2044
2044
2043
2043
2043
2042
2043
2042
2040
2038
2038
2040
2043
2046
2047
2045
2042
2039
2038
2037
2038
2039
2038
2038
2038
2038
2038
2038
2037
2037
2037
2036
2036
2036
2036
2035
2037
2036
2035
2034
2031
2032
2034
2038
2040
2041
2039
2038
2036
2035
2037
2036
2036
2036
2035
2036
2037
2036
2036
2036
2036
2037
2037
2037
2036
2036
2034
2037
2037
2038
2036
2034
2032
2033
2035
2039
2041
2040
2039
2039
2042
2053
2063
2072
2072
2065
2054
2043
2034
2030
2031
2033
2035
2037
2038
2038
2038
2036
2039
2040
2040
2039
2036
2034
2034
2038
2042
2044
2044
2042
2041
2040
2040
2040
2039
2038
2039
2039
2040
2041
2040
2040
2040
2040
2040
2040
2041
2041
2042
2043
2043
2044
2043
2041
2039
2039
2041
2045
2048
2050
2049
2048
2045
2045
2045
2046
2047
2047
2047
2047
2046
2046
2047
2046
2046
2045
2045
2044
2043
2043
2041
2044
2044
2043
2040
2036
2035
2037
2043
2048
2050
2049
2044
2043
2038
2040
2041
2040
2041
2042
2044
2045
2045
2044
2043
2042
2041
2043
2043
2042
2042
2041
2043
2045
2044
2041
2039
2037
2039
2041
2044
2045
2045
2047
2048
2048
2048
2047
2042
2040
2041
2043
2044
2043
2043
2043
2045
2045
2045
2044
2044
2044
2043
2045
2045
2044
2044
2042
2042
2042
2044
2048
2050
2052
2051
2049
2047
2046
2045
2045
2046
2046
2045
2045
2044
2044
2045
2044
2045
2045
2046
2046
2046
2045
2046
2046
2047
2045
2041
2039
2040
2046
2057
2070
2080
2083
2078
2067
2056
2046
2041
2039
2040
2042
2044
2045
2046
2046
2046
2046
2046
2046
2047
2047
2047
2047
2048
2047
2048
2047
2045
2044
2045
2047
2050
2052
2053
2052
2049
2048
2048
2047
2048
2048
2048
2048
2049
2050
2050
2051
2050
2050
2050
2050
2050
2050
2049
2051
2052
2052
2053
2050
2048
2048
2049
2053
2058
2060
2060
2057
2053
2053
2051
2051
2052
2050
2050
2049
2048
2048
2048
2048
2048
2048
2047
2046
2046
2046
2046
2048
2048
2045
2040
2037
2037
2042
2049
2053
2053
2049
2046
2044
2043
2046
2045
2045
2045
2044
2044
2044
2044
2044
2044
2044
2043
2043
2044
2044
2044
2044
2046
2045
2044
2040
2036
2036
2039
2045
2050
2052
2049
2046
2042
2040
2043
2043
2044
2043
2043
2043
2043
2043
2043
2044
2043
2043
2043
2043
2043
2043
2043
2044
2043
2042
2041
2039
2039
2040
2044
2047
2048
2046
2042
2043
2040
2041
2041
2040
2040
2042
2045
2047
2047
2046
2044
2043
2043
2044
2044
2043
2043
2042
2043
2044
2044
2043
2041
2040
2041
2043
2046
2048
2048
2046
2043
2040
2039
2040
2043
2049
2060
2071
2078
2077
2070
2058
2047
2040
2037
2038
2040
2043
2042
2044
2045
2044
2044
2041
2040
2040
2043
2048
2050
2051
2048
2046
2043
2042
2044
2044
2045
2046
2045
2046
2045
2045
2046
2045
2046
2046
2046
2046
2046
2047
2046
2047
2048
2047
2046
2044
2044
2045
2048
2051
2052
2052
2051
2049
2049
2049
2050
2050
2050
2051
2052
2052
2052
2052
2051
2050
2049
2049
2050
2050
2050
2049
2049
2048
2048
2046
2044
2044
2046
2048
2049
2050
2048
2047
2046
2044
2044
2044
2044
2044
2046
2046
2047
2046
2045
2044
2044
2045
2045
2046
2046
2045
2044
2046
2046
2045
2043
2040
2038
2039
2041
2046
2048
2049
2048
2045
2042
2043
2042
2042
2043
2042
2043
2042
2042
2042
2042
2043
2042
2043
2042
2042
2042
2041
2042
2045
2044
2043
2038
2034
2033
2037
2045
2050
2051
2049
2045
2041
2039
2041
2040
2041
2041
2041
2042
2041
2041
2041
2041
2043
2043
2043
2043
2043
2043
2041
2044
2045
2044
2041
2035
2032
2034
2040
2048
2052
2051
2047
2042
2038
2039
2040
2042
2042
2041
2041
2040
2040
2039
2041
2045
2052
2064
2073
2078
2074
2065
2054
2043
2038
2034
2033
2035
2038
2042
2046
2048
2048
2046
2044
2041
2041
2042
2042
2042
2042
2044
2045
2045
2045
2043
2044
2044
2045
2045
2045
2044
2043
2044
2045
2046
2045
2044
2042
2042
2043
2046
2049
2051
2050
2048
2043
2041
2041
2045
2048
2051
2053
2053
2053
2053
2053
2053
2053
2053
2053
2052
2053
2052
2055
2054
2055
2052
2048
2046
2046
2048
2053
2056
2055
2052
2048
2046
2047
2047
2048
2046
2045
2043
2043
2043
2043
2044
2044
2044
2044
2043
2044
2044
2044
2042
2045
2045
2044
2039
2035
2033
2037
2043
2050
2053
2053
2048
2044
2040
2042
2042
2043
2042
2042
2043
2043
2043
2041
2040
2040
2041
2043
2043
2043
2042
2040
2041
2040
2041
2039
2036
2035
2036
2041
2046
2048
2048
2044
2041
2037
2037
2037
2037
2037
2037
2039
2040
2041
2041
2040
2039
2039
2038
2038
2038
2037
2036
2038
2040
2040
2039
2035
2032
2032
2035
2041
2047
2048
2046
2042
2037
2036
2037
2037
2039
2035
2031
2028
2029
2035
2043
2048
2048
2043
2039
2035
2035
2034
2035
2035
2034
2035
2037
2043
2052
2064
2074
2076
2069
2055
2042
2032
2028
2030
2033
2035
2037
2037
2038
2037
2037
2037
2037
2038
2038
2038
2038
2038
2039
2039
2040
2039
2038
2035
2032
2032
2035
2041
2046
2048
2048
2044
2041
2037
2038
2038
2040
2040
2041
2041
2042
2042
2042
2042
2042
2041
2041
2041
2041
2042
2043
2044
2044
2044
2041
2038
2038
2040
2045
2049
2052
2051
2047
2043
2039
2041
2041
2041
2039
2038
2039
2041
2043
2045
2044
2042
2040
2038
2038
2040
2040
2038
2040
2040
2039
2036
2032
2030
2032
2038
2045
2048
2048
2046
2041
2036
2036
2036
2037
2037
2039
2040
2040
2040
2039
2039
2040
2040
2040
2040
2039
2039
2038
2040
2041
2041
2041
2037
2034
2032
2034
2039
2044
2047
2046
2043
2039
2038
2037
2038
2039
2039
2038
2038
2038
2038
2039
2038
2038
2038
2038
2039
2039
2040
2041
2041
2041
2040
2037
2035
2034
2035
2039
2043
2047
2047
2045
2042
2039
2038
2037
2038
2037
2038
2039
2041
2041
2041
2041
2042
2042
2042
2041
2041
2040
2039
2040
2040
2042
2040
2037
2035
2034
2037
2042
2046
2047
2045
2042
2038
2038
2037
2037
2037
2037
2037
2038
2040
2044
2051
2062
2071
2075
2071
2061
2050
2038
2034
2032
2034
2037
2038
2039
2039
2040
2042
2044
2044
2042
2040
2036
2037
2037
2038
2039
2039
2039
2039
2039
2039
2040
2040
2040
2041
2040
2040
2040
2038
2040
2042
2042
2042
2038
2035
2035
2039
2045
2048
2048
2046
2043
2042
2043
2047
2046
2047
2046
2046
2046
2047
2048
2048
2048
2048
2048
2048
2048
2048
2048
2048
2048
2048
2047
2045
2042
2042
2043
2046
2048
2048
2048
2045
2043
2042
2042
2042
2043
2042
2042
2042
2042
2042
2043
2043
2043
2043
2043
2044
2044
2044
2043
2045
2047
2046
2043
2039
2036
2038
2045
2052
2055
2054
2050
2047
2043
2045
2047
2046
2045
2044
2044
2045
2047
2048
2048
2048
2047
2046
2046
2048
2048
2047
2048
2048
2047
2046
2043
2042
2044
2047
2051
2053
2052
2049
2047
2045
2046
2045
2045
2045
2046
2047
2048
2048
2047
2046
2045
2045
2046
2047
2047
2047
2045
2046
2046
2045
2044
2041
2040
2040
2045
2050
2053
2054
2050
2047
2045
2043
2046
2045
2045
2045
2045
2045
2045
2044
2044
2043
2043
2043
2044
2045
2045
2045
2044
2043
2043
2043
2043
2047
2055
2066
2077
2083
2079
2068
2054
2043
2037
2036
2038
2041
2042
2043
2043
2044
2044
2043
2043
2043
2043
2043
2043
2043
2044
2043
2044
2045
2044
2042
2040
2040
2042
2045
2048
2048
2047
2045
2043
2041
2042
2042
2043
2043
2044
2044
2044
2044
2045
2045
2045
2045
2045
2045
2045
2045
2045
2047
2048
2048
2046
2044
2042
2043
2046
2049
2052
2052
2051
2048
2045
2046
2045
2046
2045
2045
2045
2043
2043
2043
2042
2043
2042
2042
2041
2041
2041
2040
2042
2042
2042
2040
2037
2035
2036
2041
2045
2047
2047
2044
2042
2041
2042
2042
2040
2039
2039
2039
2040
2040
2039
2040
2039
2040
2039
2039
2039
2039
2040
2040
2041
2040
2038
2036
2034
2035
2038
2042
2045
2045
2043
2040
2037
2038
2038
2039
2040
2039
2039
2038
2038
2039
2039
2039
2040
2040
2040
2039
2038
2038
2037
2041
2040
2039
2035
2031
2031
2034
2041
2046
2048
2046
2041
2038
2034
2037
2036
2038
2039
2038
2037
2037
2036
2037
2037
2038
2039
2038
2038
2039
2039
2039
2041
2041
2039
2037
2034
2034
2036
2040
2045
2046
2044
2040
2037
2035
2036
2035
2035
2035
2036
2038
2039
2040
2040
2039
2038
2036
2036
2037
2039
2046
2056
2067
2072
2070
2061
2049
2041
2038
2039
2041
2040
2038
2036
2036
2037
2040
2039
2038
2039
2038
2038
2038
2038
2038
2038
2038
2037
2037
2037
2039
2038
2038
2037
2038
2038
2037
2035
2033
2032
2036
2040
2044
2045
2042
2040
2037
2036
2037
2037
2037
2037
2038
2038
2038
2038
2038
2038
2038
2039
2040
2040
2040
2040
2038
2041
2040
2040
2038
2035
2034
2034
2039
2043
2045
2044
2042
2038
2034
2035
2034
2034
2035
2036
2036
2036
2035
2034
2034
2035
2035
2035
2035
2033
2032
2031
2033
2034
2034
2034
2032
2030
2031
2032
2035
2038
2038
2037
2035
2033
2033
2033
2033
2033
2033
2033
2034
2034
2033
2033
2033
2033
2033
2034
2034
2034
2032
2034
2034
2033
2033
2031
2030
2029
2031
2035
2038
2039
2038
2036
2034
2034
2034
2033
2034
2034
2034
2035
2034
2034
2035
2034
2035
2034
2034
2035
2034
2035
2035
2036
2036
2035
2033
2029
2028
2030
2035
2041
2043
2042
2039
2035
2034
2034
2034
2036
2035
2035
2035
2035
2036
2036
2036
2036
2036
2036
2036
2036
2036
2036
2037
2036
2035
2033
2030
2029
2030
2034
2037
2039
2038
2036
2033
2030
2032
2034
2033
2034
2033
2031
2030
2031
2036
2046
2057
2067
2070
2064
2053
2042
2031
2029
2030
2030
2030
2027
2025
2026
2031
2037
2042
2042
2039
2037
2033
2033
2033
2033
2033
2033
2035
2035
2036
2035
2035
2036
2035
2035
2035
2034
2034
2032
2035
2034
2034
2033
2032
2032
2033
2037
2040
2042
2040
2038
2036
2034
2036
2036
2037
2038
2038
2038
2038
2038
2039
2039
2039
2039
2040
2040
2041
2041
2040
2039
2042
2041
2038
2033
2029
2028
2033
2040
2046
2047
2043
2038
2033
2032
2034
2034
2035
2033
2034
2033
2034
2034
2034
2034
2034
2035
2035
2034
2034
2032
2033
2034
2034
2033
2031
2029
2029
2031
2036
2038
2039
2038
2035
2033
2032
2032
2032
2032
2033
2034
2035
2035
2033
2033
2032
2032
2033
2033
2033
2032
2032
2032
2033
2033
2033
2031
2029
2028
2030
2033
2037
2038
2037
2034
2032
2031
2032
2033
2033
2032
2032
2032
2032
2032
2032
2032
2032
2033
2032
2032
2031
2031
2030
2032
2032
2032
2031
2029
2027
2028
2030
2035
2038
2038
2037
2034
2031
2031
2031
2031
2031
2031
2031
2032
2032
2032
2033
2032
2032
2032
2032
2033
2032
2031
2030
2033
2034
2039
2047
2054
2061
2064
2061
2053
2043
2032
2026
2025
2026
2030
2030
2032
2031
2032
2033
2033
2034
2034
2035
2034
2035
2035
2035
2035
2035
2036
2036
2036
2035
2034
2032
2031
2033
2037
2040
2043
2042
2040
2038
2035
2036
2037
2037
2038
2038
2038
2040
2040
2039
2038
2038
2039
2042
2045
2046
2046
2044
2045
2046
2045
2044
2041
2040
2042
2047
2051
2054
2053
2050
2048
2044
2044
2044
2043
2043
2043
2044
2043
2043
2043
2043
2044
2044
2043
2042
2041
2042
2041
2043
2043
2043
2041
2039
2038
2039
2043
2047
2048
2048
2047
2044
2043
2044
2044
2045
2045
2045
2045
2044
2044
2044
2044
2044
2044
2044
2043
2044
2044
2044
2043
2046
2045
2043
2039
2036
2035
2039
2044
2049
2050
2049
2046
2043
2040
2042
2042
2043
2043
2043
2043
2043
2043
2042
2043
2043
2043
2043
2043
2043
2042
2042
2042
2043
2044
2043
2043
2042
2043
2045
2046
2047
2047
2045
2043
2041
2041
2041
2041
2041
2043
2043
2043
2042
2041
2042
2041
2042
2043
2043
2043
2041
2039
2039
2040
2043
2048
2055
2064
2070
2072
2068
2059
2048
2040
2034
2032
2035
2037
2040
2041
2042
2042
2042
2041
2041
2042
2042
2042
2042
2042
2042
2042
2041
2043
2043
2043
2040
2038
2037
2040
2044
2048
2049
2048
2045
2043
2040
2043
2044
2045
2042
2039
2036
2037
2042
2048
2052
2052
2049
2046
2043
2044
2045
2048
2048
2049
2048
2048
2045
2043
2044
2048
2052
2055
2056
2054
2051
2048
2048
2048
2047
2047
2046
2046
2046
2045
2045
2044
2044
2044
2044
2044
2044
2044
2043
2044
2045
2044
2044
2041
2039
2039
2042
2047
2049
2051
2049
2046
2044
2042
2044
2044
2044
2044
2043
2043
2042
2044
2044
2044
2043
2041
2041
2042
2045
2045
2046
2048
2047
2044
2041
2039
2037
2040
2045
2049
2052
2050
2048
2045
2043
2044
2044
2043
2043
2044
2045
2045
2045
2045
2045
2045
2044
2044
2044
2044
2044
2043
2045
2044
2044
2043
2040
2039
2040
2043
2046
2048
2048
2047
2047
2046
2047
2047
2047
2047
2046
2046
2046
2047
2046
2046
2046
2045
2045
2045
2046
2046
2047
2045
2048
2047
2044
2041
2038
2036
2040
2046
2051
2053
2055
2060
2066
2071
2076
2072
2063
2050
2043
2037
2037
2038
2040
2041
2042
2042
2042
2042
2041
2041
2041
2042
2041
2041
2039
2038
2037
2038
2041
2043
2045
2044
2042
2040
2037
2038
2037
2038
2039
2039
2039
2039
2039
2040
2040
2039
2039
2038
2038
2038
2038
2037
2039
2039
2040
2039
2037
2034
2035
2038
2042
2046
2046
2045
2042
2038
2040
2040
2041
2041
2041
2040
2040
2040
2039
2039
2039
2038
2038
2037
2036
2036
2035
2037
2038
2037
2036
2033
2030
2030
2033
2038
2041
2042
2040
2037
2035
2034
2036
2035
2035
2035
2035
2035
2036
2036
2036
2036
2036
2035
2036
2036
2036
2036
2036
2037
2037
2036
2034
2031
2031
2033
2037
2041
2042
2041
2039
2037
2037
2038
2038
2038
2037
2037
2037
2037
2038
2037
2037
2037
2037
2037
2037
2037
2038
2037
2038
2037
2037
2034
2032
2032
2033
2037
2040
2043
2042
2040
2038
2035
2037
2037
2037
2036
2036
2036
2036
2035
2035
2035
2035
2034
2033
2032
2031
2031
2032
2034
2036
2034
2030
2027
2023
2025
2029
2034
2038
2041
2044
2048
2055
2060
2061
2053
2044
2033
2026
2022
2022
2024
2026
2027
2028
2029
2029
2028
2028
2027
2029
2029
2029
2028
2025
2024
2024
2027
2031
2033
2032
2029
2027
2025
2025
2026
2026
2027
2027
2027
2026
2026
2026
2026
2026
2025
2026
2025
2027
2027
2027
2026
2028
2028
2027
2025
2022
2021
2025
2030
2035
2037
2035
2033
2030
2027
2030
2029
2030
2029
2029
2028
2027
2027
2026
2027
2026
2026
2026
2025
2025
2024
2023
2024
2024
2024
2022
2021
2020
2021
2024
2025
2025
2023
2020
2019
2018
2019
2020
2019
2019
2018
2018
2018
2017
2016
2016
2016
2017
2017
2018
2018
2017
2017
2017
2017
2018
2017
2016
2015
2015
2017
2020
2022
2022
2021
2019
2018
2018
2017
2019
2019
2019
2019
2018
2018
2017
2017
2017
2017
2017
2017
2017
2018
2017
2019
2019
2018
2017
2015
2014
2015
2017
2021
2022
2022
2020
2018
2016
2016
2016
2016
2016
2017
2018
2018
2018
2019
2019
2018
2017
2016
2016
2018
2025
2035
2047
2058
2059
2053
2039
2024
2013
2011
2015
2019
2021
2021
2020
2020
2022
2023
2022
2022
2021
2022
2023
2023
2024
2024
2025
2024
2024
2025
2025
2026
2025
2027
2028
2027
2027
2024
2023
2023
2025
2030
2033
2035
2034
2032
2030
2029
2031
2031
2032
2032
2033
2034
2035
2036
2037
2038
2039
2040
2040
2040
2039
2037
2039
2044
2047
2047
2043
2038
2035
2036
2041
2047
2048
2046
2042
2039
2036
2036
2036
2035
2035
2034
2035
2034
2033
2032
2032
2033
2033
2032
2032
2031
2031
2030
2032
2031
2031
2029
2027
2027
2028
2032
2036
2038
2037
2034
2031
2029
2031
2031
2031
2032
2031
2031
2030
2030
2030
2030
2029
2028
2030
2031
2031
2027
2024
2021
2026
2033
2038
2039
2034
2027
2026
2029
2036
2039
2038
2034
2031
2028
2031
2031
2033
2032
2033
2033
2033
2033
2033
2033
2034
2034
2034
2033
2034
2033
2032
2033
2033
2033
2032
2031
2031
2032
2034
2036
2038
2036
2035
2032
2029
2030
2031
2037
2047
2058
2067
2072
2068
2058
2046
2035
2029
2027
2028
2030
2032
2033
2035
2035
2035
2034
2032
2030
2031
2034
2037
2040
2040
2038
2036
2034
2035
2035
2037
2036
2036
2036
2035
2035
2035
2035
2036
2036
2036
2036
2036
2036
2035
2037
2037
2037
2036
2034
2033
2034
2037
2041
2044
2045
2044
2042
2040
2040
2041
2041
2041
2041
2041
2042
2042
2042
2042
2041
2041
2040
2039
2039
2039
2038
2037
2038
2037
2035
2033
2031
2030
2033
2036
2039
2040
2038
2036
2034
2034
2035
2035
2035
2034
2034
2034
2034
2034
2034
2034
2033
2033
2033
2033
2034
2034
2033
2035
2034
2034
2032
2030
2029
2030
2033
2036
2038
2037
2035
2034
2031
2033
2032
2032
2033
2033
2033
2033
2033
2033
2033
2032
2033
2033
2033
2032
2031
2029
2032
2035
2036
2034
2030
2026
2026
2029
2035
2039
2039
2036
2033
2030
2031
2031
2031
2032
2032
2034
2033
2034
2033
2033
2034
2033
2032
2032
2031
2031
2030
2032
2032
2032
2031
2029
2027
2028
2031
2034
2036
2035
2032
2030
2028
2030
2034
2041
2051
2061
2067
2066
2057
2046
2035
2027
2024
2025
2027
2030
2031
2032
2032
2034
2034
2030
2026
2023
2023
2029
2037
2043
2044
2040
2035
2031
2029
2032
2032
2033
2032
2033
2033
2033
2034
2033
2034
2034
2034
2035
2034
2035
2034
2035
2037
2035
2036
2033
2031
2031
2033
2038
2042
2044
2042
2040
2037
2036
2038
2038
2038
2039
2040
2040
2040
2040
2040
2040
2039
2040
2039
2039
2038
2036
2035
2036
2035
2035
2032
2030
2029
2030
2034
2038
2040
2039
2036
2033
2031
2033
2032
2034
2033
2033
2033
2032
2033
2032
2032
2032
2032
2032
2032
2033
2033
2032
2034
2033
2032
2031
2028
2028
2030
2033
2037
2038
2038
2035
2033
2031
2031
2032
2032
2032
2032
2032
2032
2032
2032
2033
2032
2033
2031
2029
2026
2026
2028
2031
2036
2037
2036
2031
2026
2026
2029
2036
2042
2043
2040
2036
2032
2031
2033
2033
2034
2033
2033
2033
2033
2033
2033
2033
2033
2033
2034
2033
2032
2032
2032
2033
2034
2034
2031
2026
2024
2026
2032
2039
2044
2043
2039
2034
2030
2031
2032
2033
2033
2033
2032
2032
2031
2032
2032
2033
2032
2033
2032
2031
2030
2029
2032
2035
2035
2031
2025
2020
2022
2033
2051
2069
2079
2078
2067
2051
2039
2029
2025
2024
2026
2029
2030
2032
2032
2033
2033
2034
2034
2034
2034
2033
2032
2033
2036
2036
2033
2028
2023
2023
2029
2038
2046
2048
2043
2037
2032
2031
2034
2034
2035
2034
2035
2035
2035
2035
2035
2036
2036
2036
2038
2037
2038
2037
2037
2039
2041
2040
2039
2037
2036
2038
2042
2046
2048
2048
2045
2042
2040
2039
2040
2040
2039
2039
2039
2038
2039
2038
2038
2037
2036
2036
2035
2035
2035
2035
2036
2036
2036
2034
2032
2031
2031
2035
2040
2043
2042
2039
2036
2033
2033
2032
2033
2033
2033
2035
2036
2037
2037
2036
2035
2035
2035
2035
2036
2037
2036
2036
2036
2036
2034
2032
2030
2031
2034
2039
2042
2042
2039
2036
2032
2033
2035
2036
2036
2035
2035
2035
2035
2036
2036
2036
2035
2035
2034
2035
2036
2035
2036
2038
2037
2035
2031
2029
2028
2031
2036
2041
2044
2043
2041
2038
2036
2035
2034
2034
2035
2036
2037
2038
2038
2038
2037
2037
2037
2036
2036
2036
2036
2035
2038
2037
2035
2030
2026
2024
2028
2037
2045
2049
2048
2041
2030
2021
2022
2027
2042
2058
2073
2079
2075
2064
2049
2039
2031
2028
2027
2028
2031
2031
2032
2036
2038
2037
2031
2025
2023
2026
2035
2045
2049
2048
2042
2035
2032
2033
2035
2036
2037
2036
2036
2037
2037
2037
2037
2037
2037
2036
2039
2039
2038
2037
2036
2036
2037
2037
2037
2036
2036
2040
2045
2047
2048
2045
2041
2039
2039
2040
2041
2041
2042
2043
2043
2044
2043
2043
2043
2042
2042
2042
2042
2041
2039
2040
2040
2039
2037
2033
2031
2030
2033
2039
2045
2046
2044
2039
2033
2033
2033
2034
2037
2039
2041
2041
2040
2037
2035
2033
2032
2034
2034
2035
2035
2035
2036
2036
2037
2036
2033
2032
2033
2035
2039
2042
2042
2041
2038
2035
2036
2036
2037
2037
2036
2036
2037
2037
2037
2037
2036
2036
2037
2037
2037
2038
2038
2037
2038
2038
2037
2035
2033
2033
2035
2038
2041
2042
2040
2038
2036
2034
2036
2036
2036
2036
2037
2037
2037
2037
2036
2037
2036
2037
2038
2038
2039
2038
2037
2036
2036
2038
2037
2036
2035
2035
2037
2040
2043
2043
2042
2039
2037
2038
2038
2040
2039
2039
2038
2038
2037
2037
2037
2038
2038
2038
2038
2037
2038
2037
2038
2038
2036
2034
2032
2034
2042
2054
2068
2077
2078
2069
2057
2045
2036
2032
2032
2034
2036
2037
2037
2038
2038
2038
2038
2038
2038
2038
2038
2037
2038
2038
2039
2039
2038
2036
2034
2034
2035
2040
2044
2045
2044
2042
2040
2039
2040
2039
2040
2038
2039
2039
2040
2040
2039
2039
2039
2039
2040
2040
2041
2041
2040
2044
2044
2043
2039
2035
2034
2037
2044
2049
2052
2049
2044
2041
2038
2040
2042
2041
2040
2039
2038
2038
2037
2037
2036
2036
2036
2036
2035
2037
2036
2034
2035
2034
2034
2034
2034
2034
2035
2036
2039
2039
2038
2038
2036
2034
2034
2033
2033
2033
2034
2035
2035
2035
2035
2034
2034
2034
2035
2036
2036
2036
2035
2035
2036
2034
2032
2029
2027
2026
2031
2037
2041
2042
2040
2036
2033
2031
2034
2034
2034
2035
2034
2034
2033
2033
2034
2035
2035
2035
2035
2035
2035
2035
2034
2035
2035
2034
2032
2030
2030
2031
2035
2038
2040
2039
2037
2035
2034
2034
2034
2035
2035
2035
2035
2035
2036
2035
2035
2036
2036
2036
2037
2037
2038
2038
2039
2038
2037
2034
2031
2031
2034
2038
2042
2042
2040
2037
2035
2033
2034
2033
2033
2035
2036
2037
2037
2035
2033
2032
2032
2035
2042
2051
2062
2070
2072
2065
2054
2042
2031
2024
2022
2025
2030
2034
2037
2037
2035
2033
2033
2034
2034
2035
2034
2034
2034
2034
2034
2034
2034
2034
2035
2035
2035
2035
2035
2034
2036
2036
2036
2034
2032
2031
2033
2037
2040
2041
2040
2037
2036
2034
2036
2037
2038
2038
2038
2039
2039
2039
2040
2040
2041
2042
2042
2043
2043
2043
2042
2043
2044
2043
2042
2039
2038
2037
2040
2043
2045
2045
2042
2039
2036
2036
2037
2035
2037
2036
2037
2036
2036
2036
2035
2035
2035
2035
2036
2036
2036
2035
2034
2036
2035
2036
2033
2031
2030
2031
2035
2039
2041
2041
2039
2037
2034
2035
2035
2035
2035
2036
2035
2036
2035
2036
2036
2036
2036
2036
2036
2035
2037
2035
2036
2036
2034
2033
2031
2032
2033
2036
2040
2040
2040
2037
2037
2034
2035
2034
2035
2035
2035
2036
2037
2036
2036
2035
2035
2035
2036
2037
2037
2037
2035
2035
2037
2036
2035
2031
2028
2027
2031
2039
2045
2048
2046
2040
2036
2033
2035
2036
2037
2037
2036
2036
2035
2035
2036
2036
2036
2036
2036
2037
2036
2037
2037
2038
2038
2034
2031
2028
2031
2042
2057
2074
2082
2081
2070
2054
2040
2031
2028
2028
2030
2033
2035
2036
2037
2037
2037
2038
2038
2038
2035
2032
2031
2030
2039
2045
2047
2043
2035
2030
2029
2035
2042
2046
2045
2041
2038
2034
2036
2036
2036
2037
2037
2038
2039
2039
2039
2040
2040
2041
2041
2041
2040
2040
2040
2041
2042
2043
2042
2041
2040
2040
2042
2045
2047
2047
2046
2045
2043
2044
2044
2044
2043
2043
2042
2042
2042
2041
2040
2040
2040
2039
2039
2039
2039
2038
2038
2039
2038
2038
2036
2034
2035
2037
2040
2043
2043
2041
2039
2037
2037
2039
2039
2039
2039
2039
2039
2039
2039
2039
2039
2039
2039
2039
2040
2039
2040
2040
2039
2040
2040
2037
2036
2035
2037
2040
2043
2045
2044
2042
2039
2038
2037
2037
2038
2038
2038
2038
2038
2038
2038
2038
2038
2038
2038
2037
2038
2037
2037
2040
2039
2038
2035
2031
2031
2033
2039
2043
2045
2044
2041
2039
2037
2037
2037
2037
2037
2038
2038
2039
2038
2038
2038
2038
2038
2038
2038
2037
2038
2038
2040
2039
2037
2035
2034
2035
2039
2043
2046
2046
2044
2040
2040
2038
2039
2037
2037
2037
2037
2038
2039
2039
2039
2038
2038
2038
2039
2040
2040
2040
2037
2037
2039
2041
2046
2052
2060
2067
2072
2072
2064
2053
2042
2033
2030
2032
2036
2037
2039
2039
2039
2039
2039
2038
2039
2038
2038
2038
2039
2039
2039
2039
2040
2041
2041
2039
2036
2033
2034
2038
2043
2047
2047
2045
2042
2038
2039
2039
2040
2041
2041
2041
2041
2042
2042
2042
2043
2043
2043
2044
2044
2044
2045
2043
2048
2047
2047
2043
2037
2036
2039
2046
2053
2056
2054
2049
2045
2041
2042
2042
2042
2042
2042
2042
2043
2042
2042
2041
2040
2040
2039
2039
2039
2039
2039
2040
2040
2040
2039
2037
2036
2036
2038
2041
2043
2042
2041
2039
2037
2039
2039
2040
2039
2039
2039
2038
2039
2039
2039
2039
2039
2039
2039
2039
2039
2038
2039
2039
2039
2038
2037
2036
2036
2038
2040
2041
2041
2039
2038
2037
2037
2038
2039
2039
2038
2038
2038
2038
2038
2039
2039
2038
2038
2037
2038
2038
2037
2037
2037
2037
2037
2035
2034
2033
2035
2038
2041
2042
2042
2040
2037
2036
2036
2035
2036
2036
2036
2036
2036
2036
2035
2036
2036
2036
2036
2036
2036
2037
2036
2040
2038
2041
2036
2031
2028
2027
2032
2040
2047
2048
2046
2040
2033
2034
2032
2036
2036
2036
2036
2036
2036
2036
2036
2035
2034
2033
2034
2036
2043
2049
2062
2070
2072
2066
2052
2039
2029
2026
2030
2035
2039
2039
2037
2034
2035
2034
2033
2035
2035
2036
2036
2037
2037
2036
2036
2037
2037
2038
2037
2038
2036
2037
2038
2037
2036
2033
2031
2031
2035
2040
2044
2045
2042
2039
2036
2035
2037
2037
2038
2039
2039
2039
2039
2039
2041
2041
2041
2041
2042
2042
2041
2042
2042
2043
2044
2043
2040
2037
2036
2037
2041
2045
2046
2045
2041
2038
2036
2035
2036
2036
2035
2035
2035
2035
2035
2034
2034
2034
2034
2034
2034
2034
2034
2034
2035
2035
2034
2031
2027
2026
2029
2034
2039
2041
2039
2036
2033
2031
2033
2033
2033
2032
2033
2034
2035
2034
2033
2033
2033
2035
2035
2035
2034
2032
2033
2034
2034
2034
2032
2030
2029
2031
2034
2038
2039
2038
2036
2033
2032
2033
2033
2034
2034
2034
2034
2034
2034
2034
2034
2034
2034
2034
2034
2034
2035
2033
2035
2034
2034
2032
2030
2030
2032
2035
2038
2039
2038
2036
2035
2034
2035
2036
2036
2036
2035
2035
2035
2035
2035
2035
2035
2035
2035
2035
2035
2035
2034
2035
2035
2035
2034
2032
2031
2031
2035
2038
2039
2039
2037
2037
2042
2052
2062
2068
2070
2062
2051
2040
2032
2028
2027
2030
2032
2033
2034
2034
2035
2035
2034
2037
2036
2036
2033
2029
2028
2030
2034
2041
2045
2045
2039
2033
2026
2029
2034
2040
2044
2044
2040
2037
2034
2035
2036
2037
2037
2037
2037
2037
2038
2037
2040
2041
2038
2038
2035
2033
2034
2038
2045
2048
2049
2048
2045
2042
2042
2041
2041
2042
2043
2044
2045
2045
2044
2043
2042
2042
2042
2042
2041
2041
2039
2039
2040
2039
2037
2033
2031
2031
2035
2040
2044
2045
2041
2038
2036
2035
2037
2038
2038
2038
2037
2037
2036
2037
2037
2037
2038
2038
2038
2038
2037
2037
2037
2038
2039
2038
2035
2032
2031
2033
2038
2042
2044
2043
2040
2037
2035
2035
2037
2038
2038
2038
2038
2038
2038
2037
2037
2037
2037
2038
2038
2038
2039
2037
2041
2039
2038
2035
2031
2031
2034
2040
2046
2048
2046
2042
2039
2035
2038
2038
2038
2039
2039
2040
2040
2039
2040
2039
2039
2039
2038
2038
2037
2037
2038
2039
2040
2041
2041
2039
2038
2037
2039
2041
2043
2043
2042
2041
2040
2040
2039
2040
2039
2039
2039
2039
2039
2039
2039
2039
2039
2040
2040
2039
2038
2036
2036
2039
2044
2052
2062
2069
2073
2070
2062
2052
2043
2036
2034
2034
2036
2039
2039
2040
2040
2040
2039
2039
2039
2039
2040
2040
2041
2041
2041
2041
2041
2041
2041
2042
2041
2040
2038
2037
2039
2042
2045
2047
2046
2044
2042
2040
2040
2041
2042
2042
2042
2043
2043
2043
2043
2044
2044
2044
2044
2044
2045
2045
2044
2047
2047
2047
2044
2041
2040
2041
2046
2050
2052
2052
2048
2047
2043
2044
2044
2043
2042
2042
2042
2042
2042
2042
2041
2041
2041
2040
2040
2040
2040
2038
2040
2040
2040
2039
2036
2034
2034
2036
2041
2045
2046
2045
2042
2038
2038
2037
2037
2039
2039
2040
2040
2040
2040
2039
2039
2039
2039
2040
2040
2040
2038
2038
2040
2039
2037
2033
2031
2031
2037
2044
2048
2048
2045
2040
2036
2036
2038
2038
2039
2040
2039
2039
2038
2038
2038
2038
2038
2039
2039
2040
2038
2038
2038
2039
2039
2038
2034
2032
2032
2035
2041
2045
2045
2043
2040
2036
2037
2038
2039
2040
2040
2040
2040
2040
2040
2039
2039
2039
2038
2038
2038
2039
2039
2037
2041
2039
2038
2035
2031
2031
2035
2042
2047
2048
2044
2039
2035
2034
2044
2052
2063
2071
2072
2066
2055
2044
2035
2031
2031
2034
2036
2037
2037
2037
2038
2039
2039
2039
2036
2034
2033
2035
2038
2041
2042
2042
2040
2038
2037
2039
2038
2039
2038
2038
2038
2037
2038
2038
2038
2038
2038
2038
2038
2038
2038
2037
2038
2039
2038
2038
2037
2036
2037
2039
2042
2044
2044
2042
2042
2041
2042
2043
2043
2042
2042
2042
2042
2042
2042
2042
2042
2042
2041
2041
2040
2039
2038
2038
2037
2037
2036
2035
2034
2034
2035
2037
2039
2039
2038
2037
2035
2034
2034
2033
2034
2034
2035
2035
2036
2036
2036
2036
2035
2034
2034
2034
2035
2035
2034
2037
2035
2038
2034
2029
2025
2024
2028
2036
2044
2047
2045
2039
2032
2032
2030
2034
2034
2035
2035
2035
2034
2035
2034
2034
2035
2035
2035
2035
2034
2033
2035
2035
2034
2034
2031
2029
2029
2031
2035
2037
2038
2037
2034
2031
2032
2031
2030
2032
2032
2033
2033
2032
2032
2032
2032
2033
2034
2035
2035
2036
2034
2035
2035
2034
2032
2029
2027
2027
2030
2035
2039
2040
2037
2034
2031
2030
2032
2032
2032
2033
2033
2032
2031
2029
2030
2032
2038
2048
2059
2067
2068
2062
2050
2040
2031
2025
2022
2021
2023
2026
2031
2035
2036
2035
2033
2030
2029
2030
2031
2032
2031
2032
2032
2032
2032
2032
2032
2032
2032
2032
2032
2033
2033
2032
2033
2034
2033
2031
2028
2027
2029
2033
2038
2041
2040
2037
2035
2032
2034
2035
2035
2036
2037
2038
2039
2039
2038
2040
2041
2041
2039
2035
2033
2034
2039
2046
2050
2049
2045
2039
2033
2034
2036
2040
2040
2040
2038
2036
2035
2035
2035
2035
2034
2034
2034
2034
2034
2034
2034
2034
2034
2035
2035
2035
2035
2034
2035
2035
2035
2035
2033
2032
2032
2034
2037
2039
2040
2039
2037
2035
2034
2035
2034
2035
2035
2035
2035
2035
2035
2035
2036
2036
2036
2035
2035
2035
2034
2036
2036
2036
2034
2032
2031
2031
2035
2038
2041
2041
2039
2037
2034
2035
2035
2035
2036
2036
2037
2037
2037
2037
2036
2036
2035
2035
2036
2036
2037
2038
2038
2041
2040
2039
2035
2031
2030
2033
2039
2043
2046
2044
2041
2039
2036
2038
2037
2037
2037
2037
2037
2038
2037
2038
2037
2036
2036
2034
2035
2037
2044
2052
2065
2073
2074
2065
2050
2036
2028
2028
2033
2038
2041
2041
2039
2036
2037
2035
2035
2034
2037
2038
2038
2038
2038
2037
2037
2037
2038
2039
2039
2040
2039
2039
2041
2039
2038
2034
2032
2032
2036
2043
2048
2049
2046
2042
2039
2037
2039
2039
2041
2041
2041
2042
2041
2042
2043
2043
2043
2044
2044
2045
2044
2045
2045
2046
2047
2045
2043
2039
2038
2040
2044
2048
2048
2048
2044
2041
2039
2039
2040
2040
2039
2039
2039
2039
2039
2038
2038
2038
2037
2037
2038
2038
2038
2037
2039
2041
2039
2036
2030
2028
2031
2038
2046
2048
2044
2037
2032
2031
2035
2040
2041
2041
2040
2039
2039
2039
2038
2038
2038
2039
2039
2038
2037
2036
2036
2037
2038
2040
2037
2034
2031
2031
2035
2040
2044
2043
2041
2037
2035
2035
2036
2038
2037
2036
2037
2036
2036
2036
2037
2038
2037
2037
2036
2037
2037
2036
2036
2037
2038
2037
2035
2032
2031
2033
2038
2042
2044
2043
2040
2038
2036
2036
2038
2037
2037
2037
2037
2036
2037
2037
2037
2037
2037
2037
2036
2036
2036
2036
2038
2038
2037
2034
2030
2029
2030
2034
2041
2045
2048
2054
2061
2068
2072
2069
2060
2048
2037
2031
2029
2030
2032
2035
2037
2038
2038
2037
2036
2036
2035
2039
2040
2039
2035
2029
2026
2028
2036
2045
2050
2049
2045
2039
2035
2036
2037
2037
2037
2036
2037
2038
2038
2038
2038
2037
2038
2038
2039
2040
2040
2039
2041
2041
2043
2040
2038
2035
2034
2036
2042
2047
2050
2051
2049
2045
2043
2040
2040
2039
2041
2042
2043
2043
2043
2042
2041
2040
2040
2040
2039
2039
2037
2038
2039
2038
2036
2031
2027
2027
2033
2041
2047
2048
2044
2039
2034
2034
2035
2036
2037
2036
2036
2036
2036
2036
2037
2036
2036
2037
2037
2037
2037
2036
2036
2037
2039
2037
2034
2031
2030
2033
2038
2044
2045
2042
2039
2034
2034
2035
2036
2036
2035
2035
2035
2036
2036
2036
2037
2037
2036
2036
2036
2036
2037
2036
2038
2037
2038
2036
2033
2031
2031
2034
2039
2044
2045
2042
2039
2035
2034
2033
2035
2035
2035
2036
2037
2037
2037
2036
2036
2036
2035
2035
2034
2034
2034
2035
2035
2037
2036
2034
2031
2030
2032
2037
2043
2043
2042
2037
2033
2032
2033
2036
2037
2036
2035
2034
2034
2034
2035
2035
2035
2035
2034
2033
2032
2031
2034
2038
2045
2053
2060
2064
2064
2059
2051
2042
2034
2028
2027
2029
2031
2034
2034
2034
2034
2034
2034
2034
2034
2035
2034
2034
2034
2034
2034
2035
2035
2035
2036
2036
2035
2032
2029
2028
2030
2036
2042
2044
2043
2039
2035
2033
2035
2036
2037
2036
2036
2036
2036
2037
2038
2039
2040
2039
2040
2039
2039
2039
2038
2043
2044
2048
2046
2040
2035
2031
2034
2041
2048
2050
2048
2043
2036
2036
2034
2036
2037
2036
2036
2036
2035
2035
2034
2034
2034
2033
2034
2034
2034
2032
2034
2035
2034
2033
2031
2029
2029
2033
2038
2040
2037
2033
2029
2028
2032
2038
2041
2040
2037
2035
2032
2032
2033
2034
2034
2033
2034
2034
2034
2035
2034
2034
2035
2034
2032
2029
2027
2027
2030
2036
2040
2041
2038
2034
2031
2030
2031
2031
2032
2032
2032
2032
2031
2031
2032
2031
2031
2031
2031
2030
2030
2031
2030
2032
2032
2031
2029
2026
2025
2027
2031
2035
2037
2036
2034
2032
2030
2031
2031
2032
2031
2031
2031
2031
2032
2031
2031
2031
2030
2030
2030
2030
2031
2030
2031
2032
2031
2029
2026
2025
2025
2029
2034
2039
2045
2051
2060
2064
2067
2060
2048
2036
2027
2024
2025
2026
2028
2029
2030
2032
2032
2032
2031
2031
2031
2031
2032
2033
2032
2031
2030
2030
2032
2034
2036
2036
2035
2033
2032
2032
2033
2034
2034
2034
2034
2034
2034
2034
2034
2035
2035
2035
2036
2036
2036
2036
2037
2038
2037
2038
2037
2036
2036
2038
2041
2044
2046
2045
2043
2041
2040
2040
2040
2042
2041
2041
2041
2040
2039
2039
2038
2038
2037
2036
2036
2035
2035
2035
2034
2034
2035
2034
2032
2031
2030
2032
2036
2038
2040
2038
2035
2033
2032
2033
2034
2034
2034
2034
2034
2034
2034
2034
2035
2035
2035
2034
2034
2034
2033
2036
2037
2036
2036
2032
2029
2030
2033
2037
2041
2042
2042
2040
2036
2036
2035
2033
2035
2035
2035
2035
2035
2035
2035
2035
2035
2035
2035
2035
2035
2034
2036
2038
2036
2033
2029
2027
2029
2035
2041
2044
2043
2040
2037
2035
2035
2036
2034
2034
2034
2035
2036
2036
2036
2037
2038
2038
2038
2038
2037
2037
2037
2038
2038
2038
2036
2033
2032
2032
2035
2039
2042
2042
2039
2038
2036
2037
2038
2038
2038
2036
2035
2035
2037
2044
2053
2064
2071
2073
2067
2057
2046
2036
2030
2032
2034
2034
2033
2031
2031
2035
2040
2045
2046
2044
2041
2038
2036
2039
2038
2038
2038
2038
2039
2039
2039
2039
2039
2039
2039
2039
2039
2040
2039
2039
2040
2040
2041
2039
2038
2037
2038
2040
2043
2045
2045
2043
2041
2040
2041
2041
2041
2042
2042
2043
2044
2045
2045
2046
2045
2045
2043
2044
2044
2044
2044
2044
2043
2044
2042
2041
2039
2038
2039
2041
2043
2043
2042
2040
2038
2038
2037
2039
2039
2039
2039
2038
2037
2037
2037
2038
2038
2038
2038
2038
2038
2037
2037
2038
2038
2037
2035
2035
2036
2038
2040
2042
2041
2039
2038
2037
2037
2038
2038
2038
2038
2038
2037
2037
2037
2037
2038
2038
2038
2038
2038
2037
2037
2037
2038
2037
2037
2036
2035
2036
2038
2040
2041
2040
2038
2037
2037
2037
2039
2039
2038
2038
2038
2038
2038
2038
2038
2038
2038
2038
2037
2037
2037
2038
2036
2040
2040
2040
2038
2035
2034
2036
2039
2043
2046
2046
2044
2042
2038
2039
2038
2038
2038
2039
2039
2040
2039
2039
2039
2039
2040
2039
2038
2037
2036
2036
2039
2046
2055
2064
2070
2069
2065
2055
2047
2039
2034
2033
2034
2036
2039
2039
2039
2038
2039
2038
2040
2039
2039
2038
2038
2038
2039
2040
2040
2041
2040
2039
2041
2040
2038
2035
2032
2030
2033
2039
2046
2049
2048
2044
2040
2037
2038
2039
2040
2040
2040
2041
2041
2042
2043
2042
2042
2042
2043
2043
2043
2043
2044
2046
2046
2044
2040
2036
2035
2040
2047
2053
2054
2050
2046
2041
2038
2041
2041
2041
2039
2039
2039
2039
2039
2038
2038
2038
2038
2037
2037
2037
2036
2035
2037
2037
2036
2034
2033
2033
2035
2039
2041
2042
2040
2037
2035
2034
2035
2035
2035
2035
2036
2036
2036
2036
2036
2036
2035
2036
2037
2037
2037
2037
2036
2035
2035
2036
2036
2035
2032
2031
2031
2034
2038
2040
2039
2037
2035
2033
2033
2035
2036
2035
2035
2035
2034
2034
2035
2035
2033
2030
2029
2030
2035
2040
2043
2043
2039
2034
2030
2030
2031
2034
2036
2038
2038
2036
2035
2035
2035
2037
2037
2036
2036
2036
2036
2036
2035
2035
2035
2035
2035
2035
2035
2035
2035
2034
2035
2034
2034
2034
2033
2034
2035
2036
2037
2037
2041
2048
2059
2067
2071
2066
2055
2043
2033
2028
2027
2028
2031
2032
2034
2034
2035
2035
2034
2035
2033
2037
2038
2037
2035
2031
2029
2029
2034
2041
2045
2046
2043
2039
2034
2035
2035
2037
2037
2038
2038
2038
2037
2038
2038
2038
2038
2038
2039
2039
2039
2038
2041
2041
2041
2040
2038
2037
2038
2041
2048
2050
2049
2046
2042
2040
2042
2043
2045
2044
2043
2043
2043
2042
2044
2042
2042
2041
2040
2040
2040
2040
2039
2039
2039
2038
2037
2033
2031
2030
2034
2039
2044
2045
2043
2039
2036
2034
2035
2036
2037
2037
2037
2037
2037
2037
2038
2038
2038
2038
2038
2038
2037
2037
2037
2038
2039
2038
2035
2032
2031
2033
2038
2042
2043
2042
2039
2036
2034
2035
2036
2037
2037
2037
2037
2037
2036
2036
2036
2036
2036
2036
2037
2037
2037
2036
2039
2038
2037
2035
2031
2030
2032
2037
2043
2046
2045
2041
2038
2034
2037
2036
2037
2037
2036
2036
2037
2037
2038
2038
2039
2039
2039
2039
2038
2037
2038
2038
2039
2039
2038
2036
2034
2034
2035
2038
2040
2040
2039
2037
2036
2036
2037
2038
2036
2035
2034
2033
2034
2039
2048
2059
2068
2072
2069
2059
2048
2037
2031
2030
2030
2033
2034
2033
2034
2035
2038
2041
2042
2041
2040
2037
2036
2037
2035
2037
2037
2037
2037
2037
2037
2037
2037
2037
2037
2038
2038
2038
2038
2039
2038
2038
2039
2038
2036
2035
2035
2038
2043
2045
2046
2044
2041
2040
2040
2042
2043
2043
2043
2043
2043
2043
2043
2044
2044
2044
2044
2044
2043
2043
2041
2044
2044
2043
2042
2038
2035
2035
2038
2041
2043
2045
2044
2042
2038
2039
2037
2035
2037
2037
2037
2038
2037
2037
2037
2037
2038
2037
2037
2037
2037
2036
2037
2040
2038
2038
2034
2030
2030
2033
2040
2045
2046
2043
2039
2035
2034
2037
2038
2040
2038
2038
2037
2036
2036
2036
2038
2038
2038
2037
2037
2037
2036
2037
2038
2038
2037
2034
2032
2032
2035
2039
2042
2042
2040
2038
2036
2037
2037
2037
2038
2037
2037
2037
2037
2037
2037
2037
2037
2037
2036
2037
2038
2037
2037
2036
2036
2035
2034
2032
2033
2035
2040
2043
2045
2043
2041
2038
2036
2037
2037
2038
2037
2037
2038
2038
2037
2037
2036
2036
2036
2035
2036
2036
2036
2035
2038
2038
2037
2033
2028
2026
2029
2039
2054
2067
2075
2074
2067
2054
2044
2036
2030
2029
2030
2032
2034
2035
2035
2036
2037
2038
2038
2037
2036
2035
2035
2036
2037
2038
2037
2036
2034
2034
2035
2038
2040
2041
2040
2038
2037
2036
2036
2038
2037
2037
2037
2037
2037
2038
2038
2038
2038
2038
2039
2039
2040
2040
2040
2041
2040
2040
2039
2038
2039
2041
2044
2046
2046
2044
2043
2042
2041
2042
2042
2042
2041
2040
2040
2039
2039
2039
2039
2039
2039
2039
2038
2037
2037
2037
2037
2037
2037
2036
2035
2035
2035
2037
2039
2040
2040
2038
2037
2036
2035
2036
2036
2036
2036
2036
2037
2036
2036
2036
2036
2036
2036
2037
2037
2037
2035
2039
2039
2039
2037
2034
2033
2035
2038
2042
2044
2044
2042
2041
2037
2038
2037
2036
2036
2036
2036
2037
2036
2036
2036
2035
2035
2035
2035
2035
2035
2033
2034
2036
2036
2034
2029
2026
2025
2030
2038
2044
2045
2041
2036
2031
2029
2031
2033
2035
2036
2038
2036
2035
2034
2033
2034
2033
2033
2032
2031
2032
2031
2032
2034
2032
2031
2026
2024
2026
2032
2037
2037
2032
2026
2026
2033
2048
2064
2071
2071
2063
2050
2040
2030
2026
2025
2025
2027
2029
2030
2032
2033
2034
2033
2035
2035
2034
2031
2029
2029
2032
2037
2042
2044
2043
2041
2037
2034
2036
2036
2036
2036
2037
2036
2036
2036
2036
2037
2037
2037
2037
2037
2037
2037
2037
2039
2039
2039
2037
2036
2036
2039
2043
2045
2047
2046
2045
2042
2041
2042
2042
2042
2043
2043
2043
2044
2044
2044
2044
2042
2041
2040
2039
2039
2038
2038
2038
2038
2038
2037
2036
2033
2033
2034
2037
2040
2041
2040
2038
2036
2035
2035
2036
2036
2036
2037
2037
2037
2036
2037
2037
2037
2037
2038
2037
2038
2037
2038
2038
2039
2038
2037
2037
2037
2039
2041
2042
2042
2040
2039
2038
2038
2038
2039
2038
2038
2038
2038
2038
2038
2039
2039
2039
2039
2039
2039
2038
2038
2038
2039
2038
2037
2036
2036
2037
2038
2040
2041
2040
2039
2038
2039
2038
2040
2040
2040
2040
2040
2040
2039
2039
2039
2039
2040
2039
2039
2038
2038
2038
2037
2039
2040
2040
2038
2035
2034
2034
2038
2040
2042
2043
2046
2052
2059
2070
2073
2068
2058
2047
2037
2032
2031
2033
2035
2037
2038
2038
2039
2039
2039
2038
2040
2040
2040
2038
2035
2034
2035
2039
2044
2046
2045
2044
2040
2038
2038
2037
2038
2038
2040
2042
2042
2042
2041
2040
2038
2039
2039
2040
2040
2041
2041
2042
2041
2041
2041
2040
2040
2041
2043
2046
2047
2047
2045
2045
2044
2045
2045
2044
2044
2043
2043
2043
2043
2042
2042
2041
2041
2041
2040
2041
2040
2040
2038
2040
2041
2039
2036
2032
2031
2035
2041
2047
2048
2047
2043
2039
2036
2038
2039
2039
2039
2040
2040
2040
2040
2039
2039
2040
2040
2040
2040
2040
2039
2038
2040
2040
2040
2038
2037
2036
2037
2041
2044
2045
2044
2041
2039
2036
2038
2038
2038
2038
2038
2039
2039
2039
2039
2039
2038
2038
2039
2040
2040
2039
2037
2038
2038
2040
2039
2035
2032
2031
2033
2039
2046
2047
2045
2041
2037
2036
2037
2039
2039
2038
2038
2038
2038
2038
2038
2038
2037
2038
2037
2037
2038
2038
2038
2038
2038
2036
2035
2035
2036
2040
2041
2041
2040
2039
2044
2051
2062
2070
2071
2065
2055
2045
2036
2033
2033
2034
2037
2037
2038
2039
2039
2038
2038
2039
2038
2040
2038
2036
2035
2035
2038
2042
2044
2045
2043
2040
2038
2038
2038
2040
2040
2039
2039
2040
2040
2040
2041
2041
2041
2041
2041
2041
2041
2040
2041
2043
2042
2042
2039
2037
2037
2040
2045
2049
2050
2048
2046
2044
2041
2043
2044
2044
2045
2044
2044
2043
2042
2043
2042
2042
2042
2041
2040
2039
2039
2038
2040
2041
2039
2036
2033
2031
2032
2037
2043
2046
2045
2042
2037
2037
2038
2037
2037
2036
2036
2038
2039
2040
2040
2039
2038
2037
2036
2037
2036
2037
2036
2037
2036
2036
2035
2033
2032
2033
2037
2039
2041
2040
2038
2036
2035
2036
2036
2035
2036
2035
2035
2035
2036
2036
2036
2036
2035
2035
2035
2036
2036
2036
2035
2037
2038
2036
2033
2030
2029
2034
2039
2044
2045
2042
2040
2037
2035
2038
2038
2038
2037
2038
2037
2037
2037
2036
2036
2036
2035
2035
2035
2035
2035
2034
2037
2036
2036
2034
2033
2032
2034
2036
2038
2038
2037
2036
2039
2046
2057
2065
2068
2065
2055
2044
2036
2030
2029
2030
2031
2032
2033
2034
2034
2035
2034
2036
2037
2036
2035
2031
2028
2030
2034
2039
2044
2044
2041
2037
2034
2034
2035
2036
2036
2036
2036
2035
2036
2036
2037
2037
2037
2037
2037
2037
2037
2037
2038
2039
2040
2039
2038
2038
2038
2041
2043
2045
2045
2043
2043
2042
2042
2043
2044
2043
2043
2043
2042
2043
2043
2043
2039
2035
2033
2033
2038
2044
2048
2047
2042
2038
2034
2034
2033
2034
2034
2037
2039
2040
2040
2038
2036
2035
2035
2036
2036
2036
2036
2036
2037
2037
2037
2037
2038
2037
2037
2037
2036
2037
2036
2040
2039
2039
2036
2033
2033
2035
2039
2044
2046
2045
2041
2038
2034
2036
2037
2038
2039
2039
2039
2039
2038
2039
2038
2039
2039
2039
2039
2039
2039
2037
2039
2040
2040
2040
2038
2036
2037
2040
2045
2048
2047
2045
2042
2041
2041
2040
2039
2039
2038
2039
2042
2045
2045
2043
2039
2034
2032
2035
2039
2043
2045
2045
2044
2040
2039
2038
2043
2054
2068
2081
2083
2076
2060
2046
2036
2031
2033
2034
2037
2038
2039
2040
2041
2040
2040
2040
2040
2041
2042
2042
2041
2040
2039
2042
2042
2042
2038
2034
2033
2037
2043
2048
2052
2050
2048
2042
2040
2042
2041
2042
2041
2042
2043
2043
2043
2042
2043
2043
2044
2045
2045
2046
2044
2044
2047
2048
2048
2045
2042
2040
2042
2048
2053
2056
2055
2051
2047
2043
2044
2043
2043
2042
2042
2043
2044
2043
2043
2041
2040
2041
2040
2041
2041
2041
2040
2041
2043
2041
2037
2031
2028
2030
2037
2047
2052
2052
2048
2041
2037
2035
2039
2040
2040
2039
2038
2038
2038
2038
2039
2039
2039
2038
2038
2038
2039
2039
2039
2039
2041
2040
2037
2035
2034
2036
2040
2045
2047
2045
2040
2038
2035
2036
2038
2038
2039
2039
2039
2038
2038
2038
2038
2040
2039
2039
2039
2038
2039
2038
2039
2041
2040
2038
2036
2036
2039
2043
2047
2048
2048
2044
2041
2039
2039
2040
2041
2040
2040
2040
2040
2040
2040
2041
2041
2040
2040
2041
2041
2040
2039
2040
2040
2043
2047
2053
2061
2070
2076
2075
2067
2055
2043
2036
2032
2037
2040
2041
2041
2040
2041
2041
2042
2042
2042
2041
2041
2042
2042
2043
2044
2042
2044
2045
2044
2042
2038
2036
2037
2041
2048
2052
2052
2049
2046
2042
2042
2044
2045
2046
2044
2043
2044
2045
2047
2048
2048
2047
2045
2045
2043
2047
2047
2047
2048
2048
2047
2045
2042
2042
2045
2049
2053
2055
2053
2050
2047
2045
2045
2045
2045
2044
2043
2044
2043
2043
2043
2042
2042
2042
2043
2043
2043
2042
2041
2043
2043
2042
2038
2034
2033
2037
2044
2050
2053
2051
2047
2042
2039
2040
2042
2042
2041
2041
2041
2041
2042
2042
2043
2043
2042
2042
2041
2041
2041
2040
2043
2043
2042
2039
2036
2034
2036
2041
2047
2050
2048
2045
2041
2037
2039
2039
2039
2039
2039
2041
2042
2042
2042
2041
2040
2039
2039
2040
2041
2040
2040
2041
2041
2043
2042
2037
2032
2031
2035
2043
2049
2052
2049
2044
2040
2039
2043
2046
2047
2045
2042
2039
2037
2037
2038
2039
2038
2038
2037
2037
2038
2038
2040
2040
2039
2038
2035
2035
2035
2037
2040
2043
2047
2052
2061
2068
2071
2067
2057
2047
2037
2032
2031
2033
2035
2037
2037
2038
2039
2038
2038
2038
2037
2038
2038
2039
2038
2036
2034
2034
2036
2040
2044
2044
2043
2041
2037
2038
2038
2039
2039
2039
2039
2039
2039
2040
2040
2040
2040
2040
2040
2040
2040
2039
2041
2043
2042
2042
2040
2039
2039
2041
2045
2048
2048
2047
2045
2043
2042
2043
2042
2042
2042
2042
2042
2042
2042
2041
2040
2039
2039
2038
2038
2038
2038
2037
2039
2039
2037
2034
2031
2029
2031
2037
2042
2045
2043
2039
2035
2033
2033
2036
2037
2036
2034
2033
2033
2035
2038
2039
2039
2037
2035
2035
2034
2036
2035
2035
2037
2036
2036
2032
2028
2027
2030
2036
2042
2044
2041
2037
2034
2031
2033
2034
2035
2035
2034
2033
2033
2033
2034
2034
2034
2034
2034
2034
2034
2034
2033
2035
2036
2035
2031
2029
2030
2032
2034
2035
2034
2033
2035
2039
2041
2042
2039
2036
2032
2033
2033
2035
2034
2034
2034
2033
2033
2033
2033
2034
2034
2033
2035
2035
2034
2032
2029
2029
2032
2036
2040
2041
2039
2035
2033
2034
2044
2053
2062
2068
2066
2058
2048
2037
2030
2028
2028
2031
2032
2033
2033
2034
2034
2035
2036
2037
2036
2034
2032
2032
2034
2037
2039
2039
2038
2036
2035
2036
2036
2037
2037
2037
2037
2037
2036
2036
2036
2036
2037
2037
2038
2038
2038
2037
2038
2039
2039
2038
2037
2036
2037
2039
2042
2045
2046
2044
2042
2041
2041
2042
2042
2043
2042
2042
2042
2042
2042
2041
2041
2040
2040
2040
2040
2039
2039
2038
2038
2038
2037
2036
2034
2032
2033
2035
2039
2040
2040
2037
2035
2034
2034
2035
2035
2035
2034
2035
2035
2035
2035
2035
2035
2035
2035
2035
2035
2036
2034
2037
2036
2035
2034
2033
2033
2035
2038
2040
2039
2037
2035
2034
2033
2036
2035
2035
2035
2035
2035
2035
2035
2035
2035
2035
2035
2035
2035
2035
2035
2035
2037
2037
2037
2035
2033
2031
2032
2035
2039
2042
2041
2039
2036
2033
2034
2034
2035
2035
2035
2036
2036
2037
2039
2040
2041
2040
2039
2037
2036
2037
2036
2037
2037
2035
2034
2032
2031
2033
2037
2041
2043
2044
2041
2038
2035
2033
2033
2034
2040
2048
2058
2068
2071
2068
2059
2047
2037
2032
2031
2032
2034
2036
2037
2039
2039
2038
2034
2032
2032
2036
2041
2046
2045
2042
2040
2036
2037
2039
2039
2039
2038
2038
2038
2038
2039
2038
2039
2039
2040
2040
2040
2040
2038
2038
2042
2040
2040
2038
2036
2036
2038
2043
2047
2048
2048
2046
2043
2041
2042
2042
2042
2043
2044
2044
2046
2046
2046
2046
2044
2044
2043
2043
2042
2042
2041
2043
2042
2042
2041
2036
2031
2031
2034
2041
2048
2051
2050
2045
2039
2036
2035
2036
2038
2038
2038
2037
2037
2038
2038
2039
2038
2038
2037
2037
2038
2038
2039
2040
2039
2039
2036
2035
2035
2037
2042
2044
2044
2042
2039
2037
2037
2038
2037
2038
2038
2038
2038
2038
2038
2038
2038
2038
2038
2037
2038
2038
2038
2038
2038
2040
2039
2038
2035
2034
2034
2037
2041
2044
2044
2041
2038
2036
2036
2038
2038
2038
2038
2038
2038
2038
2038
2038
2038
2038
2039
2040
2040
2040
2038
2041
2040
2040
2038
2036
2036
2036
2039
2042
2044
2043
2040
2038
2036
2037
2038
2039
2038
2039
2039
2039
2038
2037
2035
2035
2037
2044
2053
2063
2071
2071
2067
2057
2046
2035
2029
2027
2028
2034
2040
2044
2045
2042
2039
2036
2036
2036
2035
2038
2037
2038
2037
2037
2037
2038
2040
2040
2040
2039
2037
2037
2036
2039
2038
2037
2037
2035
2034
2034
2037
2040
2041
2041
2039
2038
2037
2038
2038
2038
2038
2038
2039
2039
2039
2039
2040
2040
2040
2040
2040
2041
2041
2041
2040
2041
2041
2040
2037
2035
2034
2036
2040
2045
2047
2045
2041
2037
2033
2035
2035
2036
2035
2036
2035
2035
2035
2034
2035
2035
2035
2035
2035
2036
2035
2034
2036
2035
2036
2034
2033
2031
2032
2035
2039
2041
2040
2038
2036
2033
2034
2033
2033
2033
2034
2035
2035
2035
2035
2034
2033
2034
2034
2035
2036
2035
2034
2035
2035
2035
2033
2030
2026
2026
2030
2036
2042
2043
2040
2036
2032
2031
2032
2033
2033
2033
2033
2033
2034
2034
2034
2034
2033
2033
2033
2032
2032
2032
2034
2034
2035
2034
2032
2032
2032
2036
2039
2040
2039
2036
2034
2032
2033
2033
2033
2033
2033
2033
2033
2033
2033
2033
2034
2034
2034
2034
2034
2033
2031
2031
2032
2037
2044
2051
2059
2064
2064
2060
2052
2043
2035
2029
2027
2027
2030
2032
2033
2034
2033
2034
2035
2034
2032
2029
2027
2029
2034
2040
2043
2043
2039
2036
2033
2033
2032
2031
2031
2033
2037
2040
2041
2040
2037
2036
2034
2035
2035
2036
2037
2037
2037
2038
2038
2038
2038
2039
2039
2039
2040
2040
2041
2040
2042
2044
2043
2040
2037
2035
2036
2041
2047
2050
2049
2046
2042
2039
2039
2040
2041
2040
2038
2040
2039
2039
2038
2036
2036
2036
2038
2039
2039
2038
2037
2036
2036
2038
2037
2034
2031
2029
2032
2039
2045
2047
2045
2041
2037
2033
2035
2036
2036
2037
2037
2037
2037
2037
2037
2036
2037
2037
2037
2038
2037
2037
2036
2037
2037
2037
2036
2034
2034
2035
2038
2041
2043
2042
2040
2037
2034
2034
2035
2036
2037
2038
2038
2038
2037
2037
2036
2037
2037
2037
2037
2037
2037
2035
2040
2040
2039
2037
2032
2031
2033
2038
2044
2047
2045
2041
2039
2035
2037
2037
2036
2036
2036
2037
2038
2037
2037
2037
2036
2037
2037
2038
2037
2036
2034
2034
2035
2040
2047
2055
2063
2069
2069
2064
2054
2045
2037
2032
2032
2034
2036
2038
2038
2039
2039
2038
2038
2038
2038
2038
2038
2038
2039
2038
2038
2038
2038
2039
2038
2038
2037
2036
2037
2039
2041
2043
2043
2041
2040
2039
2038
2039
2040
2040
2040
2040
2040
2040
2040
2041
2041
2042
2042
2042
2043
2042
2043
2043
2043
2044
2043
2042
2041
2041
2042
2044
2047
2048
2048
2045
2042
2040
2040
2041
2041
2041
2041
2040
2040
2039
2040
2040
2040
2040
2039
2039
2039
2039
2037
2040
2040
2039
2038
2037
2037
2039
2041
2043
2043
2041
2040
2040
2038
2040
2039
2039
2039
2039
2039
2040
2040
2040
2040
2040
2040
2039
2039
2039
2039
2038
2040
2041
2041
2038
2035
2034
2034
2038
2042
2045
2044
2042
2039
2038
2038
2039
2040
2040
2038
2040
2040
2040
2039
2038
2038
2038
2039
2041
2041
2041
2039
2039
2040
2040
2038
2034
2031
2031
2036
2044
2049
2051
2048
2043
2039
2036
2038
2040
2040
2041
2040
2040
2040
2039
2039
2039
2039
2039
2039
2039
2039
2038
2038
2041
2042
2040
2036
2032
2030
2033
2039
2046
2052
2058
2065
2068
2070
2069
2060
2049
2040
2035
2034
2035
2037
2038
2039
2040
2040
2041
2040
2040
2039
2039
2041
2040
2040
2038
2037
2037
2038
2042
2045
2046
2045
2043
2041
2039
2040
2040
2041
2041
2041
2041
2041
2041
2041
2041
2041
2042
2042
2042
2043
2043
2043
2043
2044
2044
2042
2040
2039
2040
2044
2048
2050
2049
2048
2045
2043
2043
2044
2045
2045
2045
2044
2043
2042
2041
2041
2041
2041
2041
2041
2041
2041
2040
2040
2040
2040
2039
2037
2036
2037
2038
2040
2042
2043
2041
2041
2039
2039
2039
2039
2039
2039
2039
2039
2039
2039
2039
2039
2039
2040
2039
2039
2039
2038
2038
2039
2039
2038
2037
2036
2037
2039
2041
2042
2041
2039
2037
2037
2036
2038
2038
2037
2037
2037
2037
2037
2037
2038
2037
2037
2037
2037
2037
2037
2037
2035
2037
2038
2038
2037
2034
2032
2032
2035
2039
2042
2043
2041
2038
2034
2034
2036
2035
2037
2037
2037
2038
2038
2038
2038
2038
2038
2037
2037
2037
2037
2036
2037
2038
2038
2036
2033
2031
2031
2034
2039
2042
2042
2040
2037
2035
2035
2035
2034
2034
2036
2042
2053
2063
2070
2069
2062
2050
2040
2034
2031
2032
2032
2034
2034
2034
2036
2034
2032
2032
2034
2038
2041
2042
2040
2038
2036
2036
2036
2035
2036
2036
2037
2037
2037
2037
2037
2037
2037
2036
2036
2037
2037
2037
2037
2039
2039
2038
2035
2033
2031
2035
2041
2046
2048
2046
2043
2039
2036
2039
2040
2042
2042
2043
2042
2042
2042
2041
2042
2042
2042
2042
2041
2042
2041
2039
2041
2040
2039
2037
2036
2037
2036
2036
2035
2035
2036
2039
2043
2043
2043
2038
2035
2033
2033
2034
2036
2036
2036
2037
2036
2036
2035
2035
2035
2035
2035
2035
2038
2038
2035
2031
2026
2026
2030
2039
2046
2047
2043
2038
2034
2032
2035
2035
2035
2034
2035
2034
2035
2035
2036
2036
2035
2035
2035
2035
2035
2034
2036
2036
2036
2034
2032
2031
2032
2035
2039
2040
2040
2037
2035
2033
2034
2035
2035
2036
2036
2036
2036
2036
2037
2037
2037
2037
2037
2037
2037
2036
2036
2036
2036
2036
2035
2032
2031
2031
2034
2038
2042
2043
2041
2038
2036
2035
2034
2034
2034
2034
2039
2047
2057
2066
2070
2067
2058
2047
2036
2030
2028
2030
2031
2035
2035
2035
2034
2032
2032
2034
2038
2041
2042
2041
2038
2036
2034
2036
2036
2036
2036
2036
2036
2036
2037
2037
2037
2038
2038
2038
2037
2038
2038
2037
2039
2040
2039
2037
2034
2032
2034
2039
2044
2047
2046
2044
2042
2040
2041
2042
2042
2042
2042
2043
2043
2044
2045
2044
2044
2042
2041
2042
2042
2044
2043
2043
2042
2040
2039
2035
2035
2035
2037
2040
2042
2042
2040
2039
2037
2037
2037
2036
2036
2036
2036
2037
2037
2037
2037
2037
2037
2037
2037
2038
2038
2038
2036
2038
2038
2037
2034
2032
2031
2034
2038
2043
2045
2043
2041
2038
2036
2037
2037
2038
2037
2037
2037
2037
2037
2037
2037
2037
2038
2038
2038
2038
2037
2035
2038
2037
2037
2036
2034
2033
2034
2038
2040
2043
2042
2040
2037
2035
2036
2035
2036
2037
2038
2038
2038
2038
2038
2037
2037
2037
2037
2038
2039
2038
2037
2038
2040
2041
2039
2036
2033
2032
2035
2041
2046
2047
2045
2040
2037
2035
2037
2037
2037
2038
2038
2038
2038
2038
2039
2039
2038
2037
2035
2035
2038
2044
2053
2064
2071
2072
2066
2054
2043
2036
2034
2036
2038
2039
2039
2038
2038
2038
2038
2039
2038
2038
2038
2038
2039
2039
2039
2039
2039
2039
2039
2039
2039
2039
2039
2040
2040
2039
2038
2037
2037
2040
2043
2045
2045
2042
2040
2039
2039
2040
2041
2041
2042
2042
2042
2042
2043
2043
2043
2043
2043
2043
2043
2044
2044
2046
2046
2045
2044
2042
2041
2042
2044
2047
2048
2048
2045
2043
2040
2041
2042
2041
2041
2041
2040
2040
2040
2040
2040
2040
2039
2039
2039
2039
2039
2038
2039
2040
2040
2038
2036
2034
2034
2037
2041
2044
2045
2042
2039
2038
2037
2039
2039
2039
2039
2040
2040
2041
2039
2041
2041
2040
2038
2037
2037
2038
2039
2040
2043
2040
2038
2033
2030
2031
2036
2042
2048
2048
2045
2040
2036
2034
2037
2037
2038
2038
2038
2038
2038
2038
2038
2038
2038
2038
2038
2038
2038
2037
2038
2039
2040
2038
2035
2033
2033
2036
2041
2045
2046
2044
2040
2037
2036
2037
2038
2039
2038
2038
2038
2038
2038
2037
2037
2036
2036
2037
2037
2037
2037
2036
2039
2039
2038
2035
2030
2028
2029
2035
2042
2046
2048
2052
2059
2064
2068
2067
2058
2048
2040
2034
2032
2032
2034
2035
2036
2037
2037
2037
2036
2036
2036
2037
2037
2037
2036
2034
2032
2034
2038
2041
2043
2041
2039
2036
2036
2037
2038
2039
2038
2038
2038
2038
2038
2038
2038
2039
2039
2038
2039
2038
2039
2039
2040
2041
2040
2040
2039
2038
2038
2041
2044
2047
2048
2046
2044
2042
2041
2042
2041
2044
2044
2043
2043
2042
2042
2041
2041
2041
2040
2040
2039
2038
2038
2037
2037
2038
2038
2036
2034
2032
2032
2033
2035
2037
2039
2039
2038
2038
2037
2037
2037
2037
2037
2037
2037
2038
2038
2038
2038
2038
2038
2037
2037
2036
2035
2038
2038
2039
2036
2033
2031
2031
2036
2042
2046
2046
2042
2038
2034
2035
2035
2035
2037
2038
2040
2038
2034
2029
2027
2029
2037
2045
2048
2047
2041
2034
2032
2033
2035
2035
2032
2029
2029
2031
2037
2042
2044
2042
2039
2036
2035
2036
2036
2037
2037
2037
2037
2037
2037
2037
2036
2037
2036
2036
2034
2033
2033
2035
2037
2039
2038
2034
2030
2030
2031
2039
2043
2043
2039
2034
2032
2033
2040
2050
2061
2068
2070
2065
2053
2042
2033
2028
2027
2029
2031
2032
2033
2035
2034
2036
2037
2036
2032
2027
2025
2028
2036
2045
2048
2048
2042
2037
2032
2034
2036
2037
2036
2037
2036
2037
2037
2037
2037
2037
2037
2038
2038
2038
2037
2035
2038
2039
2039
2038
2036
2034
2035
2039
2045
2048
2048
2047
2044
2040
2041
2041
2042
2042
2042
2044
2045
2045
2045
2043
2042
2042
2041
2041
2041
2040
2039
2040
2041
2040
2037
2032
2027
2028
2032
2040
2046
2047
2043
2038
2034
2032
2035
2035
2036
2036
2035
2035
2035
2036
2036
2037
2037
2037
2036
2036
2036
2037
2038
2038
2039
2037
2033
2031
2031
2034
2041
2046
2048
2045
2040
2036
2035
2035
2036
2037
2037
2037
2037
2037
2037
2037
2037
2037
2037
2036
2036
2036
2035
2037
2038
2039
2038
2034
2031
2030
2034
2039
2045
2047
2044
2040
2036
2036
2037
2039
2040
2040
2040
2040
2040
2040
2040
2040
2039
2039
2039
2039
2039
2040
2039
2040
2040
2039
2035
2032
2031
2034
2040
2047
2048
2047
2041
2036
2033
2037
2046
2057
2068
2073
2072
2064
2052
2043
2035
2032
2033
2035
2037
2038
2039
2038
2039
2041
2040
2038
2033
2031
2032
2037
2044
2048
2048
2045
2042
2039
2039
2040
2040
2041
2041
2041
2041
2041
2042
2042
2042
2041
2043
2043
2042
2041
2040
2039
2044
2045
2046
2043
2037
2033
2035
2040
2050
2054
2053
2049
2046
2042
2043
2045
2047
2047
2046
2046
2045
2044
2045
2045
2044
2043
2042
2042
2043
2046
2047
2047
2046
2042
2038
2034
2032
2034
2039
2043
2044
2043
2040
2037
2035
2036
2037
2038
2038
2038
2038
2038
2038
2038
2038
2038
2038
2039
2039
2039
2039
2038
2041
2041
2040
2038
2033
2031
2033
2039
2045
2048
2047
2043
2040
2037
2039
2038
2038
2038
2039
2039
2040
2039
2039
2038
2038
2039
2038
2039
2038
2038
2037
2038
2039
2039
2038
2036
2034
2034
2037
2041
2044
2044
2042
2039
2037
2037
2038
2038
2038
2039
2039
2040
2040
2040
2041
2041
2041
2040
2040
2040
2040
2040
2040
2040
2039
2038
2037
2036
2036
2038
2040
2042
2042
2040
2040
2039
2039
2039
2038
2037
2037
2038
2044
2053
2063
2071
2073
2068
2057
2047
2038
2033
2033
2034
2036
2039
2040
2039
2037
2035
2035
2037
2041
2044
2044
2041
2039
2037
2038
2039
2039
2039
2039
2039
2040
2040
2040
2040
2040
2040
2039
2039
2039
2039
2038
2040
2040
2041
2040
2038
2037
2038
2041
2044
2046
2045
2044
2043
2041
2042
2043
2044
2043
2043
2044
2045
2045
2045
2045
2045
2044
2044
2044
2044
2044
2043
2044
2045
2044
2041
2038
2034
2034
2038
2042
2046
2047
2044
2041
2039
2038
2039
2039
2039
2039
2039
2039
2040
2040
2040
2040
2039
2039
2039
2040
2040
2039
2038
2040
2038
2038
2035
2032
2032
2036
2043
2048
2048
2047
2042
2037
2035
2038
2039
2040
2040
2039
2038
2037
2037
2038
2037
2038
2038
2039
2039
2038
2036
2037
2038
2038
2037
2035
2032
2032
2036
2040
2044
2044
2042
2038
2035
2033
2035
2036
2036
2036
2036
2036
2036
2036
2036
2036
2036
2037
2038
2039
2039
2040
2038
2041
2040
2039
2035
2030
2028
2031
2037
2043
2046
2045
2041
2038
2034
2037
2037
2036
2037
2037
2038
2038
2037
2035
2034
2036
2040
2048
2057
2065
2069
2067
2061
2051
2041
2032
2029
2029
2030
2032
2033
2035
2038
2041
2044
2044
2044
2040
2037
2034
2035
2036
2037
2036
2037
2037
2037
2038
2038
2038
2038
2038
2038
2038
2038
2038
2038
2036
2035
2035
2037
2040
2042
2043
2041
2041
2039
2040
2040
2041
2041
2041
2041
2041
2041
2042
2042
2043
2043
2044
2044
2044
2044
2043
2043
2043
2045
2045
2043
2041
2039
2038
2040
2043
2045
2044
2041
2039
2037
2037
2037
2038
2037
2037
2037
2037
2037
2037
2037
2037
2037
2037
2036
2036
2036
2034
2037
2036
2036
2035
2033
2033
2034
2037
2040
2040
2039
2036
2035
2033
2035
2035
2035
2036
2036
2036
2036
2035
2035
2035
2035
2035
2034
2034
2034
2034
2033
2034
2035
2035
2034
2032
2030
2029
2031
2035
2038
2039
2038
2036
2033
2033
2034
2035
2035
2035
2035
2035
2035
2035
2035
2035
2034
2034
2035
2035
2036
2037
2037
2036
2034
2033
2032
2031
2033
2035
2037
2038
2037
2036
2035
2035
2035
2034
2033
2034
2034
2034
2035
2035
2034
2033
2032
2032
2033
2038
2048
2057
2065
2067
2065
2056
2044
2032
2023
2019
2023
2030
2037
2040
2040
2038
2034
2031
2033
2033
2034
2033
2034
2033
2034
2034
2033
2034
2035
2035
2035
2034
2034
2034
2033
2036
2035
2036
2034
2032
2031
2032
2036
2038
2041
2040
2038
2036
2033
2035
2035
2036
2036
2037
2037
2039
2039
2039
2040
2039
2040
2039
2039
2039
2039
2038
2040
2041
2041
2039
2034
2029
2029
2032
2038
2044
2044
2041
2036
2032
2031
2032
2032
2032
2032
2031
2030
2030
2030
2031
2032
2031
2031
2031
2030
2031
2030
2032
2032
2032
2030
2028
2027
2027
2030
2033
2035
2035
2033
2031
2029
2030
2031
2031
2031
2031
2031
2030
2030
2030
2031
2031
2031
2031
2031
2031
2030
2030
2031
2030
2031
2032
2031
2028
2026
2026
2029
2033
2037
2038
2036
2033
2031
2029
2031
2032
2032
2032
2032
2032
2032
2032
2032
2032
2032
2032
2032
2031
2032
2032
2033
2033
2033
2031
2029
2028
2030
2035
2038
2040
2039
2036
2033
2031
2032
2032
2033
2033
2033
2033
2033
2033
2033
2033
2033
2033
2033
2033
2032
2030
2030
2033
2039
2048
2056
2061
2063
2060
2054
2047
2039
2032
2029
2028
2030
2031
2033
2033
2034
2034
2035
2035
2035
2035
2035
2035
2036
2035
2035
2034
2034
2034
2037
2037
2037
2035
2031
2029
2030
2034
2039
2043
2043
2041
2038
2034
2035
2036
2036
2038
2038
2038
2038
2038
2038
2039
2039
2040
2041
2041
2041
2040
2040
2040
2041
2044
2043
2041
2038
2037
2037
2041
2046
2048
2048
2044
2040
2037
2036
2038
2038
2038
2037
2037
2037
2037
2037
2037
2037
2037
2037
2037
2037
2037
2035
2038
2036
2036
2034
2031
2031
2033
2037
2041
2042
2042
2039
2037
2034
2037
2036
2036
2036
2036
2036
2037
2036
2036
2036
2037
2038
2037
2037
2036
2036
2035
2037
2037
2037
2039
2035
2031
2029
2029
2033
2040
2045
2046
2044
2039
2036
2034
2033
2036
2036
2037
2037
2037
2037
2037
2037
2037
2037
2036
2036
2036
2036
2036
2039
2038
2038
2033
2029
2028
2031
2038
2043
2045
2043
2039
2036
2034
2038
2037
2039
2039
2038
2039
2039
2038
2038
2038
2038
2037
2037
2037
2037
2036
2035
2038
2038
2036
2033
2029
2028
2030
2036
2041
2043
2041
2037
2033
2031
2037
2044
2054
2063
2070
2069
2061
2051
2040
2032
2029
2030
2032
2034
2034
2034
2033
2036
2036
2037
2035
2033
2031
2031
2035
2038
2042
2042
2040
2037
2034
2035
2035
2036
2036
2036
2036
2037
2037
2037
2037
2037
2036
2036
2036
2037
2036
2036
2037
2039
2039
2038
2037
2036
2036
2038
2041
2044
2044
2044
2043
2041
2041
2041
2041
2042
2043
2043
2040
2038
2036
2038
2043
2048
2050
2048
2044
2040
2037
2038
2039
2039
2038
2037
2035
2032
2032
2034
2038
2042
2044
2043
2040
2037
2035
2035
2035
2037
2037
2037
2037
2036
2037
2036
2036
2036
2037
2037
2037
2037
2037
2037
2038
2036
2033
2030
2028
2031
2037
2044
2045
2043
2039
2035
2033
2036
2037
2037
2036
2035
2035
2035
2035
2035
2035
2035
2035
2036
2036
2036
2036
2034
2037
2035
2036
2033
2031
2030
2032
2036
2040
2041
2039
2037
2034
2032
2035
2034
2035
2035
2036
2037
2038
2038
2039
2039
2038
2038
2036
2036
2036
2036
2035
2036
2038
2039
2038
2033
2028
2026
2028
2036
2046
2051
2049
2043
2035
2030
2032
2036
2046
2055
2065
2070
2069
2061
2050
2041
2033
2031
2030
2031
2033
2034
2036
2038
2038
2038
2035
2034
2034
2037
2041
2043
2044
2042
2040
2039
2038
2039
2039
2039
2039
2039
2039
2040
2040
2040
2040
2040
2040
2040
2041
2040
2040
2041
2042
2043
2042
2041
2038
2038
2039
2042
2046
2048
2048
2046
2044
2044
2044
2045
2046
2046
2046
2046
2046
2046
2046
2046
2047
2046
2046
2044
2044
2043
2041
2044
2044
2044
2041
2037
2035
2036
2040
2044
2046
2046
2042
2040
2036
2038
2039
2039
2039
2039
2039
2040
2039
2039
2039
2039
2039
2039
2038
2038
2039
2038
2040
2041
2041
2039
2037
2035
2036
2038
2041
2044
2044
2042
2041
2039
2039
2038
2037
2037
2038
2039
2039
2040
2039
2039
2039
2038
2039
2038
2038
2038
2038
2038
2038
2038
2038
2036
2034
2033
2034
2037
2040
2043
2044
2042
2040
2039
2039
2038
2039
2039
2038
2038
2037
2037
2038
2039
2040
2041
2041
2041
2040
2040
2039
2041
2042
2041
2038
2035
2034
2035
2039
2044
2045
2044
2042
2039
2037
2039
2039
2040
2039
2039
2038
2037
2037
2037
2041
2048
2059
2069
2073
2072
2063
2050
2043
2035
2034
2032
2033
2034
2035
2039
2042
2044
2043
2041
2039
2037
2039
2038
2038
2038
2039
2039
2040
2041
2040
2040
2040
2040
2040
2041
2041
2040
2040
2040
2042
2041
2042
2037
2032
2030
2032
2040
2049
2053
2053
2048
2043
2040
2040
2042
2045
2044
2044
2043
2044
2045
2045
2046
2046
2046
2045
2045
2045
2044
2046
2047
2045
2043
2039
2037
2037
2040
2046
2048
2048
2045
2042
2040
2040
2041
2040
2040
2040
2039
2040
2040
2040
2040
2040
2040
2039
2039
2039
2038
2039
2040
2041
2041
2039
2037
2034
2033
2036
2040
2045
2046
2045
2041
2038
2038
2038
2039
2039
2038
2038
2038
2039
2039
2039
2038
2038
2038
2038
2038
2038
2038
2037
2038
2039
2039
2038
2036
2034
2034
2036
2039
2043
2044
2042
2040
2037
2037
2037
2038
2037
2037
2036
2037
2037
2038
2038
2038
2037
2037
2036
2036
2036
2036
2038
2039
2040
2039
2038
2037
2036
2037
2039
2042
2043
2043
2040
2038
2036
2036
2036
2037
2038
2039
2039
2038
2038
2037
2037
2038
2039
2039
2038
2037
2036
2037
2041
2046
2055
2063
2066
2066
2061
2052
2044
2037
2033
2033
2034
2037
2038
2036
2036
2037
2034
2037
2037
2036
2036
2036
2037
2038
2038
2038
2037
2038
2036
2040
2040
2040
2036
2031
2029
2031
2036
2043
2047
2046
2044
2039
2035
2036
2037
2038
2038
2039
2040
2040
2040
2039
2040
2040
2041
2041
2042
2043
2043
2041
2044
2044
2044
2043
2042
2041
2042
2045
2047
2048
2048
2046
2043
2040
2041
2040
2040
2040
2040
2040
2041
2040
2041
2041
2039
2039
2038
2037
2037
2037
2037
2038
2039
2040
2038
2035
2031
2030
2033
2039
2044
2045
2044
2040
2037
2036
2037
2039
2038
2038
2038
2038
2038
2039
2039
2039
2038
2038
2038
2038
2038
2037
2037
2039
2039
2039
2039
2039
2037
2035
2033
2033
2036
2040
2045
2048
2046
2043
2039
2036
2036
2037
2038
2038
2038
2038
2038
2038
2038
2038
2038
2038
2038
2038
2039
2040
2041
2040
2038
2037
2037
2040
2043
2045
2045
2042
2040
2038
2038
2039
2040
2040
2039
2039
2039
2039
2039
2039
2039
2040
2040
2040
2039
2038
2036
2038
2040
2048
2055
2063
2068
2069
2065
2057
2048
2041
2036
2034
2033
2036
2038
2039
2040
2040
2040
2040
2040
2040
2040
2040
2039
2040
2040
2040
2040
2039
2041
2041
2041
2040
2038
2038
2038
2041
2043
2044
2043
2042
2041
2041
2041
2040
2040
2040
2042
2044
2045
2045
2045
2044
2044
2044
2044
2045
2046
2046
2046
2046
2047
2046
2046
2044
2042
2041
2043
2047
2049
2050
2049
2047
2046
2045
2046
2045
2044
2043
2041
2041
2041
2041
2041
2040
2040
2039
2039
2040
2040
2040
2038
2041
2042
2041
2037
2032
2029
2032
2039
2047
2051
2049
2046
2041
2038
2038
2039
2041
2041
2040
2039
2039
2039
2039
2040
2040
2041
2041
2040
2040
2039
2038
2041
2040
2040
2037
2035
2033
2035
2040
2044
2046
2045
2043
2040
2036
2038
2038
2039
2039
2040
2040
2040
2040
2040
2040
2039
2040
2040
2041
2041
2041
2040
2040
2042
2042
2041
2037
2033
2032
2035
2041
2047
2048
2047
2043
2039
2038
2040
2041
2041
2041
2041
2041
2042
2042
2042
2041
2040
2040
2040
2040
2040
2039
2040
2041
2041
2041
2040
2038
2038
2040
2043
2045
2045
2043
2039
2037
2038
2043
2049
2060
2069
2074
2073
2065
2054
2045
2039
2036
2036
2038
2040
2040
2041
2041
2041
2041
2041
2040
2039
2038
2039
2041
2044
2046
2046
2044
2042
2041
2040
2041
2042
2042
2042
2042
2042
2042
2042
2042
2043
2042
2042
2042
2041
2042
2040
2043
2045
2044
2043
2039
2037
2038
2042
2047
2050
2051
2049
2047
2043
2043
2044
2044
2045
2046
2046
2046
2046
2046
2045
2044
2044
2044
2044
2044
2043
2042
2042
2043
2042
2041
2039
2038
2038
2040
2042
2044
2043
2042
2040
2039
2039
2038
2038
2037
2037
2039
2040
2041
2041
2040
2039
2039
2039
2040
2040
2041
2040
2040
2040
2039
2040
2037
2035
2034
2036
2040
2044
2046
2044
2041
2038
2037
2038
2039
2042
2041
2040
2039
2038
2038
2038
2039
2038
2038
2038
2039
2039
2038
2038
2038
2038
2037
2035
2033
2032
2035
2039
2044
2046
2045
2041
2038
2034
2036
2037
2038
2038
2038
2038
2038
2038
2038
2039
2039
2039
2040
2040
2040
2040
2037
2040
2039
2039
2037
2034
2033
2035
2038
2042
2044
2043
2041
2039
2035
2037
2037
2037
2039
2039
2037
2035
2033
2036
2044
2056
2068
2075
2072
2061
2048
2037
2031
2034
2035
2038
2035
2029
2026
2028
2036
2047
2053
2053
2048
2041
2034
2037
2037
2040
2040
2040
2040
2040
2040
2040
2040
2040
2041
2041
2041
2041
2039
2040
2042
2042
2041
2036
2033
2032
2036
2044
2049
2053
2051
2047
2043
2041
2043
2042
2044
2044
2045
2045
2046
2046
2046
2046
2046
2046
2047
2047
2046
2046
2046
2047
2047
2045
2042
2038
2036
2038
2043
2048
2049
2048
2044
2040
2039
2039
2039
2040
2040
2040
2040
2039
2039
2038
2039
2039
2039
2039
2038
2038
2038
2037
2039
2039
2039
2036
2032
2029
2031
2037
2044
2048
2047
2042
2038
2034
2036
2037
2039
2039
2039
2039
2039
2038
2039
2038
2038
2038
2038
2038
2038
2038
2037
2038
2039
2040
2038
2035
2032
2031
2034
2040
2046
2048
2048
2044
2040
2037
2036
2037
2037
2038
2040
2042
2043
2043
2042
2042
2042
2042
2043
2043
2042
2042
2041
2042
2042
2042
2039
2036
2034
2037
2042
2047
2049
2048
2046
2042
2040
2041
2042
2045
2042
2037
2032
2033
2042
2058
2076
2086
2084
2072
2057
2044
2037
2033
2038
2041
2042
2038
2033
2030
2032
2039
2048
2053
2054
2049
2044
2038
2038
2039
2041
2041
2042
2042
2043
2043
2043
2042
2043
2043
2043
2044
2043
2043
2041
2043
2045
2045
2043
2039
2036
2037
2042
2048
2052
2052
2048
2045
2041
2043
2043
2043
2044
2045
2047
2048
2048
2048
2048
2047
2047
2048
2048
2048
2047
2045
2045
2046
2046
2045
2041
2037
2035
2037
2043
2049
2051
2049
2045
2041
2039
2040
2041
2041
2041
2040
2041
2041
2041
2041
2041
2040
2040
2040
2040
2041
2041
2040
2041
2042
2041
2038
2036
2034
2037
2042
2047
2048
2048
2043
2039
2038
2039
2040
2041
2040
2040
2040
2040
2041
2042
2042
2041
2041
2040
2041
2041
2042
2041
2042
2042
2041
2039
2036
2035
2037
2042
2048
2050
2049
2046
2042
2040
2040
2040
2042
2041
2042
2042
2042
2042
2041
2041
2041
2041
2042
2042
2044
2044
2044
2044
2043
2044
2041
2039
2038
2038
2043
2046
2049
2048
2047
2045
2044
2046
2046
2045
2041
2039
2038
2039
2040
2040
2039
2038
2038
2041
2047
2056
2066
2072
2075
2069
2058
2046
2036
2032
2034
2038
2043
2044
2043
2042
2040
2040
2040
2040
2040
2040
2040
2041
2042
2042
2042
2041
2041
2041
2042
2042
2043
2043
2042
2042
2042
2041
2041
2040
2038
2036
2037
2040
2044
2047
2048
2047
2044
2042
2041
2039
2041
2043
2044
2046
2047
2046
2046
2045
2043
2046
2046
2046
2046
2047
2046
2048
2048
2048
2044
2040
2038
2041
2047
2052
2053
2049
2046
2042
2040
2042
2042
2043
2041
2042
2041
2040
2040
2040
2040
2040
2040
2040
2040
2041
2040
2039
2042
2041
2041
2038
2036
2035
2036
2040
2044
2046
2045
2043
2041
2037
2039
2038
2039
2039
2039
2040
2041
2041
2042
2042
2041
2041
2040
2039
2039
2039
2038
2039
2041
2041
2043
2037
2031
2027
2028
2035
2045
2050
2051
2047
2040
2035
2034
2035
2039
2038
2038
2038
2038
2038
2038
2038
2038
2038
2038
2038
2039
2039
2040
2041
2041
2040
2038
2036
2035
2037
2040
2043
2044
2043
2041
2039
2038
2039
2038
2039
2039
2039
2040
2039
2039
2039
2039
2039
2038
2037
2036
2037
2041
2048
2058
2068
2073
2071
2060
2048
2039
2034
2035
2037
2039
2038
2037
2037
2037
2039
2040
2039
2039
2039
2039
2039
2040
2040
2041
2040
2040
2039
2039
2039
2038
2041
2042
2042
2040
2037
2035
2036
2041
2045
2047
2047
2043
2041
2038
2040
2042
2043
2043
2043
2043
2044
2044
2045
2044
2044
2044
2044
2045
2045
2046
2046
2047
2048
2047
2046
2044
2043
2043
2046
2048
2049
2049
2048
2046
2044
2043
2042
2041
2041
2041
2042
2041
2041
2041
2040
2041
2040
2040
2039
2039
2039
2038
2039
2039
2039
2039
2037
2035
2034
2035
2038
2041
2044
2043
2041
2039
2039
2039
2037
2038
2037
2037
2038
2040
2041
2041
2039
2037
2036
2037
2039
2039
2039
2038
2039
2039
2038
2036
2034
2033
2034
2038
2042
2044
2043
2041
2039
2037
2038
2038
2038
2037
2037
2037
2037
2038
2037
2038
2038
2039
2039
2038
2038
2037
2035
2038
2037
2039
2037
2035
2033
2034
2037
2041
2045
2045
2043
2041
2037
2038
2037
2037
2038
2039
2039
2039
2038
2038
2038
2038
2038
2039
2039
2039
2038
2038
2038
2040
2038
2038
2033
2028
2030
2039
2055
2073
2083
2081
2069
2053
2040
2033
2030
2033
2034
2036
2037
2039
2039
2040
2039
2038
2038
2038
2038
2039
2039
2039
2041
2040
2039
2037
2035
2034
2035
2040
2044
2047
2047
2045
2042
2039
2040
2039
2040
2041
2040
2041
2041
2041
2041
2041
2041
2041
2041
2042
2042
2042
2044
2045
2043
2040
2038
2037
2040
2046
2050
2051
2049
2046
2043
2042
2043
2045
2044
2043
2043
2042
2041
2041
2041
2041
2041
2041
2040
2040
2039
2039
2039
2037
2040
2040
2039
2038
2034
2033
2033
2037
2041
2045
2046
2044
2042
2037
2037
2038
2037
2039
2039
2039
2040
2039
2039
2039
2039
2039
2039
2040
2040
2040
2039
2039
2040
2039
2038
2036
2034
2035
2038
2042
2044
2043
2042
2039
2038
2037
2037
2037
2037
2038
2039
2040
2040
2040
2038
2038
2038
2038
2038
2039
2039
2039
2039
2039
2038
2038
2036
2034
2033
2035
2039
2043
2045
2044
2041
2038
2037
2037
2039
2040
2039
2039
2038
2039
2041
2044
2044
2043
2041
2040
2040
2038
2041
2040
2041
2041
2040
2037
2035
2034
2036
2040
2044
2046
2045
2044
2041
2037
2038
2037
2039
2040
2048
2055
2065
2072
2072
2067
2057
2047
2039
2035
2036
2037
2037
2040
2041
2041
2039
2037
2035
2037
2040
2044
2047
2046
2043
2040
2037
2039
2039
2040
2041
2041
2041
2041
2040
2040
2041
2040
2041
2040
2040
2040
2040
2040
2041
2041
2042
2041
2039
2036
2036
2039
2043
2046
2047
2046
2043
2042
2042
2043
2044
2044
2045
2044
2044
2044
2044
2044
2045
2045
2045
2044
2043
2043
2042
2041
2044
2042
2041
2037
2031
2030
2033
2041
2047
2049
2047
2042
2038
2034
2038
2036
2037
2037
2037
2038
2038
2038
2038
2038
2038
2037
2037
2037
2037
2037
2037
2039
2039
2038
2036
2033
2032
2033
2036
2041
2042
2042
2040
2037
2035
2036
2037
2038
2037
2037
2037
2037
2037
2037
2037
2038
2037
2037
2037
2036
2036
2034
2038
2037
2037
2034
2030
2029
2031
2036
2041
2044
2043
2039
2037
2034
2036
2037
2036
2036
2036
2036
2037
2036
2037
2037
2037
2037
2037
2038
2038
2038
2037
2038
2038
2037
2036
2035
2034
2034
2036
2039
2041
2040
2039
2036
2035
2035
2035
2036
2036
2036
2035
2035
2036
2038
2044
2053
2063
2070
2071
2065
2054
2042
2035
2031
2030
2030
2029
2028
2030
2035
2039
2043
2043
2041
2039
2035
2036
2036
2038
2038
2038
2037
2036
2035
2036
2039
2040
2040
2039
2038
2038
2038
2038
2039
2041
2041
2038
2035
2032
2031
2035
2042
2047
2048
2045
2042
2039
2039
2042
2043
2044
2044
2044
2044
2044
2045
2045
2046
2046
2047
2047
2047
2047
2046
2044
2047
2045
2046
2043
2040
2039
2039
2043
2046
2048
2047
2045
2041
2038
2039
2038
2039
2039
2039
2040
2040
2040
2040
2040
2039
2039
2040
2040
2041
2041
2040
2041
2043
2041
2040
2035
2030
2029
2033
2041
2048
2052
2050
2046
2040
2038
2038
2037
2040
2039
2040
2040
2040
2040
2040
2040
2040
2040
2039
2039
2040
2039
2040
2041
2041
2040
2037
2035
2035
2037
2040
2043
2044
2043
2041
2039
2039
2040
2039
2040
2040
2039
2039
2039
2039
2040
2040
2041
2041
2041
2041
2040
2041
2041
2041
2042
2042
2041
2038
2036
2035
2038
2041
2044
2044
2042
2040
2038
2038
2039
2040
2040
2039
2038
2037
2036
2037
2039
2046
2054
2064
2071
2073
2068
2056
2048
2039
2036
2034
2033
2034
2035
2038
2042
2044
2044
2042
2040
2037
2039
2039
2040
2040
2040
2041
2040
2040
2041
2040
2040
2040
2040
2040
2040
2041
2040
2041
2042
2041
2040
2038
2037
2037
2040
2044
2047
2047
2046
2044
2042
2042
2042
2041
2042
2042
2044
2045
2046
2046
2046
2046
2046
2046
2046
2046
2047
2046
2047
2047
2046
2047
2044
2041
2039
2040
2043
2046
2048
2047
2045
2042
2041
2041
2040
2041
2042
2042
2041
2039
2038
2038
2038
2040
2042
2043
2043
2041
2040
2039
2040
2042
2041
2038
2036
2034
2037
2040
2045
2047
2046
2044
2040
2038
2041
2042
2041
2037
2034
2033
2036
2042
2047
2049
2048
2044
2039
2037
2039
2039
2039
2042
2041
2041
2039
2036
2035
2036
2041
2045
2048
2047
2043
2040
2038
2040
2040
2040
2042
2041
2041
2041
2041
2041
2041
2040
2041
2040
2040
2040
2041
2041
2041
2042
2042
2040
2038
2036
2037
2040
2045
2048
2048
2047
2044
2042
2041
2041
2042
2042
2042
2042
2042
2042
2041
2041
2041
2041
2041
2042
2041
2042
2042
2042
2043
2041
2039
2035
2034
2040
2053
2071
2083
2085
2075
2059
2044
2036
2035
2035
2038
2039
2039
2041
2041
2041
2040
2040
2040
2040
2041
2041
2041
2040
2041
2043
2043
2042
2039
2035
2034
2036
2041
2046
2048
2048
2045
2041
2039
2040
2040
2041
2041
2041
2041
2041
2041
2042
2042
2042
2042
2042
2042
2043
2043
2042
2046
2045
2045
2042
2038
2037
2039
2045
2050
2053
2052
2048
2046
2043
2043
2044
2043
2044
2043
2042
2042
2041
2042
2041
2041
2041
2040
2040
2040
2040
2039
2039
2040
2039
2037
2035
2034
2035
2038
2043
2045
2044
2042
2040
2038
2038
2038
2038
2037
2038
2039
2040
2040
2041
2039
2039
2038
2039
2039
2040
2040
2039
2039
2039
2038
2038
2036
2034
2034
2035
2038
2041
2042
2041
2040
2038
2037
2037
2037
2038
2037
2039
2039
2038
2037
2036
2035
2036
2039
2040
2041
2040
2039
2037
2037
2040
2038
2036
2034
2032
2034
2038
2042
2045
2043
2041
2038
2036
2038
2040
2041
2040
2040
2039
2039
2039
2039
2039
2039
2039
2038
2038
2038
2037
2036
2039
2038
2038
2036
2035
2033
2034
2037
2040
2042
2041
2039
2037
2037
2045
2053
2063
2070
2070
2062
2051
2041
2033
2030
2029
2032
2034
2036
2037
2037
2037
2036
2038
2037
2038
2034
2029
2028
2030
2037
2045
2049
2048
2044
2038
2034
2035
2035
2038
2038
2038
2038
2039
2039
2039
2039
2039
2039
2039
2039
2040
2040
2041
2042
2042
2041
2039
2038
2038
2040
2045
2048
2048
2048
2047
2046
2045
2046
2046
2046
2046
2046
2047
2046
2046
2046
2045
2045
2044
2044
2044
2043
2042
2042
2042
2042
2042
2041
2039
2037
2037
2039
2042
2043
2044
2042
2040
2039
2040
2040
2040
2039
2039
2039
2040
2040
2041
2041
2041
2041
2041
2041
2041
2041
2040
2042
2041
2042
2040
2038
2037
2038
2040
2043
2046
2045
2043
2042
2039
2040
2040
2040
2040
2040
2040
2040
2041
2041
2041
2040
2040
2040
2039
2040
2040
2040
2041
2042
2041
2040
2038
2037
2037
2039
2042
2044
2044
2043
2042
2041
2041
2041
2041
2041
2041
2042
2043
2043
2043
2042
2042
2042
2042
2043
2042
2043
2042
2042
2042
2041
2039
2037
2037
2038
2041
2044
2044
2043
2041
2045
2051
2063
2073
2075
2070
2060
2048
2041
2036
2035
2037
2038
2039
2040
2042
2043
2043
2042
2041
2042
2043
2043
2040
2036
2035
2038
2043
2048
2050
2048
2046
2042
2041
2043
2043
2044
2043
2043
2043
2043
2043
2043
2044
2044
2044
2044
2044
2044
2044
2043
2047
2046
2046
2044
2041
2040
2042
2047
2050
2054
2053
2051
2048
2046
2047
2047
2048
2048
2049
2048
2048
2047
2047
2048
2047
2047
2046
2045
2044
2043
2043
2043
2045
2044
2044
2038
2032
2030
2033
2042
2050
2054
2053
2048
2042
2038
2039
2039
2042
2041
2041
2041
2041
2041
2041
2042
2041
2041
2041
2041
2041
2041
2041
2043
2042
2042
2038
2036
2035
2038
2042
2046
2047
2046
2044
2042
2040
2042
2040
2041
2041
2041
2041
2041
2042
2042
2041
2041
2041
2041
2041
2040
2041
2040
2041
2042
2041
2041
2039
2038
2038
2040
2043
2044
2045
2043
2041
2040
2041
2042
2043
2043
2043
2042
2043
2043
2043
2043
2042
2042
2043
2044
2042
2039
2034
2036
2039
2046
2048
2048
2044
2039
2039
2043
2047
2048
2045
2041
2037
2039
2044
2051
2062
2071
2075
2072
2064
2053
2044
2038
2036
2037
2040
2041
2042
2042
2042
2043
2042
2041
2039
2036
2037
2039
2043
2047
2047
2046
2043
2041
2040
2041
2042
2042
2043
2044
2043
2044
2044
2044
2045
2045
2044
2044
2043
2044
2043
2044
2044
2044
2043
2041
2040
2040
2043
2046
2048
2050
2049
2048
2047
2047
2047
2047
2048
2048
2047
2048
2048
2048
2047
2046
2044
2043
2044
2047
2047
2048
2044
2045
2043
2042
2040
2038
2037
2038
2042
2046
2048
2046
2044
2041
2038
2040
2041
2042
2041
2041
2041
2040
2040
2040
2040
2041
2040
2041
2040
2041
2040
2039
2042
2041
2041
2040
2038
2036
2036
2039
2043
2046
2046
2043
2041
2038
2039
2038
2038
2039
2040
2040
2041
2041
2040
2039
2038
2039
2040
2041
2041
2040
2040
2039
2041
2041
2041
2038
2034
2032
2033
2039
2046
2049
2049
2046
2041
2036
2037
2037
2040
2040
2040
2040
2040
2041
2041
2042
2041
2041
2041
2040
2040
2039
2041
2041
2040
2039
2035
2033
2033
2037
2042
2046
2046
2044
2041
2038
2037
2037
2036
2037
2041
2048
2059
2069
2073
2071
2061
2050
2041
2034
2032
2032
2033
2036
2038
2040
2039
2037
2034
2032
2035
2039
2044
2046
2046
2042
2040
2039
2039
2040
2040
2040
2039
2039
2040
2040
2040
2040
2041
2040
2040
2040
2040
2041
2041
2042
2043
2044
2041
2038
2036
2037
2043
2048
2052
2052
2049
2046
2043
2043
2045
2047
2047
2047
2047
2047
2047
2048
2048
2048
2048
2048
2047
2047
2046
2045
2046
2045
2045
2042
2039
2038
2038
2042
2046
2048
2046
2044
2042
2040
2039
2039
2040
2040
2041
2042
2042
2042
2041
2041
2041
2041
2042
2043
2043
2043
2042
2041
2043
2043
2041
2037
2033
2031
2035
2041
2047
2048
2047
2043
2040
2039
2041
2041
2041
2041
2041
2041
2040
2041
2041
2040
2039
2039
2039
2040
2041
2042
2041
2042
2042
2040
2037
2034
2032
2034
2038
2044
2048
2048
2044
2040
2035
2036
2036
2038
2039
2039
2038
2038
2038
2038
2039
2040
2040
2040
2039
2040
2039
2038
2041
2041
2041
2038
2034
2031
2031
2036
2043
2048
2048
2045
2041
2037
2038
2037
2038
2037
2035
2036
2037
2040
2047
2056
2066
2073
2074
2068
2057
2047
2038
2033
2035
2036
2040
2035
2031
2028
2030
2038
2047
2051
2051
2047
2042
2036
2037
2036
2038
2038
2038
2039
2039
2039
2038
2037
2037
2036
2037
2038
2039
2039
2038
2039
2039
2039
2036
2033
2032
2034
2039
2045
2048
2047
2044
2042
2039
2042
2043
2045
2045
2045
2046
2046
2046
2046
2046
2047
2047
2047
2047
2047
2047
2047
2048
2048
2048
2045
2040
2037
2039
2042
2047
2049
2049
2047
2044
2041
2041
2039
2040
2040
2040
2041
2041
2040
2040
2040
2039
2040
2040
2040
2040
2040
2039
2040
2039
2040
2037
2035
2034
2035
2040
2045
2047
2046
2043
2039
2036
2036
2037
2038
2039
2039
2039
2038
2038
2038
2037
2037
2037
2037
2036
2036
2037
2037
2037
2038
2038
2036
2034
2032
2033
2035
2041
2044
2045
2043
2040
2037
2034
2035
2035
2035
2036
2037
2039
2039
2038
2037
2037
2036
2036
2037
2037
2037
2037
2038
2041
2040
2038
2035
2033
2034
2037
2042
2044
2044
2040
2037
2037
2037
2039
2039
2039
2039
2038
2038
2038
2038
2039
2039
2037
2035
2033
2034
2038
2047
2059
2072
2077
2073
2059
2044
2031
2029
2033
2040
2045
2045
2043
2038
2036
2038
2037
2039
2038
2038
2038
2038
2038
2038
2039
2039
2040
2039
2039
2039
2038
2037
2040
2042
2042
2038
2032
2028
2030
2038
2046
2053
2054
2049
2041
2034
2030
2032
2037
2045
2050
2051
2049
2045
2041
2041
2042
2045
2045
2045
2045
2044
2044
2044
2047
2048
2046
2040
2036
2035
2040
2048
2056
2057
2053
2047
2040
2039
2041
2043
2043
2043
2043
2041
2041
2040
2041
2043
2045
2046
2046
2043
2040
2037
2036
2038
2039
2040
2039
2038
2037
2038
2040
2042
2043
2042
2041
2040
2039
2040
2039
2041
2040
2041
2041
2040
2040
2040
2040
2040
2040
2040
2040
2040
2040
2040
2040
2040
2040
2039
2038
2037
2037
2040
2043
2045
2045
2043
2041
2039
2039
2039
2041
2041
2041
2041
2041
2041
2041
2041
2042
2041
2041
2041
2040
2040
2039
2042
2042
2043
2041
2038
2037
2037
2042
2047
2049
2048
2046
2043
2040
2040
2040
2041
2041
2041
2042
2042
2041
2041
2040
2040
2041
2042
2042
2043
2041
2039
2037
2039
2042
2048
2057
2065
2070
2070
2066
2057
2048
2041
2036
2035
2036
2038
2039
2040
2040
2041
2041
2041
2041
2040
2040
2040
2040
2041
2040
2041
2041
2040
2040
2041
2040
2038
2036
2035
2037
2041
2045
2048
2047
2044
2042
2040
2040
2041
2041
2041
2041
2041
2041
2041
2040
2042
2043
2043
2042
2041
2041
2042
2042
2044
2045
2045
2043
2041
2040
2041
2043
2045
2045
2045
2043
2041
2039
2039
2039
2039
2039
2038
2038
2038
2038
2037
2037
2038
2038
2038
2038
2038
2038
2037
2039
2039
2038
2037
2035
2035
2036
2039
2042
2043
2043
2040
2039
2037
2038
2038
2038
2038
2038
2039
2040
2040
2039
2039
2039
2039
2039
2040
2039
2039
2039
2039
2040
2039
2041
2038
2034
2032
2032
2037
2043
2047
2048
2045
2040
2038
2037
2037
2040
2039
2039
2039
2039
2040
2041
2041
2041
2041
2040
2040
2041
2040
2042
2043
2043
2042
2039
2037
2037
2041
2046
2049
2049
2047
2045
2041
2041
2042
2042
2042
2042
2042
2042
2042
2042
2042
2042
2042
2042
2042
2042
2041
2040
2039
2040
2043
2046
2049
2055
2061
2067
2069
2067
2059
2048
2039
2032
2030
2033
2035
2036
2037
2038
2038
2038
2037
2036
2037
2036
2036
2037
2037
2038
2038
2037
2039
2039
2038
2035
2033
2032
2034
2039
2043
2046
2045
2042
2040
