1979
1978
1978
1977
1977
1977
1977
1977
1976
1976
1976
1975
1975
1974
1974
1974
1974
1975
1975
1976
1976
1976
1975
1974
1974
1973
1974
1974
1975
1976
1976
1975
1974
1974
1974
1974
1975
1976
1977
1977
1977
1977
1976
1976
1975
1975
1975
1975
1975
1975
1976
1976
1977
1978
1979
1981
1983
1984
1985
1985
1983
1981
1979
1977
1976
1976
1977
1977
1976
1976
1977
1977
1977
1978
1977
1977
1976
1975
1975
1977
1984
1997
2018
2045
2068
2078
2066
2037
1999
1968
1953
1955
1967
1977
1982
1981
1979
1977
1977
1978
1978
1978
1977
1977
1977
1978
1979
1980
1981
1982
1982
1981
1981
1981
1981
1982
1983
1984
1985
1984
1984
1984
1984
1984
1985
1986
1987
1988
1990
1992
1993
1994
1994
1995
1995
1996
1996
1996
1997
1997
1997
1997
1997
1996
1996
1996
1997
1998
1999
1999
1999
1998
1997
1994
1991
1988
1987
1986
1985
1984
1982
1980
1978
1977
1977
1977
1978
1978
1979
1979
1979
1978
1978
1977
1978
1978
1979
1980
1980
1980
1980
1980
1979
1979
1978
1978
1978
1978
1979
1980
1980
1979
1979
1978
1977
1977
1977
1977
1978
1979
1979
1979
1979
1978
1977
1977
1977
1978
1979
1979
1979
1978
1978
1978
1978
1977
1977
1978
1979
1980
1980
1980
1980
1979
1979
1979
1980
1982
1984
1986
1987
1987
1986
1985
1983
1982
1981
1980
1980
1981
1981
1982
1981
1981
1980
1980
1980
1981
1981
1981
1980
1979
1979
1982
1991
2008
2034
2062
2081
2081
2059
2021
1981
1952
1942
1949
1963
1975
1982
1984
1983
1982
1982
1982
1982
1983
1983
1984
1984
1985
1986
1987
1988
1987
1986
1986
1986
1987
1989
1990
1991
1991
1991
1991
1991
1992
1992
1993
1994
1995
1996
1997
1998
1999
2000
2001
2001
2001
2002
2004
2005
2006
2006
2005
2005
2005
2006
2007
2008
2008
2009
2009
2008
2007
2005
2003
2001
1999
1997
1994
1992
1989
1987
1986
1984
1984
1983
1983
1982
1982
1982
1982
1982
1982
1982
1982
1982
1983
1983
1983
1983
1982
1982
1981
1981
1981
1982
1982
1983
1983
1983
1983
1983
1982
1983
1982
1982
1982
1981
1982
1982
1982
1982
1981
1981
1981
1981
1981
1981
1982
1982
1982
1981
1980
1979
1979
1980
1981
1983
1985
1986
1987
1987
1986
1985
1984
1983
1982
1981
1981
1980
1980
1980
1980
1980
1981
1981
1981
1981
1981
1980
1979
1979
1981
1989
2002
2024
2049
2071
2079
2065
2034
1994
1962
1947
1949
1962
1975
1984
1987
1986
1984
1982
1981
1981
1981
1982
1983
1984
1985
1986
1985
1985
1984
1985
1985
1987
1988
1989
1990
1990
1990
1990
1990
1990
1990
1991
1992
1994
1995
1996
1997
1997
1997
1997
1998
1999
2000
2001
2001
2001
2002
2003
2003
2003
2003
2003
2003
2003
2004
2004
2004
2003
2001
1999
1997
1995
1994
1992
1989
1987
1985
1983
1982
1981
1980
1979
1978
1978
1978
1979
1978
1978
1977
1977
1977
1978
1980
1981
1981
1981
1980
1980
1979
1979
1979
1980
1980
1980
1979
1979
1979
1978
1978
1978
1978
1978
1979
1979
1980
1979
1979
1978
1977
1977
1977
1977
1978
1978
1978
1978
1978
1977
1977
1977
1977
1977
1978
1978
1978
1978
1977
1977
1976
1977
1979
1981
1983
1985
1986
1985
1983
1981
1980
1979
1978
1978
1978
1979
1978
1978
1977
1977
1978
1978
1978
1978
1977
1976
1976
1977
1983
1993
2009
2033
2057
2072
2070
2048
2012
1977
1955
1951
1960
1972
1980
1983
1982
1981
1980
1980
1980
1980
1980
1980
1980
1981
1982
1983
1984
1985
1985
1985
1985
1985
1985
1985
1986
1986
1987
1987
1988
1988
1989
1990
1991
1992
1994
1995
1996
1996
1996
1996
1996
1997
1998
1999
2000
2001
2001
2001
2001
2001
2001
2001
2001
2002
2002
2003
2003
2003
2002
2000
1998
1996
1994
1992
1991
1989
1987
1986
1984
1982
1981
1980
1980
1981
1981
1981
1981
1981
1980
1980
1980
1980
1980
1980
1981
1981
1981
1981
1980
1980
1980
1980
1980
1980
1980
1980
1981
1981
1980
1979
1978
1977
1976
1977
1977
1978
1978
1978
1977
1977
1976
1976
1976
1976
1976
1977
1978
1978
1978
1978
1977
1977
1976
1977
1977
1977
1977
1977
1976
1976
1976
1976
1977
1979
1980
1982
1984
1985
1985
1985
1984
1982
1980
1979
1978
1978
1978
1978
1978
1977
1976
1976
1976
1978
1979
1979
1978
1977
1976
1979
1986
2000
2023
2048
2068
2073
2057
2026
1989
1960
1949
1954
1966
1976
1982
1983
1981
1980
1980
1979
1979
1979
1979
1980
1982
1982
1983
1983
1983
1984
1984
1984
1984
1985
1985
1986
1987
1988
1988
1988
1989
1989
1990
1991
1992
1993
1994
1995
1995
1996
1996
1996
1997
1997
1998
1999
2001
2002
2002
2002
2002
2001
2001
2001
2002
2002
2003
2003
2002
2001
1999
1998
1996
1995
1993
1991
1989
1987
1985
1982
1981
1980
1979
1979
1980
1980
1979
1979
1978
1978
1978
1978
1978
1979
1979
1980
1980
1980
1980
1981
1981
1981
1981
1981
1980
1980
1980
1980
1981
1981
1982
1982
1981
1981
1981
1981
1981
1981
1981
1980
1980
1979
1979
1979
1980
1981
1982
1981
1980
1979
1979
1979
1979
1979
1979
1979
1979
1980
1981
1982
1983
1984
1984
1984
1984
1984
1983
1982
1980
1979
1978
1978
1979
1979
1980
1980
1980
1980
1979
1979
1978
1977
1976
1976
1979
1987
2001
2023
2048
2070
2076
2062
2031
1992
1961
1946
1948
1960
1973
1980
1983
1981
1980
1979
1979
1980
1981
1982
1982
1981
1981
1981
1981
1982
1983
1984
1985
1985
1985
1985
1985
1986
1986
1987
1988
1988
1989
1989
1990
1990
1991
1992
1993
1994
1995
1996
1997
1998
1998
1998
1997
1998
1998
1999
2000
2001
2001
2002
2002
2002
2001
2001
2000
1999
1999
1998
1997
1995
1993
1990
1988
1985
1983
1981
1981
1980
1980
1979
1978
1977
1976
1975
1975
1975
1975
1975
1976
1977
1978
1978
1978
1978
1977
1976
1977
1977
1978
1979
1980
1979
1978
1977
1976
1976
1977
1978
1978
1979
1978
1978
1977
1977
1977
1977
1977
1977
1977
1977
1977
1977
1976
1976
1976
1976
1976
1977
1977
1977
1976
1976
1975
1975
1976
1977
1977
1978
1979
1981
1982
1982
1981
1980
1979
1978
1978
1977
1977
1976
1976
1976
1976
1976
1977
1977
1977
1976
1975
1974
1973
1973
1974
1979
1989
2006
2030
2054
2070
2069
2048
2012
1975
1952
1946
1955
1968
1978
1982
1981
1979
1978
1977
1976
1977
1977
1978
1979
1980
1980
1981
1981
1981
1981
1981
1981
1982
1983
1984
1985
1985
1985
1985
1985
1986
1987
1988
1989
1991
1992
1992
1992
1992
1992
1993
1994
1996
1997
1998
1999
1999
1999
1998
1998
1999
1999
2000
2000
2000
2001
2001
2000
1999
1997
1996
1994
1993
1992
1991
1989
1987
1985
1982
1980
1979
1978
1978
1979
1979
1979
1979
1978
1977
1977
1977
1977
1978
1978
1979
1980
1980
1980
1979
1979
1979
1979
1979
1980
1980
1980
1980
1980
1979
1978
1978
1978
1978
1979
1979
1979
1978
1978
1978
1977
1977
1977
1977
1978
1978
1979
1978
1978
1978
1978
1978
1978
1979
1979
1979
1979
1979
1978
1978
1978
1978
1978
1979
1978
1978
1977
1977
1977
1978
1979
1981
1983
1985
1985
1985
1984
1982
1980
1979
1978
1978
1978
1978
1978
1978
1978
1978
1978
1978
1978
1978
1977
1977
1977
1979
1983
1992
2008
2032
2055
2071
2069
2048
2012
1978
1957
1952
1961
1973
1981
1983
1982
1980
1979
1979
1979
1978
1978
1978
1978
1980
1981
1983
1984
1984
1984
1983
1983
1983
1983
1983
1984
1985
1986
1986
1987
1987
1987
1988
1989
1990
1992
1993
1994
1994
1995
1995
1995
1996
1996
1997
1997
1998
1999
2000
2000
2000
1999
1999
1999
1999
2000
2000
2000
2000
1999
1998
1996
1994
1992
1990
1988
1986
1985
1983
1982
1981
1979
1978
1977
1976
1976
1976
1977
1978
1978
1978
1977
1977
1976
1977
1977
1978
1979
1979
1979
1979
1978
1978
1977
1977
1977
1977
1978
1978
1978
1978
1978
1977
1977
1976
1977
1977
1978
1978
1978
1978
1977
1976
1976
1976
1976
1976
1977
1977
1977
1976
1976
1977
1977
1978
1978
1978
1978
1977
1977
1977
1977
1977
1977
1977
1977
1977
1977
1977
1977
1977
1977
1977
1976
1977
1978
1979
1981
1982
1983
1983
1983
1982
1981
1981
1980
1980
1979
1978
1978
1977
1977
1977
1977
1977
1977
1978
1978
1978
1978
1976
1976
1976
1979
1987
2001
2023
2048
2068
2073
2058
2027
1990
1962
1950
1954
1966
1977
1982
1982
1979
1978
1977
1978
1978
1977
1978
1978
1979
1980
1981
1981
1981
1981
1981
1981
1982
1983
1984
1985
1986
1986
1986
1985
1985
1985
1987
1989
1990
1992
1992
1992
1992
1992
1993
1993
1994
1995
1996
1997
1998
1998
1998
1997
1997
1997
1998
1998
1999
1999
1999
1998
1998
1997
1996
1996
1995
1994
1992
1991
1989
1986
1984
1981
1979
1978
1977
1977
1977
1977
1976
1976
1976
1976
1976
1977
1978
1978
1979
1978
1978
1977
1977
1977
1977
1978
1978
1979
1979
1979
1979
1979
1978
1977
1976
1976
1976
1977
1977
1978
1977
1977
1976
1976
1976
1975
1976
1976
1977
1977
1976
1976
1975
1975
1975
1976
1976
1976
1976
1975
1975
1975
1974
1974
1974
1975
1975
1976
1976
1977
1977
1976
1976
1975
1975
1975
1976
1977
1978
1978
1978
1978
1977
1977
1978
1979
1981
1982
1984
1984
1983
1982
1980
1979
1978
1978
1977
1977
1977
1977
1977
1978
1978
1978
1977
1977
1977
1976
1975
1975
1975
1978
1987
2003
2026
2050
2067
2068
2049
2016
1981
1956
1949
1956
1968
1978
1982
1982
1980
1979
1979
1979
1978
1978
1979
1980
1981
1981
1982
1982
1982
1982
1983
1984
1984
1985
1985
1985
1986
1986
1987
1987
1988
1988
1989
1990
1991
1991
1992
1993
1994
1994
1995
1995
1995
1996
1997
1998
1999
2000
2000
1999
1999
1999
1999
2000
2001
2002
2002
2002
2002
2000
1999
1997
1996
1994
1993
1991
1989
1986
1984
1982
1981
1980
1979
1979
1979
1978
1978
1977
1977
1976
1976
1976
1976
1977
1978
1979
1979
1979
1979
1978
1978
1977
1977
1978
1979
1979
1979
1979
1979
1978
1977
1977
1976
1976
1976
1976
1977
1977
1978
1978
1977
1976
1976
1976
1976
1976
1977
1977
1977
1976
1976
1975
1975
1976
1976
1977
1977
1977
1977
1977
1977
1977
1976
1976
1976
1976
1976
1976
1977
1978
1979
1980
1981
1982
1983
1983
1982
1981
1980
1978
1977
1976
1976
1976
1976
1976
1976
1977
1977
1977
1977
1976
1976
1975
1976
1978
1983
1993
2010
2033
2057
2072
2068
2046
2009
1973
1950
1944
1953
1966
1976
1981
1981
1980
1978
1978
1977
1978
1979
1979
1979
1979
1979
1980
1981
1982
1983
1984
1984
1983
1983
1984
1985
1986
1987
1988
1989
1989
1988
1988
1989
1990
1991
1992
1994
1994
1995
1995
1996
1996
1996
1996
1997
1998
1999
2000
2000
2000
2000
1999
1999
1999
1999
2000
2000
2001
2001
2000
1998
1995
1991
1988
1985
1984
1983
1981
1979
1978
1976
1976
1975
1975
1974
1974
1974
1975
1976
1976
1976
1976
1975
1974
1974
1975
1976
1977
1977
1977
1977
1976
1976
1976
1976
1976
1976
1977
1977
1977
1977
1976
1975
1974
1974
1974
1974
1975
1975
1976
1975
1974
1974
1973
1974
1974
1974
1974
1974
1974
1974
1974
1974
1974
1974
1974
1975
1976
1976
1976
1976
1975
1974
1974
1973
1974
1974
1975
1976
1977
1979
1980
1982
1982
1982
1981
1980
1979
1978
1977
1976
1975
1974
1974
1974
1974
1974
1975
1975
1975
1975
1974
1973
1972
1973
1976
1984
1998
2020
2045
2064
2068
2053
2022
1985
1958
1947
1952
1965
1976
1980
1980
1978
1976
1975
1975
1975
1976
1976
1977
1978
1978
1979
1979
1979
1979
1980
1981
1982
1982
1982
1982
1982
1982
1983
1984
1985
1986
1987
1987
1988
1988
1989
1990
1991
1992
1992
1993
1994
1995
1996
1996
1996
1996
1996
1997
1998
1998
1999
1999
1999
1998
1998
1997
1997
1996
1996
1995
1994
1992
1990
1987
1984
1982
1981
1980
1979
1978
1976
1975
1974
1973
1974
1975
1976
1976
1976
1976
1976
1976
1976
1976
1976
1977
1977
1977
1977
1977
1977
1977
1977
1977
1976
1976
1976
1976
1976
1977
1977
1976
1976
1975
1975
1974
1974
1974
1975
1975
1976
1976
1975
1975
1974
1974
1974
1974
1975
1976
1976
1975
1975
1974
1974
1974
1975
1975
1976
1976
1977
1977
1977
1976
1976
1976
1975
1975
1975
1976
1976
1976
1975
1975
1976
1977
1978
1980
1982
1984
1984
1984
1983
1981
1979
1977
1976
1976
1977
1977
1978
1977
1977
1977
1976
1977
1977
1977
1976
1975
1975
1977
1982
1992
2009
2033
2056
2070
2067
2045
2010
1976
1955
1951
1959
1971
1979
1981
1980
1979
1978
1977
1977
1977
1977
1977
1978
1978
1979
1980
1980
1980
1980
1980
1980
1981
1981
1982
1984
1985
1986
1986
1986
1986
1986
1986
1987
1988
1988
1990
1991
1992
1992
1993
1993
1993
1993
1994
1996
1997
1998
1998
1998
1998
1998
1998
1998
1999
2000
2000
2000
2000
1998
1997
1995
1993
1991
1989
1988
1987
1985
1983
1981
1979
1977
1976
1975
1975
1976
1976
1977
1977
1976
1976
1976
1975
1976
1976
1977
1978
1978
1978
1978
1977
1977
1977
1977
1978
1978
1979
1979
1979
1979
1978
1977
1977
1977
1978
1978
1979
1979
1979
1978
1976
1975
1974
1974
1974
1976
1977
1978
1977
1977
1975
1975
1975
1975
1976
1977
1977
1977
1977
1977
1977
1976
1976
1976
1977
1978
1979
1979
1979
1978
1977
1977
1976
1976
1977
1978
1979
1981
1982
1983
1983
1983
1982
1982
1981
1980
1980
1979
1978
1977
1977
1977
1976
1977
1977
1978
1979
1979
1979
1978
1976
1975
1977
1985
2000
2022
2048
2067
2071
2055
2023
1986
1958
1946
1951
1964
1976
1983
1984
1983
1982
1981
1979
1979
1978
1979
1980
1982
1984
1985
1985
1984
1983
1983
1983
1984
1985
1986
1986
1986
1986
1986
1986
1987
1988
1990
1991
1993
1993
1993
1994
1994
1995
1995
1996
1997
1998
1999
2000
2001
2001
2001
2001
2000
2001
2001
2002
2003
2003
2003
2002
2001
2000
1999
1998
1997
1996
1994
1992
1989
1987
1984
1982
1980
1979
1978
1978
1978
1978
1977
1976
1975
1974
1974
1974
1975
1976
1977
1977
1978
1978
1978
1977
1977
1976
1976
1977
1978
1978
1978
1977
1976
1976
1976
1976
1977
1978
1978
1978
1977
1977
1977
1977
1977
1977
1976
1976
1976
1976
1976
1975
1975
1975
1976
1976
1977
1977
1977
1976
1976
1975
1974
1974
1974
1975
1976
1976
1977
1977
1977
1977
1977
1976
1975
1974
1974
1975
1976
1976
1977
1977
1977
1978
1979
1980
1981
1982
1981
1979
1978
1976
1975
1975
1975
1975
1975
1975
1975
1975
1976
1976
1975
1974
1973
1972
1972
1974
1980
1990
2006
2029
2051
2066
2064
2043
2010
1977
1957
1953
1961
1972
1978
1979
1977
1975
1975
1976
1976
1976
1976
1976
1976
1976
1977
1978
1979
1980
1980
1981
1981
1981
1981
1982
1982
1983
1984
1984
1985
1985
1985
1985
1985
1986
1987
1988
1989
1991
1993
1994
1995
1995
1996
1996
1997
1997
1998
1998
1998
1999
1999
1999
1999
1999
1999
1999
2000
2000
2000
1998
1996
1994
1991
1989
1987
1986
1984
1982
1981
1979
1978
1977
1976
1975
1975
1975
1976
1976
1976
1976
1976
1976
1975
1975
1975
1976
1977
1978
1978
1978
1977
1976
1976
1976
1976
1976
1976
1977
1977
1977
1976
1975
1974
1973
1973
1974
1975
1976
1976
1976
1976
1975
1975
1974
1974
1974
1975
1975
1976
1976
1975
1975
1974
1974
1974
1974
1975
1976
1976
1976
1975
1974
1973
1973
1973
1974
1976
1978
1980
1981
1982
1981
1979
1977
1975
1975
1975
1976
1976
1977
1976
1975
1973
1973
1973
1974
1975
1975
1975
1974
1974
1976
1982
1994
2015
2041
2064
2075
2065
2037
1998
1963
1944
1943
1954
1967
1977
1981
1982
1981
1979
1978
1977
1976
1976
1976
1977
1978
1979
1981
1981
1982
1982
1982
1981
1981
1982
1984
1985
1985
1985
1985
1986
1986
1987
1988
1990
1990
1991
1992
1992
1992
1993
1994
1994
1995
1996
1997
1998
1999
1999
1998
1999
1999
2000
2000
2001
2001
2001
2001
2001
2000
1999
1997
1996
1994
1993
1991
1988
1986
1983
1981
1978
1976
1975
1974
1974
1974
1975
1975
1975
1975
1975
1974
1974
1975
1975
1976
1977
1977
1976
1976
1975
1975
1975
1976
1977
1978
1978
1977
1977
1976
1975
1975
1975
1976
1976
1976
1976
1976
1975
1975
1974
1974
1974
1975
1975
1975
1976
1975
1975
1974
1973
1973
1974
1976
1978
1980
1981
1981
1980
1979
1976
1975
1974
1974
1974
1974
1974
1974
1974
1974
1974
1974
1974
1973
1973
1973
1972
1973
1974
1979
1988
2005
2029
2052
2067
2063
2039
2002
1967
1946
1942
1952
1965
1975
1978
1978
1976
1976
1975
1975
1975
1974
1975
1975
1976
1978
1979
1979
1979
1979
1979
1979
1980
1981
1981
1982
1983
1983
1984
1984
1984
1985
1985
1986
1988
1989
1991
1991
1991
1991
1991
1991
1992
1993
1994
1995
1995
1996
1996
1996
1995
1995
1995
1996
1996
1997
1997
1997
1996
1994
1991
1989
1986
1984
1983
1981
1980
1978
1977
1975
1973
1971
1970
1969
1970
1971
1972
1972
1972
1971
1971
1971
1971
1972
1973
1974
1973
1972
1971
1971
1971
1972
1972
1973
1974
1974
1974
1973
1972
1971
1971
1971
1971
1972
1972
1972
1972
1972
1971
1971
1971
1970
1970
1970
1971
1972
1972
1972
1972
1971
1970
1970
1969
1970
1970
1971
1971
1971
1971
1970
1970
1971
1972
1974
1976
1978
1979
1979
1978
1976
1974
1972
1971
1970
1971
1971
1972
1972
1972
1972
1971
1971
1971
1971
1971
1971
1971
1971
1975
1983
1997
2020
2045
2063
2065
2047
2014
1979
1954
1946
1952
1964
1973
1977
1977
1975
1974
1974
1974
1974
1974
1974
1974
1975
1976
1977
1978
1978
1978
1978
1977
1977
1978
1978
1979
1980
1981
1981
1982
1983
1984
1984
1985
1986
1987
1988
1989
1989
1990
1990
1990
1991
1991
1992
1993
1995
1996
1997
1997
1997
1996
1996
1996
1997
1998
1999
1998
1997
1995
1993
1992
1991
1990
1988
1987
1985
1983
1981
1979
1977
1975
1974
1974
1975
1975
1976
1976
1976
1975
1975
1975
1976
1976
1977
1977
1976
1976
1976
1976
1976
1976
1975
1975
1976
1976
1977
1977
1977
1977
1976
1975
1975
1975
1975
1975
1975
1976
1976
1975
1975
1974
1974
1974
1974
1974
1975
1975
1975
1974
1974
1974
1974
1974
1975
1975
1975
1975
1975
1975
1975
1974
1974
1974
1974
1975
1977
1979
1981
1982
1982
1981
1979
1978
1976
1976
1975
1975
1975
1976
1976
1975
1974
1974
1975
1976
1977
1977
1976
1974
1973
1973
1977
1987
2004
2028
2052
2068
2067
2046
2010
1975
1953
1948
1956
1969
1978
1981
1980
1978
1976
1975
1975
1975
1976
1977
1977
1978
1978
1978
1979
1979
1979
1980
1980
1981
1981
1982
1983
1983
1983
1983
1983
1984
1985
1987
1988
1989
1990
1990
1990
1991
1992
1992
1993
1995
1996
1997
1997
1997
1997
1997
1997
1997
1997
1997
1998
1999
2000
2000
2000
1999
1997
1996
1994
1993
1991
1989
1987
1984
1981
1979
1978
1977
1976
1975
1975
1975
1975
1975
1975
1975
1975
1976
1976
1977
1977
1977
1977
1977
1977
1977
1977
1977
1977
1978
1978
1979
1979
1978
1978
1977
1977
1977
1977
1977
1977
1977
1977
1977
1977
1976
1976
1975
1975
1976
1976
1976
1977
1977
1976
1976
1975
1975
1975
1975
1975
1976
1976
1976
1975
1975
1974
1975
1976
1978
1980
1982
1982
1982
1980
1979
1977
1976
1976
1975
1975
1975
1975
1975
1975
1975
1975
1975
1975
1975
1975
1975
1974
1975
1977
1983
1997
2019
2046
2068
2076
2063
2031
1992
1959
1943
1944
1956
1969
1978
1981
1981
1980
1979
1978
1978
1978
1978
1978
1979
1981
1982
1982
1982
1982
1982
1982
1983
1983
1984
1984
1985
1986
1987
1986
1986
1986
1987
1989
1990
1992
1993
1993
1992
1992
1992
1993
1995
1996
1997
1998
1998
1997
1997
1998
1998
1999
1999
1999
2000
2000
2000
2000
2000
1999
1998
1996
1994
1992
1990
1988
1986
1984
1982
1980
1979
1977
1976
1975
1975
1976
1976
1976
1976
1976
1975
1975
1975
1975
1976
1977
1978
1978
1978
1978
1977
1976
1976
1976
1976
1977
1977
1977
1977
1977
1976
1976
1975
1975
1975
1975
1975
1975
1975
1976
1975
1975
1974
1974
1973
1973
1974
1975
1976
1976
1975
1974
1973
1972
1973
1973
1974
1974
1974
1975
1976
1977
1979
1980
1980
1980
1979
1977
1975
1974
1973
1973
1973
1973
1974
1974
1974
1974
1974
1974
1974
1973
1972
1971
1971
1973
1979
1991
2011
2036
2057
2067
2057
2029
1992
1961
1946
1948
1960
1972
1978
1979
1977
1975
1975
1975
1976
1976
1976
1976
1976
1976
1976
1977
1977
1979
1980
1980
1980
1979
1979
1979
1980
1981
1982
1984
1985
1985
1985
1985
1986
1986
1987
1989
1991
1992
1992
1992
1992
1993
1993
1993
1994
1995
1996
1997
1998
1998
1997
1996
1996
1996
1996
1996
1996
1996
1995
1993
1991
1989
1986
1984
1982
1980
1979
1978
1977
1976
1975
1974
1973
1973
1974
1974
1974
1974
1974
1974
1974
1974
1974
1974
1974
1974
1975
1975
1976
1977
1977
1977
1976
1975
1974
1974
1975
1975
1976
1976
1975
1975
1974
1974
1974
1974
1974
1975
1974
1974
1973
1972
1972
1972
1973
1973
1974
1974
1974
1974
1973
1973
1973
1972
1973
1973
1974
1975
1974
1974
1973
1972
1972
1973
1975
1977
1979
1981
1981
1980
1978
1976
1974
1973
1973
1973
1974
1975
1975
1975
1974
1973
1973
1973
1973
1973
1972
1972
1972
1975
1982
1996
2017
2043
2062
2068
2054
2024
1988
1960
1948
1952
1963
1973
1978
1977
1976
1975
1975
1975
1975
1974
1974
1974
1975
1975
1976
1977
1978
1978
1979
1979
1979
1979
1979
1979
1980
1981
1983
1984
1984
1984
1983
1984
1985
1986
1988
1989
1989
1989
1990
1990
1991
1991
1992
1993
1993
1994
1994
1994
1994
1994
1994
1994
1995
1995
1996
1996
1996
1996
1995
1993
1991
1989
1986
1983
1981
1980
1978
1977
1975
1974
1972
1971
1971
1971
1972
1973
1973
1973
1973
1972
1971
1971
1971
1972
1974
1975
1975
1974
1974
1974
1974
1974
1973
1973
1973
1973
1974
1974
1974
1973
1972
1972
1972
1973
1974
1974
1974
1973
1972
1971
1970
1970
1970
1971
1972
1973
1974
1974
1973
1972
1971
1971
1971
1972
1973
1974
1974
1974
1974
1973
1974
1974
1975
1977
1978
1980
1981
1980
1979
1977
1975
1974
1974
1974
1975
1975
1976
1975
1975
1975
1975
1974
1975
1974
1974
1973
1973
1974
1980
1992
2014
2040
2063
2073
2062
2032
1993
1960
1943
1944
1956
1969
1977
1980
1979
1978
1977
1977
1976
1976
1976
1977
1977
1978
1979
1980
1981
1981
1981
1981
1981
1981
1981
1982
1983
1983
1984
1985
1986
1987
1987
1988
1988
1988
1989
1989
1991
1992
1994
1995
1997
1997
1997
1997
1998
1998
1998
1999
1999
1999
1999
2000
2000
2001
2001
2001
2001
2000
1999
1997
1995
1993
1991
1989
1987
1986
1985
1983
1981
1979
1977
1976
1975
1976
1976
1976
1976
1976
1976
1977
1977
1977
1976
1976
1976
1977
1978
1979
1979
1979
1978
1977
1976
1976
1977
1978
1978
1978
1978
1977
1976
1976
1977
1977
1977
1977
1977
1977
1977
1977
1976
1976
1976
1976
1975
1975
1975
1975
1974
1975
1976
1978
1980
1982
1983
1983
1982
1980
1978
1976
1975
1974
1974
1974
1975
1975
1976
1976
1975
1975
1975
1975
1975
1974
1974
1973
1973
1976
1984
1997
2018
2043
2062
2068
2054
2024
1987
1957
1944
1947
1959
1972
1979
1981
1980
1978
1977
1976
1977
1977
1977
1977
1978
1979
1980
1981
1982
1981
1981
1981
1980
1980
1981
1982
1983
1985
1986
1987
1987
1987
1987
1987
1988
1989
1990
1992
1992
1993
1993
1994
1994
1995
1995
1996
1997
1999
2000
2001
2001
2000
1999
1999
1999
2000
2000
2000
1999
1998
1996
1994
1992
1990
1988
1986
1984
1982
1981
1979
1978
1976
1975
1974
1974
1974
1975
1976
1976
1976
1975
1975
1975
1975
1976
1976
1976
1977
1978
1979
1979
1978
1978
1977
1977
1977
1977
1977
1978
1978
1978
1977
1976
1976
1975
1975
1976
1977
1978
1977
1977
1976
1976
1976
1976
1976
1976
1976
1976
1977
1977
1976
1976
1975
1975
1976
1976
1977
1977
1977
1976
1976
1977
1977
1979
1980
1981
1983
1983
1983
1982
1980
1978
1977
1975
1975
1975
1976
1977
1978
1978
1978
1977
1977
1976
1975
1974
1975
1975
1978
1984
1997
2016
2041
2062
2071
2060
2032
1995
1965
1950
1952
1963
1974
1980
1981
1979
1977
1977
1977
1977
1978
1978
1979
1979
1979
1980
1980
1981
1981
1981
1981
1981
1982
1982
1983
1983
1984
1985
1986
1986
1987
1988
1989
1990
1991
1991
1991
1991
1992
1992
1993
1994
1995
1996
1996
1997
1998
1999
2000
2000
2000
2000
1999
1999
1999
1999
2000
2000
2000
1998
1996
1994
1991
1989
1988
1986
1985
1984
1982
1980
1977
1975
1974
1974
1975
1976
1977
1977
1978
1977
1977
1976
1976
1977
1978
1979
1979
1979
1979
1978
1977
1976
1976
1976
1976
1976
1977
1978
1978
1978
1977
1976
1976
1976
1976
1976
1977
1977
1977
1976
1975
1974
1974
1974
1975
1975
1975
1975
1975
1975
1974
1974
1973
1974
1974
1975
1976
1976
1976
1975
1974
1974
1974
1975
1976
1977
1979
1980
1981
1981
1980
1979
1978
1977
1977
1977
1978
1977
1977
1976
1975
1975
1974
1975
1975
1976
1977
1977
1976
1974
1974
1975
1981
1993
2012
2038
2059
2070
2060
2032
1995
1963
1948
1949
1960
1973
1980
1981
1979
1977
1975
1975
1975
1976
1977
1978
1979
1980
1980
1979
1979
1979
1979
1980
1981
1982
1983
1983
1984
1984
1984
1984
1985
1985
1986
1988
1989
1990
1990
1991
1991
1991
1992
1993
1994
1996
1998
1999
2000
1999
1998
1998
1997
1998
1998
1999
2000
2001
2001
2001
2000
1999
1998
1997
1996
1994
1992
1990
1987
1985
1983
1981
1978
1977
1976
1976
1976
1976
1976
1976
1975
1975
1975
1976
1976
1977
1977
1978
1979
1979
1979
1978
1977
1976
1976
1977
1978
1979
1978
1977
1976
1976
1975
1976
1976
1976
1976
1976
1976
1976
1976
1975
1975
1975
1974
1974
1974
1974
1974
1974
1975
1975
1975
1975
1975
1975
1974
1973
1973
1973
1973
1973
1973
1974
1976
1978
1980
1982
1983
1981
1979
1976
1974
1973
1973
1973
1974
1974
1974
1975
1975
1975
1975
1975
1975
1975
1974
1973
1974
1975
1980
1990
2008
2033
2057
2072
2069
2045
2007
1970
1947
1941
1951
1964
1975
1979
1979
1978
1977
1977
1977
1977
1978
1978
1979
1979
1980
1980
1980
1980
1980
1981
1981
1982
1983
1984
1984
1985
1986
1987
1987
1987
1986
1986
1987
1988
1990
1991
1991
1992
1993
1993
1994
1995
1996
1997
1998
1998
1999
1999
1999
1998
1999
1999
2000
2001
2001
2001
2001
2000
1998
1997
1995
1992
1990
1988
1987
1985
1983
1981
1978
1976
1975
1975
1975
1976
1976
1975
1975
1975
1974
1974
1975
1975
1976
1977
1978
1978
1978
1977
1977
1976
1976
1976
1976
1977
1978
1978
1978
1977
1976
1975
1975
1975
1975
1975
1975
1976
1976
1975
1975
1975
1975
1975
1975
1975
1975
1975
1975
1975
1975
1974
1974
1974
1974
1974
1974
1974
1973
1972
1972
1973
1974
1976
1978
1979
1980
1980
1979
1977
1976
1975
1974
1974
1974
1974
1973
1973
1973
1972
1972
1973
1973
1973
1972
1972
1972
1973
1977
1984
1997
2017
2042
2061
2067
2053
2023
1986
1958
1946
1950
1963
1974
1979
1979
1977
1976
1976
1976
1976
1976
1976
1976
1976
1977
1977
1978
1979
1979
1979
1980
1980
1980
1981
1981
1982
1983
1984
1984
1984
1984
1984
1984
1985
1987
1988
1990
1991
1992
1993
1993
1993
1992
1993
1994
1995
1997
1998
1998
1998
1998
1997
1997
1996
1995
1996
1996
1997
1997
1996
1994
1992
1989
1987
1986
1984
1983
1981
1980
1978
1976
1974
1973
1972
1973
1974
1975
1976
1977
1976
1976
1975
1975
1974
1975
1975
1976
1976
1977
1977
1976
1976
1975
1975
1975
1975
1975
1975
1975
1975
1975
1974
1974
1973
1973
1973
1974
1974
1975
1975
1974
1974
1974
1974
1974
1974
1974
1974
1973
1973
1973
1973
1973
1973
1974
1974
1974
1974
1974
1974
1974
1974
1974
1974
1974
1975
1975
1974
1974
1975
1975
1977
1979
1980
1981
1982
1981
1980
1979
1977
1976
1974
1973
1973
1973
1974
1974
1975
1976
1976
1976
1975
1974
1973
1972
1972
1975
1982
1994
2014
2038
2059
2069
2059
2033
1997
1967
1953
1953
1963
1973
1978
1979
1977
1975
1975
1976
1976
1977
1977
1976
1976
1976
1977
1978
1979
1980
1981
1981
1981
1982
1982
1982
1982
1982
1983
1983
1984
1985
1985
1986
1987
1987
1987
1988
1989
1990
1991
1992
1993
1993
1994
1994
1995
1995
1996
1996
1996
1996
1996
1996
1996
1996
1996
1997
1997
1997
1996
1995
1994
1992
1990
1988
1985
1983
1982
1980
1979
1978
1977
1976
1975
1975
1974
1974
1975
1976
1976
1977
1976
1976
1975
1975
1975
1975
1976
1977
1978
1978
1977
1976
1975
1975
1975
1975
1976
1976
1977
1977
1976
1976
1976
1976
1976
1976
1977
1977
1977
1977
1976
1975
1974
1974
1974
1975
1976
1976
1977
1977
1976
1975
1975
1975
1975
1975
1975
1976
1976
1976
1976
1976
1975
1975
1975
1976
1978
1980
1981
1982
1982
1981
1980
1979
1978
1977
1977
1976
1976
1976
1976
1976
1976
1976
1976
1976
1976
1976
1976
1974
1973
1973
1976
1985
2001
2024
2049
2068
2071
2053
2020
1982
1954
1944
1949
1962
1974
1981
1982
1980
1978
1977
1976
1977
1978
1979
1980
1980
1980
1980
1980
1980
1981
1981
1982
1983
1983
1984
1985
1985
1985
1985
1985
1986
1986
1987
1989
1990
1991
1992
1993
1993
1993
1994
1994
1995
1996
1997
1998
1998
1999
1999
1999
1999
2000
2000
2000
2001
2001
2002
2002
2001
2000
1999
1997
1995
1993
1991
1989
1987
1985
1983
1981
1979
1978
1977
1977
1977
1977
1977
1976
1976
1975
1975
1975
1976
1977
1978
1978
1979
1979
1978
1977
1977
1976
1977
1977
1978
1979
1979
1978
1977
1976
1976
1976
1976
1977
1977
1977
1977
1977
1977
1977
1976
1976
1976
1976
1976
1976
1976
1975
1974
1974
1974
1975
1976
1977
1977
1977
1977
1976
1975
1974
1973
1973
1974
1975
1977
1978
1980
1981
1981
1980
1980
1979
1978
1978
1977
1977
1976
1975
1975
1975
1974
1974
1974
1975
1976
1977
1977
1976
1974
1973
1974
1981
1993
2013
2038
2059
2068
2057
2029
1992
1960
1945
1948
1961
1974
1981
1982
1979
1977
1976
1976
1977
1978
1978
1979
1979
1980
1980
1979
1979
1980
1980
1981
1983
1984
1985
1985
1985
1984
1984
1985
1985
1986
1986
1987
1989
1990
1991
1991
1991
1991
1992
1993
1995
1996
1998
1998
1999
1999
1998
1998
1998
1998
1998
1999
1999
1999
2000
2000
2000
1999
1997
1995
1993
1991
1990
1988
1987
1985
1983
1981
1979
1977
1976
1976
1976
1976
1977
1977
1976
1976
1975
1976
1976
1977
1978
1978
1978
1978
1977
1976
1976
1976
1978
1979
1979
1979
1978
1976
1975
1975
1975
1975
1976
1977
1977
1978
1978
1977
1977
1976
1975
1975
1975
1976
1976
1976
1976
1975
1975
1974
1975
1976
1976
1977
1977
1976
1976
1976
1977
1977
1977
1977
1977
1977
1977
1977
1977
1976
1975
1976
1977
1980
1982
1984
1985
1985
1984
1981
1979
1977
1976
1976
1977
1977
1977
1976
1976
1975
1975
1976
1976
1977
1977
1976
1976
1976
1979
1987
2002
2024
2048
2067
2069
2051
2020
1985
1960
1952
1959
1970
1979
1982
1981
1979
1977
1977
1977
1977
1977
1978
1978
1978
1979
1980
1981
1982
1983
1983
1983
1983
1983
1984
1984
1984
1985
1985
1986
1986
1987
1987
1988
1988
1989
1990
1992
1993
1994
1994
1994
1994
1994
1995
1996
1997
1998
1999
1999
1999
1998
1997
1996
1997
1997
1998
1999
1999
1998
1997
1995
1994
1992
1990
1988
1986
1985
1983
1982
1980
1978
1977
1976
1976
1977
1978
1979
1978
1977
1977
1976
1977
1977
1978
1979
1979
1979
1979
1979
1979
1979
1979
1979
1979
1979
1979
1979
1978
1978
1978
1977
1976
1976
1976
1976
1976
1977
1978
1978
1977
1977
1976
1975
1975
1975
1976
1977
1977
1977
1976
1975
1974
1974
1975
1976
1976
1977
1977
1977
1976
1976
1975
1975
1975
1975
1976
1976
1976
1976
1976
1976
1977
1978
1979
1980
1981
1982
1983
1982
1982
1981
1979
1978
1978
1978
1978
1978
1977
1977
1976
1975
1975
1975
1976
1977
1978
1977
1976
1975
1976
1982
1995
2016
2042
2062
2070
2057
2028
1991
1962
1950
1953
1965
1976
1983
1983
1981
1980
1978
1978
1978
1978
1979
1979
1980
1981
1982
1982
1982
1982
1982
1983
1983
1984
1985
1986
1987
1986
1986
1986
1986
1986
1987
1988
1990
1991
1992
1992
1993
1994
1994
1995
1995
1996
1997
1998
1999
1999
1999
1999
1998
1998
1998
1999
2000
2000
2001
2001
2001
2000
1998
1997
1995
1994
1993
1991
1989
1986
1984
1982
1980
1979
1978
1978
1977
1977
1977
1978
1978
1978
1977
1977
1977
1978
1979
1979
1980
1980
1979
1978
1977
1976
1976
1977
1978
1978
1979
1979
1979
1979
1978
1977
1977
1977
1977
1978
1978
1978
1977
1976
1976
1975
1975
1975
1976
1976
1977
1977
1977
1977
1977
1977
1977
1977
1977
1977
1978
1978
1978
1977
1976
1975
1975
1975
1976
1978
1978
1978
1978
1977
1977
1977
1979
1981
1982
1983
1983
1983
1981
1980
1979
1978
1977
1977
1977
1977
1977
1977
1976
1976
1975
1975
1975
1975
1975
1975
1975
1977
1983
1995
2014
2038
2059
2067
2055
2028
1992
1963
1949
1952
1962
1973
1979
1980
1979
1978
1978
1978
1979
1979
1979
1979
1979
1980
1981
1982
1983
1983
1983
1982
1981
1981
1982
1983
1984
1985
1986
1987
1988
1988
1989
1989
1989
1989
1990
1990
1991
1992
1993
1994
1994
1994
1994
1995
1996
1998
1998
1999
1999
1998
1998
1997
1997
1997
1998
1998
1998
1997
1996
1994
1992
1990
1989
1988
1987
1985
1983
1981
1979
1977
1975
1974
1973
1973
1974
1975
1975
1975
1975
1974
1974
1975
1975
1976
1976
1976
1976
1976
1976
1976
1975
1975
1974
1974
1974
1974
1975
1975
1975
1974
1974
1973
1973
1974
1974
1974
1974
1974
1973
1973
1972
1972
1972
1972
1972
1973
1974
1974
1974
1973
1972
1971
1971
1972
1973
1974
1975
1975
1974
1974
1973
1973
1972
1972
1973
1974
1975
1975
1975
1973
1972
1971
1971
1972
1974
1976
1978
1979
1979
1979
1978
1978
1977
1976
1976
1975
1975
1974
1973
1972
1971
1971
1971
1972
1973
1974
1974
1974
1972
1971
1970
1972
1978
1992
2013
2039
2059
2067
2053
2024
1987
1958
1946
1950
1962
1973
1979
1978
1976
1974
1972
1972
1972
1973
1973
1974
1975
1976
1976
1976
1976
1976
1976
1977
1979
1979
1980
1980
1979
1979
1980
1980
1980
1981
1982
1984
1985
1986
1987
1987
1987
1987
1987
1988
1990
1991
1992
1992
1992
1992
1992
1992
1992
1992
1993
1994
1995
1995
1995
1995
1994
1993
1992
1991
1990
1989
1987
1986
1984
1981
1979
1977
1975
1974
1973
1973
1972
1972
1972
1972
1972
1971
1971
1971
1972
1972
1973
1973
1973
1973
1972
1972
1973
1973
1974
1975
1974
1974
1973
1972
1972
1972
1973
1974
1974
1974
1974
1973
1972
1971
1970
1970
1971
1971
1972
1973
1973
1973
1973
1973
1972
1972
1971
1971
1971
1971
1971
1971
1972
1972
1972
1971
1971
1971
1971
1972
1973
1973
1973
1972
1971
1970
1971
1972
1974
1976
1979
1980
1980
1979
1977
1975
1974
1973
1973
1973
1973
1973
1972
1972
1972
1972
1972
1972
1973
1973
1972
1971
1971
1971
1974
1983
1998
2022
2048
2067
2070
2051
2017
1978
1949
1939
1945
1959
1972
1978
1979
1977
1975
1974
1974
1974
1975
1975
1976
1977
1978
1979
1979
1979
1979
1979
1980
1980
1981
1982
1983
1984
1984
1984
1984
1984
1984
1985
1987
1989
1990
1991
1991
1991
1991
1991
1992
1993
1994
1996
1997
1998
1998
1997
1997
1997
1997
1997
1999
2000
2001
2001
2000
1999
1998
1997
1996
1995
1993
1991
1989
1986
1984
1982
1979
1977
1976
1974
1974
1975
1975
1976
1976
1975
1974
1973
1973
1974
1976
1976
1977
1977
1977
1977
1976
1975
1975
1975
1976
1977
1978
1978
1978
1976
1975
1974
1974
1975
1976
1977
1977
1976
1976
1975
1975
1976
1976
1976
1976
1976
1976
1976
1975
1975
1975
1975
1975
1975
1975
1975
1975
1975
1975
1975
1976
1978
1980
1981
1983
1983
1982
1980
1978
1977
1976
1975
1975
1975
1975
1975
1975
1975
1975
1975
1975
1974
1974
1973
1973
1974
1977
1984
1997
2017
2040
2060
2067
2054
2025
1987
1957
1943
1946
1958
1971
1978
1980
1979
1978
1977
1977
1978
1978
1978
1977
1977
1977
1977
1977
1978
1979
1980
1981
1981
1981
1981
1981
1981
1982
1983
1984
1985
1986
1986
1987
1987
1987
1988
1989
1990
1991
1992
1992
1992
1993
1994
1995
1996
1996
1997
1997
1997
1997
1997
1997
1998
1998
1998
1998
1997
1996
1995
1993
1991
1988
1986
1983
1982
1981
1980
1979
1978
1976
1974
1973
1972
1972
1972
1973
1974
1974
1975
1975
1975
1974
1974
1975
1975
1976
1976
1977
1977
1977
1977
1976
1975
1975
1975
1975
1975
1976
1976
1976
1976
1975
1975
1975
1975
1975
1976
1976
1976
1975
1975
1974
1973
1973
1973
1974
1974
1975
1975
1976
1975
1975
1974
1974
1974
1975
1975
1975
1975
1975
1974
1974
1974
1975
1977
1979
1980
1981
1980
1979
1978
1976
1975
1975
1975
1975
1976
1976
1975
1975
1974
1973
1973
1974
1974
1974
1973
1973
1975
1980
1990
2008
2032
2054
2068
2063
2040
2005
1972
1952
1950
1959
1971
1978
1980
1979
1977
1977
1977
1977
1977
1977
1978
1978
1978
1979
1979
1979
1979
1980
1980
1981
1981
1981
1982
1982
1982
1983
1984
1985
1985
1986
1986
1986
1987
1988
1989
1990
1992
1993
1993
1994
1994
1994
1995
1996
1996
1997
1997
1997
1997
1997
1997
1997
1997
1997
1997
1997
1997
1997
1996
1994
1991
1989
1986
1985
1984
1983
1981
1979
1977
1975
1973
1972
1973
1974
1975
1975
1976
1975
1975
1975
1975
1975
1975
1975
1976
1976
1977
1977
1977
1977
1976
1976
1976
1976
1976
1976
1976
1975
1975
1974
1974
1974
1975
1975
1975
1975
1975
1974
1974
1974
1974
1973
1973
1973
1974
1975
1975
1975
1975
1974
1972
1972
1972
1972
1973
1974
1974
1974
1974
1973
1973
1973
1974
1974
1974
1974
1973
1974
1974
1975
1976
1978
1979
1980
1981
1980
1979
1976
1975
1973
1973
1973
1973
1974
1974
1975
1975
1975
1975
1974
1973
1972
1971
1972
1974
1980
1992
2011
2035
2056
2066
2057
2031
1996
1965
1950
1950
1961
1972
1978
1979
1977
1975
1974
1975
1976
1977
1977
1976
1975
1975
1976
1977
1978
1980
1981
1981
1981
1980
1980
1980
1981
1982
1984
1985
1986
1987
1987
1987
1987
1987
1988
1989
1990
1991
1992
1993
1993
1993
1993
1994
1995
1996
1997
1998
1999
1999
1999
1998
1998
1998
1998
1999
2000
2000
1999
1998
1996
1993
1990
1988
1985
1983
1982
1980
1979
1978
1977
1976
1975
1973
1973
1973
1974
1975
1975
1975
1975
1974
1974
1974
1975
1976
1977
1978
1978
1977
1976
1976
1975
1975
1976
1976
1976
1976
1976
1976
1976
1975
1975
1974
1973
1973
1974
1974
1975
1975
1975
1974
1974
1974
1974
1974
1974
1975
1974
1974
1974
1974
1974
1974
1974
1974
1974
1974
1974
1975
1975
1976
1977
1979
1980
1981
1981
1980
1979
1977
1976
1975
1975
1975
1975
1976
1976
1976
1976
1976
1976
1976
1975
1974
1973
1972
1973
1977
1987
2004
2027
2053
2072
2074
2055
2021
1982
1953
1941
1946
1959
1972
1978
1979
1978
1977
1977
1977
1978
1979
1979
1978
1978
1979
1980
1981
1982
1982
1982
1982
1982
1983
1983
1984
1985
1986
1986
1986
1987
1988
1989
1989
1990
1990
1990
1991
1993
1994
1995
1995
1996
1996
1997
1998
1999
1999
2000
2000
2000
2000
2000
2000
2000
2000
2001
2001
2002
2002
2001
1998
1995
1991
1989
1986
1984
1983
1981
1980
1979
1978
1976
1975
1974
1973
1973
1973
1974
1975
1976
1977
1976
1976
1974
1974
1975
1976
1977
1978
1978
1978
1978
1978
1977
1976
1976
1976
1977
1978
1978
1978
1976
1975
1974
1974
1974
1974
1975
1975
1976
1976
1976
1975
1974
1973
1973
1974
1975
1976
1976
1975
1974
1973
1972
1972
1973
1975
1976
1978
1979
1980
1980
1980
1979
1977
1976
1975
1974
1974
1974
1974
1974
1974
1973
1973
1973
1974
1974
1975
1974
1973
1973
1973
1975
1983
1997
2019
2044
2063
2068
2052
2020
1982
1954
1943
1948
1962
1974
1980
1981
1979
1977
1976
1976
1975
1975
1975
1976
1977
1978
1979
1979
1979
1978
1978
1978
1979
1981
1982
1982
1983
1983
1984
1984
1985
1985
1985
1985
1986
1987
1988
1989
1989
1990
1990
1991
1992
1993
1994
1996
1997
1997
1996
1995
1995
1995
1996
1997
1998
1998
1999
1998
1997
1995
1993
1992
1991
1989
1987
1984
1981
1979
1977
1976
1975
1974
1974
1974
1974
1974
1974
1974
1973
1973
1973
1973
1973
1974
1975
1976
1976
1976
1975
1975
1975
1976
1976
1976
1976
1976
1975
1975
1974
1973
1974
1974
1975
1975
1975
1975
1974
1973
1973
1972
1972
1972
1972
1973
1974
1974
1975
1974
1973
1972
1971
1971
1972
1973
1973
1973
1973
1972
1972
1972
1972
1972
1973
1973
1974
1974
1974
1974
1973
1972
1972
1973
1975
1977
1979
1980
1980
1979
1978
1976
1975
1974
1973
1973
1973
1973
1973
1972
1972
1971
1971
1971
1972
1973
1973
1973
1972
1972
1975
1982
1996
2017
2043
2062
2067
2052
2021
1985
1957
1946
1951
1963
1973
1978
1977
1975
1973
1972
1971
1971
1972
1972
1973
1974
1975
1976
1977
1977
1976
1976
1975
1976
1977
1978
1979
1980
1980
1980
1980
1980
1980
1981
1982
1984
1985
1986
1986
1985
1985
1986
1986
1987
1989
1990
1991
1992
1993
1993
1993
1992
1991
1991
1991
1992
1992
1992
1992
1992
1991
1990
1989
1987
1986
1984
1983
1982
1980
1978
1975
1973
1971
1970
1969
1969
1969
1969
1969
1969
1969
1969
1969
1969
1970
1970
1971
1972
1972
1972
1972
1971
1971
1971
1971
1971
1971
1972
1971
1971
1971
1971
1971
1971
1971
1971
1971
1971
1971
1971
1971
1971
1970
1970
1970
1971
1971
1971
1971
1971
1971
1970
1970
1970
1971
1971
1971
1971
1971
1971
1971
1971
1971
1971
1971
1971
1972
1972
1972
1972
1971
1971
1971
1971
1972
1973
1973
1973
1973
1973
1972
1972
1973
1974
1976
1977
1978
1978
1977
1976
1974
1973
1972
1971
1971
1972
1972
1972
1972
1971
1971
1971
1971
1971
1971
1971
1970
1971
1975
1984
2000
2023
2047
2063
2062
2043
2009
1974
1951
1945
1953
1964
1972
1975
1974
1972
1971
1971
1972
1972
1972
1972
1972
1973
1974
1974
1974
1975
1974
1974
1974
1975
1976
1977
1978
1979
1979
1979
1979
1979
1978
1979
1980
1981
1983
1984
1985
1986
1986
1986
1986
1986
1987
1987
1988
1989
1990
1990
1991
1991
1991
1990
1990
1990
1990
1991
1992
1992
1992
1991
1989
1988
1986
1984
1982
1980
1978
1976
1974
1972
1970
1968
1967
1967
1967
1968
1968
1968
1968
1967
1967
1967
1967
1967
1968
1969
1969
1970
1969
1969
1968
1967
1967
1967
1967
1968
1969
1969
1970
1969
1969
1968
1967
1967
1967
1967
1967
1968
1967
1967
1967
1966
1967
1967
1968
1968
1969
1968
1968
1967
1966
1966
1967
1968
1968
1969
1969
1969
1969
1969
1969
1969
1968
1968
1967
1967
1967
1968
1968
1969
1970
1971
1973
1974
1975
1976
1976
1975
1975
1973
1972
1970
1969
1968
1968
1968
1969
1970
1971
1971
1971
1970
1970
1969
1968
1967
1967
1970
1975
1987
2005
2029
2053
2068
2063
2039
2001
1965
1942
1937
1947
1961
1972
1977
1976
1975
1973
1973
1973
1973
1973
1973
1974
1974
1975
1976
1976
1977
1977
1978
1978
1978
1978
1979
1980
1981
1982
1983
1983
1984
1983
1983
1984
1984
1985
1987
1988
1989
1990
1990
1991
1991
1992
1993
1993
1994
1995
1995
1996
1995
1995
1995
1994
1995
1995
1996
1996
1996
1996
1996
1994
1992
1989
1986
1983
1981
1980
1978
1977
1975
1973
1971
1970
1969
1969
1969
1970
1970
1970
1970
1970
1969
1969
1969
1970
1971
1972
1973
1973
1972
1972
1971
1970
1970
1970
1971
1972
1972
1972
1971
1971
1970
1971
1971
1971
1971
1971
1970
1971
1971
1970
1970
1969
1968
1968
1968
1969
1969
1969
1970
1970
1969
1969
1969
1969
1970
1970
1971
1970
1970
1969
1969
1969
1971
1973
1974
1976
1976
1976
1975
1973
1972
1970
1969
1969
1969
1970
1970
1971
1971
1970
1970
1970
1969
1969
1968
1968
1968
1970
1975
1986
2003
2026
2049
2063
2059
2036
1999
1964
1943
1940
1949
1962
1972
1976
1975
1973
1971
1971
1971
1971
1972
1972
1973
1974
1974
1975
1975
1975
1975
1975
1975
1975
1976
1977
1979
1980
1981
1982
1982
1982
1981
1981
1981
1982
1984
1986
1987
1988
1989
1990
1990
1990
1990
1991
1992
1993
1994
1995
1995
1995
1995
1994
1994
1994
1995
1995
1995
1995
1994
1993
1991
1988
1986
1983
1981
1980
1978
1977
1975
1973
1972
1970
1970
1970
1971
1971
1971
1971
1970
1970
1971
1971
1972
1973
1973
1974
1974
1974
1973
1972
1972
1972
1972
1973
1974
1974
1974
1974
1973
1972
1972
1972
1972
1972
1972
1973
1973
1973
1973
1972
1972
1971
1971
1972
1973
1974
1974
1974
1974
1973
1972
1971
1971
1971
1971
1972
1973
1973
1973
1973
1972
1972
1972
1972
1972
1973
1974
1974
1974
1973
1972
1971
1970
1971
1972
1974
1976
1978
1979
1979
1978
1977
1977
1977
1977
1976
1976
1974
1973
1972
1972
1972
1972
1972
1973
1975
1975
1975
1974
1972
1971
1971
1975
1984
2000
2022
2047
2066
2069
2053
2022
1986
1959
1949
1954
1965
1975
1979
1978
1976
1974
1974
1974
1974
1975
1975
1976
1977
1977
1977
1976
1976
1976
1976
1977
1979
1979
1980
1979
1979
1979
1980
1981
1982
1983
1984
1985
1985
1985
1986
1986
1987
1988
1989
1990
1991
1992
1992
1993
1993
1993
1993
1993
1993
1994
1994
1995
1996
1996
1996
1995
1994
1994
1993
1993
1993
1992
1990
1987
1984
1981
1980
1979
1978
1977
1975
1974
1973
1973
1972
1972
1972
1972
1972
1973
1974
1974
1974
1974
1973
1973
1974
1974
1974
1975
1974
1974
1975
1975
1975
1975
1974
1974
1973
1974
1974
1974
1974
1974
1973
1973
1973
1973
1973
1974
1974
1974
1974
1973
1972
1971
1971
1971
1971
1972
1973
1973
1973
1973
1973
1973
1973
1974
1974
1974
1975
1975
1975
1974
1973
1973
1972
1972
1973
1973
1974
1974
1974
1973
1973
1974
1975
1977
1979
1981
1981
1981
1980
1978
1976
1974
1973
1972
1972
1973
1974
1975
1975
1975
1974
1973
1973
1972
1972
1972
1972
1974
1979
1990
2007
2031
2054
2068
2062
2038
2002
1967
1947
1945
1955
1968
1976
1979
1977
1976
1975
1975
1975
1975
1975
1975
1975
1976
1977
1978
1979
1980
1981
1980
1980
1980
1979
1979
1980
1981
1983
1984
1984
1984
1984
1984
1985
1986
1987
1989
1990
1991
1991
1991
1991
1992
1992
1993
1994
1995
1996
1996
1996
1996
1996
1996
1997
1997
1998
1998
1998
1998
1998
1997
1995
1993
1990
1988
1986
1985
1983
1981
1979
1977
1975
1973
1972
1972
1972
1973
1973
1973
1973
1973
1973
1972
1972
1973
1973
1974
1975
1976
1976
1976
1975
1974
1974
1973
1973
1974
1975
1976
1976
1976
1976
1975
1974
1974
1973
1973
1973
1974
1975
1975
1975
1974
1973
1972
1972
1972
1973
1973
1974
1974
1974
1973
1973
1974
1974
1975
1976
1976
1975
1974
1973
1972
1973
1974
1977
1980
1982
1983
1983
1982
1980
1978
1976
1975
1974
1974
1975
1975
1975
1975
1975
1975
1975
1975
1975
1975
1974
1973
1974
1976
1982
1995
2015
2041
2063
2073
2063
2034
1995
1962
1944
1944
1955
1968
1977
1980
1979
1978
1977
1977
1977
1978
1978
1978
1979
1979
1980
1981
1982
1983
1984
1983
1983
1982
1982
1983
1985
1986
1987
1987
1986
1986
1987
1988
1989
1990
1991
1993
1994
1995
1996
1996
1996
1996
1997
1997
1999
2000
2000
2000
2000
1999
1999
2000
2000
2001
2001
2002
2002
2001
2000
1998
1996
1994
1991
1989
1987
1985
1984
1982
1980
1978
1976
1975
1975
1975
1976
1977
1977
1977
1976
1976
1975
1975
1975
1976
1978
1979
1979
1979
1979
1978
1977
1977
1977
1977
1978
1978
1978
1978
1978
1977
1977
1977
1976
1976
1976
1977
1977
1978
1977
1977
1976
1975
1975
1975
1976
1977
1978
1978
1978
1977
1975
1975
1974
1975
1976
1977
1977
1977
1976
1976
1975
1975
1974
1975
1976
1977
1978
1978
1978
1977
1977
1977
1978
1980
1981
1982
1981
1980
1978
1977
1976
1975
1976
1976
1976
1977
1977
1977
1977
1976
1975
1974
1974
1974
1975
1977
1983
1994
2013
2037
2058
2069
2062
2036
2000
1968
1950
1950
1960
1972
1979
1981
1979
1977
1976
1976
1976
1976
1976
1976
1977
1978
1979
1980
1980
1980
1980
1980
1980
1980
1981
1981
1982
1983
1984
1984
1984
1985
1985
1986
1987
1988
1989
1990
1990
1991
1992
1992
1992
1993
1993
1993
1994
1995
1996
1997
1997
1997
1997
1997
1998
1998
1998
1998
1999
1999
1998
1997
1995
1992
1990
1988
1986
1984
1983
1982
1981
1978
1976
1974
1973
1973
1973
1974
1975
1975
1975
1975
1975
1975
1974
1974
1975
1975
1976
1977
1977
1977
1976
1976
1975
1975
1975
1976
1976
1976
1976
1975
1975
1974
1973
1974
1974
1974
1974
1974
1973
1973
1973
1972
1972
1972
1972
1972
1972
1973
1973
1973
1972
1971
1971
1971
1971
1972
1973
1973
1973
1972
1971
1970
1970
1971
1972
1973
1973
1973
1972
1972
1971
1972
1972
1972
1973
1974
1976
1978
1979
1979
1978
1977
1976
1974
1973
1973
1972
1972
1972
1972
1972
1971
1970
1970
1970
1971
1972
1972
1971
1971
1972
1977
1988
2007
2032
2054
2066
2058
2032
1996
1964
1946
1946
1956
1968
1975
1977
1975
1974
1973
1973
1972
1972
1972
1972
1973
1975
1976
1976
1976
1976
1975
1975
1975
1976
1977
1978
1978
1979
1980
1980
1981
1980
1980
1980
1981
1982
1984
1985
1986
1987
1987
1987
1987
1988
1988
1990
1991
1992
1992
1992
1990
1990
1990
1990
1992
1993
1993
1993
1992
1991
1991
1990
1990
1988
1987
1984
1982
1980
1978
1977
1975
1973
1971
1970
1969
1969
1969
1969
1969
1968
1968
1968
1968
1969
1969
1970
1970
1969
1969
1969
1969
1969
1970
1970
1970
1970
1970
1970
1969
1969
1969
1968
1968
1968
1968
1968
1969
1969
1968
1968
1967
1967
1967
1968
1968
1968
1968
1967
1967
1967
1966
1966
1966
1967
1968
1969
1969
1969
1967
1966
1966
1966
1967
1968
1969
1969
1969
1968
1968
1967
1967
1967
1966
1966
1966
1967
1968
1970
1971
1973
1974
1974
1975
1975
1974
1974
1973
1971
1970
1968
1968
1968
1968
1969
1970
1970
1970
1970
1970
1970
1969
1967
1965
1965
1968
1976
1991
2013
2038
2057
2063
2049
2018
1981
1951
1938
1942
1955
1967
1974
1975
1973
1971
1970
1970
1970
1971
1972
1972
1972
1972
1971
1972
1973
1974
1975
1975
1975
1975
1975
1975
1976
1977
1978
1980
1981
1982
1982
1982
1982
1982
1982
1983
1985
1987
1989
1990
1991
1991
1990
1989
1989
1990
1991
1993
1994
1996
1996
1996
1995
1995
1994
1994
1994
1994
1995
1995
1994
1993
1990
1987
1983
1981
1979
1978
1977
1975
1973
1972
1970
1970
1970
1970
1971
1971
1971
1971
1971
1971
1971
1971
1970
1970
1970
1972
1973
1974
1975
1974
1973
1972
1972
1972
1972
1973
1973
1973
1973
1973
1973
1973
1973
1972
1972
1971
1971
1971
1971
1971
1972
1971
1971
1970
1970
1971
1972
1973
1973
1973
1971
1970
1969
1969
1969
1970
1971
1971
1971
1972
1972
1974
1975
1977
1978
1979
1979
1978
1976
1974
1972
1971
1970
1970
1971
1972
1974
1974
1973
1972
1971
1970
1970
1970
1970
1970
1972
1976
1984
1999
2022
2047
2065
2068
2049
2016
1977
1949
1938
1943
1956
1968
1975
1977
1976
1975
1975
1974
1974
1974
1974
1975
1975
1976
1976
1977
1977
1978
1979
1979
1979
1979
1980
1980
1981
1982
1983
1983
1984
1984
1985
1985
1986
1986
1987
1988
1989
1990
1990
1991
1992
1993
1993
1994
1994
1995
1996
1997
1997
1998
1997
1997
1996
1995
1996
1996
1997
1998
1997
1995
1992
1989
1986
1984
1981
1980
1978
1977
1975
1974
1972
1971
1970
1969
1969
1970
1970
1971
1971
1971
1971
1970
1970
1970
1971
1971
1972
1973
1973
1972
1972
1972
1972
1971
1971
1971
1971
1971
1971
1971
1971
1970
1970
1969
1969
1970
1970
1971
1971
1971
1970
1970
1970
1969
1969
1969
1969
1969
1969
1969
1969
1969
1969
1969
1969
1969
1969
1970
1970
1970
1970
1969
1968
1968
1968
1970
1972
1974
1975
1976
1975
1975
1974
1973
1972
1970
1969
1968
1968
1968
1969
1969
1969
1969
1969
1970
1970
1970
1970
1969
1968
1970
1976
1989
2009
2035
2057
2066
2055
2026
1989
1958
1943
1945
1957
1968
1975
1976
1974
1973
1972
1971
1972
1972
1973
1973
1974
1974
1975
1975
1976
1976
1975
1975
1975
1976
1977
1978
1979
1979
1980
1980
1980
1981
1982
1982
1983
1984
1985
1986
1987
1987
1987
1988
1990
1991
1992
1993
1993
1993
1993
1993
1994
1995
1995
1995
1995
1995
1995
1995
1995
1994
1993
1992
1991
1991
1989
1987
1985
1983
1980
1977
1975
1973
1972
1972
1972
1973
1973
1973
1972
1971
1971
1971
1972
1973
1974
1975
1975
1975
1974
1973
1973
1973
1973
1974
1974
1974
1973
1972
1972
1972
1971
1972
1972
1972
1973
1973
1973
1972
1972
1971
1971
1971
1971
1972
1972
1973
1973
1973
1972
1971
1970
1969
1970
1971
1971
1971
1972
1971
1971
1971
1971
1971
1971
1971
1971
1971
1971
1971
1972
1972
1974
1976
1978
1979
1979
1978
1977
1975
1973
1972
1971
1971
1972
1972
1972
1972
1972
1973
1973
1974
1974
1973
1972
1970
1970
1972
1978
1990
2009
2035
2057
2069
2061
2034
1996
1963
1945
1945
1956
1968
1975
1977
1976
1974
1974
1975
1975
1975
1974
1974
1974
1975
1976
1977
1979
1979
1979
1979
1979
1979
1980
1981
1981
1982
1982
1982
1983
1984
1985
1985
1985
1985
1986
1987
1989
1991
1992
1993
1993
1993
1992
1992
1992
1993
1994
1995
1996
1996
1996
1996
1995
1996
1997
1998
1998
1998
1996
1994
1992
1990
1988
1986
1984
1982
1980
1978
1976
1974
1973
1971
1970
1970
1970
1970
1971
1972
1972
1972
1972
1972
1972
1971
1971
1972
1972
1972
1973
1973
1973
1972
1972
1972
1972
1973
1974
1974
1973
1973
1972
1972
1972
1972
1972
1972
1972
1972
1972
1971
1970
1970
1969
1970
1971
1972
1972
1971
1970
1969
1969
1969
1969
1970
1971
1973
1974
1975
1976
1975
1974
1973
1971
1970
1969
1969
1969
1970
1970
1970
1971
1971
1970
1969
1969
1968
1967
1967
1967
1969
1975
1985
2003
2027
2052
2067
2064
2041
2004
1967
1943
1938
1947
1960
1970
1975
1974
1973
1972
1972
1972
1972
1972
1972
1973
1974
1976
1977
1978
1978
1977
1975
1975
1975
1976
1978
1979
1980
1981
1981
1980
1980
1981
1982
1984
1985
1986
1986
1986
1986
1986
1987
1987
1988
1989
1991
1992
1992
1993
1992
1992
1992
1992
1993
1993
1994
1994
1994
1993
1992
1991
1989
1987
1985
1983
1981
1979
1978
1976
1974
1972
1970
1969
1968
1967
1968
1969
1969
1969
1969
1969
1968
1968
1969
1970
1970
1971
1971
1970
1970
1970
1970
1970
1970
1971
1971
1971
1972
1972
1971
1971
1970
1970
1970
1970
1970
1969
1969
1969
1969
1968
1968
1968
1968
1968
1968
1969
1969
1969
1969
1969
1969
1968
1967
1967
1968
1969
1969
1969
1970
1971
1972
1974
1975
1975
1974
1973
1972
1970
1969
1968
1968
1968
1968
1968
1968
1968
1969
1970
1970
1970
1968
1967
1966
1967
1970
1978
1991
2011
2037
2057
2064
2051
2022
1984
1955
1943
1947
1959
1970
1975
1974
1971
1969
1969
1970
1971
1972
1972
1972
1972
1972
1972
1973
1974
1975
1976
1977
1978
1977
1977
1976
1976
1976
1977
1979
1980
1982
1983
1983
1983
1983
1983
1984
1985
1987
1989
1990
1990
1990
1990
1990
1990
1991
1991
1993
1993
1994
1994
1994
1993
1993
1993
1993
1994
1994
1994
1993
1991
1988
1985
1982
1979
1977
1975
1975
1975
1974
1973
1971
1970
1969
1969
1970
1971
1971
1972
1973
1973
1973
1972
1971
1970
1970
1972
1973
1974
1974
1974
1973
1972
1971
1971
1971
1971
1972
1973
1973
1974
1973
1972
1971
1971
1970
1970
1971
1972
1972
1972
1972
1971
1970
1970
1969
1970
1970
1971
1971
1971
1972
1972
1972
1972
1972
1971
1971
1971
1971
1972
1972
1971
1970
1970
1970
1972
1974
1976
1978
1978
1978
1977
1976
1974
1974
1973
1973
1973
1973
1973
1973
1972
1971
1971
1970
1971
1971
1971
1971
1971
1972
1974
1980
1991
2011
2036
2058
2069
2060
2033
1997
1965
1949
1949
1959
1969
1975
1976
1975
1973
1972
1972
1971
1971
1972
1973
1973
1974
1974
1975
1975
1975
1975
1975
1976
1977
1978
1979
1979
1980
1980
1980
1980
1981
1982
1983
1984
1985
1985
1986
1986
1986
1986
1987
1987
1989
1990
1991
1991
1991
1991
1991
1991
1991
1992
1992
1992
1992
1993
1993
1993
1993
1991
1990
1989
1988
1987
1986
1984
1981
1979
1976
1973
1971
1970
1970
1971
1971
1972
1972
1971
1971
1971
1971
1971
1971
1972
1973
1973
1973
1973
1973
1973
1972
1972
1971
1971
1972
1972
1973
1973
1972
1971
1970
1970
1970
1971
1972
1973
1972
1972
1970
1969
1968
1968
1969
1970
1971
1971
1971
1971
1970
1969
1969
1969
1969
1970
1971
1972
1972
1971
1971
1970
1969
1969
1969
1969
1969
1970
1971
1972
1973
1974
1975
1975
1976
1976
1976
1975
1973
1971
1970
1969
1969
1970
1971
1972
1972
1972
1971
1971
1971
1971
1970
1968
1968
1969
1974
1985
2003
2028
2051
2065
2060
2036
1999
1964
1943
1940
1950
1964
1973
1976
1974
1972
1972
1972
1973
1973
1973
1973
1973
1974
1975
1976
1977
1977
1977
1977
1977
1977
1977
1977
1978
1979
1980
1981
1982
1983
1983
1984
1984
1984
1984
1985
1986
1987
1989
1990
1991
1991
1991
1991
1991
1991
1993
1994
1994
1995
1994
1994
1994
1994
1994
1994
1994
1994
1994
1993
1992
1990
1988
1985
1983
1981
1979
1978
1977
1976
1974
1973
1971
1969
1968
1969
1970
1971
1972
1972
1972
1972
1972
1971
1971
1971
1971
1972
1973
1974
1974
1973
1972
1971
1970
1970
1971
1971
1972
1972
1972
1972
1971
1970
1970
1969
1970
1970
1971
1971
1970
1970
1969
1968
1968
1968
1969
1970
1970
1970
1970
1969
1968
1967
1967
1968
1968
1969
1970
1970
1971
1972
1973
1973
1974
1974
1974
1974
1973
1972
1971
1970
1969
1968
1968
1968
1968
1969
1970
1971
1971
1970
1969
1968
1967
1967
1968
1971
1979
1994
2016
2041
2060
2064
2048
2015
1977
1948
1937
1942
1956
1969
1975
1974
1972
1970
1970
1971
1972
1973
1973
1973
1973
1973
1974
1974
1975
1975
1976
1977
1978
1978
1979
1978
1978
1979
1979
1981
1982
1983
1983
1984
1984
1985
1986
1987
1987
1988
1988
1989
1990
1990
1991
1992
1992
1993
1993
1993
1993
1994
1994
1994
1994
1994
1993
1993
1993
1993
1992
1992
1991
1989
1987
1984
1981
1978
1976
1974
1973
1972
1972
1972
1971
1971
1970
1970
1970
1971
1971
1972
1972
1971
1971
1970
1971
1971
1972
1972
1973
1973
1972
1972
1972
1972
1972
1972
1971
1971
1971
1971
1972
1971
1971
1971
1970
1970
1970
1970
1970
1971
1971
1970
1970
1970
1969
1969
1970
1971
1972
1972
1971
1970
1969
1969
1969
1970
1971
1972
1972
1972
1972
1971
1970
1970
1969
1969
1970
1971
1973
1974
1975
1977
1978
1978
1978
1977
1975
1974
1973
1972
1972
1972
1972
1971
1970
1971
1971
1972
1973
1974
1973
1972
1971
1970
1972
1977
1988
2007
2032
2054
2067
2061
2036
2000
1966
1948
1946
1957
1969
1977
1979
1978
1976
1975
1974
1974
1974
1974
1975
1976
1976
1976
1976
1977
1977
1978
1979
1980
1980
1980
1980
1979
1979
1980
1980
1982
1984
1985
1986
1987
1987
1987
1987
1987
1987
1988
1989
1991
1992
1993
1994
1994
1994
1994
1994
1995
1995
1995
1995
1994
1994
1993
1993
1993
1993
1993
1993
1992
1991
1990
1988
1985
1983
1980
1978
1976
1976
1975
1975
1975
1975
1974
1974
1973
1973
1973
1973
1974
1975
1975
1975
1975
1975
1975
1975
1974
1974
1974
1975
1975
1975
1975
1975
1975
1974
1973
1973
1974
1974
1975
1975
1975
1975
1974
1974
1973
1973
1973
1973
1973
1973
1973
1973
1973
1973
1973
1973
1974
1974
1974
1974
1973
1973
1973
1973
1974
1974
1975
1975
1976
1976
1975
1975
1974
1973
1973
1973
1973
1974
1975
1975
1976
1976
1977
1978
1979
1981
1981
1981
1981
1980
1979
1978
1976
1975
1974
1974
1974
1975
1975
1975
1976
1976
1976
1975
1974
1973
1973
1974
1979
1990
2006
2030
2052
2068
2066
2045
2011
1977
1956
1951
1959
1970
1977
1979
1978
1976
1976
1976
1977
1978
1977
1977
1977
1977
1977
1978
1979
1979
1980
1980
1981
1981
1981
1981
1981
1982
1983
1984
1984
1985
1986
1987
1987
1988
1988
1988
1989
1990
1991
1992
1993
1993
1993
1993
1993
1993
1994
1994
1995
1995
1996
1996
1996
1996
1996
1996
1996
1997
1997
1997
1995
1993
1991
1989
1987
1986
1984
1983
1982
1980
1978
1977
1975
1974
1973
1973
1974
1975
1976
1976
1976
1976
1976
1976
1975
1975
1975
1976
1977
1977
1976
1975
1974
1973
1974
1975
1976
1976
1976
1976
1975
1974
1973
1973
1974
1974
1975
1976
1976
1975
1974
1974
1973
1973
1973
1974
1974
1974
1974
1974
1974
1973
1973
1973
1972
1973
1973
1974
1974
1975
1975
1974
1974
1974
1974
1974
1975
1975
1976
1976
1975
1975
1975
1975
1976
1978
1979
1981
1982
1982
1981
1979
1977
1976
1975
1975
1975
1975
1975
1975
1975
1974
1974
1974
1974
1974
1973
1973
1973
1974
1979
1989
2007
2032
2057
2071
2066
2041
2002
1966
1945
1942
1952
1966
1976
1980
1980
1979
1978
1977
1977
1977
1977
1977
1978
1979
1980
1981
1981
1981
1981
1981
1981
1982
1982
1983
1984
1985
1986
1987
1987
1987
1987
1988
1988
1989
1990
1991
1992
1992
1992
1993
1993
1994
1995
1996
1997
1998
1998
1999
1999
1998
1998
1998
1998
1998
1999
2000
2000
2000
2000
1998
1997
1996
1994
1993
1991
1988
1986
1983
1980
1978
1977
1976
1976
1975
1975
1975
1975
1975
1976
1976
1976
1976
1976
1976
1977
1978
1978
1979
1978
1977
1976
1975
1975
1975
1976
1976
1976
1976
1975
1975
1975
1975
1975
1975
1976
1976
1976
1976
1975
1975
1974
1974
1974
1974
1974
1974
1975
1975
1975
1975
1974
1973
1973
1973
1973
1974
1975
1975
1975
1974
1973
1973
1973
1973
1975
1976
1979
1980
1981
1981
1980
1978
1976
1975
1974
1974
1975
1974
1974
1973
1973
1973
1973
1974
1975
1975
1974
1973
1972
1972
1975
1983
1998
2021
2047
2065
2068
2049
2015
1977
1949
1940
1948
1962
1974
1980
1980
1978
1976
1975
1975
1975
1976
1977
1978
1978
1978
1979
1978
1978
1979
1979
1980
1981
1981
1982
1983
1983
1983
1983
1983
1983
1984
1985
1987
1988
1989
1990
1990
1990
1990
1990
1991
1992
1993
1994
1995
1996
1995
1995
1995
1995
1995
1996
1997
1998
1998
1998
1998
1997
1996
1994
1993
1991
1990
1988
1986
1984
1982
1980
1978
1977
1976
1975
1975
1974
1974
1974
1973
1973
1973
1973
1974
1975
1976
1976
1976
1976
1976
1976
1976
1976
1976
1976
1977
1977
1977
1977
1976
1976
1975
1975
1975
1976
1976
1977
1977
1977
1976
1976
1975
1975
1975
1975
1975
1976
1976
1976
1975
1974
1974
1974
1974
1974
1975
1976
1976
1976
1975
1975
1974
1974
1974
1974
1975
1976
1976
1976
1976
1975
1975
1975
1975
1977
1979
1981
1982
1982
1982
1981
1980
1979
1978
1977
1977
1977
1978
1978
1978
1977
1977
1976
1976
1976
1977
1977
1976
1976
1976
1979
1985
1998
2019
2044
2064
2071
2058
2029
1992
1963
1950
1953
1964
1975
1981
1982
1981
1980
1979
1978
1977
1977
1977
1978
1980
1981
1982
1983
1982
1982
1981
1981
1981
1982
1983
1984
1984
1984
1984
1985
1985
1986
1987
1988
1989
1990
1991
1991
1991
1992
1992
1992
1993
1994
1994
1995
1996
1997
1997
1997
1997
1997
1997
1997
1998
1999
1999
1999
1998
1997
1996
1995
1995
1994
1993
1992
1990
1987
1985
1982
1979
1977
1976
1976
1976
1977
1978
1978
1978
1978
1977
1977
1977
1977
1977
1977
1977
1977
1977
1977
1977
1977
1978
1978
1978
1978
1978
1977
1977
1977
1977
1976
1975
1975
1975
1975
1976
1976
1976
1976
1975
1975
1975
1975
1975
1976
1976
1976
1975
1974
1974
1973
1974
1975
1976
1976
1976
1976
1975
1975
1974
1974
1975
1975
1976
1976
1977
1977
1976
1976
1975
1975
1975
1975
1975
1976
1976
1976
1976
1976
1976
1977
1979
1981
1982
1983
1983
1982
1979
1977
1976
1975
1975
1975
1976
1976
1976
1976
1976
1975
1975
1974
1974
1974
1973
1973
1974
1978
1987
2002
2024
2048
2066
2068
2050
2017
1981
1956
1948
1954
1966
1975
1979
1979
1977
1976
1975
1975
1975
1975
1975
1975
1976
1977
1978
1979
1979
1980
1979
1979
1978
1978
1979
1980
1981
1982
1983
1984
1984
1984
1985
1985
1986
1987
1988
1989
1990
1990
1991
1991
1991
1991
1991
1992
1992
1993
1993
1994
1994
1994
1994
1994
1994
1994
1995
1995
1995
1994
1994
1993
1992
1991
1989
1986
1984
1982
1980
1978
1977
1976
1974
1973
1972
1972
1972
1973
1973
1974
1974
1973
1972
1972
1972
1972
1973
1974
1974
1974
1973
1973
1972
1972
1973
1973
1973
1973
1973
1974
1974
1974
1973
1972
1972
1972
1973
1973
1973
1973
1972
1971
1970
1971
1971
1972
1973
1973
1973
1973
1972
1971
1971
1971
1971
1971
1972
1972
1973
1973
1974
1974
1974
1973
1973
1972
1973
1973
1974
1975
1974
1974
1973
1972
1972
1973
1974
1975
1977
1978
1979
1979
1979
1978
1978
1977
1976
1975
1974
1974
1974
1974
1974
1974
1974
1974
1974
1974
1974
1973
1972
1971
1971
1975
1983
1997
2018
2042
2060
2065
2050
2019
1982
1954
1942
1946
1960
1972
1979
1980
1977
1974
1972
1971
1972
1974
1976
1977
1978
1977
1976
1975
1975
1976
1978
1980
1980
1980
1980
1980
1979
1979
1979
1979
1979
1979
1979
1980
1981
1983
1983
1984
1983
1983
1983
1984
1985
1986
1985
1984
1982
1981
1980
1979
1979
1979
1979
1980
1980
1980
1980
1980
1980
1980
1980
1979
1979
1978
1976
1975
1973
1972
1971
1970
1969
1969
1969
1968
1968
1968
1969
1969
1970
1971
1971
1971
1972
1973
1974
1975
1976
1977
1977
1977
1977
1977
1978
1978
1978
1978
1977
1976
1975
1974
1974
1973
1973
1973
1973
1972
1972
1972
1972
1972
1971
1970
1970
1970
1971
1972
1972
1971
1970
1969
1967
1966
1966
1965
1966
1966
1965
1965
1964
1964
1964
1965
1966
1967
1967
1967
1966
1965
1964
1964
1963
1964
1965
1966
1967
1968
1969
1969
1969
1969
1968
1967
1966
1964
1963
1963
1963
1964
1964
1965
1965
1965
1965
1965
1965
1964
1964
1964
1964
1966
1973
1984
2004
2029
2054
2069
2065
2042
2006
1974
1955
1953
1963
1975
1983
1984
1982
1980
1978
1977
1977
1978
1979
1980
1980
1980
1979
1978
1978
1978
1978
1978
1979
1980
1982
1983
1983
1982
1982
1981
1981
1981
1982
1983
1984
1985
1986
1986
1987
1987
1988
1990
1992
1993
1993
1994
1994
1994
1995
1995
1996
1996
1995
1995
1995
1995
1995
1995
1995
1996
1996
1996
1996
1994
1992
1990
1989
1987
1986
1984
1981
1979
1977
1976
1976
1976
1976
1975
1975
1975
1975
1976
1977
1978
1978
1978
1977
1977
1977
1977
1977
1977
1977
1977
1977
1977
1977
1977
1977
1977
1976
1976
1976
1976
1976
1976
1976
1976
1976
1975
1974
1974
1975
1976
1976
1976
1975
1973
1973
1973
1974
1975
1975
1975
1974
1974
1974
1974
1974
1973
1973
1973
1973
1973
1973
1973
1972
1971
1971
1972
1974
1976
1978
1979
1980
1980
1980
1978
1975
1972
1970
1969
1969
1971
1972
1972
1972
1972
1971
1970
1970
1969
1969
1969
1969
1971
1976
1987
2007
2033
2056
2069
2062
2036
1999
1966
1949
1948
1957
1968
1976
1977
1976
1973
1972
1971
1971
1972
1972
1973
1973
1973
1973
1974
1975
1976
1976
1976
1976
1976
1976
1976
1977
1977
1977
1978
1978
1979
1980
1981
1981
1982
1982
1983
1984
1985
1986
1986
1986
1986
1987
1988
1989
1989
1990
1990
1990
1990
1990
1989
1989
1990
1991
1992
1993
1993
1992
1990
1988
1986
1985
1983
1982
1980
1978
1977
1975
1973
1971
1970
1970
1971
1972
1972
1972
1971
1970
1970
1971
1971
1972
1972
1973
1973
1974
1974
1974
1973
1972
1971
1970
1970
1971
1972
1972
1972
1971
1970
1970
1970
1971
1971
1972
1972
1971
1971
1970
1969
1968
1968
1969
1970
1971
1972
1972
1971
1971
1969
1968
1967
1967
1968
1969
1970
1970
1970
1970
1969
1969
1969
1969
1969
1969
1969
1969
1970
1970
1971
1973
1974
1975
1976
1976
1976
1975
1973
1971
1970
1969
1969
1968
1968
1969
1970
1970
1971
1970
1969
1968
1967
1966
1966
1967
1973
1984
2003
2027
2049
2060
2052
2027
1993
1962
1946
1946
1955
1965
1972
1973
1971
1970
1969
1970
1971
1972
1972
1971
1971
1971
1971
1972
1973
1974
1975
1975
1976
1976
1975
1975
1976
1977
1978
1979
1980
1980
1980
1980
1980
1981
1981
1981
1982
1983
1984
1985
1986
1987
1987
1987
1987
1988
1989
1990
1990
1990
1991
1991
1990
1990
1990
1990
1991
1992
1993
1993
1992
1990
1988
1984
1981
1978
1976
1975
1973
1972
1970
1969
1969
1968
1968
1969
1969
1969
1970
1970
1970
1969
1969
1969
1969
1970
1970
1970
1970
1970
1970
1969
1969
1969
1970
1971
1971
1972
1972
1972
1972
1971
1971
1970
1969
1968
1968
1969
1969
1970
1970
1970
1970
1970
1969
1968
1968
1968
1969
1970
1971
1972
1974
1975
1976
1976
1975
1974
1972
1971
1971
1970
1970
1969
1968
1967
1968
1969
1971
1972
1972
1972
1970
1968
1966
1966
1969
1977
1991
2013
2040
2063
2071
2059
2028
1989
1957
1941
1943
1954
1967
1975
1977
1976
1974
1972
1972
1973
1974
1976
1977
1977
1976
1976
1976
1976
1977
1977
1977
1977
1976
1977
1978
1979
1980
1980
1981
1981
1982
1984
1985
1986
1986
1985
1986
1986
1987
1988
1989
1989
1988
1987
1987
1987
1987
1987
1987
1986
1985
1985
1985
1986
1987
1989
1990
1991
1991
1990
1989
1987
1985
1982
1980
1978
1977
1977
1977
1978
1978
1978
1978
1978
1977
1976
1974
1973
1972
1971
1971
1972
1972
1972
1972
1972
1972
1972
1972
1972
1973
1973
1974
1975
1975
1976
1976
1976
1976
1977
1977
1976
1976
1975
1975
1974
1973
1971
1970
1968
1967
1966
1966
1966
1967
1968
1969
1969
1969
1968
1967
1967
1966
1966
1965
1963
1962
1962
1963
1964
1965
1965
1966
1966
1966
1965
1965
1963
1962
1961
1963
1969
1981
2002
2027
2050
2061
2052
2025
1989
1957
1941
1941
1952
1965
1972
1973
1971
1969
1969
1970
1971
1972
1972
1972
1972
1974
1975
1976
1976
1976
1976
1975
1976
1976
1977
1977
1978
1978
1979
1980
1981
1982
1982
1982
1981
1981
1981
1982
1983
1985
1986
1987
1988
1988
1987
1987
1988
1989
1990
1991
1992
1992
1992
1992
1992
1992
1992
1993
1993
1992
1991
1989
1986
1984
1982
1980
1978
1977
1975
1973
1972
1970
1970
1970
1970
1970
1970
1970
1971
1971
1971
1971
1971
1971
1971
1972
1972
1972
1972
1973
1973
1973
1973
1972
1971
1970
1969
1970
1971
1972
1973
1973
1972
1972
1970
1970
1969
1969
1970
1970
1971
1971
1970
1969
1969
1968
1968
1968
1969
1971
1973
1974
1976
1976
1975
1973
1971
1970
1969
1969
1969
1969
1969
1969
1969
1969
1969
1970
1970
1971
1971
1970
1969
1968
1969
1973
1982
1998
2021
2045
2060
2058
2038
2004
1971
1950
1945
1953
1965
1974
1976
1974
1972
1970
1970
1970
1970
1971
1971
1972
1972
1973
1973
1974
1974
1974
1973
1974
1974
1975
1976
1976
1977
1977
1978
1978
1979
1980
1982
1983
1983
1984
1984
1983
1984
1984
1985
1987
1989
1990
1991
1991
1992
1991
1991
1991
1991
1991
1991
1992
1992
1993
1993
1993
1992
1991
1990
1988
1987
1985
1984
1982
1979
1977
1975
1973
1971
1971
1970
1971
1971
1971
1971
1970
1970
1969
1970
1970
1971
1972
1973
1973
1973
1972
1972
1971
1971
1970
1970
1970
1971
1971
1971
1972
1971
1971
1971
1970
1970
1970
1970
1970
1970
1970
1970
1969
1969
1969
1969
1970
1972
1973
1975
1976
1977
1977
1976
1975
1973
1972
1971
1971
1971
1970
1970
1970
1970
1971
1972
1973
1973
1973
1972
1970
1968
1968
1970
1976
1988
2006
2031
2055
2069
2064
2039
2002
1966
1945
1941
1951
1965
1975
1978
1977
1975
1974
1973
1974
1976
1977
1978
1978
1977
1977
1977
1977
1978
1979
1980
1981
1981
1982
1983
1983
1984
1984
1984
1985
1985
1986
1987
1988
1988
1989
1990
1990
1991
1992
1993
1994
1995
1995
1995
1995
1995
1994
1994
1994
1995
1996
1997
1997
1997
1996
1995
1994
1993
1993
1993
1992
1991
1988
1986
1983
1981
1979
1977
1976
1975
1975
1974
1974
1974
1974
1973
1973
1972
1973
1974
1975
1977
1977
1977
1976
1974
1973
1973
1974
1975
1976
1976
1976
1975
1974
1973
1973
1973
1974
1974
1974
1974
1973
1973
1972
1972
1971
1971
1972
1973
1976
1978
1979
1980
1979
1978
1976
1974
1972
1971
1971
1971
1972
1972
1972
1971
1970
1970
1970
1970
1971
1971
1970
1969
1969
1970
1977
1990
2013
2040
2061
2067
2052
2020
1981
1952
1939
1944
1958
1970
1976
1977
1975
1973
1972
1972
1972
1972
1972
1972
1973
1974
1974
1974
1974
1974
1974
1975
1976
1977
1978
1978
1979
1979
1980
1980
1980
1980
1980
1981
1983
1984
1986
1986
1986
1986
1986
1987
1989
1989
1990
1990
1990
1991
1991
1990
1990
1990
1991
1992
1993
1993
1993
1991
1990
1989
1988
1988
1987
1985
1983
1980
1977
1976
1975
1974
1973
1972
1972
1971
1971
1971
1972
1972
1972
1971
1971
1972
1972
1973
1974
1974
1974
1973
1972
1971
1970
1970
1970
1971
1971
1972
1972
1971
1970
1970
1970
1970
1970
1970
1970
1969
1968
1968
1968
1969
1969
1969
1969
1969
1969
1969
1969
1969
1970
1971
1972
1974
1976
1977
1977
1975
1973
1971
1970
1969
1969
1969
1970
1971
1972
1973
1974
1973
1973
1971
1969
1968
1968
1969
1971
1977
1987
2004
2028
2052
2067
2063
2041
2006
1973
1954
1951
1960
1970
1975
1976
1973
1972
1973
1974
1974
1974
1973
1972
1972
1972
1972
1972
1973
1974
1975
1976
1977
1977
1977
1977
1978
1978
1979
1980
1980
1982
1983
1984
1985
1985
1984
1984
1985
1986
1987
1988
1989
1989
1989
1989
1989
1989
1990
1991
1990
1989
1989
1988
1988
1989
1989
1989
1989
1989
1990
1989
1988
1985
1983
1981
1979
1977
1975
1974
1973
1972
1971
1971
1970
1970
1970
1970
1971
1972
1973
1974
1974
1974
1974
1973
1974
1974
1974
1975
1976
1976
1976
1975
1975
1975
1975
1976
1976
1977
1977
1977
1976
1975
1974
1973
1973
1974
1974
1975
1975
1974
1973
1972
1971
1971
1972
1972
1973
1974
1975
1975
1974
1973
1972
1971
1971
1972
1973
1974
1974
1974
1973
1973
1972
1972
1973
1975
1978
1980
1982
1982
1981
1979
1977
1975
1974
1974
1975
1976
1976
1976
1976
1975
1975
1975
1975
1975
1975
1975
1975
1977
1983
1996
2016
2042
2063
2071
2060
2033
1998
1969
1956
1958
1967
1976
1980
1980
1978
1978
1978
1979
1979
1979
1979
1979
1980
1981
1982
1982
1983
1983
1982
1982
1982
1983
1983
1983
1984
1984
1985
1986
1987
1987
1987
1987
1988
1989
1991
1992
1993
1994
1993
1993
1993
1993
1994
1996
1997
1998
1999
1999
1999
1999
1999
1999
1999
1999
2000
2001
2001
2001
2000
1998
1995
1993
1992
1992
1991
1990
1988
1986
1984
1983
1982
1981
1981
1982
1982
1983
1983
1983
1982
1981
1979
1979
1979
1980
1981
1982
1982
1982
1982
1982
1981
1980
1979
1978
1978
1978
1979
1979
1979
1978
1977
1976
1976
1976
1977
1978
1978
1978
1977
1976
1974
1973
1972
1972
1973
1973
1974
1974
1973
1972
1972
1972
1972
1973
1975
1977
1979
1979
1977
1975
1972
1970
1968
1967
1967
1968
1968
1969
1970
1970
1969
1969
1968
1968
1967
1967
1967
1969
1974
1985
2004
2030
2055
2070
2065
2040
2001
1965
1944
1942
1953
1966
1974
1977
1976
1975
1974
1974
1973
1971
1971
1971
1973
1975
1977
1978
1978
1977
1976
1975
1975
1975
1976
1977
1979
1980
1981
1981
1981
1981
1981
1982
1983
1984
1985
1986
1987
1987
1987
1988
1988
1988
1988
1989
1989
1990
1991
1991
1991
1990
1990
1989
1990
1990
1991
1991
1991
1990
1989
1987
1986
1984
1982
1981
1979
1978
1976
1975
1974
1973
1972
1971
1971
1971
1971
1972
1973
1972
1971
1970
1969
1969
1969
1970
1970
1969
1969
1968
1968
1968
1967
1967
1967
1966
1966
1966
1966
1966
1966
1965
1965
1965
1966
1966
1966
1966
1966
1965
1965
1966
1966
1966
1966
1966
1967
1968
1969
1970
1970
1969
1969
1968
1969
1970
1973
1975
1978
1979
1980
1979
1979
1977
1975
1974
1973
1973
1973
1975
1975
1976
1975
1975
1975
1975
1975
1974
1973
1973
1973
1974
1979
1990
2009
2035
2059
2074
2069
2044
2006
1970
1949
1946
1956
1968
1976
1979
1977
1975
1973
1972
1972
1972
1973
1974
1975
1975
1975
1975
1975
1975
1976
1976
1977
1977
1978
1979
1980
1980
1980
1980
1981
1981
1982
1984
1985
1986
1986
1986
1985
1986
1986
1987
1988
1989
1989
1989
1989
1989
1989
1989
1989
1989
1989
1988
1989
1989
1989
1989
1989
1989
1988
1987
1985
1984
1983
1981
1980
1979
1977
1976
1974
1972
1971
1971
1971
1973
1973
1974
1973
1973
1972
1972
1973
1973
1974
1975
1975
1975
1974
1974
1973
1972
1972
1971
1971
1971
1972
1972
1972
1972
1972
1972
1972
1971
1971
1972
1972
1972
1972
1971
1970
1970
1970
1970
1970
1971
1972
1972
1972
1971
1970
1970
1970
1970
1971
1972
1973
1973
1973
1972
1971
1970
1969
1969
1970
1971
1972
1974
1975
1976
1977
1978
1978
1977
1975
1974
1973
1972
1971
1971
1970
1970
1970
1971
1971
1972
1972
1972
1970
1969
1968
1970
1974
1983
2000
2025
2051
2069
2070
2048
2012
1974
1949
1944
1953
1966
1976
1979
1977
1974
1972
1971
1971
1971
1972
1974
1975
1975
1975
1975
1974
1975
1975
1976
1977
1978
1979
1979
1979
1979
1979
1979
1980
1981
1981
1982
1983
1984
1984
1984
1984
1984
1985
1986
1987
1988
1989
1990
1990
1991
1990
1989
1988
1988
1988
1989
1990
1991
1991
1991
1991
1990
1990
1989
1989
1988
1987
1985
1983
1981
1979
1977
1976
1975
1974
1974
1974
1974
1974
1974
1974
1973
1973
1973
1974
1975
1975
1975
1975
1975
1975
1975
1974
1974
1975
1975
1975
1976
1975
1974
1973
1973
1973
1974
1975
1976
1977
1978
1977
1977
1975
1974
1973
1973
1973
1974
1975
1975
1975
1974
1974
1974
1974
1975
1976
1977
1977
1977
1977
1976
1975
1974
1974
1974
1975
1976
1977
1977
1976
1975
1974
1974
1974
1974
1974
1974
1974
1975
1976
1977
1978
1979
1980
1980
1980
1979
1979
1977
1976
1975
1974
1974
1974
1975
1976
1977
1977
1976
1974
1972
1970
1970
1972
1980
1995
2018
2046
2068
2075
2061
2029
1990
1960
1947
1952
1965
1977
1982
1981
1977
1974
1973
1973
1974
1976
1977
1977
1977
1977
1976
1976
1976
1977
1978
1980
1981
1982
1982
1981
1981
1980
1980
1980
1981
1982
1983
1984
1985
1985
1986
1986
1986
1987
1988
1989
1990
1990
1990
1989
1989
1988
1989
1989
1990
1990
1991
1991
1990
1990
1990
1990
1990
1990
1990
1990
1989
1988
1986
1984
1982
1979
1977
1976
1976
1975
1975
1974
1973
1972
1972
1972
1972
1972
1973
1973
1973
1973
1974
1974
1974
1974
1974
1974
1973
1972
1972
1971
1971
1971
1971
1971
1971
1971
1970
1970
1971
1972
1972
1972
1971
1971
1970
1970
1971
1972
1972
1972
1972
1971
1971
1970
1971
1971
1972
1972
1972
1971
1971
1971
1971
1971
1970
1970
1971
1971
1972
1972
1972
1970
1969
1968
1969
1970
1972
1973
1974
1973
1973
1972
1971
1970
1970
1971
1973
1976
1978
1979
1979
1978
1976
1975
1974
1973
1973
1972
1972
1972
1972
1971
1972
1972
1972
1972
1971
1971
1970
1972
1977
1990
2010
2035
2056
2065
2055
2028
1992
1963
1949
1951
1961
1972
1977
1977
1975
1975
1975
1975
1976
1975
1975
1974
1974
1975
1976
1978
1978
1979
1979
1979
1979
1979
1979
1980
1981
1981
1982
1983
1983
1983
1983
1982
1982
1983
1984
1985
1986
1987
1988
1989
1989
1990
1990
1990
1990
1990
1990
1991
1992
1992
1992
1992
1991
1991
1991
1992
1993
1993
1993
1992
1991
1989
1988
1986
1986
1985
1983
1982
1980
1978
1977
1976
1976
1976
1977
1978
1978
1978
1978
1977
1976
1975
1975
1976
1976
1977
1978
1978
1978
1977
1977
1975
1974
1974
1974
1974
1975
1975
1975
1975
1974
1972
1972
1972
1973
1974
1975
1975
1975
1975
1974
1973
1972
1971
1971
1972
1973
1974
1975
1975
1974
1973
1973
1972
1973
1973
1974
1974
1974
1974
1974
1974
1974
1974
1974
1974
1974
1974
1975
1976
1977
1978
1979
1980
1980
1980
1979
1978
1977
1976
1976
1975
1976
1976
1976
1976
1976
1975
1975
1975
1975
1974
1974
1975
1977
1983
1995
2016
2042
2063
2070
2058
2029
1993
1963
1950
1952
1963
1975
1981
1982
1981
1979
1978
1977
1978
1979
1980
1981
1981
1980
1979
1979
1979
1980
1981
1982
1982
1981
1981
1981
1981
1982
1983
1984
1985
1986
1986
1986
1985
1985
1985
1986
1986
1988
1989
1991
1992
1992
1992
1991
1991
1991
1991
1992
1993
1994
1994
1994
1994
1994
1994
1995
1995
1995
1996
1996
1995
1994
1991
1988
1985
1983
1981
1979
1977
1976
1976
1976
1976
1975
1974
1973
1973
1974
1974
1975
1976
1976
1976
1975
1975
1974
1973
1973
1973
1973
1973
1973
1973
1973
1973
1973
1973
1973
1973
1973
1974
1974
1974
1973
1972
1971
1971
1971
1972
1972
1972
1972
1971
1971
1971
1971
1971
1971
1971
1972
1973
1973
1972
1972
1971
1970
1970
1970
1970
1971
1972
1972
1973
1973
1974
1976
1978
1980
1980
1979
1977
1975
1973
1971
1971
1970
1971
1971
1972
1972
1973
1974
1974
1973
1972
1971
1970
1971
1976
1986
2003
2028
2053
2069
2066
2044
2008
1973
1953
1950
1959
1972
1979
1980
1977
1974
1973
1974
1974
1975
1975
1976
1977
1978
1978
1977
1977
1977
1978
1979
1980
1980
1980
1980
1979
1979
1980
1981
1983
1984
1985
1985
1985
1985
1985
1986
1987
1987
1988
1988
1989
1990
1990
1990
1990
1990
1991
1992
1993
1993
1993
1992
1992
1992
1992
1992
1991
1991
1991
1991
1991
1990
1989
1987
1984
1981
1979
1977
1976
1975
1975
1975
1975
1974
1973
1973
1973
1974
1975
1975
1976
1976
1976
1976
1977
1976
1976
1976
1976
1976
1976
1976
1976
1975
1975
1975
1975
1975
1975
1976
1976
1976
1976
1975
1974
1973
1973
1974
1975
1975
1976
1976
1976
1975
1975
1974
1974
1974
1974
1975
1975
1976
1976
1975
1975
1974
1974
1975
1975
1976
1976
1976
1975
1974
1973
1974
1975
1978
1981
1983
1984
1983
1981
1979
1977
1976
1976
1976
1976
1976
1976
1976
1977
1977
1977
1976
1975
1974
1973
1973
1976
1982
1992
2010
2034
2056
2069
2064
2041
2007
1975
1957
1955
1963
1974
1980
1982
1980
1979
1980
1980
1981
1981
1980
1980
1980
1980
1980
1982
1983
1983
1984
1983
1983
1982
1982
1982
1983
1985
1986
1986
1987
1987
1987
1987
1988
1988
1989
1989
1991
1992
1993
1994
1994
1993
1993
1993
1994
1994
1995
1995
1995
1995
1995
1995
1995
1995
1996
1996
1996
1997
1997
1996
1995
1993
1991
1989
1987
1986
1985
1983
1981
1979
1978
1977
1977
1977
1977
1977
1978
1978
1978
1978
1977
1976
1976
1976
1977
1978
1978
1978
1977
1977
1977
1977
1977
1977
1977
1977
1977
1977
1977
1977
1977
1976
1975
1974
1974
1974
1975
1976
1976
1976
1976
1975
1974
1974
1974
1974
1975
1976
1976
1976
1975
1974
1973
1973
1974
1975
1976
1977
1977
1977
1977
1976
1975
1974
1974
1974
1975
1976
1978
1979
1981
1982
1981
1981
1980
1980
1979
1978
1977
1976
1975
1975
1975
1976
1976
1977
1977
1977
1976
1975
1975
1975
1976
1981
1992
2012
2038
2060
2070
2060
2033
1997
1966
1952
1954
1965
1977
1983
1983
1981
1979
1977
1977
1977
1977
1977
1978
1978
1979
1979
1979
1979
1980
1980
1981
1981
1982
1984
1985
1986
1986
1985
1985
1985
1985
1986
1987
1988
1989
1989
1990
1991
1991
1992
1993
1994
1995
1995
1995
1995
1995
1995
1995
1995
1995
1995
1996
1997
1997
1996
1996
1995
1995
1996
1996
1996
1994
1992
1990
1987
1984
1981
1979
1977
1977
1978
1979
1979
1978
1977
1976
1976
1976
1976
1976
1977
1977
1978
1978
1978
1978
1977
1976
1975
1975
1976
1976
1977
1977
1976
1975
1974
1973
1973
1974
1975
1976
1976
1976
1974
1973
1973
1973
1974
1976
1976
1976
1975
1973
1972
1972
1972
1973
1973
1974
1974
1975
1974
1974
1973
1973
1973
1974
1974
1974
1974
1974
1974
1974
1975
1976
1977
1978
1979
1980
1980
1979
1979
1978
1977
1976
1975
1974
1973
1973
1974
1974
1974
1974
1974
1973
1972
1972
1973
1974
1978
1986
2001
2023
2046
2060
2057
2037
2004
1972
1953
1950
1959
1971
1979
1981
1978
1976
1975
1975
1976
1978
1978
1979
1979
1978
1977
1977
1976
1977
1978
1980
1981
1982
1982
1982
1982
1982
1982
1983
1984
1985
1986
1986
1987
1987
1987
1988
1989
1990
1991
1991
1992
1992
1993
1993
1993
1993
1993
1994
1994
1995
1995
1995
1996
1996
1996
1995
1995
1995
1995
1996
1996
1996
1993
1990
1987
1985
1983
1982
1981
1980
1979
1979
1978
1978
1977
1977
1976
1976
1977
1978
1979
1979
1978
1978
1977
1977
1977
1978
1979
1980
1981
1981
1980
1980
1979
1978
1977
1976
1976
1976
1975
1975
1975
1975
1975
1975
1975
1975
1975
1976
1977
1977
1977
1976
1975
1974
1973
1972
1972
1973
1974
1975
1976
1975
1975
1974
1975
1975
1975
1975
1974
1974
1974
1974
1975
1976
1978
1980
1981
1982
1982
1981
1979
1977
1976
1975
1975
1975
1976
1976
1975
1975
1975
1975
1975
1975
1974
1973
1973
1976
1982
1995
2013
2036
2054
2061
2050
2025
1993
1967
1955
1958
1967
1977
1981
1980
1977
1976
1976
1977
1978
1979
1980
1979
1979
1978
1978
1979
1980
1982
1983
1984
1984
1984
1983
1983
1982
1983
1984
1986
1987
1987
1988
1987
1987
1988
1988
1990
1991
1992
1993
1994
1994
1994
1995
1995
1996
1996
1996
1996
1997
1997
1997
1997
1997
1997
1997
1998
1998
1999
1999
1998
1997
1995
1992
1989
1988
1986
1985
1984
1982
1981
1980
1979
1979
1979
1979
1978
1978
1979
1979
1980
1981
1981
1980
1979
1979
1979
1979
1978
1978
1978
1978
1978
1978
1978
1978
1978
1978
1978
1977
1977
1976
1976
1975
1975
1975
1975
1975
1975
1975
1975
1975
1976
1976
1975
1975
1975
1976
1976
1976
1976
1975
1975
1975
1975
1975
1975
1975
1974
1973
1974
1975
1977
1978
1979
1979
1980
1980
1981
1980
1979
1977
1975
1974
1973
1973
1973
1974
1974
1975
1975
1976
1976
1975
1973
1972
1972
1974
1981
1994
2015
2040
2058
2063
2048
2019
1984
1957
1946
1951
1963
1974
1980
1981
1979
1977
1977
1977
1977
1977
1978
1979
1980
1980
1980
1979
1979
1980
1981
1983
1984
1984
1984
1983
1983
1983
1984
1985
1987
1988
1988
1989
1989
1990
1990
1990
1991
1992
1993
1994
1995
1996
1996
1996
1996
1996
1997
1997
1997
1997
1997
1998
1998
1998
1998
1998
1998
1999
1999
1998
1996
1995
1993
1990
1988
1985
1982
1979
1977
1975
1975
1975
1976
1976
1976
1976
1977
1977
1977
1976
1976
1976
1976
1975
1974
1974
1973
1974
1974
1975
1975
1975
1975
1974
1974
1974
1974
1974
1975
1975
1975
1974
1973
1972
1972
1973
1974
1975
1975
1975
1974
1973
1973
1973
1973
1975
1977
1979
1981
1981
1981
1979
1976
1973
1972
1971
1971
1972
1973
1974
1974
1974
1973
1972
1971
1970
1970
1969
1969
1971
1976
1988
2008
2034
2057
2068
2059
2031
1993
1960
1942
1942
1953
1967
1975
1978
1977
1976
1975
1975
1976
1976
1977
1977
1977
1978
1978
1979
1979
1979
1979
1980
1980
1980
1981
1982
1983
1984
1984
1985
1985
1984
1984
1985
1985
1986
1987
1989
1990
1991
1991
1992
1992
1992
1992
1993
1993
1993
1993
1994
1994
1994
1993
1993
1993
1993
1993
1992
1993
1993
1993
1992
1990
1987
1984
1981
1979
1978
1976
1975
1974
1973
1972
1971
1970
1969
1969
1970
1970
1971
1971
1971
1970
1970
1970
1969
1970
1970
1971
1972
1972
1971
1971
1970
1970
1970
1971
1971
1971
1971
1971
1971
1971
1971
1971
1971
1970
1970
1970
1970
1970
1969
1969
1969
1970
1971
1973
1975
1976
1976
1975
1972
1970
1968
1967
1966
1967
1967
1968
1969
1969
1969
1969
1968
1968
1967
1966
1965
1965
1967
1976
1992
2015
2040
2056
2055
2036
2002
1968
1946
1941
1949
1961
1970
1974
1973
1971
1969
1969
1969
1970
1971
1971
1971
1970
1971
1972
1973
1975
1976
1976
1975
1974
1974
1975
1976
1977
1978
1980
1981
1981
1981
1981
1980
1980
1980
1982
1984
1985
1987
1987
1987
1987
1987
1987
1987
1987
1988
1988
1989
1989
1989
1988
1988
1988
1988
1988
1989
1989
1989
1989
1987
1985
1982
1979
1976
1974
1972
1971
1970
1970
1969
1969
1968
1967
1967
1967
1968
1969
1970
1970
1969
1969
1969
1969
1969
1970
1971
1971
1971
1971
1970
1970
1969
1969
1969
1969
1970
1970
1970
1970
1970
1970
1969
1968
1968
1968
1969
1970
1970
1970
1969
1967
1966
1965
1965
1965
1966
1968
1970
1971
1973
1973
1974
1973
1972
1971
1970
1969
1968
1968
1967
1967
1966
1966
1966
1967
1968
1968
1968
1967
1966
1965
1965
1969
1977
1992
2015
2041
2059
2063
2047
2014
1978
1951
1942
1948
1960
1971
1975
1974
1972
1970
1969
1969
1969
1970
1970
1971
1972
1973
1974
1974
1974
1973
1973
1973
1974
1975
1976
1977
1977
1978
1978
1978
1979
1980
1981
1981
1982
1982
1983
1984
1985
1986
1986
1987
1987
1987
1988
1988
1989
1988
1988
1988
1989
1989
1989
1989
1990
1991
1991
1991
1991
1990
1988
1987
1985
1984
1982
1980
1978
1975
1973
1971
1970
1970
1970
1970
1971
1971
1971
1971
1971
1971
1971
1971
1971
1971
1971
1972
1972
1972
1972
1971
1970
1970
1970
1971
1972
1973
1973
1972
1970
1969
1968
1968
1969
1971
1972
1972
1971
1970
1968
1968
1968
1969
1970
1971
1971
1971
1970
1968
1968
1968
1969
1971
1973
1975
1976
1977
1977
1975
1974
1972
1971
1970
1970
1969
1969
1968
1969
1969
1969
1970
1970
1970
1970
1970
1969
1969
1970
1975
1986
2005
2031
2055
2068
2060
2034
1996
1961
1942
1941
1951
1964
1972
1975
1974
1973
1972
1972
1971
1970
1969
1969
1970
1971
1973
1975
1976
1977
1977
1977
1976
1976
1976
1977
1979
1980
1981
1981
1980
1979
1978
1979
1981
1983
1985
1986
1987
1987
1987
1986
1986
1986
1987
1988
1990
1991
1992
1992
1991
1990
1989
1989
1990
1990
1991
1991
1991
1990
1989
1988
1986
1985
1983
1981
1979
1977
1975
1973
1972
1970
1969
1969
1969
1969
1969
1969
1970
1970
1970
1970
1970
1970
1970
1970
1971
1972
1972
1972
1971
1970
1970
1971
1971
1972
1973
1972
1972
1971
1971
1971
1970
1970
1970
1971
1971
1972
1971
1971
1970
1969
1969
1969
1969
1970
1970
1971
1971
1972
1972
1971
1970
1969
1969
1970
1971
1971
1971
1970
1969
1968
1968
1970
1971
1973
1975
1977
1978
1978
1977
1976
1974
1973
1972
1972
1972
1972
1972
1972
1972
1972
1972
1972
1972
1972
1971
1971
1970
1970
1973
1979
1993
2014
2041
2062
2070
2057
2027
1990
1959
1946
1950
1962
1973
1978
1978
1976
1975
1974
1975
1975
1974
1974
1974
1975
1976
1977
1977
1978
1978
1977
1977
1977
1977
1978
1980
1981
1981
1982
1982
1982
1982
1983
1984
1985
1987
1988
1988
1988
1988
1988
1987
1988
1989
1990
1991
1993
1993
1993
1993
1993
1993
1993
1993
1993
1993
1993
1993
1993
1993
1992
1990
1989
1987
1985
1984
1982
1980
1979
1977
1976
1974
1974
1974
1974
1974
1975
1974
1974
1973
1972
1973
1973
1974
1975
1976
1977
1977
1977
1977
1976
1976
1975
1975
1975
1975
1976
1976
1976
1976
1976
1975
1974
1974
1974
1975
1976
1976
1976
1976
1976
1975
1974
1974
1974
1974
1975
1975
1975
1975
1975
1975
1976
1976
1976
1976
1976
1976
1976
1976
1976
1976
1976
1976
1977
1977
1978
1978
1977
1977
1976
1976
1975
1976
1977
1978
1980
1981
1982
1982
1982
1983
1983
1982
1981
1980
1979
1977
1977
1976
1976
1975
1975
1976
1977
1978
1979
1978
1977
1974
1973
1973
1978
1988
2006
2031
2056
2074
2073
2052
2018
1982
1958
1952
1959
1970
1979
1982
1980
1977
1974
1973
1973
1974
1975
1976
1977
1977
1977
1976
1976
1976
1977
1978
1979
1979
1979
1979
1979
1979
1979
1979
1980
1981
1983
1984
1986
1986
1986
1986
1986
1986
1987
1988
1989
1990
1991
1991
1991
1991
1991
1991
1991
1991
1991
1991
1991
1992
1992
1992
1992
1992
1992
1991
1990
1989
1987
1985
1982
1979
1977
1975
1974
1972
1972
1971
1971
1971
1970
1970
1969
1968
1969
1970
1970
1971
1971
1970
1970
1969
1969
1969
1969
1970
1971
1971
1971
1971
1970
1970
1970
1969
1969
1968
1969
1969
1970
1970
1969
1969
1968
1968
1968
1968
1968
1968
1969
1969
1969
1969
1968
1967
1966
1966
1967
1968
1969
1969
1968
1968
1968
1968
1968
1968
1969
1969
1969
1969
1968
1968
1968
1969
1970
1972
1974
1975
1976
1975
1974
1972
1971
1970
1970
1970
1970
1970
1970
1970
1970
1969
1968
1967
1967
1967
1967
1967
1968
1971
1979
1994
2016
2042
2060
2063
2047
2014
1978
1951
1940
1945
1957
1967
1973
1973
1972
1971
1971
1971
1971
1970
1970
1970
1970
1971
1972
1973
1974
1974
1975
1975
1975
1976
1976
1976
1977
1977
1978
1979
1980
1980
1980
1980
1981
1982
1983
1985
1986
1987
1987
1987
1987
1987
1988
1989
1990
1992
1992
1992
1991
1990
1989
1989
1990
1992
1994
1994
1994
1993
1991
1989
1987
1984
1982
1980
1978
1977
1975
1973
1971
1970
1968
1967
1966
1967
1967
1968
1969
1969
1969
1968
1968
1968
1968
1969
1969
1970
1970
1970
1970
1970
1970
1970
1971
1971
1972
1972
1972
1971
1970
1970
1969
1969
1969
1970
1970
1971
1971
1971
1971
1971
1970
1970
1971
1971
1971
1972
1972
1972
1971
1970
1969
1969
1969
1970
1971
1971
1971
1971
1970
1969
1969
1970
1972
1973
1974
1976
1976
1977
1976
1975
1973
1971
1969
1969
1969
1970
1971
1971
1970
1969
1968
1968
1969
1969
1969
1968
1967
1968
1973
1984
2003
2028
2051
2065
2060
2036
2000
1965
1944
1941
1950
1962
1971
1975
1974
1973
1971
1971
1970
1970
1970
1971
1972
1973
1973
1974
1974
1974
1975
1975
1976
1976
1976
1976
1977
1978
1979
1980
1981
1982
1981
1981
1981
1982
1983
1985
1987
1988
1988
1988
1988
1989
1990
1991
1992
1992
1992
1993
1993
1993
1992
1992
1992
1992
1994
1995
1995
1993
1992
1989
1987
1985
1984
1982
1980
1979
1977
1975
1974
1972
1971
1970
1969
1968
1968
1969
1969
1970
1971
1971
1971
1970
1970
1970
1970
1971
1972
1973
1973
1973
1972
1971
1971
1971
1971
1972
1972
1972
1972
1971
1970
1969
1969
1970
1970
1971
1971
1971
1970
1970
1970
1970
1970
1970
1970
1970
1970
1971
1971
1971
1971
1971
1971
1971
1971
1970
1970
1970
1970
1970
1971
1971
1971
1971
1971
1972
1973
1973
1973
1972
1971
1971
1970
1971
1971
1971
1972
1972
1973
1974
1975
1976
1977
1978
1979
1979
1978
1978
1977
1976
1975
1973
1973
1972
1973
1973
1973
1973
1973
1973
1973
1972
1972
1972
1973
1977
1986
2001
2023
2048
2065
2068
2051
2020
1985
1960
1951
1956
1967
1976
1979
1978
1975
1974
1973
1974
1975
1976
1977
1976
1976
1975
1975
1976
1977
1978
1979
1979
1979
1979
1979
1979
1979
1980
1981
1982
1982
1982
1982
1982
1983
1984
1985
1986
1987
1988
1988
1988
1989
1989
1990
1990
1990
1990
1990
1991
1992
1992
1992
1992
1991
1990
1990
1991
1992
1993
1994
1992
1990
1986
1983
1980
1979
1978
1977
1976
1975
1973
1972
1970
1969
1968
1968
1968
1970
1971
1972
1972
1972
1971
1970
1970
1970
1971
1972
1973
1974
1974
1973
1972
1971
1971
1972
1972
1973
1973
1973
1973
1973
1972
1972
1972
1972
1972
1972
1971
1971
1971
1971
1971
1970
1970
1970
1970
1971
1971
1971
1971
1971
1971
1971
1971
1971
1971
1971
1971
1972
1972
1972
1971
1971
1970
1970
1970
1971
1971
1972
1972
1971
1971
1971
1972
1972
1972
1972
1972
1972
1972
1972
1971
1971
1971
1973
1976
1978
1979
1979
1979
1978
1977
1976
1975
1974
1973
1973
1973
1973
1973
1973
1972
1971
1971
1972
1972
1972
1972
1972
1973
1977
1986
2003
2027
2050
2067
2066
2046
2012
1978
1955
1949
1956
1967
1975
1978
1977
1976
1975
1975
1976
1975
1975
1975
1975
1976
1977
1977
1978
1978
1978
1977
1977
1976
1977
1978
1979
1981
1982
1982
1983
1983
1983
1984
1984
1985
1987
1988
1989
1989
1989
1990
1990
1991
1992
1993
1993
1994
1995
1996
1996
1995
1993
1992
1992
1993
1995
1996
1997
1997
1997
1995
1994
1992
1990
1988
1986
1985
1983
1981
1979
1977
1975
1973
1972
1972
1972
1973
1973
1973
1972
1972
1971
1971
1972
1973
1975
1976
1976
1976
1975
1974
1973
1973
1973
1974
1974
1973
1973
1973
1973
1972
1972
1972
1972
1972
1973
1973
1972
1971
1971
1970
1970
1970
1971
1971
1971
1971
1972
1972
1972
1971
1970
1969
1969
1969
1969
1970
1970
1971
1971
1971
1970
1970
1970
1969
1970
1970
1970
1971
1970
1970
1969
1969
1970
1970
1971
1972
1972
1971
1971
1971
1971
1971
1972
1973
1975
1976
1977
1978
1978
1977
1976
1974
1973
1973
1973
1973
1973
1973
1972
1971
1971
1971
1971
1971
1972
1973
1972
1971
1970
1970
1974
1983
2001
2025
2050
2067
2067
2046
2009
1972
1947
1940
1948
1962
1974
1979
1979
1977
1975
1974
1974
1974
1974
1975
1975
1976
1976
1977
1977
1977
1977
1977
1978
1979
1980
1981
1981
1982
1982
1982
1982
1983
1984
1985
1986
1987
1988
1989
1988
1988
1988
1989
1990
1991
1993
1993
1994
1994
1994
1994
1994
1994
1995
1995
1995
1996
1996
1996
1997
1997
1996
1995
1993
1992
1990
1988
1986
1984
1982
1979
1977
1974
1973
1972
1971
1971
1971
1970
1970
1969
1969
1970
1970
1970
1970
1971
1972
1972
1972
1971
1970
1970
1971
1971
1971
1971
1971
1971
1971
1971
1971
1971
1971
1971
1971
1970
1969
1969
1968
1967
1967
1967
1968
1969
1969
1970
1969
1969
1969
1969
1969
1968
1968
1967
1967
1968
1969
1969
1969
1968
1968
1967
1967
1968
1968
1969
1969
1969
1968
1967
1966
1966
1967
1968
1970
1972
1973
1974
1975
1975
1974
1973
1972
1970
1969
1969
1968
1968
1968
1968
1968
1968
1968
1969
1969
1969
1969
1967
1966
1965
1968
1976
1990
2012
2037
2056
2062
2048
2018
1981
1952
1941
1945
1957
1968
1974
1974
1972
1971
1970
1970
1971
1971
1971
1972
1972
1973
1974
1974
1974
1974
1974
1975
1975
1976
1977
1977
1978
1979
1979
1980
1979
1979
1980
1981
1983
1984
1985
1986
1985
1985
1985
1985
1986
1988
1989
1990
1991
1992
1992
1992
1993
1993
1993
1993
1993
1993
1993
1993
1993
1992
1991
1989
1987
1986
1984
1982
1980
1977
1975
1972
1970
1969
1969
1968
1968
1969
1968
1968
1967
1966
1966
1966
1966
1967
1968
1969
1969
1969
1969
1969
1969
1969
1970
1970
1971
1971
1971
1970
1970
1970
1969
1969
1969
1969
1969
1969
1969
1969
1969
1968
1968
1968
1969
1969
1970
1970
1969
1969
1969
1968
1967
1967
1967
1967
1968
1968
1969
1969
1968
1968
1968
1968
1969
1970
1970
1970
1970
1970
1969
1969
1968
1968
1968
1968
1969
1969
1970
1970
1971
1973
1974
1975
1976
1976
1975
1974
1973
1971
1970
1969
1968
1969
1969
1970
1970
1971
1971
1971
1970
1969
1968
1967
1968
1973
1982
1998
2020
2045
2061
2062
2045
2012
1977
1953
1946
1952
1964
1973
1976
1974
1971
1970
1970
1970
1971
1971
1972
1972
1972
1972
1973
1974
1975
1976
1976
1977
1976
1976
1976
1977
1977
1978
1978
1979
1980
1981
1982
1982
1982
1983
1983
1983
1984
1986
1987
1988
1989
1989
1989
1989
1989
1990
1991
1991
1992
1992
1992
1992
1991
1991
1990
1990
1991
1991
1991
1990
1989
1986
1983
1980
1978
1976
1975
1973
1972
1970
1969
1967
1966
1966
1967
1968
1969
1969
1970
1970
1969
1969
1968
1968
1969
1969
1970
1970
1970
1970
1970
1970
1970
1969
1969
1969
1969
1969
1969
1970
1970
1969
1969
1968
1967
1967
1968
1969
1970
1970
1969
1968
1968
1967
1967
1966
1966
1966
1967
1967
1968
1969
1970
1970
1970
1969
1969
1969
1968
1968
1968
1968
1968
1967
1967
1967
1968
1969
1970
1970
1970
1970
1969
1969
1970
1970
1970
1970
1969
1969
1970
1971
1972
1973
1974
1975
1976
1976
1976
1975
1974
1973
1972
1971
1970
1970
1970
1970
1971
1972
1972
1972
1971
1970
1969
1968
1968
1970
1976
1988
2006
2030
2052
2063
2056
2032
1997
1966
1949
1949
1958
1969
1975
1976
1974
1972
1972
1972
1972
1973
1973
1973
1972
1972
1972
1972
1973
1974
1975
1975
1975
1976
1976
1977
1977
1978
1979
1979
1980
1981
1981
1982
1982
1982
1983
1983
1984
1985
1986
1988
1989
1990
1989
1989
1989
1990
1990
1991
1992
1993
1993
1993
1992
1991
1991
1991
1991
1992
1992
1992
1991
1989
1987
1985
1982
1980
1977
1975
1973
1972
1972
1971
1970
1969
1968
1968
1968
1969
1970
1970
1970
1970
1969
1968
1968
1968
1968
1969
1970
1971
1971
1971
1970
1970
1969
1969
1969
1969
1969
1969
1970
1970
1969
1968
1967
1967
1967
1968
1969
1970
1970
1969
1967
1966
1965
1965
1966
1967
1968
1969
1969
1968
1967
1966
1966
1966
1967
1968
1969
1969
1969
1969
1969
1968
1968
1968
1968
1968
1969
1969
1970
1969
1969
1969
1969
1968
1968
1969
1970
1972
1973
1975
1975
1976
1976
1976
1975
1974
1973
1972
1971
1971
1971
1971
1970
1970
1970
1970
1970
1971
1971
1970
1969
1969
1970
1974
1985
2002
2027
2050
2063
2058
2035
1998
1963
1943
1940
1950
1965
1974
1978
1976
1973
1971
1970
1971
1972
1973
1974
1974
1975
1975
1976
1976
1977
1977
1977
1977
1976
1976
1977
1978
1979
1980
1980
1981
1982
1982
1983
1984
1985
1986
1987
1987
1987
1988
1989
1990
1991
1992
1993
1993
1993
1993
1993
1993
1993
1994
1995
1996
1996
1996
1996
1995
1995
1994
1994
1993
1992
1991
1989
1986
1983
1980
1977
1975
1974
1973
1973
1973
1972
1971
1970
1970
1970
1970
1970
1971
1971
1972
1972
1972
1971
1972
1972
1973
1973
1973
1973
1973
1973
1973
1973
1972
1971
1971
1971
1972
1973
1974
1974
1973
1972
1971
1971
1971
1972
1973
1973
1973
1973
1972
1971
1970
1970
1970
1971
1971
1972
1972
1972
1973
1973
1973
1974
1974
1974
1974
1973
1973
1973
1973
1973
1972
1972
1972
1972
1973
1975
1976
1977
1977
1976
1974
1973
1972
1972
1972
1972
1970
1969
1966
1964
1963
1962
1962
1963
1963
1963
1962
1960
1959
1960
1964
1974
1992
2016
2040
2053
2048
2023
1988
1956
1938
1937
1947
1959
1967
1969
1968
1967
1967
1968
1970
1972
1974
1975
1976
1978
1979
1981
1982
1982
1983
1983
1984
1985
1987
1990
1992
1993
1994
1994
1994
1994
1995
1996
1997
1998
2000
2002
2003
2003
2002
2001
2000
2001
2001
2002
2002
2001
2000
1999
1999
1999
1999
1998
1998
1997
1996
1996
1996
1996
1996
1994
1992
1988
1985
1983
1982
1980
1979
1976
1974
1971
1970
1969
1969
1970
1971
1971
1971
1970
1969
1969
1970
1971
1972
1973
1973
1973
1973
1972
1972
1972
1972
1973
1973
1973
1973
1974
1974
1974
1974
1974
1973
1974
1974
1975
1974
1974
1974
1974
1974
1974
1975
1975
1975
1975
1975
1976
1976
1976
1976
1975
1975
1974
1975
1975
1976
1976
1975
1975
1975
1976
1977
1979
1981
1983
1983
1982
1980
1978
1977
1975
1974
1973
1973
1973
1973
1974
1974
1974
1974
1974
1973
1972
1971
1971
1973
1978
1988
2007
2031
2054
2068
2063
2040
2005
1972
1954
1952
1960
1971
1977
1978
1977
1975
1975
1976
1976
1976
1976
1975
1975
1975
1976
1977
1979
1980
1980
1980
1980
1979
1980
1980
1981
1982
1983
1984
1985
1986
1987
1987
1987
1987
1988
1989
1991
1992
1993
1993
1993
1993
1993
1994
1996
1997
1998
1999
1999
1998
1998
1997
1997
1998
1998
1998
1998
1997
1996
1995
1993
1991
1989
1986
1983
1981
1979
1978
1976
1975
1974
1972
1972
1971
1971
1972
1972
1973
1973
1973
1973
1973
1973
1973
1973
1974
1974
1974
1974
1974
1974
1973
1973
1972
1971
1971
1971
1971
1972
1971
1971
1970
1969
1968
1967
1967
1967
1967
1966
1966
1965
1965
1965
1965
1966
1966
1966
1965
1964
1964
1964
1965
1966
1968
1969
1970
1970
1969
1967
1966
1965
1964
1964
1964
1964
1964
1965
1966
1967
1967
1967
1966
1965
1963
1962
1962
1964
1972
1987
2010
2037
2059
2068
2056
2028
1991
1962
1949
1951
1961
1970
1975
1975
1973
1971
1971
1971
1972
1972
1972
1973
1973
1973
1974
1974
1975
1976
1976
1977
1977
1978
1979
1979
1980
1981
1981
1982
1983
1984
1985
1986
1986
1986
1986
1987
1988
1989
1990
1991
1991
1991
1992
1993
1994
1995
1995
1994
1993
1992
1991
1991
1991
1991
1991
1991
1991
1991
1990
1989
1987
1985
1981
1978
1975
1973
1971
1970
1970
1969
1969
1968
1968
1968
1969
1969
1969
1969
1969
1968
1968
1969
1969
1970
1970
1970
1970
1969
1969
1970
1971
1971
1970
1968
1966
1966
1966
1967
1968
1969
1970
1970
1969
1968
1966
1965
1965
1966
1966
1967
1967
1966
1965
1965
1967
1969
1971
1973
1973
1973
1971
1969
1967
1965
1964
1964
1964
1964
1963
1963
1964
1965
1966
1966
1965
1964
1962
1962
1961
1961
1962
1967
1977
1996
2023
2048
2062
2056
2031
1993
1959
1939
1937
1947
1960
1970
1973
1973
1971
1969
1969
1969
1970
1970
1971
1971
1972
1973
1974
1974
1974
1974
1974
1974
1975
1977
1979
1980
1980
1980
1979
1980
1981
1982
1983
1984
1985
1986
1988
1989
1990
1990
1989
1989
1989
1990
1992
1993
1995
1995
1994
1993
1992
1992
1992
1993
1994
1995
1995
1994
1993
1992
1991
1989
1986
1983
1980
1979
1978
1977
1975
1972
1970
1969
1968
1969
1970
1970
1970
1970
1970
1970
1970
1970
1970
1970
1971
1972
1973
1973
1973
1972
1972
1971
1971
1972
1973
1974
1974
1973
1972
1971
1971
1971
1971
1971
1971
1971
1972
1973
1973
1973
1972
1971
1970
1970
1972
1974
1976
1977
1977
1976
1975
1974
1974
1973
1973
1972
1971
1971
1971
1971
1971
1971
1971
1970
1970
1970
1970
1969
1969
1971
1977
1990
2012
2039
2059
2065
2051
2021
1985
1957
1946
1950
1961
1971
1976
1975
1973
1972
1972
1971
1971
1970
1969
1969
1970
1971
1972
1973
1974
1973
1973
1973
1973
1974
1976
1978
1978
1978
1977
1976
1977
1978
1979
1979
1980
1981
1982
1983
1984
1984
1983
1984
1985
1987
1989
1990
1991
1990
1988
1986
1985
1984
1986
1988
1990
1991
1990
1988
1986
1985
1985
1985
1984
1982
1979
1976
1974
1973
1973
1972
1971
1970
1968
1967
1967
1969
1971
1973
1973
1972
1971
1969
1969
1970
1972
1973
1974
1973
1972
1971
1971
1971
1971
1971
1971
1970
1970
1970
1970
1970
1970
1970
1970
1970
1972
1974
1974
1973
1971
1970
1968
1968
1969
1970
1971
1972
1973
1974
1975
1975
1975
1975
1975
1976
1977
1978
1978
1977
1975
1972
1970
1968
1969
1970
1972
1972
1972
1972
1973
1973
1973
1972
1970
1969
1969
1973
1983
2001
2025
2048
2064
2062
2043
2010
1978
1957
1952
1960
1970
1978
1980
1978
1976
1976
1976
1976
1976
1976
1976
1976
1976
1977
1977
1978
1977
1977
1978
1979
1981
1982
1982
1982
1982
1982
1982
1983
1984
1985
1986
1987
1988
1988
1988
1989
1990
1991
1992
1993
1993
1992
1992
1992
1993
1994
1995
1995
1995
1994
1993
1993
1993
1994
1994
1995
1995
1994
1993
1992
1990
1988
1985
1982
1980
1978
1977
1976
1976
1976
1975
1974
1974
1973
1974
1975
1976
1976
1975
1974
1974
1974
1974
1974
1975
1976
1976
1977
1977
1976
1975
1974
1974
1974
1974
1974
1973
1973
1973
1973
1973
1973
1972
1972
1971
1972
1972
1973
1973
1973
1972
1971
1971
1971
1972
1972
1972
1973
1974
1976
1977
1978
1976
1975
1973
1972
1972
1972
1972
1972
1972
1971
1970
1969
1969
1969
1971
1972
1972
1971
1969
1968
1967
1971
1980
1997
2022
2048
2064
2064
2044
2010
1975
1953
1948
1956
1968
1976
1979
1978
1975
1973
1973
1973
1973
1974
1974
1974
1975
1975
1976
1976
1976
1975
1975
1975
1976
1977
1979
1980
1980
1980
1979
1979
1980
1981
1982
1983
1984
1985
1986
1986
1986
1986
1986
1986
1988
1989
1991
1992
1992
1991
1990
1990
1990
1991
1991
1991
1991
1991
1990
1989
1988
1988
1987
1986
1985
1984
1983
1981
1978
1975
1972
1971
1970
1969
1970
1970
1970
1971
1971
1970
1970
1969
1969
1970
1971
1972
1972
1972
1971
1969
1968
1968
1969
1970
1970
1971
1971
1970
1969
1968
1967
1967
1968
1968
1968
1968
1969
1969
1969
1968
1968
1967
1966
1965
1966
1967
1968
1969
1970
1972
1973
1973
1973
1972
1970
1969
1967
1967
1967
1966
1966
1966
1966
1966
1967
1967
1967
1967
1966
1965
1963
1961
1960
1960
1966
1978
1999
2025
2049
2061
2053
2027
1989
1956
1939
1939
1951
1964
1973
1974
1972
1970
1968
1968
1969
1970
1972
1973
1973
1973
1972
1972
1973
1974
1975
1976
1977
1977
1978
1978
1979
1979
1979
1980
1981
1982
1983
1984
1984
1985
1985
1986
1987
1988
1989
1989
1989
1989
1989
1990
1990
1991
1991
1991
1991
1992
1992
1993
1993
1992
1992
1992
1992
1992
1991
1990
1988
1985
1982
1980
1977
1975
1974
1973
1971
1970
1970
1970
1970
1970
1969
1969
1969
1969
1969
1971
1972
1972
1972
1971
1970
1970
1971
1971
1972
1972
1972
1971
1971
1970
1970
1970
1971
1971
1972
1972
1972
1972
1972
1971
1970
1970
1971
1972
1974
1975
1977
1978
1978
1977
1975
1974
1972
1972
1972
1972
1972
1972
1972
1971
1971
1970
1971
1972
1973
1974
1973
1971
1969
1969
1973
1984
2004
2031
2056
2069
2062
2036
1998
1964
1946
1945
1955
1968
1977
1979
1979
1977
1976
1975
1975
1974
1974
1974
1975
1977
1978
1979
1980
1980
1980
1979
1979
1980
1982
1984
1985
1985
1985
1984
1984
1984
1985
1986
1987
1988
1989
1990
1991
1992
1992
1992
1992
1992
1992
1994
1994
1995
1995
1994
1994
1994
1995
1996
1996
1996
1995
1994
1994
1992
1991
1990
1989
1987
1986
1984
1983
1981
1979
1977
1975
1974
1973
1973
1974
1974
1975
1976
1976
1976
1976
1976
1976
1976
1976
1976
1977
1977
1978
1977
1977
1976
1976
1976
1977
1977
1977
1976
1976
1976
1977
1977
1976
1976
1976
1976
1976
1977
1977
1977
1978
1979
1981
1981
1981
1981
1980
1979
1977
1976
1975
1974
1973
1974
1975
1976
1976
1976
1976
1975
1974
1974
1973
1972
1972
1975
1984
2002
2027
2053
2071
2070
2048
2013
1979
1958
1954
1963
1974
1981
1982
1979
1977
1976
1977
1978
1979
1979
1979
1978
1977
1977
1977
1979
1981
1983
1983
1983
1982
1981
1981
1981
1983
1984
1985
1986
1987
1986
1986
1986
1987
1988
1990
1991
1993
1995
1996
1996
1995
1993
1993
1993
1994
1995
1996
1996
1996
1996
1995
1995
1994
1994
1994
1995
1995
1995
1993
1992
1989
1986
1984
1981
1979
1978
1977
1976
1977
1977
1977
1977
1976
1975
1975
1975
1975
1976
1976
1976
1977
1978
1978
1978
1978
1977
1977
1977
1977
1976
1976
1975
1974
1974
1973
1974
1975
1976
1977
1977
1976
1976
1976
1975
1974
1974
1974
1974
1974
1974
1973
1972
1972
1973
1974
1976
1978
1980
1981
1982
1982
1980
1978
1975
1972
1971
1971
1972
1974
1975
1974
1973
1973
1973
1973
1974
1974
1974
1973
1973
1976
1983
1996
2018
2044
2065
2073
2060
2031
1996
1968
1956
1958
1968
1977
1981
1980
1978
1977
1975
1975
1975
1975
1976
1976
1977
1978
1979
1980
1980
1980
1981
1982
1983
1983
1983
1983
1983
1984
1985
1986
1987
1987
1988
1988
1989
1990
1991
1991
1991
1991
1991
1992
1994
1996
1997
1998
1997
1997
1996
1996
1996
1996
1996
1995
1995
1996
1996
1997
1996
1995
1993
1992
1990
1989
1987
1986
1985
1984
1982
1981
1979
1978
1977
1977
1977
1977
1978
1978
1978
1978
1978
1978
1979
1980
1980
1981
1981
1982
1982
1981
1981
1980
1979
1979
1979
1979
1981
1982
1983
1982
1981
1979
1977
1977
1979
1980
1981
1981
1980
1980
1980
1980
1981
1981
1982
1982
1983
1984
1985
1986
1985
1985
1984
1983
1982
1982
1982
1982
1982
1982
1980
1978
1977
1977
1977
1979
1982
1984
1986
1988
1989
1990
1990
1990
1990
1990
1990
1990
1989
1988
1987
1986
1986
1987
1988
1989
1989
1988
1987
1985
1984
1983
1985
1990
2001
2019
2044
2065
2075
2066
2041
2005
1975
1959
1959
1968
1978
1984
1984
1982
1980
1979
1978
1978
1978
1980
1981
1983
1984
1984
1983
1983
1983
1984
1984
1985
1987
1988
1989
1991
1991
1992
1992
1992
1992
1992
1993
1994
1995
1996
1995
1995
1995
1996
1997
1998
1998
1999
1999
1999
1999
1999
1998
1998
1997
1997
1997
1997
1998
1997
1996
1995
1994
1994
1994
1994
1993
1991
1988
1986
1982
1979
1977
1974
1973
1972
1972
1972
1972
1972
1972
1971
1971
1971
1971
1972
1973
1974
1974
1973
1972
1971
1971
1972
1973
1973
1973
1972
1972
1972
1972
1972
1972
1971
1971
1971
1971
1971
1972
1972
1972
1973
1973
1973
1973
1972
1972
1973
1973
1973
1972
1972
1972
1972
1972
1973
1973
1972
1972
1972
1972
1973
1974
1975
1977
1979
1979
1979
1978
1976
1974
1972
1971
1971
1972
1972
1973
1972
1971
1970
1970
1970
1970
1971
1971
1971
1971
1971
1972
1978
1990
2010
2036
2058
2067
2055
2026
1987
1956
1940
1942
1954
1965
1972
1974
1972
1971
1970
1969
1969
1969
1970
1971
1972
1973
1973
1973
1974
1974
1974
1974
1975
1975
1977
1978
1979
1980
1981
1981
1980
1980
1980
1980
1981
1982
1983
1984
1985
1985
1986
1987
1988
1989
1989
1990
1991
1991
1992
1992
1991
1990
1989
1989
1990
1991
1993
1993
1993
1993
1991
1989
1987
1984
1981
1978
1977
1976
1976
1975
1973
1970
1968
1966
1965
1966
1967
1968
1969
1970
1970
1969
1969
1969
1970
1971
1972
1972
1972
1972
1972
1972
1972
1972
1972
1971
1971
1972
1972
1973
1973
1972
1971
1970
1970
1970
1971
1972
1973
1973
1972
1971
1969
1968
1968
1969
1970
1972
1973
1974
1975
1976
1977
1977
1977
1975
1974
1973
1971
1971
1970
1970
1970
1970
1970
1971
1972
1973
1974
1974
1973
1972
1971
1970
1971
1978
1992
2014
2041
2061
2068
2054
2023
1986
1958
1946
1951
1963
1975
1980
1980
1978
1976
1975
1975
1975
1975
1975
1975
