2048
2048
2048
2048
2048
2048
2048
2048
2048
2048
2048
2048
2048
2048
2048
2048
2048
2047
2047
2046
2046
2045
2044
2044
2044
2043
2044
2044
2045
2045
2045
2045
2045
2045
2045
2045
2046
2046
2046
2047
2047
2048
2048
2048
2049
2049
2050
2050
2050
2050
2049
2049
2049
2048
2048
2048
2048
2048
2048
2049
2050
2051
2053
2055
2055
2056
2057
2057
2058
2058
2059
2058
2057
2056
2055
2054
2053
2052
2052
2052
2052
2052
2052
2053
2052
2051
2049
2048
2046
2045
2046
2046
2046
2045
2044
2043
2044
2047
2049
2051
2049
2047
2041
2035
2033
2036
2048
2071
2111
2160
2202
2217
2199
2151
2093
2049
2032
2036
2050
2061
2063
2057
2050
2047
2044
2043
2042
2042
2043
2043
2044
2043
2043
2042
2042
2042
2044
2046
2047
2048
2049
2050
2051
2054
2057
2061
2064
2066
2067
2067
2067
2067
2067
2067
2068
2068
2069
2070
2072
2073
2075
2077
2080
2083
2086
2090
2094
2098
2103
2107
2110
2113
2116
2119
2120
2121
2122
2123
2125
2127
2128
2127
2123
2117
2109
2102
2094
2087
2080
2073
2067
2063
2059
2055
2053
2050
2048
2048
2047
2046
2046
2046
2045
2045
2045
2045
2046
2046
2046
2046
2046
2046
2045
2045
2045
2045
2046
2048
2048
2050
2050
2050
2050
2050
2049
2049
2048
2048
2048
2047
2046
2046
2046
2046
2046
2046
2046
2045
2045
2045
2045
2045
2045
2045
2044
2044
2043
2044
2044
2045
2046
2046
2045
2045
2045
2046
2047
2047
2048
2047
2047
2047
2047
2047
2047
2047
2047
2047
2047
2047
2048
2048
2048
2048
2047
2046
2044
2042
2040
2039
2039
2038
2038
2038
2038
2039
2039
2039
2040
2040
2040
2039
2039
2039
2040
2041
2042
2042
2042
2042
2041
2041
2041
2042
2045
2048
2049
2050
2049
2048
2046
2045
2044
2043
2043
2043
2043
2044
2045
2045
2045
2045
2043
2042
2042
2042
2043
2044
2043
2042
2040
2037
2036
2035
2035
2035
2036
2037
2039
2040
2041
2041
2041
2040
2040
2041
2042
2042
2042
2041
2040
2039
2038
2038
2039
2040
2042
2045
2047
2048
2049
2050
2051
2052
2054
2056
2056
2055
2053
2050
2048
2047
2045
2045
2044
2045
2045
2045
2045
2045
2045
2044
2044
2043
2043
2043
2043
2042
2042
2042
2042
2042
2043
2044
2045
2046
2045
2042
2036
2031
2027
2027
2037
2059
2102
2158
2209
2234
2217
2164
2095
2041
2018
2025
2048
2065
2071
2065
2055
2049
2048
2047
2047
2048
2048
2048
2048
2048
2048
2048
2049
2051
2053
2055
2056
2056
2056
2056
2056
2057
2059
2061
2062
2062
2063
2063
2065
2067
2070
2073
2076
2078
2079
2080
2082
2084
2087
2090
2093
2096
2100
2103
2107
2111
2114
2118
2122
2126
2130
2133
2136
2138
2141
2143
2145
2146
2145
2142
2137
2129
2119
2108
2097
2086
2077
2069
2061
2054
2048
2044
2040
2038
2037
2037
2037
2036
2035
2035
2035
2035
2036
2036
2036
2035
2034
2032
2032
2032
2033
2034
2034
2034
2035
2036
2038
2039
2040
2041
2041
2041
2041
2042
2043
2045
2046
2045
2044
2042
2041
2041
2041
2042
2042
2043
2043
2043
2043
2043
2042
2042
2042
2042
2042
2043
2043
2043
2042
2041
2040
2039
2040
2041
2042
2043
2043
2042
2042
2041
2041
2041
2042
2041
2040
2039
2038
2039
2040
2041
2042
2042
2041
2040
2039
2039
2040
2041
2041
2042
2041
2040
2040
2039
2039
2040
2042
2043
2044
2045
2045
2043
2043
2042
2042
2043
2043
2042
2042
2041
2040
2039
2038
2037
2037
2035
2035
2035
2035
2036
2036
2036
2037
2037
2038
2039
2041
2042
2045
2046
2047
2047
2047
2045
2045
2044
2043
2044
2044
2044
2045
2046
2047
2047
2046
2045
2043
2042
2042
2043
2044
2045
2046
2046
2046
2045
2045
2045
2046
2047
2047
2048
2047
2046
2044
2040
2035
2032
2035
2049
2079
2129
2189
2238
2252
2222
2157
2084
2034
2020
2035
2059
2077
2080
2072
2063
2057
2054
2052
2051
2050
2050
2049
2048
2048
2049
2051
2053
2054
2054
2053
2053
2054
2055
2055
2056
2056
2057
2058
2059
2060
2060
2060
2060
2061
2064
2066
2068
2070
2071
2073
2075
2078
2081
2084
2087
2090
2094
2098
2102
2107
2111
2117
2121
2126
2130
2133
2136
2139
2141
2143
2143
2142
2137
2132
2124
2115
2105
2094
2083
2072
2062
2053
2046
2040
2035
2030
2028
2026
2026
2025
2025
2025
2025
2024
2024
2024
2024
2023
2024
2024
2024
2024
2024
2024
2023
2022
2021
2019
2018
2017
2016
2016
2017
2017
2018
2018
2019
2020
2023
2026
2029
2031
2032
2031
2030
2030
2031
2033
2034
2035
2035
2035
2034
2034
2033
2033
2033
2034
2035
2036
2036
2035
2034
2035
2036
2037
2038
2038
2039
2039
2039
2039
2038
2037
2036
2036
2036
2037
2038
2038
2038
2038
2037
2037
2037
2038
2038
2039
2039
2039
2038
2037
2036
2036
2036
2037
2038
2039
2039
2040
2039
2040
2040
2040
2040
2040
2040
2040
2040
2040
2040
2039
2039
2038
2037
2037
2036
2036
2036
2037
2039
2041
2043
2045
2045
2045
2046
2046
2048
2048
2049
2049
2048
2047
2045
2042
2040
2037
2036
2035
2035
2035
2036
2035
2034
2034
2034
2035
2035
2036
2036
2035
2035
2035
2035
2035
2036
2036
2037
2037
2038
2039
2039
2038
2035
2031
2026
2022
2022
2033
2056
2101
2159
2212
2237
2219
2163
2093
2040
2019
2029
2050
2065
2068
2059
2048
2043
2041
2039
2038
2037
2037
2037
2037
2038
2038
2039
2040
2041
2042
2043
2043
2043
2044
2045
2046
2047
2048
2048
2048
2049
2050
2051
2051
2050
2048
2047
2047
2048
2050
2053
2056
2058
2061
2064
2067
2071
2075
2080
2086
2093
2100
2106
2111
2115
2119
2122
2126
2129
2131
2133
2133
2132
2129
2124
2117
2108
2097
2086
2073
2062
2052
2045
2038
2033
2029
2026
2025
2024
2023
2023
2022
2022
2021
2021
2022
2023
2025
2025
2025
2023
2022
2021
2021
2023
2024
2026
2027
2026
2025
2025
2027
2031
2035
2039
2041
2041
2041
2041
2041
2041
2039
2037
2035
2033
2032
2033
2034
2035
2035
2034
2034
2034
2034
2034
2034
2035
2036
2037
2038
2037
2036
2034
2032
2031
2030
2029
2029
2029
2029
2029
2029
2028
2028
2027
2026
2027
2027
2028
2029
2030
2030
2030
2029
2030
2030
2030
2030
2031
2031
2031
2031
2030
2030
2030
2030
2031
2032
2033
2033
2033
2033
2033
2033
2033
2033
2033
2033
2034
2033
2033
2032
2032
2032
2032
2034
2035
2037
2038
2039
2039
2039
2039
2038
2039
2040
2043
2047
2049
2053
2055
2056
2056
2056
2056
2056
2056
2057
2057
2058
2058
2059
2058
2058
2057
2057
2057
2058
2058
2058
2059
2059
2059
2059
2059
2059
2059
2059
2060
2061
2062
2062
2061
2061
2061
2061
2061
2062
2062
2063
2063
2062
2062
2062
2062
2062
2062
2062
2062
2062
2062
2061
2060
2059
2059
2059
2060
2062
2062
2063
2062
2062
2061
2060
2060
2060
2059
2058
2056
2053
2050
2048
2047
2046
2046
2047
2048
2048
2049
2050
2050
2051
2052
2053
2055
2056
2057
2056
2054
2051
2048
2047
2045
2044
2043
2042
2042
2043
2044
2046
2047
2047
2047
2047
2048
2049
2052
2054
2056
2056
2056
2054
2054
2054
2055
2056
2058
2058
2058
2058
2058
2059
2059
2059
2059
2058
2057
2056
2056
2056
2057
2058
2061
2064
2067
2067
2064
2056
2047
2038
2032
2037
2055
2095
2152
2212
2249
2249
2209
2148
2093
2063
2059
2070
2080
2080
2072
2062
2055
2052
2048
2046
2044
2043
2042
2043
2044
2045
2046
2046
2048
2048
2051
2053
2055
2056
2058
2059
2060
2059
2057
2055
2053
2053
2055
2057
2059
2062
2066
2070
2073
2076
2078
2079
2082
2084
2086
2088
2089
2090
2091
2094
2097
2102
2106
2110
2113
2116
2120
2123
2125
2128
2129
2130
2130
2129
2127
2123
2118
2112
2105
2097
2088
2080
2072
2065
2060
2057
2054
2050
2048
2044
2040
2037
2036
2036
2037
2037
2038
2039
2040
2041
2041
2041
2040
2040
2041
2042
2043
2044
2045
2044
2044
2043
2044
2044
2045
2046
2046
2047
2047
2047
2047
2046
2046
2046
2046
2047
2047
2047
2047
2046
2045
2045
2045
2045
2046
2046
2047
2047
2047
2047
2047
2046
2046
2046
2047
2047
2048
2048
2048
2047
2047
2046
2046
2046
2048
2049
2051
2052
2053
2054
2054
2055
2056
2057
2058
2059
2059
2060
2060
2060
2060
2060
2060
2060
2061
2061
2061
2061
2061
2061
2061
2062
2063
2064
2066
2066
2066
2066
2065
2065
2065
2065
2065
2065
2065
2065
2065
2065
2064
2064
2064
2064
2064
2064
2063
2061
2059
2057
2056
2056
2056
2057
2058
2059
2060
2061
2062
2063
2063
2064
2063
2064
2063
2063
2063
2064
2066
2069
2071
2071
2069
2066
2062
2060
2060
2062
2063
2064
2065
2065
2066
2066
2066
2066
2065
2063
2063
2063
2063
2063
2061
2058
2056
2054
2054
2055
2056
2056
2055
2055
2055
2054
2054
2054
2054
2054
2054
2055
2055
2055
2054
2054
2053
2053
2054
2054
2054
2055
2054
2054
2054
2054
2054
2053
2053
2053
2053
2054
2054
2054
2055
2055
2055
2055
2055
2055
2055
2056
2056
2055
2055
2054
2054
2053
2053
2054
2054
2055
2055
2055
2054
2054
2054
2054
2054
2054
2054
2054
2054
2054
2054
2054
2054
2054
2054
2053
2053
2052
2052
2052
2052
2054
2055
2057
2058
2059
2059
2060
2060
2060
2060
2060
2060
2060
2060
2059
2058
2058
2057
2057
2056
2056
2055
2055
2055
2056
2056
2057
2056
2055
2054
2053
2053
2053
2054
2054
2055
2055
2055
2056
2057
2058
2057
2054
2049
2043
2037
2034
2040
2058
2098
2157
2219
2259
2260
2220
2156
2095
2058
2049
2057
2066
2068
2062
2052
2047
2043
2039
2037
2037
2038
2040
2042
2044
2045
2046
2046
2046
2044
2041
2039
2038
2039
2041
2043
2045
2046
2046
2046
2046
2046
2047
2048
2048
2050
2051
2053
2054
2054
2053
2053
2054
2056
2058
2060
2063
2066
2068
2071
2074
2077
2080
2084
2089
2094
2099
2105
2109
2111
2111
2109
2107
2105
2103
2101
2098
2094
2088
2080
2073
2066
2060
2056
2051
2048
2046
2043
2040
2038
2037
2035
2034
2033
2033
2032
2032
2032
2031
2030
2029
2029
2029
2029
2029
2030
2030
2031
2031
2031
2031
2030
2029
2029
2029
2030
2032
2033
2034
2035
2034
2034
2033
2034
2034
2036
2038
2039
2040
2040
2040
2039
2038
2038
2038
2039
2040
2041
2041
2041
2040
2039
2039
2039
2039
2041
2042
2043
2043
2043
2043
2042
2042
2041
2041
2040
2040
2040
2040
2040
2041
2042
2042
2043
2044
2044
2045
2044
2044
2044
2043
2043
2043
2043
2043
2043
2044
2044
2045
2045
2045
2044
2044
2044
2043
2044
2044
2045
2046
2047
2047
2047
2046
2046
2045
2045
2045
2045
2045
2044
2044
2043
2042
2043
2044
2044
2045
2046
2047
2048
2048
2047
2047
2045
2045
2044
2045
2046
2046
2046
2046
2046
2046
2045
2045
2044
2044
2043
2043
2043
2042
2042
2042
2042
2042
2043
2043
2042
2042
2042
2044
2046
2047
2046
2046
2047
2052
2060
2068
2073
2073
2069
2063
2059
2058
2060
2061
2062
2063
2063
2063
2063
2063
2063
2062
2062
2063
2063
2064
2063
2063
2062
2062
2062
2062
2063
2063
2064
2065
2066
2066
2066
2065
2064
2064
2064
2065
2066
2066
2066
2065
2063
2060
2070
2078
2054
2010
1971
1958
2125
2440
2812
3082
3111
2879
2498
2140
1937
1907
1955
2017
2076
2036
1993
1915
1928
2060
2311
2590
2750
2699
2464
2179
1975
1900
1944
2005
2040
2013
1996
1981
1972
1980
2016
2076
2145
2200
2229
2231
2245
2221
2176
2129
2130
2205
2446
2768
3098
3334
3350
3148
2806
2511
2416
2519
2747
2895
2821
2440
2104
1927
2039
2354
2623
2677
2490
2235
2033
1946
1947
1970
1961
1892
1873
1877
1884
1887
1883
1876
1872
1870
1869
1870
1872
1874
1876
1878
1880
1882
1884
1886
1887
1888
1889
1891
1893
1896
1899
1901
1902
1904
1905
1907
1909
1911
1914
1916
1918
1920
1922
1923
1926
1928
1931
1934
1937
1940
1943
1947
1950
1953
1957
1961
1965
1969
1974
1979
1983
1988
1992
1996
1999
2002
2003
2003
2003
2001
1999
1996
1993
1989
1984
1978
1972
1966
1961
1957
1953
1950
1947
1944
1941
1940
1941
1943
1947
1952
1955
1957
1958
1958
1958
1959
1960
1962
1963
1965
1966
1970
1972
1963
1959
1964
1981
2008
2033
2041
2028
2002
1978
1963
1959
1962
1968
1963
1963
1964
1965
1967
1967
1968
1968
1968
1969
1970
1972
1975
1978
1979
1981
1981
1981
1980
1981
1982
1983
1984
1985
1986
1986
1986
1986
1987
1988
1988
1989
1990
1990
1991
1991
1992
1992
1993
1993
1993
1994
1995
1996
1997
1998
1998
2000
2001
2002
2002
2002
2002
2002
2002
2003
2003
2003
2003
2004
2004
2005
2006
2007
2007
2007
2007
2008
2008
2009
2009
2010
2010
2010
2010
2011
2011
2011
2011
2011
2012
2013
2014
2014
2014
2015
2015
2015
2016
2016
2015
2016
2016
2017
2018
2019
2019
2019
2019
2019
2020
2020
2021
2021
2022
2022
2022
2022
2022
2022
2023
2024
2024
2023
2022
2021
2020
2020
2021
2022
2022
2023
2023
2024
2025
2026
2027
2027
2028
2030
2031
2032
2033
2033
2033
2033
2032
2031
2030
2029
2029
2029
2029
2028
2028
2028
2030
2031
2033
2034
2034
2035
2035
2036
2036
2037
2038
2038
2037
2037
2036
2035
2034
2035
2035
2036
2037
2038
2038
2038
2038
2039
2040
2040
2040
2040
2040
2041
2043
2047
2049
2049
2047
2043
2040
2040
2043
2048
2051
2054
2055
2056
2057
2057
2057
2058
2058
2057
2056
2055
2054
2054
2054
2054
2053
2052
2051
2050
2049
2049
2048
2048
2049
2049
2049
2049
2049
2049
2050
2051
2052
2054
2055
2057
2059
2061
2061
2059
2055
2050
2046
2044
2053
2079
2113
2160
2211
2248
2262
2246
2204
2150
2099
2068
2059
2062
2069
2076
2070
2063
2059
2055
2052
2051
2051
2051
2051
2052
2053
2054
2055
2056
2058
2059
2061
2061
2062
2062
2063
2063
2062
2063
2063
2064
2065
2066
2066
2066
2065
2066
2085
2060
2041
2039
2071
2145
2233
2289
2279
2221
2124
2064
2050
2072
2132
2157
2167
2165
2146
2124
2112
2111
2116
2129
2125
2140
2140
2088
2033
2042
2142
2330
2533
2614
2532
2330
2125
2016
2012
2078
2133
2123
2066
2035
2017
2011
2023
2024
2026
2029
2031
2031
2029
2030
2031
2031
2030
2029
2027
2026
2025
2025
2027
2030
2033
2034
2034
2034
2035
2037
2037
2035
2030
2023
2017
2014
2015
2018
2020
2022
2023
2025
2027
2029
2030
2031
2031
2032
2032
2033
2032
2032
2033
2033
2034
2035
2035
2035
2036
2036
2037
2038
2037
2036
2036
2035
2036
2037
2037
2038
2037
2036
2037
2038
2039
2039
2039
2037
2036
2036
2038
2040
2041
2042
2043
2042
2042
2041
2041
2041
2042
2043
2043
2043
2043
2043
2042
2042
2042
2041
2040
2039
2038
2038
2037
2036
2033
2032
2031
2033
2036
2040
2043
2044
2045
2045
2044
2044
2044
2044
2044
2044
2044
2044
2043
2043
2042
2041
2041
2041
2042
2043
2043
2043
2042
2042
2041
2041
2042
2043
2044
2044
2045
2046
2046
2045
2044
2044
2045
2046
2046
2046
2045
2045
2045
2046
2046
2046
2046
2046
2046
2047
2047
2047
2047
2046
2046
2047
2048
2050
2053
2055
2057
2057
2058
2058
2058
2058
2057
2056
2055
2053
2053
2053
2052
2052
2051
2050
2049
2049
2048
2049
2049
2049
2049
2048
2048
2048
2047
2047
2048
2048
2049
2056
2076
2062
2010
1956
1987
2138
2395
2662
2815
2790
2655
2475
2352
2319
2355
2475
2677
2920
3154
3250
3143
2875
2564
2315
2218
2215
2256
2307
2309
2302
2293
2274
2251
2233
2227
2239
2227
2185
2149
2162
2270
2492
2785
3075
3295
3388
3471
3561
3681
3742
3618
3310
2926
2644
2602
2807
3131
3423
3595
3616
3544
3596
3757
3888
3909
3691
3230
2642
2115
1778
1650
1658
1709
1759
1716
1726
1760
1747
1749
1751
1752
1753
1757
1759
1762
1767
1769
1766
1760
1750
1738
1733
1718
1711
1682
1678
1703
1759
1829
1874
1869
1817
1750
1708
1682
1686
1700
1733
1748
1782
1806
1804
1780
1749
1729
1726
1732
1746
1750
1749
1753
1760
1790
1776
1757
1754
1783
1855
1943
2002
1993
1921
1829
1763
1744
1753
1792
1799
1795
1803
1813
1825
1836
1843
1846
1847
1847
1848
1855
1865
1875
1882
1884
1880
1871
1860
1854
1854
1862
1877
1896
1909
1880
1848
1848
1902
2009
2123
2182
2152
2050
1932
1852
1827
1842
1881
1892
1889
1895
1890
1880
1867
1873
1914
1969
2024
2053
2051
2030
2015
2026
2056
2091
2106
2112
2109
2105
2106
2066
2004
1937
1893
1889
1915
1943
1952
1934
1907
1888
1883
1888
1905
1894
1897
1893
1909
1929
1962
1997
2025
2040
2032
2000
1952
1910
1902
1893
1918
1933
1947
1938
1928
1918
1912
1912
1916
1920
1922
1922
1925
1928
1929
1928
1924
1922
1925
1931
1940
1947
1949
1948
1945
1945
1945
1948
1951
1954
1957
1960
1963
1964
1965
1966
1962
1956
1951
1948
1950
1966
1998
2047
2099
2137
2139
2102
2039
1976
1937
1933
1954
1979
1991
1991
1983
1973
1968
1966
1964
1967
1974
1982
1987
1987
1983
1981
1982
1985
1994
2000
2003
2006
2007
2006
2004
2003
2000
1995
1993
1994
1998
2005
2016
2024
2027
2026
2022
2017
2013
2013
2016
2023
2033
2043
2049
2051
2049
2048
2048
2053
2060
2069
2076
2084
2092
2100
2107
2113
2120
2125
2128
2128
2124
2118
2109
2099
2087
2074
2059
2048
2036
2024
2013
2003
1997
1996
1999
2006
2012
2014
2013
2007
1999
1991
1986
1987
1993
2004
2012
2017
2016
2013
2008
2005
2003
2001
2000
2001
2003
2007
2008
2008
2002
1996
1993
1993
1994
1997
1998
1997
1997
1999
2002
2005
2006
2005
2004
2003
2003
2004
2007
2011
2017
2024
2028
2031
2031
2031
2032
2032
2033
2036
2036
2036
2036
2036
2035
2035
2034
2033
2033
2032
2031
2030
2029
2028
2027
2027
2033
2029
2027
2006
1983
1987
2021
2176
2435
2752
3017
3105
2994
2683
2301
1994
1886
1987
2251
2596
2887
3123
3293
3381
3367
3226
2966
2587
2184
1891
1790
1898
2163
2493
2808
3027
3184
3272
3321
3366
3426
3481
3527
3566
3598
3623
3644
3664
3691
3721
3756
3787
3813
3835
3853
3869
3880
3886
3886
3883
3882
3885
3890
3895
3899
3901
3902
3902
3901
3896
3890
3880
3874
3870
3872
3880
3890
3899
3911
3922
3928
3923
3903
3870
3838
3817
3814
3823
3835
3838
3833
3819
3808
3799
3791
3783
3775
3766
3741
3687
3718
3839
3959
3943
3603
2919
2046
1271
828
769
959
1201
1363
1352
1296
1231
1143
1056
966
901
877
885
908
931
945
952
963
975
988
1004
1020
1034
1045
1055
1067
1082
1099
1117
1133
1145
1154
1164
1175
1187
1200
1212
1221
1230
1238
1246
1253
1258
1260
1257
1252
1243
1235
1230
1228
1231
1234
1237
1242
1246
1247
1248
1253
1268
1294
1325
1349
1358
1351
1337
1324
1321
1327
1339
1366
1353
1334
1336
1368
1444
1537
1597
1609
1549
1461
1381
1384
1471
1638
1794
1869
1891
1769
1601
1505
1521
1662
1834
1935
1912
1734
1550
1434
1441
1525
1668
1736
1690
1616
1536
1487
1479
1494
1548
1545
1515
1503
1513
1568
1657
1734
1764
1731
1671
1624
1611
1618
1628
1632
1603
1594
1597
1605
1614
1614
1619
1625
1630
1634
1636
1636
1637
1640
1643
1645
1647
1649
1653
1656
1658
1658
1658
1660
1665
1674
1683
1691
1696
1698
1699
1698
1699
1701
1704
1708
1712
1717
1721
1725
1728
1731
1735
1738
1742
1746
1748
1752
1759
1768
1781
1796
1808
1815
1809
1736
1721
1815
1966
2135
2295
2351
2339
2335
2412
2551
2766
3055
3351
3503
3473
3219
2726
2160
1773
1605
1622
1713
1805
1798
1706
1651
1650
1772
2035
2399
2759
3010
3173
3290
3398
3479
3482
3323
3016
2673
2404
2270
2234
2265
2313
2316
2287
2205
2058
1878
1719
1626
1603
1623
1652
1671
1663
1660
1663
1667
1672
1678
1684
1688
1692
1696
1700
1703
1707
1710
1713
1717
1722
1728
1735
1740
1745
1749
1752
1757
1763
1770
1779
1787
1795
1802
1808
1816
1824
1830
1837
1844
1851
1855
1857
1856
1852
1849
1846
1845
1840
1836
1829
1819
1811
1805
1801
1797
1794
1792
1789
1788
1786
1786
1788
1791
1794
1796
1797
1798
1800
1804
1808
1811
1813
1815
1818
1820
1824
1826
1828
1830
1833
1836
1838
1840
1843
1845
1847
1850
1852
1853
1856
1858
1861
1863
1866
1867
1867
1868
1870
1872
1875
1877
1879
1880
1882
1884
1886
1888
1890
1892
1893
1894
1895
1896
1898
1899
1900
1901
1903
1906
1908
1911
1913
1914
1914
1915
1915
1915
1915
1917
1918
1921
1923
1925
1926
1927
1928
1930
1932
1934
1935
1935
1935
1935
1936
1937
1938
1939
1941
1943
1944
1946
1947
1947
1947
1946
1946
1946
1946
1947
1948
1949
1951
1951
1951
1951
1951
1952
1954
1956
1958
1960
1962
1962
1962
1961
1962
1964
1966
1968
1969
1968
1968
1967
1968
1969
1970
1971
1973
1975
1976
1978
1979
1979
1978
1977
1977
1977
1977
1977
1978
1979
1980
1981
1980
1980
1980
1981
1983
1985
1986
1984
1983
1981
1981
1982
1983
1984
1984
1985
1986
1987
1987
1987
1986
1986
1987
1988
1991
1992
1992
1992
1992
1992
1993
1994
1995
1997
1998
1999
1999
1997
1997
1997
1998
1999
1999
1999
2000
2001
2002
2003
2005
2007
2008
2008
2008
2007
2007
2008
2009
2010
2011
2011
2011
2010
2010
2011
2012
2013
2014
2015
2015
2016
2017
2018
2019
2019
2018
2017
2018
2019
2021
2023
2023
2023
2023
2022
2021
2021
2021
2021
2022
2022
2023
2023
2023
2023
2023
2024
2025
2025
2025
2024
2023
2022
2023
2024
2025
2027
2027
2027
2028
2028
2028
2029
2030
2032
2035
2037
2039
2040
2039
2038
2037
2036
2036
2036
2036
2036
2036
2037
2037
2038
2038
2038
2038
2038
2038
2038
2039
2039
2039
2039
2040
2041
2041
2042
2042
2042
2041
2040
2036
2030
2026
2022
2024
2037
2066
2117
2178
2225
2238
2211
2153
2093
2055
2046
2058
2074
2080
2075
2064
2055
2049
2045
2041
2038
2037
2038
2039
2040
2041
2041
2040
2040
2039
2040
2041
2042
2044
2046
2048
2048
2049
2050
2051
2051
2053
2054
2054
2054
2053
2051
2051
2053
2055
2057
2058
2059
2061
2064
2067
2071
2074
2077
2080
2083
2086
2089
2092
2096
2100
2104
2109
2113
2117
2121
2123
2125
2125
2124
2121
2115
2108
2100
2092
2083
2075
2069
2063
2057
2052
2048
2044
2040
2038
2036
2035
2035
2034
2035
2035
2035
2035
2034
2034
2034
2036
2037
2039
2040
2040
2040
2039
2038
2038
2039
2039
2040
2041
2041
2041
2042
2044
2047
2050
2053
2054
2053
2051
2049
2049
2052
2055
2058
2060
2061
2060
2059
2059
2060
2060
2061
2061
2060
2059
2059
2059
2060
2060
2061
2061
2061
2061
2061
2061
2061
2061
2061
2062
2064
2065
2066
2067
2067
2066
2064
2062
2061
2060
2060
2061
2061
2060
2059
2058
2058
2059
2060
2061
2061
2061
2060
2060
2060
2060
2060
2061
2061
2061
2060
2060
2060
2061
2063
2067
2070
2072
2071
2067
2062
2057
2053
2051
2049
2049
2048
2048
2046
2045
2043
2042
2042
2041
2041
2041
2041
2041
2040
2039
2038
2038
2038
2038
2038
2038
2038
2038
2038
2039
2040
2041
2041
2040
2040
2040
2040
2041
2043
2044
2044
2044
2044
2044
2043
2043
2042
2043
2044
2045
2045
2045
2045
2044
2044
2044
2045
2045
2046
2047
2048
2048
2048
2048
2048
2048
2048
2048
2048
2049
2050
2050
2050
2050
2050
2050
2049
2049
2050
2051
2052
2052
2052
2051
2050
2050
2050
2051
2052
2054
2054
2054
2052
2050
2048
2046
2045
2045
2045
2046
2046
2046
2047
2048
2048
2048
2048
2047
2046
2045
2045
2045
2046
2046
2045
2045
2044
2044
2044
2045
2047
2047
2047
2048
2048
2049
2050
2050
2050
2050
2050
2050
2050
2050
2049
2050
2050
2051
2052
2052
2052
2052
2052
2052
2052
2052
2052
2052
2053
2053
2054
2054
2054
2054
2054
2054
2055
2055
2054
2050
2045
2038
2029
2026
2035
2064
2119
2186
2241
2262
2238
2181
2118
2075
2060
2066
2077
2081
2076
2067
2059
2055
2052
2049
2047
2046
2046
2046
2047
2047
2048
2048
2048
2048
2048
2048
2048
2046
2045
2043
2042
2043
2043
2044
2045
2046
2046
2047
2047
2048
2048
2050
2052
2054
2056
2057
2059
2061
2063
2066
2069
2072
2075
2078
2081
2084
2088
2092
2097
2101
2106
2110
2113
2116
2119
2120
2121
2121
2120
2118
2113
2108
2101
2094
2086
2078
2071
2065
2059
2055
2051
2048
2045
2042
2039
2037
2036
2035
2036
2036
2036
2035
2034
2034
2033
2034
2034
2035
2035
2036
2036
2036
2036
2036
2036
2035
2035
2035
2035
2036
2036
2037
2038
2039
2039
2039
2039
2039
2039
2039
2040
2041
2041
2041
2041
2041
2042
2043
2044
2045
2045
2045
2045
2044
2044
2044
2044
2044
2045
2046
2046
2046
2045
2044
2042
2041
2041
2041
2042
2043
2045
2046
2048
2048
2049
2050
2049
2049
2049
2050
2051
2051
2050
2049
2048
2047
2047
2048
2049
2049
2049
2049
2050
2051
2052
2053
2054
2053
2052
2051
2051
2052
2052
2052
2052
2051
2050
2050
2052
2053
2055
2056
2057
2058
2059
2060
2061
2062
2062
2061
2060
2059
2058
2057
2056
2054
2053
2053
2053
2054
2054
2054
2054
2053
2053
2052
2052
2052
2052
2052
2052
2052
2053
2053
2053
2053
2053
2054
2054
2055
2056
2056
2055
2054
2054
2054
2055
2056
2058
2059
2059
2060
2059
2058
2057
2056
2054
2053
2050
2048
2046
2044
2043
2044
2044
2045
2046
2047
2048
2048
2049
2050
2050
2050
2050
2050
2050
2049
2048
2048
2048
2048
2050
2052
2054
2055
2056
2056
2056
2056
2055
2054
2053
2052
2051
2051
2051
2051
2051
2050
2049
2048
2048
2047
2046
2045
2044
2045
2046
2048
2048
2048
2048
2048
2047
2046
2046
2047
2048
2050
2052
2054
2055
2055
2055
2053
2052
2052
2051
2051
2051
2050
2050
2050
2050
2049
2049
2048
2048
2048
2048
2049
2049
2049
2048
2048
2048
2048
2048
2050
2051
2053
2054
2055
2054
2054
2054
2054
2055
2055
2055
2054
2053
2051
2049
2048
2048
2049
2051
2053
2053
2053
2052
2051
2050
2050
2050
2050
2050
2051
2051
2052
2053
2054
2054
2055
2054
2052
2048
2041
2033
2027
2028
2047
2089
2156
2228
2278
2285
2246
2179
2113
2073
2062
2070
2079
2080
2073
2062
2055
2050
2047
2044
2043
2042
2042
2043
2045
2046
2047
2048
2048
2049
2051
2052
2052
2052
2050
2049
2049
2049
2050
2051
2052
2053
2053
2054
2054
2055
2057
2059
2061
2062
2062
2061
2062
2064
2067
2071
2075
2078
2080
2082
2084
2087
2091
2095
2101
2106
2110
2111
2112
2112
2113
2114
2116
2117
2116
2114
2111
2107
2102
2097
2091
2085
2079
2073
2068
2062
2056
2048
2042
2036
2032
2030
2030
2032
2033
2034
2035
2035
2036
2036
2036
2035
2034
2034
2034
2036
2038
2040
2041
2041
2040
2038
2037
2036
2035
2036
2036
2036
2037
2036
2036
2035
2035
2034
2034
2033
2034
2035
2037
2038
2039
2039
2039
2040
2040
2041
2041
2042
2042
2042
2043
2042
2042
2042
2042
2043
2044
2044
2044
2043
2043
2042
2042
2043
2044
2045
2046
2046
2046
2045
2044
2044
2044
2045
2046
2047
2048
2048
2048
2048
2048
2047
2046
2046
2046
2047
2048
2048
2048
2048
2047
2046
2046
2046
2048
2050
2052
2054
2055
2055
2055
2055
2055
2056
2056
2056
2057
2057
2057
2055
2054
2052
2050
2050
2051
2052
2054
2055
2056
2056
2055
2055
2055
2056
2057
2059
2060
2060
2061
2061
2062
2063
2064
2066
2068
2068
2068
2067
2067
2070
2073
2076
2077
2077
2077
2076
2075
2075
2075
2074
2074
2074
2073
2073
2073
2073
2072
2070
2068
2065
2063
2062
2061
2062
2063
2064
2065
2065
2065
2065
2065
2067
2068
2068
2068
2066
2066
2067
2069
2071
2071
2069
2065
2063
2061
2061
2061
2062
2063
2064
2067
2069
2071
2072
2072
2072
2072
2072
2073
2073
2072
2070
2067
2063
2060
2058
2058
2059
2059
2058
2057
2056
2056
2056
2057
2058
2059
2061
2063
2064
2063
2060
2056
2053
2054
2059
2064
2069
2071
2070
2068
2066
2063
2061
2058
2057
2057
2059
2061
2063
2064
2064
2064
2064
2065
2066
2067
2068
2067
2065
2061
2058
2054
2052
2051
2051
2052
2053
2055
2056
2057
2058
2059
2060
2060
2061
2061
2061
2061
2061
2061
2061
2061
2061
2060
2061
2063
2065
2066
2064
2059
2050
2042
2034
2031
2041
2069
2124
2193
2256
2288
2276
2226
2161
2108
2079
2075
2081
2085
2083
2077
2070
2066
2061
2057
2055
2055
2055
2057
2057
2058
2058
2058
2058
2058
2057
2054
2051
2049
2049
2050
2051
2052
2053
2054
2056
2059
2061
2062
2062
2060
2059
2060
2063
2069
2074
2077
2079
2080
2081
2082
2082
2082
2082
2098
2104
2080
2016
2015
2105
2311
2535
2661
2616
2442
2272
2221
2320
2492
2612
2601
2455
2291
2169
2086
2016
1961
1914
1978
2229
2607
2996
3209
3128
2788
2353
2006
1862
1870
1936
1998
2007
1973
1971
1970
1968
1964
1959
1956
1954
1953
1955
1958
1962
1966
1970
1972
1970
1967
1964
1962
1962
1963
1965
1966
1966
1966
1965
1964
1966
1972
1981
1990
1997
2001
2002
2001
2001
2002
2004
2003
2000
1993
1985
1978
1976
1981
1990
1999
2002
1999
1992
2002
1981
1977
1963
1981
2039
2124
2207
2241
2211
2130
2045
1990
1966
1986
1994
2013
2019
2026
2029
2023
2012
2002
1999
2001
2008
2027
2041
2027
1993
1966
1991
2112
2338
2622
2893
3094
3212
3274
3313
3356
3419
3466
3510
3543
3573
3605
3633
3640
3611
3548
3430
3249
3004
2707
2391
2105
1900
1790
1759
1777
1800
1808
1798
1794
1793
1793
1794
1794
1796
1796
1797
1797
1797
1798
1800
1801
1803
1804
1806
1808
1811
1814
1817
1820
1823
1825
1828
1831
1834
1836
1840
1843
1846
1847
1845
1839
1834
1827
1823
1822
1825
1832
1842
1854
1865
1867
1865
1863
1869
1886
1913
1938
1957
1965
1966
1963
1960
1961
1969
1973
1973
1963
1943
1916
1892
1876
1872
1875
1881
1886
1889
1892
1895
1897
1896
1893
1889
1887
1886
1887
1890
1892
1895
1897
1899
1902
1904
1906
1906
1907
1907
1909
1912
1916
1919
1921
1921
1921
1921
1922
1924
1926
1929
1932
1936
1940
1942
1945
1951
1959
1969
1975
1977
1972
1964
1955
1950
1949
1951
1955
1958
1959
1960
1959
1958
1957
1957
1958
1959
1959
1959
1960
1961
1962
1964
1965
1966
1965
1965
1964
1964
1966
1968
1969
1968
1963
1956
1949
1944
1946
1962
1997
2052
2116
2163
2175
2145
2084
2022
1979
1964
1971
1983
1988
1985
1977
1971
1968
1965
1964
1964
1965
1966
1967
1968
1970
1971
1972
1973
1974
1975
1977
1979
1980
1982
1983
1983
1984
1985
1986
1987
1989
1990
1992
1994
1996
1999
2001
2004
2006
2009
2011
2014
2016
2018
2021
2024
2027
2030
2033
2037
2041
2046
2051
2056
2061
2064
2068
2070
2072
2073
2072
2071
2070
2069
2069
2067
2064
2059
2054
2048
2043
2037
2032
2027
2022
2019
2015
2011
2008
2005
2003
2002
2003
2003
2003
2003
2002
2002
2002
2002
2003
2005
2006
2007
2007
2007
2007
2008
2008
2009
2010
2011
2012
2013
2013
2012
2011
2010
2010
2010
2011
2012
2013
2013
2013
2014
2014
2013
2013
2012
2012
2013
2013
2014
2015
2015
2015
2015
2015
2015
2014
2013
2013
2013
2013
2013
2013
2012
2012
2012
2013
2013
2013
2014
2014
2014
2014
2014
2015
2015
2016
2016
2017
2018
2018
2018
2017
2017
2016
2016
2016
2016
2017
2018
2019
2020
2021
2021
2021
2021
2021
2022
2023
2023
2024
2024
2024
2023
2023
2023
2023
2023
2023
2023
2023
2024
2024
2025
2025
2026
2026
2027
2027
2028
2028
2029
2029
2030
2030
2031
2032
2034
2036
2037
2038
2037
2037
2037
2036
2037
2037
2037
2036
2036
2035
2034
2034
2034
2034
2035
2036
2037
2038
2038
2037
2035
2034
2033
2032
2032
2033
2033
2034
2034
2035
2036
2036
2036
2035
2035
2034
2035
2036
2037
2037
2037
2037
2036
2037
2037
2038
2039
2040
2040
2040
2040
2040
2041
2041
2041
2041
2041
2041
2041
2041
2041
2041
2041
2041
2041
2041
2042
2042
2043
2043
2044
2044
2044
2044
2044
2045
2046
2046
2046
2046
2046
2045
2044
2043
2042
2042
2042
2043
2044
2046
2048
2048
2049
2049
2049
2050
2051
2052
2053
2053
2052
2051
2049
2048
2047
2047
2047
2047
2047
2047
2046
2046
2045
2045
2045
2045
2045
2045
2046
2046
2046
2045
2045
2044
2044
2044
2045
2046
2047
2046
2043
2037
2031
2026
2025
2035
2059
2104
2163
2216
2242
2228
2179
2116
2065
2041
2042
2053
2061
2061
2054
2046
2040
2035
2032
2030
2030
2031
2032
2033
2033
2034
2034
2034
2034
2035
2036
2036
2037
2038
2038
2038
2039
2039
2039
2040
2041
2042
2043
2044
2045
2046
2046
2046
2047
2048
2049
2052
2054
2056
2058
2060
2063
2066
2070
2074
2078
2082
2086
2091
2095
2099
2103
2107
2109
2110
2111
2111
2111
2111
2109
2107
2102
2097
2091
2084
2077
2070
2063
2057
2051
2046
2041
2037
2033
2030
2029
2028
2027
2028
2028
2029
2030
2030
2031
2031
2031
2032
2033
2033
2033
2033
2032
2032
2032
2032
2032
2033
2033
2034
2035
2036
2037
2037
2037
2037
2038
2038
2038
2039
2039
2040
2040
2041
2042
2043
2044
2044
2044
2043
2043
2042
2041
2041
2041
2041
2042
2042
2042
2042
2042
2041
2041
2040
2040
2040
2041
2041
2041
2041
2040
2040
2040
2040
2040
2040
2040
2041
2041
2041
2041
2041
2041
2041
2041
2042
2042
2043
2043
2043
2043
2043
2043
2043
2043
2043
2044
2044
2044
2044
2044
2044
2044
2044
2044
2044
2045
2045
2046
2046
2046
2046
2046
2046
2046
2046
2047
2047
2048
2048
2048
2048
2048
2047
2047
2047
2048
2048
2048
2049
2049
2048
2048
2048
2048
2048
2050
2052
2053
2054
2053
2052
2051
2051
2051
2051
2052
2052
2053
2053
2053
2053
2052
2052
2052
2052
2053
2053
2053
2053
2053
2052
2052
2052
2051
2052
2052
2053
2053
2053
2053
2053
2053
2053
2053
2053
2053
2053
2054
2054
2054
2053
2053
2053
2053
2053
2053
2053
2053
2053
2053
2053
2053
2053
2053
2053
2053
2053
2053
2052
2052
2051
2050
2050
2051
2053
2055
2057
2059
2059
2059
2059
2059
2060
2060
2061
2061
2060
2058
2057
2056
2055
2055
2055
2055
2054
2054
2054
2054
2055
2055
2055
2054
2054
2053
2053
2053
2053
2054
2054
2054
2054
2054
2055
2055
2053
2049
2044
2039
2037
2043
2059
2094
2146
2201
2238
2241
2205
2146
2089
2053
2046
2056
2068
2072
2068
2059
2054
2051
2049
2048
2047
2047
2047
2047
2048
2048
2048
2049
2049
2050
2050
2050
2050
2051
2051
2052
2053
2054
2055
2055
2056
2056
2057
2057
2059
2060
2061
2063
2064
2065
2067
2068
2069
2070
2072
2073
2076
2080
2083
2087
2090
2093
2096
2099
2103
2106
2110
2113
2115
2116
2118
2118
2119
2119
2119
2117
2114
2110
2104
2097
2090
2083
2075
2068
2062
2057
2053
2049
2047
2044
2042
2040
2039
2038
2038
2038
2038
2038
2038
2038
2038
2038
2038
2038
2038
2038
2039
2039
2040
2039
2039
2039
2038
2039
2040
2041
2042
2043
2043
2043
2042
2041
2040
2040
2040
2041
2041
2041
2042
2041
2041
2041
2040
2040
2040
2041
2041
2042
2042
2042
2041
2041
2040
2040
2040
2040
2041
2041
2042
2041
2041
2041
2041
2041
2041
2041
2042
2042
2042
2042
2042
2041
2041
2041
2042
2042
2042
2043
2043
2043
2043
2043
2042
2043
2043
2044
2045
2046
2046
2045
2045
2044
2044
2044
2044
2044
2045
2045
2045
2045
2045
2045
2045
2045
2045
2045
2046
2046
2047
2047
2046
2046
2046
2046
2046
2046
2047
2048
2048
2048
2048
2048
2048
2048
2048
2048
2049
2049
2049
2049
2048
2048
2048
2048
2048
2049
2049
2050
2050
2050
2049
2049
2048
2048
2048
2049
2049
2050
2050
2050
2050
2049
2049
2050
2050
2050
2050
2051
2051
2051
2050
2050
2050
2050
2050
2050
2051
2051
2051
2051
2050
2050
2049
2049
2050
2050
2051
2051
2051
2051
2051
2050
2050
2050
2050
2050
2050
2049
2049
2048
2048
2048
2050
2052
2054
2055
2056
2056
2057
2057
2058
2058
2058
2058
2057
2056
2055
2055
2054
2054
2054
2053
2053
2052
2052
2053
2053
2053
2054
2053
2053
2053
2053
2053
2053
2053
2053
2054
2054
2055
2056
2055
2052
2047
2042
2038
2038
2047
2069
2108
2162
2211
2237
2226
2181
2120
2069
2044
2045
2058
2070
2072
2066
2057
2053
2051
2049
2048
2048
2048
2048
2048
2048
2048
2048
2048
2049
2049
2049
2049
2049
2050
2050
2051
2052
2053
2054
2055
2056
2057
2057
2057
2058
2059
2060
2061
2063
2065
2066
2068
2069
2070
2072
2074
2076
2079
2083
2086
2090
2093
2097
2100
2103
2106
2110
2114
2117
2120
2122
2123
2124
2124
2122
2120
2116
2110
2104
2097
2090
2082
2074
2067
2061
2056
2051
2048
2045
2043
2041
2039
2038
2037
2037
2036
2037
2037
2038
2038
2038
2038
2038
2038
2038
2038
2038
2038
2038
2039
2039
2039
2039
2039
2039
2039
2039
2039
2040
2041
2041
2041
2041
2041
2040
2040
2041
2041
2041
2042
2042
2043
2043
2043
2042
2043
2043
2043
2044
2044
2044
2044
2044
2043
2043
2043
2043
2043
2043
2043
2043
2043
2043
2043
2042
2042
2042
2042
2042
2042
2042
2042
2042
2041
2041
2041
2041
2042
2042
2043
2043
2043
2043
2043
2043
2043
2043
2043
2044
2044
2045
2045
2044
2044
2044
2044
2044
2045
2045
2045
2045
2045
2045
2045
2045
2045
2045
2046
2046
2046
2047
2047
2046
2046
2046
2046
2046
2046
2047
2047
2047
2047
2047
2047
2047
2047
2047
2047
2047
2048
2048
2048
2048
2048
2048
2048
2048
2048
2048
2048
2048
2048
2048
2048
2048
2048
2048
2048
2049
2049
2050
2050
2050
2050
2051
2051
2051
2051
2052
2052
2052
2052
2052
2051
2051
2051
2051
2051
2052
2052
2052
2052
2052
2052
2051
2051
2051
2051
2052
2052
2052
2052
2051
2049
2048
2048
2048
2049
2051
2053
2054
2055
2054
2053
2053
2054
2055
2056
2056
2056
2055
2053
2052
2051
2050
2050
2050
2050
2050
2050
2049
2049
2048
2048
2048
2048
2048
2048
2049
2050
2051
2052
2052
2052
2053
2054
2054
2053
2050
2046
2041
2038
2042
2056
2087
2134
2188
2227
2234
2204
2147
2088
2049
2039
2048
2063
2071
2069
2062
2055
2053
2051
2049
2048
2048
2047
2048
2048
2049
2049
2049
2048
2048
2047
2047
2048
2048
2049
2050
2051
2052
2052
2053
2053
2053
2054
2055
2057
2059
2060
2061
2062
2063
2065
2066
2068
2070
2072
2074
2076
2079
2082
2084
2087
2090
2094
2098
2103
2108
2112
2115
2118
2121
2123
2124
2125
2125
2125
2123
2119
2115
2108
2101
2093
2084
2077
2070
2064
2058
2054
2049
2047
2044
2042
2041
2040
2039
2038
2037
2035
2034
2033
2032
2033
2033
2034
2035
2036
2037
2037
2038
2038
2038
2038
2038
2038
2038
2038
2039
2039
2038
2037
2036
2034
2033
2035
2037
2039
2041
2042
2042
2042
2042
2042
2042
2042
2042
2042
2042
2042
2043
2044
2044
2043
2042
2041
2041
2041
2041
2042
2043
2044
2044
2044
2043
2042
2041
2039
2039
2038
2038
2037
2037
2037
2037
2038
2039
2041
2042
2043
2043
2043
2043
2042
2042
2041
2041
2042
2043
2044
2044
2044
2043
2044
2044
2044
2044
2044
2045
2046
2048
2048
2048
2047
2046
2045
2045
2046
2047
2048
2048
2048
2048
2048
2048
2049
2050
2051
2052
2051
2050
2049
2048
2048
2048
2048
2048
2048
2048
2049
2050
2050
2050
2048
2048
2048
2048
2050
2051
2052
2052
2051
2050
2048
2046
2043
2042
2042
2043
2045
2045
2045
2045
2045
2045
2046
2048
2050
2052
2053
2053
2051
2048
2047
2046
2048
2050
2053
2053
2049
2043
2038
2036
2036
2036
2036
2034
2033
2033
2034
2034
2032
2029
2027
2027
2030
2034
2036
2038
2039
2041
2042
2044
2044
2043
2043
2042
2042
2042
2041
2040
2039
2038
2036
2032
2026
2019
2013
2011
2018
2040
2079
2137
2194
2228
2221
2173
2104
2043
2012
2014
2036
2057
2066
2062
2053
2047
2044
2043
2043
2044
2044
2044
2044
2044
2043
2043
2044
2046
2048
2050
2051
2052
2052
2052
2052
2054
2056
2058
2059
2061
2061
2061
2060
2059
2059
2060
2062
2064
2067
2069
2070
2072
2074
2076
2078
2082
2085
2090
2094
2099
2103
2107
2111
2116
2120
2124
2128
2131
2134
2136
2138
2138
2138
2135
2131
2125
2118
2109
2098
2087
2076
2066
2056
2048
2042
2036
2031
2027
2022
2019
2017
2015
2014
2013
2011
2009
2006
2004
2003
2002
2002
2002
2002
2002
2003
2004
2005
2006
2006
2007
2007
2007
2007
2008
2008
2009
2010
2011
2012
2013
2014
2014
2014
2014
2014
2014
2015
2015
2015
2015
2015
2015
2016
2016
2017
2018
2018
2018
2019
2019
2020
2021
2022
2023
2023
2024
2025
2026
2026
2026
2026
2025
2025
2025
2026
2026
2027
2027
2027
2027
2027
2027
2027
2027
2028
2028
2029
2029
2029
2030
2030
2029
2029
2028
2028
2028
2028
2028
2029
2029
2029
2029
2030
2031
2032
2033
2034
2035
2036
2038
2040
2041
2042
2043
2043
2044
2045
2046
2047
2046
2045
2044
2043
2042
2041
2040
2040
2040
2041
2043
2043
2043
2043
2042
2041
2042
2043
2045
2047
2048
2050
2050
2050
2048
2047
2045
2044
2046
2049
2052
2053
2051
2047
2042
2039
2044
2061
2095
2145
2195
2227
2224
2185
2124
2068
2038
2037
2054
2072
2080
2078
2069
2062
2058
2055
2053
2053
2053
2054
2055
2056
2056
2056
2057
2057
2057
2058
2058
2059
2059
2060
2060
2060
2060
2060
2061
2062
2063
2064
2065
2065
2066
2066
2066
2066
2066
2068
2070
2073
2075
2077
2079
2081
2084
2088
2092
2096
2100
2105
2109
2114
2119
2124
2127
2130
2131
2131
2132
2133
2133
2130
2126
2118
2110
2102
2093
2086
2077
2069
2062
2055
2049
2046
2042
2040
2038
2037
2036
2036
2036
2035
2034
2032
2030
2029
2028
2028
2029
2030
2030
2031
2032
2031
2031
2031
2032
2033
2036
2039
2042
2045
2046
2047
2047
2047
2047
2048
2049
2051
2051
2050
2048
2046
2045
2044
2044
2045
2045
2046
2047
2048
2050
2051
2052
2052
2052
2053
2053
2054
2055
2054
2054
2053
2053
2053
2053
2054
2055
2055
2054
2052
2051
2049
2048
2048
2048
2048
2049
2051
2052
2052
2053
2053
2053
2053
2053
2053
2053
2054
2055
2055
2054
2054
2053
2053
2053
2053
2054
2054
2054
2053
2053
2053
2053
2053
2054
2055
2055
2056
2056
2056
2055
2054
2053
2053
2053
2053
2053
2054
2054
2054
2053
2053
2052
2052
2052
2052
2051
2051
2051
2050
2049
2049
2048
2048
2049
2049
2050
2051
2051
2052
2053
2054
2055
2056
2058
2059
2060
2061
2060
2060
2060
2059
2059
2058
2057
2057
2057
2057
2059
2060
2061
2062
2064
2065
2066
2067
2067
2067
2066
2067
2067
2068
2067
2066
2064
2062
2061
2062
2062
2063
2063
2062
2061
2060
2059
2059
2060
2060
2061
2061
2061
2060
2060
2060
2060
2061
2061
2062
2062
2061
2061
2061
2061
2059
2057
2052
2047
2042
2040
2045
2063
2100
2155
2210
2244
2241
2200
2138
2083
2051
2047
2056
2066
2069
2063
2055
2050
2048
2046
2045
2044
2044
2044
2045
2045
2046
2047
2048
2048
2048
2049
2049
2049
2050
2050
2052
2053
2054
2055
2055
2055
2054
2054
2055
2056
2057
2059
2061
2063
2064
2065
2066
2068
2069
2071
2074
2078
2081
2084
2087
2091
2095
2100
2104
2108
2111
2113
2116
2118
2119
2121
2123
2124
2124
2123
2121
2117
2112
2105
2097
2089
2082
2075
2069
2063
2059
2055
2052
2050
2048
2048
2047
2046
2046
2045
2045
2045
2045
2045
2045
2045
2045
2045
2046
2046
2046
2047
2047
2047
2047
2047
2046
2046
2045
2045
2045
2045
2046
2046
2047
2047
2047
2046
2045
2045
2045
2045
2045
2045
2045
2044
2042
2041
2041
2041
2041
2041
2041
2041
2041
2041
2040
2040
2040
2039
2040
2040
2041
2042
2042
2042
2041
2041
2040
2040
2040
2041
2042
2042
2042
2042
2041
2041
2040
2040
2041
2041
2040
2039
2038
2037
2037
2037
2037
2038
2039
2039
2040
2040
2040
2040
2040
2040
2040
2041
2042
2044
2045
2046
2046
2047
2047
2047
2047
2048
2048
2048
2047
2047
2048
2048
2048
2046
2041
2034
2028
2028
2033
2042
2050
2056
2057
2057
2057
2057
2058
2059
2060
2061
2061
2061
2060
2059
2059
2059
2059
2059
2060
2061
2061
2060
2059
2057
2057
2058
2059
2060
2060
2060
2060
2061
2061
2060
2060
2059
2059
2058
2057
2055
2054
2052
2051
2050
2050
2051
2052
2053
2054
2054
2054
2054
2055
2055
2056
2057
2056
2055
2054
2052
2052
2053
2053
2054
2055
2055
2055
2054
2055
2056
2058
2060
2061
2061
2061
2062
2063
2064
2065
2066
2065
2065
2064
2063
2062
2061
2061
2061
2061
2061
2062
2062
2061
2060
2060
2059
2058
2058
2058
2058
2058
2058
2058
2059
2059
2059
2059
2059
2060
2061
2062
2062
2060
2056
2052
2049
2048
2055
2074
2111
2162
2213
2242
2235
2192
2131
2078
2051
2052
2068
2082
2085
2078
2068
2062
2059
2058
2058
2058
2059
2059
2060
2060
2059
2060
2060
2061
2063
2065
2067
2068
2068
2068
2067
2067
2067
2067
2068
2069
2070
2070
2071
2071
2071
2071
2073
2075
2077
2079
2080
2082
2084
2086
2088
2091
2094
2097
2101
2105
2109
2113
2117
2120
2124
2127
2130
2133
2136
2138
2140
2140
2140
2137
2134
2129
2122
2114
2106
2097
2089
2080
2072
2065
2058
2052
2048
2046
2044
2042
2041
2039
2038
2038
2037
2037
2036
2036
2036
2037
2037
2038
2038
2038
2038
2038
2038
2038
2038
2039
2039
2039
2039
2039
2039
2039
2039
2040
2041
2042
2043
2043
2043
2042
2041
2041
2041
2041
2041
2042
2042
2043
2043
2043
2042
2042
2042
2042
2042
2043
2043
2044
2044
2043
2043
2042
2041
2041
2041
2041
2041
2040
2040
2039
2039
2039
2039
2039
2039
2039
2040
2040
2040
2040
2040
2040
2040
2040
2041
2041
2041
2041
2041
2041
2040
2039
2038
2037
2035
2034
2034
2034
2036
2037
2037
2036
2034
2033
2034
2036
2038
2040
2041
2041
2041
2041
2041
2040
2039
2038
2036
2035
2035
2036
2036
2037
2037
2038
2039
2039
2039
2039
2039
2039
2039
2038
2038
2038
2039
2041
2042
2043
2043
2041
2040
2039
2038
2039
2039
2039
2039
2038
2037
2035
2035
2035
2035
2037
2038
2040
2042
2043
2045
2047
2048
2048
2048
2047
2046
2046
2045
2044
2042
2040
2039
2038
2038
2038
2038
2039
2039
2038
2038
2038
2038
2037
2037
2037
2037
2037
2038
2039
2040
2042
2043
2044
2044
2044
2044
2045
2045
2046
2045
2043
2039
2034
2029
2027
2032
2048
2081
2131
2185
2221
2224
2190
2133
2077
2044
2037
2048
2060
2065
2061
2052
2046
2044
2041
2039
2038
2037
2036
2036
2036
2036
2035
2035
2035
2035
2034
2034
2033
2032
2030
2029
2029
2029
2029
2030
2031
2032
2033
2033
2034
2035
2036
2037
2039
2042
2044
2047
2048
2049
2051
2053
2056
2060
2065
2069
2074
2078
2082
2086
2089
2093
2097
2100
2103
2105
2107
2109
2109
2108
2106
2102
2096
2089
2082
2075
2068
2060
2053
2047
2040
2035
2031
2028
2025
2024
2023
2022
2021
2020
2020
2020
2021
2021
2022
2023
2023
2024
2024
2025
2025
2025
2026
2028
2029
2031
2032
2033
2034
2035
2035
2036
2038
2039
2040
2041
2042
2043
2043
2044
2044
2044
2044
2045
2045
2046
2047
2047
2047
2047
2047
2047
2047
2047
2048
2048
2048
2048
2048
2048
2048
2048
2048
2048
2048
2048
2048
2048
2047
2047
2046
2046
2046
2046
2047
2047
2047
2047
2047
2047
2047
2047
2047
2047
2047
2047
2047
2048
2047
2047
2047
2046
2046
2046
2047
2047
2047
2048
2048
2048
2048
2047
2047
2047
2048
2048
2048
2048
2048
2048
2048
2048
2048
2048
2048
2048
2049
2049
2049
2048
2048
2048
2047
2046
2046
2046
2046
2047
2046
2046
2046
2046
2046
2046
2046
2046
2046
2047
2046
2046
2044
2042
2040
2039
2039
2040
2041
2043
2044
2044
2045
2045
2046
2047
2048
2048
2047
2045
2043
2040
2037
2035
2034
2034
2035
2035
2036
2035
2034
2034
2033
2032
2032
2032
2032
2032
2032
2032
2031
2030
2029
2028
2027
2027
2028
2028
2030
2031
2033
2034
2035
2036
2036
2037
2038
2039
2040
2041
2040
2039
2038
2037
2036
2036
2035
2035
2036
2036
2036
2036
2036
2035
2036
2037
2039
2040
2041
2041
2041
2041
2041
2041
2041
2040
2040
2041
2043
2045
2046
2045
2042
2036
2030
2026
2026
2037
2061
2105
2160
2208
2229
2212
2163
2102
2056
2037
2042
2054
2062
2061
2053
2046
2042
2040
2038
2037
2037
2038
2039
2040
2040
2041
2042
2042
2043
2044
2044
2045
2045
2045
2046
2046
2047
2048
2048
2049
2049
2051
2051
2053
2053
2054
2055
2056
2058
2060
2062
2064
2066
2068
2070
2071
2073
2076
2079
2082
2086
2090
2094
2098
2103
2107
2110
2113
2116
2118
2119
2121
2121
2120
2117
2113
2108
2102
2095
2088
2081
2073
2065
2058
2052
2048
2043
2040
2037
2035
2034
2033
2033
2033
2033
2032
2032
2032
2032
2032
2032
2031
2030
2029
2029
2028
2028
2027
2027
2027
2027
2028
2028
2028
2028
2028
2028
2029
2029
2030
2031
2031
2031
2031
2030
2030
2030
2031
2031
2031
2031
2032
2032
2033
2033
2032
2032
2032
2032
2032
2032
2033
2033
2032
2032
2032
2033
2033
2034
2034
2034
2033
2032
2032
2032
2033
2033
2033
2034
2035
2035
2035
2035
2035
2035
2035
2035
2035
2035
2036
2036
2037
2037
2037
2036
2036
2036
2036
2036
2037
2037
2037
2037
2037
2037
2037
2037
2038
2039
2040
2041
2041
2041
2041
2041
2041
2041
2041
2041
2042
2042
2043
2043
2043
2043
2043
2043
2044
2044
2045
2046
2047
2047
2047
2046
2046
2047
2047
2048
2048
2048
2047
2047
2047
2047
2047
2047
2047
2047
2047
2047
2047
2047
2046
2046
2045
2045
2045
2045
2045
2044
2044
2043
2042
2042
2043
2044
2046
2048
2049
2050
2051
2051
2052
2053
2053
2053
2052
2051
2051
2050
2050
2050
2050
2049
2049
2049
2049
2049
2050
2049
2049
2048
2047
2047
2046
2046
2046
2046
2046
2047
2047
2046
2046
2046
2046
2047
2047
2045
2042
2036
2031
2029
2033
2049
2082
2132
2186
2224
2227
2193
2133
2075
2040
2033
2047
2062
2069
2067
2059
2053
2051
2048
2047
2045
2043
2042
2043
2044
2045
2046
2047
2047
2047
2046
2046
2045
2046
2047
2048
2048
2050
2051
2052
2052
2053
2054
2054
2056
2057
2059
2060
2062
2063
2064
2065
2066
2068
2071
2074
2077
2081
2084
2088
2091
2096
2101
2106
2111
2116
2119
2122
2125
2128
2130
2132
2133
2133
2131
2128
2123
2116
2108
2098
2088
2078
2070
2064
2060
2059
2057
2056
2053
2050
2048
2047
2046
2046
2047
2048
2048
2048
2047
2047
2046
2046
2047
2047
2046
2044
2041
2037
2034
2033
2032
2033
2034
2035
2034
2034
2033
2034
2036
2040
2044
2047
2048
2048
2048
2048
2049
2051
2052
2052
2052
2052
2052
2053
2054
2054
2054
2054
2053
2053
2051
2051
2050
2050
2051
2052
2054
2055
2054
2053
2051
2050
2050
2050
2051
2052
2052
2052
2051
2051
2050
2050
2050
2050
2050
2051
2052
2053
2053
2052
2051
2050
2050
2050
2051
2051
2051
2051
2051
2052
2052
2052
2052
2052
2052
2051
2052
2051
2051
2051
2050
2049
2049
2048
2048
2049
2050
2050
2051
2050
2050
2050
2049
2049
2050
2050
2050
2050
2050
2050
2050
2049
2049
2048
2049
2049
2050
2050
2049
2049
2048
2048
2048
2048
2048
2048
2048
2048
2048
2047
2046
2045
2045
2046
2048
2050
2053
2054
2054
2054
2054
2055
2055
2056
2056
2055
2054
2053
2053
2052
2051
2050
2050
2049
2049
2049
2049
2048
2046
2041
2035
2030
2026
2025
2024
2025
2026
2029
2032
2036
2040
2044
2046
2047
2048
2047
2044
2039
2034
2031
2034
2048
2078
2126
2181
2223
2231
2199
2139
2077
2038
2028
2043
2061
2071
2071
2063
2055
2051
2049
2047
2045
2044
2044
2044
2044
2045
2046
2046
2047
2047
2046
2046
2046
2046
2048
2048
2047
2044
2041
2038
2038
2043
2048
2055
2059
2061
2061
2061
2063
2065
2067
2068
2067
2064
2061
2061
2065
2072
2081
2090
2097
2103
2109
2113
2118
2123
2127
2131
2135
2138
2141
2143
2144
2144
2142
2138
2133
2126
2117
2107
2097
2087
2078
2070
2063
2057
2052
2048
2045
2042
2040
2039
2038
2038
2038
2038
2038
2038
2038
2038
2037
2037
2037
2037
2038
2038
2038
2038
2038
2038
2037
2037
2037
2037
2038
2039
2039
2040
2040
2040
2040
2040
2041
2041
2042
2042
2042
2042
2042
2041
2041
2041
2041
2041
2042
2042
2043
2042
2040
2037
2035
2034
2033
2034
2035
2036
2037
2039
2040
2041
2041
2041
2042
2042
2042
2043
2044
2044
2044
2041
2037
2031
2026
2022
2021
2021
2021
2022
2022
2022
2022
2022
2023
2024
2025
2026
2026
2026
2026
2026
2025
2025
2026
2026
2026
2027
2027
2027
2027
2026
2026
2027
2027
2027
2028
2029
2030
2030
2029
2029
2028
2028
2029
2030
2031
2032
2032
2032
2032
2032
2032
2032
2032
2032
2033
2033
2033
2033
2033
2034
2034
2034
2035
2035
2035
2035
2036
2036
2036
2036
2035
2035
2036
2037
2037
2038
2038
2038
2038
2038
2037
2037
2036
2036
2036
2036
2036
2036
2037
2038
2039
2041
2043
2044
2044
2045
2046
2047
2047
2048
2047
2046
2045
2044
2044
2043
2043
2043
2043
2042
2042
2042
2042
2043
2043
2044
2043
2043
2042
2041
2041
2042
2043
2043
2044
2044
2044
2045
2045
2046
2046
2045
2041
2036
2031
2028
2031
2046
2077
2126
2182
2224
2232
2200
2142
2083
2046
2037
2048
2063
2070
2067
2058
2050
2047
2045
2043
2042
2044
2046
2048
2051
2053
2054
2056
2057
2058
2058
2059
2059
2059
2059
2060
2061
2062
2063
2063
2063
2063
2063
2064
2066
2069
2071
2072
2072
2069
2066
2065
2065
2066
2069
2072
2075
2078
2082
2085
2088
2092
2095
2098
2101
2104
2108
2113
2116
2119
2121
2122
2122
2123
2123
2122
2119
2113
2105
2097
2088
2079
2071
2063
2057
2051
2047
2043
2040
2038
2037
2036
2035
2034
2034
2034
2034
2036
2038
2040
2042
2042
2041
2041
2041
2042
2044
2046
2046
2044
2041
2037
2034
2033
2032
2032
2033
2034
2035
2036
2036
2036
2035
2036
2036
2036
2037
2038
2039
2039
2039
2039
2039
2039
2039
2039
2040
2040
2041
2042
2042
2042
2042
2041
2041
2041
2043
2047
2049
2052
2054
2054
2054
2053
2054
2054
2053
2051
2048
2045
2043
2041
2041
2041
2041
2041
2041
2041
2040
2040
2040
2040
2040
2040
2041
2041
2042
2043
2043
2044
2044
2045
2045
2045
2045
2045
2045
2045
2046
2047
2047
2047
2047
2047
2046
2046
2046
2046
2046
2047
2047
2047
2047
2047
2048
2048
2048
2048
2048
2046
2045
2045
2045
2045
2046
2046
2046
2046
2045
2045
2044
2044
2043
2042
2042
2044
2047
2051
2055
2057
2058
2057
2056
2055
2055
2056
2057
2058
2058
2058
2057
2057
2057
2058
2059
2059
2059
2059
2059
2060
2059
2059
2059
2059
2059
2058
2057
2056
2054
2052
2051
2049
2048
2048
2048
2048
2048
2049
2049
2049
2049
2048
2048
2047
2046
2047
2048
2048
2049
2051
2053
2056
2060
2063
2067
2069
2070
2071
2071
2071
2070
2069
2068
2066
2066
2065
2065
2066
2066
2066
2066
2065
2065
2064
2064
2064
2064
2064
2064
2064
2063
2063
2062
2062
2061
2061
2062
2064
2066
2066
2063
2057
2050
2045
2043
2048
2068
2108
2166
2225
2262
2261
2221
2158
2100
2066
2060
2071
2081
2083
2077
2067
2061
2058
2055
2054
2053
2053
2054
2054
2055
2055
2056
2056
2057
2057
2058
2058
2059
2060
2060
2061
2061
2061
2061
2062
2063
2064
2065
2066
2067
2067
2068
2069
2070
2071
2073
2075
2077
2079
2080
2082
2084
2086
2088
2091
2095
2099
2103
2107
2110
2113
2116
2119
2123
2125
2128
2129
2130
2129
2127
2124
2119
2113
2106
2098
2091
2084
2078
2071
2065
2060
2055
2052
2049
2048
2046
2046
2045
2045
2045
2045
2044
2044
2044
2044
2044
2045
2045
2046
2046
2045
2045
2045
2045
2045
2046
2047
2047
2047
2047
2046
2046
2046
2046
2045
2046
2046
2046
2047
2047
2047
2047
2047
2047
2047
2047
2048
2048
2048
2048
2048
2048
2048
2048
2048
2048
2049
2049
2049
2048
2048
2048
2048
2048
2048
2048
2048
2048
2048
2048
2048
2047
2047
2047
2047
2048
2048
2048
2049
2049
2049
2048
2048
2048
2048
2048
2049
2049
2049
2049
2049
2049
2049
2050
2050
2050
2050
2050
2051
2051
2050
2050
2049
2049
2049
2050
2050
2050
2051
2051
2051
2051
2051
2051
2051
2051
2051
2051
2051
2051
2050
2050
2050
2049
2049
2049
2049
2050
2050
2050
2050
2050
2050
2050
2051
2051
2051
2051
2051
2051
2051
2050
2050
2049
2048
2048
2048
2048
2049
2049
2049
2049
2048
2048
2047
2047
2047
2048
2048
2048
2048
2048
2048
2048
2048
2049
2050
2050
2050
2050
2050
2050
2050
2051
2051
2052
2051
2051
2050
2050
2051
2051
2051
2051
2050
2049
2048
2047
2045
2043
2042
2041
2042
2043
2044
2046
2048
2048
2048
2047
2044
2040
2037
2034
2032
2032
2032
2031
2031
2030
2029
2029
2029
2028
2027
2026
2027
2027
2028
2028
2028
2028
2027
2027
2028
2028
2029
2030
2031
2031
2030
2030
2031
2033
2035
2034
2031
2025
2019
2015
2018
2034
2065
2117
2175
2219
2228
2197
2139
2078
2039
2028
2038
2051
2057
2053
2045
2038
2036
2034
2032
2030
2028
2026
2026
2026
2027
2028
2029
2029
2030
2030
2031
2031
2032
2033
2035
2036
2036
2037
2038
2038
2039
2040
2041
2042
2043
2045
2047
2048
2049
2050
2052
2053
2055
2057
2060
2063
2067
2070
2074
2077
2080
2084
2089
2093
2098
2102
2106
2109
2111
2113
2114
2115
2116
2115
2113
2109
2103
2096
2087
2078
2069
2060
2052
2046
2040
2035
2031
2027
2024
2022
2021
2020
2019
2019
2019
2019
2019
2019
2020
2020
2020
2019
2019
2019
2019
2020
2020
2020
2019
2019
2019
2020
2021
2022
2022
2022
2021
2020
2019
2019
2020
2020
2020
2020
2021
2021
2022
2022
2022
2022
2022
2022
2023
2025
2026
2027
2028
2028
2029
2029
2029
2029
2029
2030
2031
2032
2032
2032
2032
2031
2031
2031
2031
2032
2033
2033
2033
2033
2032
2031
2031
2031
2031
2032
2033
2034
2034
2034
2034
2034
2034
2035
2035
2036
2036
2036
2037
2037
2037
2038
2038
2038
2038
2038
2038
2039
2039
2039
2039
2039
2039
2040
2040
2040
2041
2041
2042
2042
2041
2041
2041
2041
2041
2043
2044
2045
2046
2045
2045
2044
2044
2044
2045
2045
2046
2046
2047
2047
2046
2047
2048
2048
2049
2050
2051
2051
2051
2051
2050
2050
2050
2050
2050
2051
2052
2052
2052
2052
2051
2051
2051
2051
2051
2051
2051
2050
2050
2051
2051
2050
2050
2050
2050
2050
2050
2050
2050
2049
2049
2048
2048
2047
2046
2046
2046
2046
2047
2048
2048
2049
2050
2051
2051
2052
2053
2053
2054
2055
2055
2054
2053
2052
2051
2050
2050
2050
2050
2049
2048
2048
2048
2048
2048
2048
2049
2050
2050
2050
2050
2050
2049
2049
2049
2050
2050
2051
2052
2052
2053
2052
2050
2046
2040
2036
2034
2039
2057
2093
2147
2204
2241
2243
2206
2145
2088
2053
2048
2057
2068
2072
2066
2057
2051
2049
2047
2046
2046
2046
2046
2046
2046
2047
2047
2048
2048
2048
2049
2049
2050
2050
2050
2050
2050
2051
2052
2053
2054
2055
2055
2056
2056
2057
2058
2059
2061
2062
2064
2065
2067
2068
2070
2072
2074
2077
2080
2083
2087
2090
2094
2097
2101
2105
2109
2112
2116
2119
2121
2122
2123
2122
2120
2117
2113
2107
2100
2093
2085
2077
2069
2062
2055
2050
2047
2043
2041
2039
2037
2036
2035
2034
2033
2033
2032
2032
2033
2034
2034
2035
2034
2034
2034
2034
2034
2035
2035
2035
2036
2036
2036
2035
2035
2035
2035
2035
2036
2036
2037
2037
2037
2037
2037
2037
2037
2037
2038
2038
2038
2039
2039
2039
2039
2039
2039
2040
2041
2042
2042
2042
2043
2043
2043
2042
2042
2041
2041
2041
2042
2042
2043
2043
2043
2042
2042
2042
2042
2042
2043
2043
2042
2041
2040
2040
2040
2041
2041
2041
2041
2040
2040
2040
2040
2041
2041
2042
2042
2042
2043
2043
2043
2043
2043
2043
2043
2044
2044
2044
2044
2044
2044
2044
2044
2044
2043
2043
2043
2043
2043
2043
2043
2043
2043
2043
2044
2045
2045
2045
2045
2045
2045
2045
2045
2046
2046
2047
2047
2047
2047
2047
2047
2047
2047
2047
2047
2047
2047
2047
2047
2048
2048
2047
2047
2047
2047
2047
2047
2048
2048
2048
2047
2047
2046
2046
2046
2047
2048
2048
2048
2048
2048
2047
2047
2047
2047
2047
2047
2047
2047
2047
2046
2045
2045
2044
2043
2043
2044
2045
2047
2048
2049
2050
2050
2051
2051
2052
2053
2054
2054
2054
2053
2051
2050
2050
2049
2049
2049
2049
2049
2049
2049
2048
2048
2048
2048
2048
2049
2049
2049
2049
2049
2048
2048
2048
2048
2049
2050
2051
2052
2051
2048
2043
2037
2033
2034
2045
2070
2114
2170
2217
2236
2216
2165
2103
2056
2039
2045
2060
2070
2070
2062
2053
2048
2047
2044
2043
2043
2043
2043
2044
2044
2044
2044
2044
2044
2045
2046
2046
2047
2047
2048
2048
2048
2048
2048
2050
2051
2052
2053
2054
2055
2056
2056
2057
2058
2060
2062
2064
2066
2068
2071
2073
2075
2078
2082
2086
2091
2096
2100
2104
2107
2109
2111
2114
2116
2119
2121
2123
2124
2123
2121
2117
2111
2104
2097
2088
2080
2072
2064
2057
2050
2046
2041
2038
2035
2034
2033
2032
2031
2031
2031
2030
2030
2029
2029
2029
2030
2030
2031
2031
2031
2030
2029
2029
2029
2029
2029
2030
2030
2030
2030
2030
2030
2031
2031
2032
2033
2033
2034
2034
2034
2034
2034
2035
2035
2036
2036
2037
2038
2038
2038
2038
2038
2038
2038
2038
2039
2039
2040
2040
2040
2039
2039
2039
2039
2040
2040
2040
2041
2040
2040
2040
2040
2039
2039
2040
2041
2042
2043
2044
2044
2043
2043
2043
2043
2044
2044
2045
2045
2045
2045
2045
2045
2045
2045
2046
2046
2046
2047
2047
2047
2047
2047
2047
2047
2047
2047
2047
2048
2048
2048
2048
2048
2048
2048
2049
2050
2050
2050
2050
2049
2049
2048
2048
2048
2049
2049
2049
2049
2048
2048
2048
2048
2048
2049
2049
2050
2050
2050
2050
2050
2050
2050
2050
2050
2050
2051
2051
2051
2051
2051
2051
2051
2051
2051
2051
2051
2051
2051
2051
2051
2051
2050
2050
2050
2050
2051
2051
2052
2052
2051
2051
2051
2050
2051
2051
2052
2052
2052
2052
2052
2051
2051
2051
2051
2051
2052
2052
2052
2051
2050
2050
2049
2049
2048
2049
2050
2051
2053
2055
2055
2056
2056
2056
2056
2057
2058
2059
2059
2058
2057
2056
2055
2054
2053
2053
2054
2054
2054
2054
2054
2053
2053
2053
2053
2053
2053
2053
2053
2053
2053
2052
2052
2052
2052
2052
2054
2056
2056
2055
2052
2047
2042
2037
2037
2047
2071
2114
2172
2223
2249
2236
2188
2125
2074
2050
2051
2064
2073
2073
2066
2057
2052
2049
2048
2047
2047
2047
2048
2048
2048
2048
2048
2048
2049
2050
2051
2051
2052
2052
2053
2053
2053
2053
2053
2054
2055
2056
2057
2058
2059
2059
2060
2060
2062
2063
2065
2067
2069
2071
2073
2075
2077
2080
2083
2087
2091
2095
2099
2103
2107
2110
2113
2116
2119
2122
2124
2126
2126
2126
2124
2120
2115
2108
2101
2094
2086
2079
2072
2065
2059
2053
2049
2046
2044
2042
2040
2039
2038
2038
2037
2037
2037
2037
2037
2037
2037
2038
2038
2038
2039
2039
2039
2039
2039
2039
2039
2039
2040
2040
2040
2039
2039
2039
2039
2040
2040
2041
2041
2041
2041
2040
2040
2041
2041
2041
2041
2042
2042
2042
2043
2043
2043
2043
2043
2043
2043
2043
2043
2043
2043
2043
2043
2042
2043
2043
2043
2044
2044
2043
2043
2043
2043
2043
2043
2043
2044
2044
2044
2043
2043
2043
2043
2043
2044
2044
2044
2044
2044
2043
2043
2043
2043
2043
2043
2043
2044
2044
2045
2045
2045
2045
2044
2044
2044
2045
2045
2045
2045
2045
2045
2044
2044
2044
2045
2045
2046
2046
2046
2046
2046
2046
2046
2046
2046
2046
2047
2047
2047
2047
2046
2046
2046
2046
2047
2048
2048
2048
2048
2048
2048
2048
2047
2047
2047
2048
2048
2048
2048
2048
2048
2048
2047
2047
2046
2047
2047
2048
2048
2048
2048
2048
2047
2047
2046
2045
2045
2046
2046
2046
2045
2044
2043
2043
2042
2043
2043
2044
2046
2048
2050
2051
2051
2051
2051
2052
2053
2055
2055
2054
2053
2052
2050
2050
2049
2048
2048
2049
2050
2050
2050
2050
2049
2048
2049
2051
2052
2052
2052
2051
2050
2050
2049
2049
2049
2050
2051
2052
2052
2050
2046
2040
2036
2036
2046
2069
2112
2167
2218
2240
2224
2173
2109
2060
2042
2050
2070
2085
2090
2084
2075
2068
2063
2057
2052
2049
2048
2049
2051
2051
2052
2053
2056
2059
2063
2065
2067
2069
2070
2071
2071
2071
2071
2072
2073
2074
2075
2076
2077
2078
2079
2079
2080
2081
2083
2086
2088
2091
2094
2097
2099
2102
2104
2107
2111
2115
2120
2125
2129
2133
2137
2141
2145
2149
2152
2153
2154
2154
2153
2151
2147
2141
2133
2124
2114
2104
2094
2084
2076
2069
2063
2058
2053
2049
2046
2045
2044
2044
2044
2044
2043
2042
2042
2042
2042
2043
2043
2043
2043
2043
2043
2042
2042
2042
2042
2042
2043
2044
2044
2043
2042
2042
2041
2042
2042
2043
2043
2043
2043
2043
2043
2043
2043
2043
2043
2044
2044
2044
2044
2044
2044
2043
2043
2043
2043
2043
2044
2045
2045
2045
2044
2044
2043
2043
2043
2043
2043
2043
2043
2043
2043
2043
2043
2043
2043
2043
2043
2043
2043
2043
2044
2043
2043
2043
2042
2041
2040
2040
2039
2039
2038
2037
2036
2035
2035
2035
2036
2036
2036
2036
2036
2035
2035
2034
2034
2033
2034
2034
2035
2035
2034
2034
2034
2034
2034
2034
2034
2035
2035
2035
2036
2036
2036
2036
2037
2038
2039
2040
2040
2040
2040
2040
2039
2040
2040
2040
2041
2041
2041
2041
2040
2039
2038
2037
2037
2037
2038
2038
2039
2039
2039
2038
2037
2037
2036
2037
2039
2041
2044
2045
2046
2046
2045
2046
2047
2048
2049
2049
2049
2048
2047
2046
2046
2045
2045
2045
2045
2045
2045
2045
2045
2045
2044
2044
2044
2045
2045
2045
2046
2045
2045
2045
2045
2045
2046
2047
2048
2049
2049
2048
2045
2038
2032
2027
2030
2044
2074
2123
2179
2221
2229
2198
2141
2083
2046
2037
2048
2063
2070
2067
2058
2051
2048
2045
2043
2043
2043
2043
2044
2044
2044
2044
2044
2043
2043
2042
2043
2043
2044
2045
2046
2046
2046
2047
2048
2048
2049
2051
2053
2055
2056
2057
2058
2059
2062
2064
2067
2069
2071
2071
2072
2072
2074
2078
2082
2086
2090
2094
2099
2103
2108
2112
2116
2120
2123
2124
2126
2126
2126
2124
2121
2117
2110
2103
2094
2086
2077
2069
2061
2055
2050
2047
2044
2042
2039
2037
2036
2035
2036
2035
2035
2033
2030
2029
2028
2028
2029
2029
2029
2029
2028
2028
2028
2029
2029
2030
2030
2030
2030
2030
2031
2031
2032
2033
2034
2035
2035
2036
2036
2036
2035
2034
2033
2034
2034
2035
2036
2036
2036
2036
2036
2035
2036
2036
2037
2039
2040
2042
2042
2042
2041
2041
2041
2041
2041
2041
2042
2042
2042
2042
2041
2041
2041
2041
2041
2042
2042
2043
2043
2043
2043
2043
2043
2043
2043
2043
2043
2043
2042
2041
2041
2041
2041
2041
2042
2042
2043
2043
2043
2043
2043
2043
2043
2043
2043
2044
2044
2044
2045
2045
2045
2045
2045
2044
2044
2044
2045
2046
2047
2047
2046
2046
2045
2046
2046
2046
2047
2047
2047
2047
2047
2047
2047
2047
2048
2049
2050
2050
2050
2050
2050
2049
2049
2049
2049
2049
2050
2050
2050
2050
2050
2049
2049
2049
2049
2050
2050
2050
2051
2050
2050
2050
2050
2050
2050
2050
2051
2051
2051
2051
2051
2051
2050
2050
2050
2051
2051
2051
2052
2051
2051
2051
2050
2050
2049
2049
2049
2049
2049
2050
2051
2052
2053
2054
2055
2056
2056
2057
2057
2058
2058
2058
2057
2057
2055
2055
2054
2054
2054
2053
2053
2053
2052
2052
2052
2053
2053
2053
2053
2053
2053
2052
2052
2052
2052
2053
2053
2054
2054
2055
2056
2056
2054
2051
2046
2041
2037
2037
2047
2071
2116
2176
2229
2255
2241
2191
2128
2077
2052
2053
2065
2073
2072
2064
2056
2053
2050
2048
2048
2048
2047
2047
2047
2047
2048
2048
2049
2050
2051
2051
2051
2051
2051
2052
2053
2053
2054
2055
2055
2056
2056
2057
2057
2058
2059
2060
2062
2063
2065
2066
2068
2069
2070
2072
2074
2077
2080
2084
2088
2091
2094
2098
2101
2105
2109
2113
2117
2120
2123
2124
2125
2125
2125
2122
2119
2115
2109
2102
2094
2085
2077
2069
2063
2057
2052
2048
2046
2044
2042
2040
2039
2038
2037
2037
2037
2037
2038
2038
2038
2038
2038
2038
2038
2038
2038
2039
2039
2039
2040
2040
2040
2039
2039
2039
2038
2039
2039
2039
2040
2040
2040
2040
2039
2039
2039
2039
2040
2040
2041
2041
2041
2042
2043
2043
2044
2044
2044
2044
2044
2044
2044
2044
2043
2043
2043
2044
2044
2044
2045
2045
2045
2045
2045
2044
2044
2045
2045
2046
2046
2046
2046
2045
2045
2045
2046
2046
2046
2047
2047
2047
2047
2047
2047
2047
2047
2048
2048
2048
2048
2048
2048
2048
2048
2048
2048
2048
2048
2048
2048
2048
2049
2049
2049
2049
2049
2048
2048
2048
2049
2049
2049
2048
2048
2048
2048
2048
2049
2049
2049
2050
2049
2049
2049
2049
2049
2049
2050
2050
2050
2050
2050
2049
2048
2048
2048
2049
2050
2051
2050
2049
2049
2048
2049
2051
2053
2054
2055
2055
2055
2055
2056
2055
2054
2051
2049
2048
2048
2047
2048
2048
2048
2048
2048
2048
2048
2048
2047
2046
2046
2046
2046
2046
2045
2045
2044
2044
2045
2046
2048
2048
2048
2049
2048
2049
2050
2051
2053
2054
2054
2053
2052
2051
2050
2050
2050
2050
2049
2049
2049
2049
2049
2048
2048
2048
2048
2048
2049
2049
2049
2049
2049
2049
2049
2049
2049
2050
2050
2051
2052
2051
2049
2045
2039
2034
2032
2039
2056
2092
2145
2201
2238
2239
2202
2140
2082
2048
2043
2054
2068
2073
2068
2058
2051
2048
2046
2045
2045
2045
2046
2046
2046
2046
2045
2045
2045
2046
2047
2048
2048
2048
2049
2049
2049
2050
2051
2052
2053
2054
2055
2056
2057
2058
2059
2060
2061
2063
2065
2067
2069
2071
2073
2076
2078
2081
2085
2089
2093
2097
2102
2106
2110
2114
2118
2122
2125
2129
2132
2134
2135
2134
2132
2128
2123
2116
2108
2099
2090
2081
2072
2064
2056
2050
2045
2041
2038
2036
2035
2034
2033
2033
2032
2032
2031
2031
2031
2031
2032
2032
2032
2033
2032
2032
2032
2032
2032
2032
2033
2033
2033
2033
2033
2032
2032
2033
2033
2033
2034
2034
2035
2035
2035
2035
2035
2035
2035
2036
2036
2037
2037
2037
2038
2038
2038
2038
2038
2039
2039
2039
2039
2039
2039
2038
2038
2038
2038
2039
2039
2039
2039
2039
2039
2039
2038
2038
2037
2037
2038
2038
2039
2039
2039
2039
2038
2038
2037
2037
2037
2037
2038
2038
2037
2036
2034
2034
2033
2034
2034
2035
2035
2035
2035
2035
2035
2035
2036
2036
2037
2037
2037
2037
2037
2037
2036
2036
2037
2037
2038
2039
2040
2040
2040
2039
2039
2038
2039
2039
2040
2041
2041
2042
2042
2042
2042
2042
2042
2041
2041
2042
2043
2043
2044
2044
2043
2042
2042
2042
2042
2043
2043
2043
2043
2042
2042
2043
2044
2045
2046
2047
2047
2047
2046
2045
2044
2043
2044
2044
2045
2046
2046
2046
2046
2046
2046
2047
2047
2047
2048
2048
2048
2048
2048
2048
2047
2047
2047
2047
2047
2048
2048
2047
2047
2047
2048
2048
2050
2052
2053
2054
2055
2056
2056
2056
2057
2056
2056
2055
2054
2054
2053
2053
2052
2052
2051
2051
2051
2051
2051
2051
2052
2052
2051
2051
2051
2050
2050
2050
2050
2051
2051
2051
2052
2052
2053
2054
2054
2052
2048
2042
2037
2035
2040
2058
2095
2150
2206
2243
2243
2205
2144
2088
2054
2048
2059
2070
2074
2069
2060
2055
2053
2050
2048
2048
2047
2047
2048
2048
2049
2049
2050
2050
2051
2051
2051
2052
2052
2053
2053
2054
2055
2055
2056
2056
2057
2057
2058
2058
2060
2061
2062
2064
2065
2065
2066
2066
2068
2070
2073
2076
2079
2082
2085
2088
2091
2095
2099
2104
2108
2112
2115
2119
2121
2124
2125
2126
2126
2125
2123
2119
2113
2106
2098
2089
2080
2072
2065
2059
2053
2049
2046
2043
2040
2038
2036
2035
2035
2035
2036
2036
2036
2036
2036
2036
2036
2036
2036
2037
2037
2038
2038
2038
2038
2038
2037
2037
2037
2038
2039
2039
2040
2040
2040
2039
2039
2039
2039
2040
2040
2040
2041
2041
2041
2041
2041
2041
2041
2042
2042
2043
2043
2043
2043
2043
2043
2043
2043
2043
2043
2044
2044
2044
2043
2043
2043
2043
2043
2043
2043
2044
2044
2044
2044
2044
2044
2044
2044
2044
2044
2045
2045
2045
2045
2044
2044
2044
2044
2045
2045
2046
2046
2046
2045
2045
2045
2045
2045
2046
2046
2047
2047
2047
2047
2047
2047
2047
2047
2047
2047
2047
2047
2047
2047
2047
2046
2046
2046
2047
2047
2048
2048
2048
2048
2048
2048
2048
2048
2048
2048
2048
2049
2049
2049
2049
2048
2048
2048
2048
2049
2049
2050
2050
2050
2049
2049
2049
2048
2048
2049
2050
2050
2051
2050
2050
2050
2050
2051
2051
2052
2052
2052
2052
2051
2051
2050
2050
2050
2051
2051
2051
2051
2051
2050
2050
2050
2051
2051
2051
2052
2052
2052
2051
2051
2050
2049
2048
2048
2048
2048
2048
2048
2049
2051
2052
2053
2053
2054
2055
2055
2057
2058
2058
2057
2055
2053
2051
2049
2049
2050
2051
2052
2052
2052
2051
2050
2049
2049
2049
2049
2049
2050
2049
2050
2050
2050
2051
2051
2051
2052
2053
2054
2055
2055
2052
2048
2042
2037
2035
2040
2058
2093
2146
2202
2239
2241
2204
2144
2087
2052
2046
2056
2068
2071
2066
2057
2051
2049
2048
2048
2048
2048
2048
2048
2048
2047
2048
2048
2049
2051
2052
2052
2052
2052
2052
2052
2053
2053
2054
2056
2057
2058
2058
2059
2059
2060
2061
2062
2064
2065
2067
2068
2070
2072
2074
2077
2080
2083
2086
2090
2094
2098
2102
2105
2110
2114
2118
2122
2126
2129
2131
2133
2134
2134
2133
2129
2125
2119
2112
2104
2095
2086
2078
2069
2062
2055
2050
2046
2043
2041
2040
2039
2038
2037
2036
2035
2034
2034
2034
2035
2035
2035
2035
2035
2035
2035
2035
2035
2035
2036
2036
2037
2036
2036
2035
2035
2035
2036
2037
2037
2038
2038
2038
2038
2038
2037
2037
2036
2037
2038
2039
2040
2040
2040
2040
2040
2040
2041
2041
2041
2041
2041
2042
2042
2041
2041
2041
2041
2041
2041
2042
2042
2043
2042
2042
2042
2041
2041
2041
2041
2041
2041
2041
2041
2041
2041
2040
2040
2041
2042
2042
2043
2043
2043
2042
2041
2041
2042
2042
2043
2043
2042
2041
2040
2039
2039
2038
2038
2038
2038
2039
2039
2040
2040
2040
2040
2040
2040
2041
2041
2042
2042
2042
2041
2041
2041
2040
2041
2041
2041
2042
2042
2042
2042
2042
2041
2042
2042
2042
2043
2043
2044
2044
2043
2043
2043
2043
2043
2043
2044
2044
2044
2045
2045
2045
2045
2044
2045
2045
2045
2045
2045
2045
2046
2045
2045
2045
2046
2046
2046
2047
2047
2047
2046
2046
2046
2046
2046
2046
2046
2046
2046
2046
2045
2044
2044
2045
2046
2048
2050
2051
2052
2052
2052
2052
2053
2054
2054
2054
2054
2054
2052
2051
2050
2049
2049
2049
2049
2050
2050
2051
2051
2050
2050
2049
2049
2049
2049
2050
2051
2051
2051
2051
2051
2051
2051
2051
2053
2054
2054
2053
2049
2043
2037
2034
2038
2054
2087
2138
2195
2234
2241
2208
2149
2089
2051
2042
2051
2065
2071
2068
2060
2053
2050
2048
2045
2045
2044
2045
2046
2047
2048
2048
2048
2048
2048
2048
2048
2049
2050
2051
2052
2052
2052
2052
2053
2053
2054
2056
2057
2059
2059
2060
2060
2061
2062
2064
2066
2068
2070
2072
2074
2077
2079
2082
2084
2087
2091
2095
2100
2105
2110
2114
2117
2120
2122
2125
2127
2129
2129
2129
2126
2122
2116
2109
2101
2093
2085
2077
2070
2064
2058
2052
2048
2046
2043
2041
2040
2039
2038
2038
2038
2038
2038
2038
2037
2037
2037
2037
2038
2038
2038
2038
2038
2038
2038
2038
2038
2038
2038
2038
2039
2038
2038
2038
2038
2039
2039
2040
2040
2040
2040
2040
2040
2040
2040
2040
2040
2041
2042
2042
2043
2043
2042
2042
2042
2042
2042
2042
2043
2043
2043
2043
2043
2043
2043
2043
2042
2043
2043
2043
2043
2043
2043
2042
2042
2042
2042
2043
2044
2044
2045
2045
2045
2045
2044
2044
2044
2044
2045
2045
2045
2045
2045
2044
2044
2044
2044
2045
2045
2046
2046
2046
2046
2045
2045
2046
2046
2047
2047
2048
2048
2048
2048
2047
2047
2047
2048
2048
2048
2048
2049
2049
2048
2048
2048
2048
2048
2048
2049
2049
2049
2049
2049
2049
2049
2049
2049
2049
2049
2050
2050
2050
2049
2049
2048
2048
2049
2050
2050
2051
2051
2051
2051
2050
2050
2050
2050
2051
2051
2052
2052
2052
2051
2051
2051
2051
2051
2052
2052
2053
2053
2053
2053
2052
2052
2053
2053
2053
2053
2053
2052
2051
2051
2050
2049
2049
2049
2049
2049
2048
2048
2048
2048
2048
2050
2051
2052
2053
2053
2053
2054
2054
2054
2055
2055
2054
2053
2052
2052
2052
2051
2051
2051
2050
2050
2050
2050
2050
2050
2051
2051
2050
2050
2049
2049
2049
2049
2050
2050
2050
2050
2050
2050
2051
2052
2052
2051
2048
2042
2038
2035
2040
2056
2088
2138
2193
2232
2237
2204
2146
2088
2051
2044
2053
2066
2072
2068
2059
2053
2050
2048
2046
2045
2045
2044
2045
2045
2046
2048
2048
2049
2049
2050
2050
2051
2051
2052
2052
2053
2053
2054
2055
2056
2057
2057
2058
2059
2060
2062
2063
2065
2066
2067
2068
2070
2071
2073
2076
2078
2082
2085
2089
2092
2095
2099
2103
2107
2111
2116
2120
2123
2126
2128
2130
2131
2131
2130
2128
2124
2119
2112
2104
2096
2087
2078
2070
2063
2058
2053
2049
2046
2043
2041
2039
2038
2037
2037
2037
2037
2037
2037
2037
2037
2037
2037
2037
2037
2037
2037
2038
2038
2038
2038
2038
2038
2037
2037
2038
2038
2039
2039
2039
2039
2039
2039
2039
2039
2039
2040
2040
2041
2041
2041
2040
2040
2040
2040
2041
2041
2042
2042
2042
2041
2041
2041
2041
2041
2041
2041
2042
2042
2042
2042
2041
2040
2040
2040
2041
2042
2042
2042
2042
2042
2042
2041
2042
2042
2042
2042
2043
2043
2043
2043
2043
2043
2042
2042
2042
2043
2043
2044
2044
2044
2043
2043
2043
2044
2044
2044
2044
2044
2044
2044
2044
2044
2044
2044
2044
2044
2044
2044
2044
2044
2044
2044
2044
2044
2045
2045
2045
2045
2045
2045
2045
2045
2044
2045
2045
2046
2046
2046
2046
2046
2046
2045
2045
2045
2045
2046
2046
2047
2047
2046
2046
2045
2045
2046
2046
2047
2048
2048
2047
2047
2047
2047
2047
2047
2048
2048
2048
2048
2048
2048
2048
2048
2048
2048
2048
2048
2048
2049
2048
2048
2048
2048
2048
2048
2048
2048
2048
2049
2049
2049
2048
2048
2047
2047
2047
2047
2047
2048
2048
2050
2051
2052
2053
2054
2054
2055
2056
2056
2057
2056
2055
2054
2053
2052
2051
2051
2051
2051
2051
2051
2050
2050
2049
2049
2050
2050
2050
2050
2050
2050
2049
2049
2049
2049
2050
2050
2051
2052
2053
2053
2053
2050
2046
2040
2036
2034
2041
2059
2096
2149
2203
2236
2234
2194
2133
2077
2046
2042
2053
2066
2070
2064
2056
2050
2048
2047
2045
2045
2045
2046
2046
2046
2047
2047
2048
2048
2049
2049
2050
2050
2050
2050
2051
2051
2052
2053
2054
2055
2056
2056
2057
2057
2058
2059
2061
2062
2064
2065
2067
2069
2070
2072
2074
2077
2080
2083
2086
2090
2093
2096
2100
2104
2108
2112
2116
2120
2123
2125
2127
2127
2127
2126
2123
2119
2114
2108
2100
2093
2084
2076
2069
2062
2056
2051
2048
2046
2043
2041
2040
2038
2037
2037
2036
2036
2037
2037
2037
2037
2037
2037
2037
2037
2037
2037
2038
2038
2038
2038
2038
2038
2038
2038
2038
2038
2038
2039
2040
2040
2040
2040
2039
2039
2039
2040
2041
2042
2042
2043
2042
2042
2042
2041
2042
2042
2043
2044
2044
2044
2044
2044
2043
2043
2043
2043
2043
2043
2044
2044
2044
2044
2043
2043
2042
2042
2043
2043
2044
2044
2044
2044
2043
2043
2043
2044
2044
2045
2045
2045
2045
2045
2045
2044
2044
2044
2044
2044
2044
2045
2046
2046
2046
2046
2046
2045
2045
2045
2046
2046
2047
2047
2047
2046
2046
2046
2046
2047
2048
2048
2048
2048
2047
2046
2046
2045
2046
2046
2047
2047
2047
2047
2047
2047
2046
2046
2047
2047
2048
2048
2048
2048
2048
2048
2048
2048
2048
2048
2048
2049
2048
2048
2048
2048
2048
2048
2049
2050
2050
2050
2049
2049
2049
2049
2049
2050
2050
2050
2050
2050
2050
2050
2049
2049
2049
2050
2050
2051
2052
2052
2051
2051
2051
2051
2051
2050
2050
2050
2050
2050
2050
2051
2052
2053
2055
2056
2057
2057
2057
2058
2058
2059
2060
2059
2058
2057
2056
2055
2055
2054
2054
2054
2054
2053
2054
2054
2054
2054
2054
2054
2054
2054
2053
2053
2053
2052
2052
2052
2052
2053
2054
2055
2055
2053
2050
2046
2041
2038
2041
2053
2081
2126
2180
2223
2236
2212
2158
2098
2057
2043
2051
2066
2074
2073
2065
2058
2055
2054
2052
2050
2050
2049
2050
2050
2051
2051
2051
2051
2052
2053
2054
2055
2055
2055
2055
2056
2057
2059
2060
2061
2062
2062
2062
2063
2064
2065
2066
2068
2070
2071
2073
2075
2076
2078
2080
2083
2086
2089
2093
2097
2100
2105
2108
2113
2117
2120
2124
2128
2132
2134
2136
2137
2137
2137
2135
2132
2127
2121
2114
2105
2096
2087
2079
2072
2065
2058
2051
2047
2043
2040
2039
2038
2036
2035
2034
2034
2034
2034
2034
2033
2033
2033
2033
2033
2034
2034
2035
2036
2036
2036
2036
2036
2036
2036
2036
2037
2038
2038
2039
2039
2040
2040
2041
2042
2042
2042
2042
2042
2042
2042
2042
2042
2041
2039
2039
2040
2042
2045
2048
2050
2052
2052
2052
2052
2052
2052
2052
2052
2052
2052
2052
2053
2053
2053
2053
2054
2055
2056
2055
2053
2049
2045
2042
2040
2040
2041
2043
2043
2043
2043
2043
2042
2043
2043
2043
2044
2044
2044
2044
2044
2044
2044
2044
2044
2043
2043
2043
2043
2043
2044
2044
2044
2044
2044
2044
2044
2044
2044
2045
2045
2045
2045
2044
2043
2043
2044
2044
2045
2045
2045
2045
2045
2045
2045
2045
2045
2045
2046
2046
2046
2046
2046
2045
2045
2045
2045
2045
2046
2047
2047
2047
2046
2045
2045
2045
2045
2045
2046
2046
2046
2046
2045
2044
2043
2042
2042
2042
2044
2046
2048
2049
2050
2049
2049
2050
2051
2052
2053
2053
2052
2051
2049
2048
2048
2047
2047
2047
2047
2047
2047
2047
2047
2046
2046
2045
2045
2046
2047
2048
2048
2048
2048
2048
2048
2048
2048
2048
2049
2049
2049
2045
2040
2035
2032
2038
2055
2090
2141
2194
2227
2225
2185
2123
2065
2033
2031
2047
2064
2072
2068
2059
2052
2048
2047
2045
2044
2043
2044
2045
2045
2046
2046
2046
2047
2048
2049
2050
2050
2051
2051
2052
2052
2053
2053
2054
2055
2056
2058
2059
2060
2061
2061
2062
2063
2064
2065
2067
2069
2071
2074
2078
2081
2084
2087
2091
2094
2099
2104
2108
2113
2117
2121
2125
2128
2131
2133
2136
2137
2137
2136
2132
2127
2120
2111
2102
2093
2083
2075
2067
2059
2052
2046
2041
2038
2036
2034
2034
2033
2033
2033
2033
2032
2032
2032
2031
2031
2030
2030
2030
2031
2032
2032
2031
2030
2030
2030
2030
2031
2031
2031
2031
2031
2031
2031
2031
2031
2032
2033
2034
2035
2036
2036
2036
2035
2035
2036
2036
2037
2038
2038
2038
2038
2038
2038
2039
2039
2040
2041
2041
2041
2040
2040
2040
2040
2040
2040
2040
2040
2041
2041
2041
2041
2041
2041
2041
2041
2041
2041
2041
2041
2041
2041
2041
2041
2041
2042
2042
2043
2043
2042
2042
2043
2043
2043
2043
2043
2043
2044
2044
2045
2045
2045
2044
2044
2044
2044
2044
2044
2044
2044
2044
2044
2044
2044
2044
2044
2044
2045
2045
2045
2045
2045
2045
2045
2045
2045
2046
2046
2046
2046
2046
2046
2045
2045
2045
2046
2046
2046
2047
2047
2047
2047
2047
2046
2046
2047
2047
2047
2048
2048
2048
2048
2048
2048
2048
2047
2048
2048
2048
2048
2049
2049
2049
2049
2049
2049
2049
2049
2049
2049
2049
2048
2048
2048
2048
2048
2048
2048
2048
2048
2048
2047
2046
2046
2047
2048
2050
2052
2054
2054
2054
2054
2054
2055
2055
2056
2056
2056
2055
2054
2053
2053
2052
2051
2051
2051
2051
2051
2051
2051
2051
2051
2050
2050
2050
2050
2050
2050
2051
2051
2051
2051
2051
2051
2052
2053
2052
2050
2046
2040
2036
2035
2045
2067
2110
2168
2221
2248
2236
2188
2124
2072
2048
2048
2061
2070
2071
2065
2056
2052
2049
2048
2047
2046
2046
2046
2046
2047
2048
2048
2048
2049
2049
2049
2049
2049
2050
2051
2052
2053
2053
2054
2054
2054
2055
2056
2057
2058
2059
2061
2062
2064
2065
2067
2068
2070
2072
2074
2076
2077
2080
2082
2086
2089
2093
2097
2101
2105
2109
2112
2116
2119
2121
2124
2125
2126
2126
2125
2123
2119
2113
2106
2098
2090
2081
2074
2067
2061
2056
2052
2048
2046
2042
2040
2038
2036
2036
2036
2036
2036
2036
2036
2036
2036
2036
2036
2036
2037
2037
2037
2038
2038
2037
2037
2037
2037
2037
2037
2038
2038
2038
2038
2037
2037
2037
2037
2038
2038
2039
2039
2039
2039
2039
2039
2039
2039
2040
2041
2041
2041
2041
2041
2041
2041
2041
2041
2041
2041
2041
2042
2041
2041
2041
2040
2040
2040
2040
2041
2041
2042
2042
2041
2041
2041
2041
2041
2042
2042
2043
2043
2043
2042
2042
2042
2042
2043
2043
2044
2044
2044
2044
2044
2043
2043
2043
2043
2043
2044
2045
2045
2045
2045
2044
2044
2044
2044
2045
2046
2046
2046
2046
2046
2046
2046
2046
2046
2046
2047
2047
2048
2048
2048
2047
2047
2047
2047
2048
2048
2048
2048
2048
2048
2048
2048
2047
2047
2048
2048
2048
2049
2049
2048
2048
2048
2048
2048
2048
2048
2049
2049
2049
2049
2049
2049
2049
2049
2049
2049
2050
2050
2050
2050
2050
2049
2049
2049
2049
2049
2049
2050
2050
2051
2050
2050
2049
2049
2050
2050
2050
2050
2050
2049
2049
2048
2048
2047
2047
2048
2049
2051
2052
2054
2054
2054
2055
2055
2056
2057
2058
2058
2058
2057
2056
2055
2053
2053
2053
2053
2053
2053
2053
2053
2052
2052
2051
2051
2051
2052
2052
2052
2052
2052
2051
2051
2051
2051
2052
2053
2055
2055
2054
2051
2045
2039
2035
2037
2048
2076
2123
2181
2229
2247
2226
2173
2110
2064
2046
2050
2063
2071
2070
2062
2054
2051
2048
2047
2046
2047
2047
2047
2047
2048
2048
2048
2048
2049
2049
2050
2051
2051
2052
2052
2052
2053
2053
2054
2054
2055
2056
2057
2058
2058
2059
2060
2061
2062
2063
2065
2067
2069
2071
2072
2075
2077
2080
2083
2087
2091
2094
2098
2102
2106
2110
2113
2117
2120
2124
2126
2128
2129
2128
2126
2122
2117
2110
2103
2096
2088
2081
2073
2066
2059
2054
2049
2046
2043
2041
2040
2039
2039
2038
2038
2037
2037
2037
2037
2037
2037
2038
2038
2038
2038
2038
2038
2038
2038
2038
2039
2039
2039
2039
2039
2038
2038
2038
2038
2039
2039
2040
2040
2040
2040
2040
2040
2040
2040
2040
2041
2041
2041
2041
2041
2041
2041
2041
2042
2042
2043
2043
2043
2043
2043
2043
2042
2042
2042
2042
2043
2043
2043
2043
2043
2042
2042
2042
2043
2043
2044
2044
2044
2045
2045
2044
2044
2043
2043
2044
2045
2046
2046
2046
2045
2045
2045
2045
2045
2045
2046
2046
2047
2047
2047
2046
2046
2046
2046
2046
2047
2047
2047
2047
2047
2047
2047
2047
2047
2047
2047
2047
2048
2048
2048
2048
2047
2047
2047
2047
2047
2048
2048
2048
2048
2048
2048
2048
2048
2048
2048
2048
2049
2048
2048
2048
2048
2048
2048
2048
2048
2048
2049
2049
2048
2048
2048
2048
2048
2048
2049
2049
2049
2049
2049
2049
2049
2049
2048
2049
2049
2050
2050
2050
2050
2050
2049
2049
2049
2050
2050
2050
2050
2050
2050
2049
2049
2049
2049
2049
2049
2048
2048
2047
2047
2047
2048
2049
2051
2053
2055
2056
2056
2056
2056
2056
2057
2058
2058
2058
2057
2055
2055
2054
2054
2053
2052
2052
2052
2052
2052
2053
2052
2052
2052
2051
2051
2051
2051
2052
2052
2053
2053
2053
2053
2053
2054
2054
2054
2051
2048
2043
2039
2040
2048
2072
2115
2169
2217
2239
2222
2172
2111
2063
2042
2045
2057
2067
2068
2061
2054
2051
2048
2046
2045
2044
2044
2044
2045
2046
2048
2049
2050
2050
2050
2050
2050
2051
2052
2052
2053
2054
2055
2056
2056
2057
2057
2058
2059
2060
2061
2063
2064
2066
2067
2068
2070
2072
2074
2076
2078
2080
2083
2085
2089
2092
2096
2100
2104
2109
2113
2118
2121
2124
2127
2129
2131
2132
2132
2130
2127
2122
2115
2108
2101
2092
2084
2076
2068
2062
2057
2053
2049
2046
2043
2041
2040
2039
2039
2039
2040
2040
2040
2040
2039
2038
2037
2037
2037
2038
2038
2039
2038
2038
2037
2037
2037
2037
2037
2037
2037
2037
2038
2039
2040
2039
2038
2037
2037
2037
2038
2039
2040
2040
2040
2039
2038
2038
2038
2038
2039
2040
2041
2041
2041
2040
2039
2039
2041
2044
2047
2048
2049
2048
2048
2047
2046
2046
2047
2048
2049
2050
2051
2051
2051
2050
2050
2050
2050
2051
2051
2050
2048
2045
2042
2040
2039
2038
2038
2039
2041
2044
2048
2049
2050
2049
2048
2048
2048
2049
2050
2052
2054
2054
2054
2054
2053
2053
2054
2054
2055
2055
2055
2055
2055
2055
2055
2055
2055
2055
2055
2055
2056
2056
2056
2056
2056
2057
2058
2059
2060
2061
2061
2059
2058
2057
2058
2059
2061
2063
2063
2063
2063
2063
2063
2063
2063
2063
2064
2065
2066
2068
2070
2070
2069
2066
2064
2063
2062
2061
2061
2061
2061
2061
2061
2061
2061
2060
2060
2060
2061
2062
2062
2061
2060
2058
2057
2056
2057
2057
2058
2059
2060
2060
2058
2055
2049
2045
2042
2045
2058
2087
2135
2188
2229
2235
2200
2135
2067
2024
2014
2032
2055
2071
2073
2065
2057
2053
2051
2051
2051
2052
2053
2055
2057
2059
2061
2062
2063
2064
2064
2065
2065
2065
2065
2064
2064
2064
2066
2067
2069
2071
2071
2071
2071
2071
2073
2074
2076
2076
2076
2077
2078
2081
2085
2088
2092
2095
2098
2103
2109
2115
2120
2126
2130
2134
2138
2142
2146
2151
2155
2158
2159
2159
2158
2155
2149
2141
2130
2119
2107
2096
2085
2075
2064
2054
2046
2040
2037
2035
2034
2034
2034
2035
2035
2035
2035
2036
2036
2036
2036
2034
2034
2033
2034
2036
2036
2035
2033
2031
2030
2030
2032
2034
2034
2034
2034
2035
2037
2039
2041
2042
2042
2041
2039
2037
2036
2036
2036
2037
2038
2039
2040
2041
2040
2041
2040
2040
2039
2039
2039
2039
2040
2041
2042
2042
2042
2041
2040
2040
2039
2040
2041
2042
2042
2042
2041
2040
2039
2040
2040
2041
2041
2042
2041
2041
2041
2041
2040
2038
2037
2036
2036
2036
2037
2037
2038
2038
2038
2039
2040
2041
2043
2046
2047
2048
2046
2044
2042
2041
2042
2043
2044
2044
2042
2040
2037
2035
2033
2033
2034
2035
2036
2036
2035
2034
2033
2032
2031
2031
2032
2033
2034
2034
2035
2037
2037
2036
2032
2028
2024
2025
2036
2060
2104
2162
2213
2236
2213
2151
2073
2015
1993
2006
2035
2057
2064
2058
2048
2042
2038
2036
2036
2036
2038
2040
2041
2041
2040
2039
2040
2041
2043
2045
2045
2044
2044
2044
2046
2048
2049
2050
2048
2047
2045
2044
2045
2048
2050
2053
2056
2057
2058
2059
2062
2064
2067
2070
2073
2076
2081
2086
2092
2099
2104
2110
2114
2119
2124
2129
2136
2142
2146
2148
2148
2146
2143
2138
2132
2123
2111
2098
2084
2071
2060
2049
2040
2032
2025
2020
2017
2015
2015
2014
2013
2011
2009
2009
2010
2011
2013
2014
2014
2013
2011
2010
2010
2010
2011
2012
2014
2014
2015
2016
2017
2017
2016
2017
2018
2019
2020
2021
2022
2021
2022
2022
2022
2023
2024
2025
2026
2027
2028
2028
2028
2028
2028
2028
2029
2030
2031
2032
2032
2032
2031
2031
2031
2030
2032
2033
2034
2035
2034
2033
2032
2031
2031
2030
2031
2032
2034
2035
2036
2036
2036
2035
2033
2032
2031
2030
2030
2029
2029
2029
2029
2030
2031
2033
2034
2036
2038
2040
2041
2042
2043
2043
2043
2042
2041
2040
2039
2038
2038
2038
2038
2038
2038
2039
2039
2039
2039
2039
2040
2040
2040
2040
2040
2040
2040
2041
2041
2041
2041
2041
2040
2041
2041
2043
2044
2045
2044
2041
2035
2031
2028
2033
2050
2089
2147
2205
2240
2232
2181
2108
2048
2018
2023
2047
2067
2075
2069
2058
2051
2048
2046
2044
2043
2042
2043
2043
2044
2045
2045
2045
2045
2045
2046
2047
2048
2048
2050
2052
2053
2053
2054
2054
2054
2056
2056
2057
2058
2059
2061
2063
2064
2066
2067
2070
2073
2077
2081
2085
2088
2091
2095
2099
2104
2110
2115
2120
2125
2131
2136
2141
2145
2148
2150
2151
2151
2149
2145
2139
2131
2120
2109
2097
2085
2074
2064
2057
2051
2047
2042
2039
2036
2034
2033
2032
2031
2031
2032
2032
2032
2032
2032
2032
2032
2032
2032
2032
2032
2032
2031
2031
2032
2033
2035
2037
2038
2038
2037
2037
2037
2037
2038
2039
2039
2039
2039
2039
2040
2041
2041
2041
2042
2042
2042
2043
2043
2044
2045
2045
2046
2045
2045
2044
2043
2043
2044
2044
2045
2045
2045
2044
2044
2044
2045
2045
2045
2045
2045
2046
2047
2047
2048
2048
2048
2047
2046
2045
2045
2046
2046
2047
2047
2047
2047
2047
2047
2047
2047
2047
2047
2048
2048
2048
2048
2047
2046
2045
2045
2047
2048
2049
2051
2052
2052
2051
2050
2049
2048
2048
2049
2049
2050
2050
2049
2048
2048
2048
2048
2048
2048
2048
2047
2047
2046
2046
2046
2047
2047
2047
2047
2048
2048
2048
2047
2047
2046
2047
2048
2048
2048
2048
2048
2048
2048
2048
2047
2046
2046
2047
2048
2050
2051
2050
2047
2041
2035
2030
2030
2040
2066
2113
2174
2229
2253
2235
2179
2111
2059
2040
2047
2063
2073
2071
2062
2052
2048
2047
2046
2045
2044
2044
2044
2045
2045
2046
2047
2048
2048
2049
2049
2049
2049
2049
2049
2049
2050
2050
2051
2051
2050
2050
2049
2049
2050
2052
2054
2056
2059
2062
2065
2068
2071
2074
2077
2080
2084
2088
2094
2099
2105
2110
2115
2119
2123
2127
2132
2137
2141
2144
2147
2149
2149
2146
2141
2134
2124
2115
2106
2097
2089
2082
2075
2069
2063
2059
2055
2052
2050
2049
2049
2049
2049
2049
2049
2049
2049
2049
2050
2049
2048
2046
2043
2039
2037
2037
2038
2040
2040
2040
2039
2037
2036
2035
2035
2036
2037
2038
2039
2039
2039
2038
2038
2038
2038
2039
2041
2043
2045
2046
2046
2045
2045
2044
2044
2043
2043
2044
2044
2045
2045
2046
2046
2045
2045
2046
2047
2048
2048
2049
2049
2049
2049
2049
2049
2049
2050
2050
2050
2050
2050
2049
2048
2048
2048
2048
2048
2048
2049
2050
2050
2051
2051
2051
2051
2050
2049
2048
2048
2047
2047
2045
2045
2044
2044
2045
2047
2048
2050
2052
2053
2053
2052
2050
2049
2049
2049
2051
2053
2055
2055
2056
2056
2056
2055
2055
2054
2054
2054
2054
2053
2052
2051
2050
2050
2050
2050
2051
2051
2051
2050
2050
2049
2049
2049
2049
2049
2050
2050
2050
2049
2049
2049
2049
2050
2051
2051
2052
2053
2053
2054
2054
2054
2053
2053
2052
2052
2052
2053
2054
2055
2054
2053
2052
2052
2052
2054
2055
2056
2056
2055
2056
2057
2058
2058
2059
2058
2058
2058
2059
2059
2060
2061
2061
2061
2060
2060
2060
2059
2059
2060
2060
2059
2058
2057
2056
2055
2054
2053
2052
2052
2051
2051
2051
2052
2054
2056
2058
2059
2060
2059
2059
2058
2059
2060
2062
2064
2065
2065
2063
2061
2059
2058
2059
2061
2062
2062
2062
2061
2060
2058
2058
2058
2058
2059
2060
2060
2060
2059
2060
2060
2061
2061
2063
2065
2067
2070
2071
2071
2070
2069
2068
2067
2064
2061
2057
2055
2055
2057
2060
2063
2063
2063
2062
2061
2060
2060
2060
2061
2061
2062
2062
2061
2061
2061
2062
2063
2062
2058
2052
2045
2038
2035
2047
2078
2136
2205
2261
2280
2253
2193
2126
2079
2062
2065
2074
2076
2070
2059
2051
2048
2045
2042
2040
2039
2038
2037
2037
2037
2038
2039
2039
2040
2040
2041
2042
2044
2045
2046
2046
2046
2046
2045
2045
2045
2046
2046
2047
2048
2048
2049
2050
2051
2052
2053
2055
2057
2059
2062
2064
2066
2068
2070
2073
2076
2079
2083
2087
2090
2093
2096
2099
2101
2103
2105
2106
2107
2106
2105
2102
2098
2093
2087
2080
2072
2065
2058
2053
2048
2045
2041
2039
2037
2036
2035
2036
2036
2037
2037
2037
2037
2037
2037
2037
2038
2038
2039
2039
2040
2040
2040
2040
2040
2040
2040
2039
2039
2039
2039
2039
2040
2041
2042
2041
2040
2040
2039
2038
2038
2038
2038
2038
2038
2038
2038
2038
2038
2038
2038
2038
2039
2040
2042
2042
2042
2042
2041
2041
2041
2041
2041
2042
2042
2042
2041
2041
2042
2043
2045
2047
2048
2048
2048
2048
2047
2046
2045
2045
2045
2045
2046
2046
2045
2045
2045
2045
2045
2045
2046
2047
2047
2047
2047
2046
2046
2046
2046
2047
2047
2047
2047
2047
2047
2047
2046
2046
2046
2046
2045
2045
2044
2043
2042
2041
2041
2040
2041
2041
2041
2042
2041
2041
2040
2039
2039
2039
2039
2039
2039
2039
2039
2039
2039
2039
2039
2040
2040
2040
2040
2041
2041
2040
2040
2040
2040
2040
2040
2041
2041
2042
2042
2042
2042
2042
2041
2041
2042
2042
2042
2043
2043
2043
2043
2043
2042
2042
2042
2042
2043
2043
2043
2043
2043
2043
2043
2043
2043
2043
2043
2043
2043
2042
2042
2041
2041
2041
2042
2043
2045
2047
2048
2048
2048
2049
2049
2049
2050
2051
2051
2052
2052
2051
2049
2048
2048
2047
2047
2047
2048
2048
2048
2048
2048
2047
2047
2046
2046
2047
2047
2047
2048
2047
2047
2047
2047
2047
2048
2048
2049
2049
2047
2042
2035
2028
2025
2032
2054
2102
2167
2230
2265
2259
2212
2146
2088
2057
2052
2060
2067
2067
2059
2050
2047
2044
2042
2041
2042
2042
2042
2043
2043
2043
2043
2043
2043
2044
2045
2045
2046
2047
2048
2048
2048
2048
2048
2049
2049
2050
2051
2053
2054
2055
2055
2056
2057
2058
2059
2061
2062
2064
2067
2069
2072
2074
2077
2080
2083
2087
2092
2096
2100
2104
2107
2110
2113
2116
2118
2120
2121
2121
2119
2116
2111
2104
2097
2089
2082
2074
2067
2061
2056
2050
2047
2044
2041
2039
2038
2037
2037
2037
2037
2038
2038
2039
2039
2038
2038
2038
2039
2039
2040
2040
2040
2039
2039
2038
2038
2038
2039
2039
2039
2038
2038
2037
2037
2037
2038
2038
2039
2039
2039
2039
2039
2039
2039
2039
2039
2040
2040
2041
2041
2041
2041
2040
2041
2041
2042
2042
2043
2043
2043
2043
2042
2042
2042
2042
2042
2043
2043
2043
2044
2044
2044
2044
2044
2044
2044
2044
2044
2045
2045
2046
2045
2045
2044
2044
2045
2045
2046
2046
2046
2046
2046
2046
2046
2045
2045
2046
2047
2047
2047
2047
2047
2046
2046
2046
2046
2046
2046
2047
2047
2047
2047
2047
2047
2047
2047
2047
2048
2048
2048
2048
2048
2047
2047
2047
2047
2048
2048
2048
2048
2048
2048
2048
2048
2048
2047
2048
2048
2048
2048
2048
2048
2048
2048
2048
2048
2048
2048
2048
2048
2048
2048
2048
2046
2045
2045
2045
2046
2047
2048
2050
2051
2051
2052
2052
2052
2053
2054
2055
2056
2055
2054
2053
2051
2050
2050
2050
2051
2051
2051
2050
2050
2049
2049
2049
2049
2049
2049
2049
2049
2049
2049
2049
2049
2049
2049
2049
2050
2051
2052
2051
2049
2045
2038
2032
2028
2031
2046
2078
2132
2193
2240
2252
2222
2163
2101
2059
2046
2052
2064
2068
2065
2055
2048
2046
2044
2042
2042
2042
2042
2042
2043
2043
2044
2044
2045
2046
2046
2047
2047
2048
2048
2048
2048
2048
2049
2050
2051
2052
2052
2052
2053
2053
2054
2055
2056
2058
2060
2062
2064
2066
2067
2069
2072
2075
2078
2082
2085
2089
2093
2097
2101
2105
2110
2114
2117
2120
2122
2124
2125
2125
2124
2120
2115
2108
2100
2093
2084
2077
2069
2061
2054
2048
2045
2041
2038
2037
2036
2035
2034
2034
2034
2034
2034
2034
2034
2034
2035
2035
2036
2036
2036
2035
2035
2034
2034
2034
2034
2034
2035
2035
2034
2034
2033
2032
2031
2030
2029
2029
2029
2029
2029
2029
2029
2029
2030
2030
2031
2031
2032
2032
2032
2032
2032
2032
2032
2032
2033
2033
2034
2034
2034
2033
2033
2033
2033
2033
2034
2035
2035
2035
2035
2034
2034
2035
2037
2040
2043
2045
2046
2047
2046
2046
2046
2046
2046
2047
2048
2048
2048
2048
2048
2047
2046
2046
2046
2046
2046
2046
2047
2047
2047
2047
2047
2046
2047
2047
2048
2048
2048
2049
2048
2048
2048
2049
2049
2049
2050
2050
2050
2050
2050
2050
2050
2050
2050
2050
2051
2051
2052
2052
2052
2052
2052
2052
2052
2053
2053
2054
2054
2054
2054
2054
2054
2054
2054
2054
2055
2055
2055
2055
2055
2055
2055
2055
2055
2056
2056
2056
2056
2056
2056
2056
2056
2056
2056
2056
2056
2057
2057
2056
2056
2056
2056
2055
2055
2056
2056
2056
2056
2056
2055
2054
2053
2053
2052
2053
2053
2052
2052
2051
2051
2050
2049
2049
2049
2048
2048
2048
2048
2048
2048
2048
2048
2048
2047
2047
2047
2047
2047
2046
2045
2044
2043
2044
2045
2047
2049
2050
2051
2051
2050
2050
2050
2051
2052
2053
2053
2052
2051
2050
2048
2048
2048
2048
2048
2048
2048
2048
2048
2048
2048
2047
2047
2047
2047
2047
2048
2048
2048
2048
2048
2048
2048
2048
2050
2050
2049
2045
2039
2034
2030
2033
2048
2081
2137
2199
2245
2255
2224
2163
2101
2060
2048
2054
2065
2069
2065
2056
2050
2048
2045
2043
2042
2042
2042
2043
2044
2044
2045
2046
2046
2046
2046
2046
2047
2047
2048
2048
2049
2049
2050
2051
2051
2051
2052
2053
2054
2055
2056
2057
2058
2059
2060
2061
2062
2064
2066
2069
2072
2074
2077
2079
2082
2086
2090
2094
2098
2102
2105
2108
2111
2114
2116
2117
2119
2120
2120
2118
2115
2110
2103
2095
2087
2079
2071
2065
2059
2054
2049
2046
2043
2040
2037
2036
2035
2035
2035
2035
2035
2035
2035
2034
2034
2034
2035
2035
2036
2036
2036
2036
2036
2036
2036
2036
2036
2036
2036
2036
2036
2036
2036
2036
2036
2036
2036
2037
2037
2037
2038
2037
2037
2037
2038
2038
2038
2039
2039
2040
2040
2040
2040
2040
2039
2039
2039
2039
2040
2040
2040
2040
2041
2041
2041
2041
2041
2041
2041
2042
2043
2043
2043
2043
2043
2043
2044
2044
2044
2043
2042
2041
2041
2040
2040
2041
2041
2041
2042
2042
2042
2042
2042
2042
2042
2042
2042
2042
2042
2043
2044
2044
2045
2045
2044
2044
2044
2044
2045
2045
2046
2045
2045
2044
2044
2044
2045
2046
2047
2047
2047
2046
2046
2045
2046
2046
2047
2047
2048
2048
2047
2047
2047
2047
2048
2048
2048
2049
2050
2050
2051
2051
2051
2050
2050
2050
2050
2051
2051
2052
2052
2051
2051
2050
2050
2050
2050
2050
2050
2051
2051
2050
2050
2050
2050
2050
2051
2051
2052
2052
2052
2053
2053
2053
2052
2052
2051
2052
2054
2057
2058
2059
2059
2058
2057
2057
2056
2055
2054
2052
2051
2050
2050
2051
2051
2052
2053
2054
2055
2056
2057
2057
2056
2056
2056
2056
2056
2056
2055
2055
2055
2054
2053
2052
2052
2052
2053
2054
2054
2054
2054
2053
2053
2053
2054
2054
2054
2055
2055
2054
2054
2054
2055
2056
2057
2056
2052
2047
2042
2039
2042
2056
2088
2139
2198
2242
2252
2221
2161
2100
2060
2049
2059
2073
2079
2075
2066
2059
2056
2054
2050
2048
2047
2046
2046
2046
2047
2048
2048
2049
2049
2050
2050
2050
2049
2050
2050
2052
2053
2054
2055
2055
2055
2055
2055
2056
2057
2060
2062
2064
2066
2068
2069
2071
2074
2076
2078
2081
2084
2087
2090
2094
2097
2100
2103
2107
2111
2115
2119
2122
2126
2128
2131
2133
2134
2134
2134
2131
2127
2120
2110
2098
2085
2074
2064
2056
2050
2046
2041
2038
2035
2034
2032
2031
2031
2031
2031
2032
2031
2030
2029
2028
2028
2028
2028
2029
2029
2029
2029
2030
2032
2032
2032
2031
2028
2027
2027
2029
2032
2035
2036
2037
2037
2037
2038
2037
2035
2033
2031
2030
2030
2030
2030
2029
2029
2029
2031
2034
2036
2037
2037
2036
2037
2038
2039
2041
2042
2042
2042
2041
2041
2041
2041
2041
2041
2041
2040
2040
2039
2038
2037
2037
2036
2036
2036
2037
2039
2041
2043
2044
2043
2043
2042
2042
2043
2045
2046
2048
2048
2047
2046
2046
2045
2045
2044
2042
2041
2041
2041
2042
2043
2042
2042
2041
2040
2039
2039
2039
2041
2043
2044
2043
2041
2038
2035
2036
2038
2042
2044
2044
2041
2039
2037
2037
2037
2037
2037
2037
2038
2039
2042
2045
2047
2047
2046
2046
2045
2046
2048
2048
2048
2048
2048
2047
2047
2048
2051
2054
2056
2057
2056
2055
2053
2051
2049
2048
2048
2047
2047
2047
2048
2050
2050
2048
2047
2045
2044
2045
2046
2046
2046
2046
2046
2047
2047
2047
2046
2046
2046
2047
2048
2049
2050
2051
2050
2048
2046
2041
2037
2036
2045
2066
2108
2166
2219
2243
2224
2167
2095
2040
2020
2031
2055
2072
2076
2066
2055
2049
2047
2046
2046
2045
2045
2046
2046
2047
2047
2047
2046
2046
2047
2047
2048
2048
2049
2050
2051
2053
2055
2057
2058
2059
2060
2062
2063
2065
2066
2067
2070
2073
2077
2081
2085
2087
2089
2091
2094
2097
2100
2103
2107
2110
2115
2120
2125
2132
2137
2143
2146
2149
2151
2153
2156
2158
2159
2156
2150
2143
2134
2124
2113
2102
2090
2078
2067
2058
2050
2045
2041
2038
2035
2033
2031
2030
2029
2029
2029
2029
2030
2030
2029
2028
2026
2024
2023
2023
2024
2024
2025
2024
2024
2024
2025
2025
2025
2025
2025
2026
2027
2028
2029
2029
2030
2029
2029
2029
2029
2029
2030
2031
2032
2033
2033
2033
2032
2032
2033
2034
2035
2036
2035
2035
2033
2032
2032
2032
2033
2034
2035
2036
2036
2035
2035
2035
2035
2035
2036
2035
2035
2034
2034
2035
2035
2035
2034
2033
2032
2031
2031
2031
2031
2030
2030
2029
2029
2030
2031
2031
2031
2031
2031
2032
2032
2032
2032
2031
2030
2030
2031
2032
2033
2034
2033
2031
2029
2028
2028
2029
2032
2034
2036
2037
2038
2038
2039
2040
2041
2042
2043
2042
2042
2040
2039
2038
2038
2037
2037
2038
2039
2040
2040
2040
2040
2040
2040
2040
2040
2041
2041
2041
2041
2041
2042
2042
2042
2042
2041
2042
2043
2045
2045
2044
2040
2034
2029
2026
2031
2048
2084
2140
2198
2235
2232
2187
2117
2053
2020
2021
2043
2064
2074
2070
2058
2050
2046
2043
2041
2041
2042
2042
2043
2043
2043
2043
2043
2045
2046
2047
2048
2048
2048
2049
2049
2050
2051
2052
2053
2054
2055
2056
2058
2059
2061
2062
2063
2064
2066
2067
2070
2072
2075
2078
2081
2084
2087
2091
2095
2100
2104
2109
2115
2120
2125
2129
2133
2137
2140
2144
2147
2149
2148
2146
2141
2135
2127
2118
2106
2095
2083
2073
2065
2057
2050
2045
2040
2037
2035
2034
2034
2034
2033
2031
2030
2029
2029
2029
2029
2030
2031
2032
2032
2031
2030
2030
2030
2030
2031
2031
2032
2032
2031
2032
2032
2032
2033
2033
2034
2034
2035
2035
2035
2035
2036
2036
2036
2036
2036
2037
2038
2039
2039
2039
2039
2038
2038
2038
2038
2038
2038
2039
2039
2038
2037
2035
2033
2031
2030
2031
2031
2032
2032
2032
2031
2031
2031
2031
2031
2032
2031
2031
2031
2031
2032
2032
2033
2033
2033
2033
2034
2034
2035
2036
2036
2035
2035
2035
2036
2036
2037
2037
2037
2037
2037
2037
2037
2037
2038
2038
2039
2040
2041
2041
2042
2041
2041
2041
2041
2041
2042
2042
2042
2042
2041
2041
2041
2041
2042
2043
2043
2044
2044
2045
2045
2046
2046
2046
2047
2047
2047
2045
2042
2038
2034
2032
2031
2031
2032
2033
2033
2033
2033
2034
2035
2035
2036
2036
2036
2036
2036
2037
2037
2037
2037
2036
2035
2034
2033
2034
2035
2038
2041
2043
2045
2045
2045
2046
2048
2049
2051
2052
2052
2051
2049
2048
2047
2047
2046
2046
2046
2046
2047
2047
2048
2048
2049
2049
2049
2050
2051
2052
2053
2054
2054
2054
2054
2054
2054
2053
2054
2054
2056
2057
2056
2054
2048
2043
2037
2036
2044
2066
2109
2169
2226
2256
2247
2199
2135
2083
2059
2061
2075
2085
2084
2075
2064
2059
2056
2054
2052
2052
2052
2052
2052
2052
2051
2050
2049
2049
2049
2050
2050
2051
2051
2052
2052
2053
2053
2054
2055
2056
2058
2059
2060
2060
2061
2062
2064
2067
2068
2068
2066
2064
2065
2069
2075
2082
2087
2091
2093
2095
2098
2102
2107
2111
2115
2119
2123
2126
2130
2133
2136
2138
2139
2138
2135
2131
2125
2117
2108
2099
2089
2080
2072
2065
2060
2054
2050
2047
2044
2042
2039
2037
2036
2035
2035
2035
2036
2037
2038
2039
2040
2041
2042
2041
2040
2039
2038
2038
2038
2039
2041
2042
2043
2043
2042
2042
2041
2042
2043
2044
2045
2045
2045
2045
2045
2045
2045
2046
2048
2048
2048
2046
2043
2040
2038
2037
2037
2038
2039
2039
2039
2039
2039
2040
2041
2043
2045
2047
2048
2049
2050
2050
2049
2048
2048
2047
2047
2048
2048
2048
2049
2049
2049
2049
2048
2048
2049
2051
2054
2056
2057
2056
2055
2054
2054
2054
2055
2056
2056
2056
2054
2053
2052
2052
2052
2052
2051
2051
2051
2052
2052
2052
2052
2051
2051
2051
2051
2051
2050
2048
2048
2047
2047
2048
2049
2051
2051
2052
2052
2053
2055
2055
2055
2055
2054
2053
2053
2052
2051
2049
2048
2046
2045
2046
2047
2048
2048
2048
2047
2047
2047
2048
2049
2050
2051
2051
2050
2049
2048
2048
2048
2048
2048
2048
2048
2048
2048
2048
2048
2049
2049
2050
2050
2050
2049
2050
2050
2050
2051
2052
2052
2053
2054
2056
2057
2058
2058
2059
2060
2060
2060
2059
2057
2055
2053
2052
2052
2052
2053
2054
2055
2055
2054
2054
2053
2053
2053
2053
2053
2053
2053
2053
2054
2054
2054
2054
2053
2052
2051
2050
2051
2052
2053
2055
2057
2058
2059
2060
2060
2061
2061
2061
2060
2059
2058
2058
2057
2057
2057
2056
2056
2054
2053
2051
2049
2048
2048
2048
2049
2048
2048
2048
2048
2048
2048
2049
2050
2050
2050
2050
2050
2050
2051
2050
2048
2042
2037
2034
2035
2045
2069
2116
2177
2231
2258
2245
2195
2133
2083
2059
2059
2069
2073
2070
2060
2052
2048
2045
2043
2042
2042
2042
2043
2043
2043
2043
2044
2045
2045
2045
2043
2041
2040
2040
2042
2044
2047
2048
2049
2051
2052
2052
2053
2053
2054
2054
2055
2056
2058
2059
2060
2061
2061
2062
2063
2065
2068
2070
2073
2076
2079
2083
2088
2092
2096
2099
2103
2106
2110
2112
2114
2114
2114
2112
2109
2106
2102
2097
2092
2085
2078
2071
2064
2058
2052
2048
2044
2041
2038
2036
2034
2032
2030
2028
2026
2026
2026
2026
2027
2028
2028
2029
2028
2028
2027
2027
2027
2027
2028
2029
2029
2029
2028
2028
2027
2027
2027
2028
2029
2029
2029
2029
2029
2029
2029
2030
2030
2031
2032
2032
2031
2031
2031
2030
2031
2031
2032
2032
2033
2033
2033
2033
2033
2034
2034
2035
2036
2037
2037
2038
2038
2038
2038
2037
2037
2037
2036
2036
2036
2036
2036
2036
2035
2035
2035
2034
2035
2035
2036
2036
2036
2036
2036
2036
2037
2037
2038
2038
2038
2038
2038
2039
2039
2039
2039
2039
2039
2040
2040
2041
2042
2042
2042
2042
2042
2042
2042
2043
2043
2044
2044
2044
2043
2044
2044
2045
2045
2045
2045
2045
2045
2045
2045
2045
2045
2045
2045
2046
2046
2046
2047
2047
2047
2046
2046
2046
2047
2047
2047
2047
2047
2047
2047
2047
2047
2047
2046
2046
2046
2047
2047
2047
2047
2047
2046
2046
2046
2047
2047
2047
2047
2047
2047
2046
2046
2047
2047
2048
2048
2048
2048
2048
2048
2048
2048
2048
2048
2048
2048
2048
2049
2049
2048
2048
2048
2048
2048
2048
2049
2049
2050
2049
2049
2048
2048
2047
2047
2046
2046
2047
2048
2049
2050
2051
2051
2051
2051
2051
2052
2053
2053
2054
2054
2054
2052
2050
2047
2043
2040
2038
2038
2038
2038
2038
2038
2038
2038
2038
2038
2038
2038
2038
2037
2037
2036
2036
2036
2036
2037
2038
2039
2041
2041
2039
2034
2028
2022
2018
2021
2036
2067
2119
2177
2221
2232
2204
2149
2091
2051
2039
2045
2054
2057
2052
2045
2040
2039
2039
2039
2039
2040
2039
2039
2039
2040
2040
2041
2041
2042
2043
2043
2044
2044
2044
2045
2045
2046
2047
2047
2048
2048
2049
2049
2049
2050
2050
2051
2053
2054
2056
2057
2058
2060
2061
2063
2065
2067
2070
2073
2076
2079
2083
2086
2089
2092
2096
2099
2102
2105
2107
2110
2111
2111
2111
2109
2106
2102
2097
2091
2084
2077
2069
2062
2055
2049
2046
2042
2039
2037
2036
2035
2034
2033
2032
2032
2031
2032
2032
2033
2033
2033
2033
2033
2033
2033
2033
2034
2034
2035
2035
2035
2034
2033
2033
2033
2033
2033
2034
2034
2035
2035
2035
2035
2035
2035
2035
2035
2035
2036
2036
2037
2037
2037
2036
2036
2036
2036
2035
2035
2036
2036
2036
2035
2035
2034
2034
2035
2035
2036
2037
2037
2037
2036
2036
2036
2036
2037
2037
2038
2038
2038
2038
2039
2039
2039
2040
2040
2040
2040
2041
2041
2041
2041
2041
2041
2041
2041
2042
2042
2042
2042
2042
2042
2042
2042
2042
2042
2043
2043
2044
2045
2045
2045
2044
2044
2044
2044
2045
2046
2046
2046
2046
2046
2046
2046
2046
2045
2046
2046
2047
2047
2048
2048
2047
2047
2047
2047
2048
2048
2048
2048
2048
2048
2048
2048
2048
2048
2048
2049
2049
2049
2049
2048
2048
2047
2047
2048
2048
2048
2048
2049
2049
2049
2049
2048
2048
2048
2048
2048
2049
2049
2048
2048
2047
2047
2048
2049
2052
2054
2056
2057
2057
2057
2057
2057
2058
2059
2059
2059
2058
2057
2056
2056
2055
2055
2055
2054
2054
2055
2055
2055
2054
2053
2052
2051
2051
2051
2051
2052
2052
2052
2052
2052
2051
2052
2054
2055
2055
2053
2048
2043
2038
2038
2048
2074
2119
2177
2227
2247
2227
2174
2111
2064
2046
2051
2066
2075
2074
2066
2058
2054
2052
2049
2048
2047
2047
2047
2048
2048
2049
2050
2050
2050
2050
2050
2051
2052
2053
2054
2055
2055
2055
2055
2055
2056
2056
2058
2059
2061
2062
2063
2064
2065
2066
2068
2070
2072
2074
2077
2080
2082
2085
2088
2091
2095
2099
2103
2108
2112
2117
2122
2125
2128
2131
2133
2135
2136
2136
2134
2131
2126
2120
2112
2103
2093
2083
2075
2067
2060
2055
2050
2047
2043
2040
2038
2036
2035
2035
2035
2035
2035
2035
2034
2034
2034
2034
2035
2035
2035
2035
2035
2035
2035
2035
2035
2035
2036
2037
2037
2037
2037
2037
2037
2037
2037
2037
2038
2038
2038
2039
2039
2039
2039
2038
2038
2039
2039
2040
2041
2041
2041
2041
2040
2040
2040
2040
2040
2040
2041
2041
2041
2041
2041
2041
2041
2041
2041
2041
2042
2042
2042
2041
2041
2041
2041
2041
2041
2041
2041
2041
2041
2041
2041
2041
2041
2041
2041
2042
2042
2042
2042
2042
2042
2042
2041
2041
2041
2041
2041
2041
2041
2041
2042
2042
2041
2041
2041
2041
2042
2042
2042
2042
2041
2041
2041
2041
2041
2042
2042
2042
2043
2043
2043
2043
2043
2043
2043
2044
2045
2045
2045
2045
2045
2045
2045
2045
2045
2045
2045
2046
2047
2047
2048
2048
2047
2046
2045
2044
2043
2043
2043
2043
2044
2045
2046
2048
2048
2050
2052
2053
2055
2056
2056
2056
2056
2055
2054
2053
2052
2052
2052
2052
2052
2052
