2052
2050
2048
2048
2052
2065
2088
2116
2139
2146
2134
2106
2071
2041
2023
2017
2021
2029
2038
2047
2053
2058
2060
2061
2061
2061
2061
2061
2061
2061
2061
2062
2063
2065
2066
2067
2067
2068
2068
2068
2069
2069
2070
2071
2072
2074
2075
2075
2076
2077
2078
2079
2081
2083
2084
2085
2086
2087
2088
2088
2089
2090
2091
2092
2093
2093
2093
2093
2091
2090
2088
2086
2084
2081
2078
2075
2071
2068
2066
2064
2062
2061
2060
2059
2059
2058
2058
2058
2058
2057
2057
2058
2058
2059
2059
2059
2059
2059
2059
2059
2059
2059
2060
2060
2060
2061
2061
2062
2061
2060
2059
2058
2058
2058
2059
2060
2060
2060
2060
2060
2059
2059
2060
2061
2061
2062
2062
2062
2062
2062
2062
2062
2063
2063
2064
2065
2065
2065
2064
2064
2064
2065
2066
2067
2068
2068
2068
2068
2068
2068
2068
2068
2069
2069
2070
2070
2070
2070
2070
2069
2069
2069
2069
2070
2070
2070
2071
2071
2071
2072
2072
2073
2073
2075
2076
2077
2077
2077
2076
2075
2074
2075
2075
2076
2077
2077
2077
2077
2078
2078
2078
2078
2078
2079
2080
2080
2081
2079
2077
2074
2073
2078
2091
2115
2142
2164
2171
2159
2130
2095
2065
2048
2046
2052
2064
2075
2083
2088
2090
2090
2089
2089
2089
2090
2091
2091
2092
2091
2091
2091
2091
2091
2091
2092
2092
2093
2094
2094
2094
2094
2094
2095
2096
2097
2098
2098
2098
2098
2099
2100
2101
2102
2103
2105
2106
2107
2108
2109
2109
2109
2109
2109
2110
2111
2112
2111
2110
2107
2104
2102
2099
2096
2094
2091
2088
2086
2083
2081
2080
2079
2078
2077
2077
2076
2076
2076
2075
2075
2074
2073
2073
2074
2075
2076
2077
2077
2077
2078
2078
2078
2077
2077
2076
2076
2077
2077
2077
2077
2076
2076
2076
2076
2077
2077
2078
2078
2077
2077
2076
2075
2075
2075
2075
2076
2076
2076
2075
2074
2073
2072
2072
2072
2072
2072
2072
2072
2072
2072
2070
2068
2066
2064
2063
2063
2063
2063
2063
2063
2062
2062
2062
2062
2061
2062
2062
2062
2062
2062
2062
2061
2061
2062
2062
2063
2063
2062
2062
2061
2060
2059
2059
2059
2060
2062
2064
2066
2066
2067
2066
2066
2065
2064
2064
2064
2063
2063
2063
2063
2062
2062
2063
2064
2065
2066
2067
2067
2067
2067
2067
2067
2067
2067
2067
2066
2065
2063
2063
2071
2087
2111
2135
2151
2150
2130
2099
2066
2043
2033
2035
2045
2056
2065
2070
2072
2072
2070
2069
2069
2069
2069
2069
2070
2071
2072
2073
2074
2074
2075
2076
2076
2076
2077
2078
2079
2080
2080
2081
2081
2081
2082
2083
2083
2084
2085
2086
2087
2087
2087
2088
2088
2090
2092
2094
2095
2097
2097
2098
2098
2098
2098
2098
2096
2094
2092
2090
2089
2086
2083
2080
2076
2072
2069
2068
2067
2066
2065
2064
2063
2061
2060
2059
2059
2059
2059
2059
2060
2060
2060
2059
2059
2059
2059
2059
2060
2060
2060
2059
2059
2059
2058
2058
2058
2058
2058
2057
2056
2055
2054
2053
2053
2052
2052
2052
2052
2052
2052
2052
2052
2052
2051
2051
2051
2051
2051
2051
2050
2049
2048
2047
2046
2045
2045
2046
2046
2047
2047
2047
2046
2045
2044
2044
2043
2043
2043
2043
2043
2042
2042
2041
2041
2041
2041
2041
2041
2040
2040
2040
2039
2039
2039
2038
2038
2039
2039
2040
2040
2039
2038
2037
2037
2036
2036
2036
2036
2036
2036
2036
2037
2036
2036
2035
2035
2035
2035
2035
2036
2037
2037
2038
2038
2038
2037
2037
2036
2035
2034
2033
2033
2032
2032
2032
2032
2032
2032
2033
2034
2034
2034
2033
2033
2032
2032
2032
2031
2030
2028
2026
2027
2035
2052
2077
2101
2115
2110
2089
2056
2026
2003
1994
1994
2001
2011
2020
2027
2033
2035
2035
2033
2032
2032
2032
2032
2034
2035
2035
2036
2036
2036
2036
2036
2036
2036
2037
2037
2038
2038
2038
2037
2037
2038
2038
2040
2041
2042
2043
2043
2043
2044
2045
2045
2045
2045
2045
2047
2048
2050
2052
2053
2053
2054
2054
2055
2054
2053
2051
2048
2046
2043
2040
2038
2035
2033
2030
2029
2028
2027
2026
2025
2022
2021
2020
2020
2020
2021
2021
2021
2020
2020
2020
2019
2020
2020
2020
2021
2021
2021
2021
2021
2021
2021
2021
2020
2020
2020
2021
2021
2022
2022
2021
2021
2021
2021
2020
2021
2021
2022
2022
2021
2020
2019
2019
2019
2020
2021
2022
2022
2022
2022
2022
2022
2022
2022
2022
2022
2023
2023
2023
2023
2022
2021
2022
2022
2024
2025
2026
2026
2026
2026
2026
2027
2028
2029
2029
2029
2028
2027
2027
2028
2028
2027
2026
2025
2024
2024
2024
2025
2026
2027
2029
2030
2030
2030
2030
2029
2029
2028
2028
2027
2025
2024
2024
2024
2025
2026
2027
2027
2027
2027
2026
2026
2026
2027
2028
2029
2029
2029
2026
2023
2021
2025
2039
2062
2090
2113
2119
2105
2076
2042
2012
1995
1992
1996
2005
2015
2023
2030
2035
2036
2036
2036
2036
2036
2037
2038
2039
2039
2039
2040
2040
2041
2042
2043
2044
2045
2046
2047
2047
2048
2048
2048
2049
2050
2051
2052
2053
2055
2056
2056
2057
2057
2058
2060
2062
2064
2065
2066
2066
2066
2066
2066
2067
2068
2068
2069
2068
2067
2066
2063
2060
2058
2055
2052
2050
2048
2048
2047
2045
2043
2042
2041
2040
2040
2040
2040
2040
2040
2040
2040
2040
2041
2041
2041
2042
2043
2044
2044
2044
2044
2044
2045
2045
2046
2047
2047
2047
2047
2047
2047
2047
2046
2046
2046
2046
2046
2046
2045
2045
2045
2044
2044
2044
2043
2044
2044
2045
2045
2045
2045
2044
2044
2044
2044
2045
2046
2047
2047
2047
2046
2046
2045
2045
2044
2045
2045
2046
2048
2048
2048
2048
2048
2049
2049
2050
2050
2049
2048
2047
2046
2045
2044
2044
2045
2046
2048
2050
2052
2052
2052
2052
2051
2050
2049
2049
2049
2049
2049
2049
2049
2048
2048
2048
2048
2050
2052
2052
2052
2051
2051
2051
2052
2052
2052
2051
2048
2046
2046
2052
2067
2092
2118
2137
2139
2123
2092
2059
2033
2019
2019
2027
2039
2049
2057
2062
2065
2065
2064
2063
2064
2064
2064
2064
2064
2064
2064
2064
2065
2065
2066
2067
2068
2068
2069
2069
2070
2071
2071
2072
2073
2073
2074
2074
2073
2074
2074
2075
2076
2077
2078
2079
2080
2081
2082
2084
2084
2085
2085
2085
2086
2086
2085
2085
2084
2083
2082
2080
2078
2075
2072
2070
2067
2065
2063
2061
2060
2059
2058
2057
2056
2055
2055
2055
2055
2056
2056
2057
2057
2057
2057
2056
2056
2056
2056
2056
2057
2057
2058
2058
2058
2058
2058
2057
2057
2057
2058
2058
2058
2058
2057
2056
2055
2055
2054
2055
2055
2055
2055
2055
2055
2054
2054
2054
2054
2054
2055
2055
2055
2054
2054
2053
2053
2053
2053
2053
2053
2053
2053
2053
2053
2052
2052
2052
2052
2052
2051
2051
2051
2051
2051
2051
2051
2051
2051
2051
2052
2052
2052
2052
2051
2050
2050
2051
2051
2052
2053
2053
2053
2053
2052
2051
2051
2050
2050
2050
2050
2051
2052
2053
2054
2055
2056
2056
2055
2055
2055
2054
2054
2053
2052
2051
2051
2051
2051
2051
2051
2051
2051
2051
2051
2051
2051
2051
2051
2052
2053
2052
2050
2047
2045
2048
2059
2081
2106
2127
2134
2122
2095
2061
2033
2016
2013
2020
2032
2043
2050
2055
2056
2055
2054
2053
2053
2052
2052
2053
2053
2054
2055
2056
2056
2056
2056
2056
2056
2057
2057
2058
2059
2060
2060
2060
2060
2061
2061
2062
2063
2064
2065
2065
2066
2066
2067
2068
2068
2069
2070
2071
2072
2072
2072
2072
2072
2072
2073
2073
2074
2074
2073
2071
2068
2065
2062
2060
2058
2057
2055
2054
2053
2051
2050
2049
2048
2048
2048
2048
2048
2049
2049
2049
2049
2049
2048
2048
2048
2048
2049
2049
2049
2049
2049
2048
2048
2049
2049
2050
2050
2050
2050
2049
2049
2048
2048
2048
2048
2048
2048
2048
2048
2048
2046
2044
2042
2041
2041
2041
2042
2043
2044
2044
2043
2042
2042
2042
2043
2044
2044
2045
2044
2044
2044
2043
2043
2043
2043
2043
2044
2044
2044
2044
2044
2043
2043
2043
2042
2042
2042
2043
2044
2044
2044
2043
2042
2041
2041
2041
2041
2042
2042
2042
2042
2041
2041
2040
2040
2041
2042
2042
2043
2043
2043
2042
2041
2041
2041
2041
2042
2043
2044
2045
2047
2048
2048
2048
2047
2046
2045
2045
2045
2045
2044
2043
2042
2041
2041
2042
2042
2042
2042
2042
2042
2041
2042
2042
2041
2040
2038
2035
2036
2042
2056
2079
2105
2122
2124
2108
2079
2048
2022
2008
2006
2011
2021
2031
2040
2045
2048
2048
2047
2046
2045
2045
2045
2045
2045
2046
2047
2047
2048
2048
2048
2047
2047
2047
2048
2048
2049
2050
2051
2051
2051
2051
2051
2052
2053
2054
2055
2057
2058
2059
2059
2059
2059
2059
2059
2061
2062
2063
2063
2063
2062
2062
2062
2062
2062
2062
2061
2060
2059
2056
2054
2050
2048
2045
2042
2041
2039
2038
2037
2036
2035
2034
2033
2033
2033
2034
2034
2034
2034
2034
2034
2034
2034
2035
2035
2035
2036
2036
2036
2036
2036
2035
2035
2036
2036
2036
2036
2036
2035
2034
2033
2033
2033
2033
2033
2034
2034
2034
2034
2034
2033
2032
2031
2031
2032
2033
2034
2035
2035
2035
2034
2034
2033
2033
2034
2034
2035
2035
2035
2035
2035
2035
2035
2034
2034
2034
2035
2036
2036
2036
2035
2035
2034
2034
2034
2035
2036
2035
2035
2034
2034
2034
2034
2034
2034
2034
2035
2036
2036
2036
2036
2034
2033
2032
2031
2032
2033
2033
2034
2035
2036
2037
2037
2037
2037
2036
2036
2035
2035
2035
2035
2034
2034
2034
2033
2033
2034
2034
2035
2035
2035
2035
2035
2035
2035
2035
2034
2033
2030
2029
2034
2046
2068
2095
2117
2123
2111
2082
2048
2020
2003
1998
2001
2010
2020
2029
2036
2041
2043
2042
2041
2041
2041
2042
2042
2044
2045
2046
2047
2047
2047
2047
2047
2047
2048
2049
2050
2051
2051
2052
2052
2053
2053
2054
2054
2055
2056
2058
2059
2059
2060
2061
2061
2062
2062
2063
2064
2065
2065
2066
2065
2065
2066
2066
2067
2067
2067
2065
2063
2061
2058
2055
2052
2049
2047
2045
2044
2043
2042
2041
2040
2039
2038
2038
2038
2038
2039
2039
2040
2039
2039
2038
2038
2038
2038
2040
2041
2042
2042
2042
2042
2042
2042
2042
2042
2042
2042
2043
2043
2043
2043
2043
2043
2043
2043
2043
2043
2044
2043
2043
2043
2043
2043
2043
2043
2043
2043
2043
2043
2044
2044
2045
2044
2044
2043
2043
2044
2044
2045
2045
2045
2044
2044
2044
2044
2045
2045
2046
2046
2045
2045
2045
2045
2045
2045
2046
2046
2046
2046
2046
2046
2045
2045
2044
2044
2045
2045
2046
2047
2048
2049
2050
2051
2052
2052
2052
2052
2052
2051
2050
2049
2049
2049
2048
2048
2048
2048
2049
2049
2050
2050
2050
2050
2050
2050
2050
2051
2051
2050
2048
2046
2045
2050
2065
2090
2116
2135
2136
2119
2087
2053
2027
2014
2013
2020
2031
2041
2048
2054
2057
2057
2057
2056
2057
2058
2059
2059
2059
2060
2059
2059
2059
2060
2061
2061
2062
2063
2063
2064
2064
2064
2064
2065
2066
2067
2068
2069
2070
2071
2071
2072
2073
2073
2074
2075
2076
2078
2079
2080
2080
2080
2080
2080
2080
2080
2081
2081
2081
2080
2078
2076
2073
2070
2067
2065
2064
2062
2061
2060
2058
2057
2055
2054
2054
2053
2053
2054
2054
2055
2055
2056
2055
2055
2054
2054
2055
2056
2057
2057
2057
2057
2057
2056
2056
2057
2057
2058
2058
2058
2057
2057
2056
2057
2057
2057
2057
2057
2057
2057
2057
2057
2056
2056
2056
2056
2057
2057
2058
2058
2058
2058
2057
2056
2056
2056
2056
2057
2057
2058
2058
2057
2056
2056
2056
2056
2057
2057
2057
2057
2057
2056
2056
2055
2055
2056
2056
2057
2058
2058
2058
2058
2058
2057
2057
2057
2057
2057
2058
2058
2058
2058
2058
2057
2057
2057
2058
2058
2059
2059
2059
2059
2058
2058
2058
2057
2057
2057
2057
2057
2058
2059
2060
2061
2062
2062
2063
2062
2062
2061
2061
2060
2060
2059
2059
2058
2058
2058
2059
2059
2059
2059
2059
2058
2058
2059
2059
2059
2059
2058
2055
2052
2053
2060
2078
2102
2127
2142
2139
2119
2086
2054
2032
2023
2026
2036
2047
2056
2062
2065
2065
2064
2063
2062
2062
2062
2063
2064
2065
2065
2065
2065
2065
2065
2065
2066
2066
2067
2068
2068
2068
2068
2068
2068
2069
2069
2070
2071
2072
2073
2073
2074
2074
2074
2075
2076
2077
2078
2079
2080
2081
2081
2081
2081
2082
2082
2083
2083
2082
2081
2080
2078
2076
2074
2071
2068
2065
2063
2062
2060
2059
2057
2056
2055
2054
2054
2054
2054
2054
2055
2055
2055
2054
2054
2054
2054
2054
2055
2055
2055
2055
2055
2055
2055
2055
2055
2055
2055
2055
2054
2054
2054
2054
2054
2054
2054
2054
2054
2054
2053
2053
2053
2053
2053
2053
2053
2053
2053
2054
2054
2054
2054
2053
2053
2053
2053
2054
2055
2055
2056
2055
2055
2054
2053
2053
2053
2054
2054
2055
2055
2054
2054
2054
2054
2053
2053
2053
2053
2053
2053
2052
2052
2052
2052
2052
2052
2052
2052
2052
2052
2052
2052
2052
2051
2051
2051
2051
2052
2052
2053
2052
2052
2051
2050
2050
2051
2052
2053
2053
2052
2051
2050
2049
2049
2049
2050
2051
2051
2052
2053
2053
2054
2054
2054
2053
2052
2051
2051
2051
2051
2051
2050
2049
2048
2048
2048
2048
2048
2048
2048
2048
2048
2048
2048
2047
2045
2043
2043
2048
2063
2085
2110
2126
2128
2111
2082
2050
2025
2013
2013
2020
2031
2040
2046
2048
2049
2049
2048
2048
2048
2049
2049
2049
2049
2049
2049
2049
2050
2050
2050
2050
2050
2050
2050
2050
2051
2051
2051
2052
2052
2051
2051
2052
2052
2053
2054
2055
2055
2056
2057
2057
2058
2058
2058
2058
2058
2059
2060
2061
2061
2061
2061
2061
2060
2058
2056
2054
2052
2051
2049
2048
2046
2043
2040
2038
2036
2036
2035
2034
2033
2032
2031
2030
2029
2029
2029
2029
2030
2030
2031
2031
2030
2029
2029
2028
2029
2029
2030
2030
2029
2029
2028
2028
2027
2028
2028
2028
2028
2028
2027
2027
2026
2025
2025
2025
2025
2026
2026
2026
2025
2025
2025
2024
2024
2023
2023
2024
2024
2025
2025
2025
2024
2024
2023
2023
2023
2023
2023
2023
2023
2023
2022
2021
2021
2021
2021
2022
2023
2023
2023
2022
2022
2022
2021
2021
2021
2021
2022
2022
2023
2023
2022
2021
2020
2020
2021
2022
2022
2023
2022
2022
2022
2021
2021
2021
2021
2022
2022
2022
2022
2022
2021
2020
2020
2019
2020
2021
2023
2024
2025
2025
2026
2026
2026
2026
2025
2025
2024
2024
2023
2022
2022
2022
2022
2023
2023
2023
2024
2025
2025
2024
2024
2023
2023
2023
2021
2019
2017
2018
2026
2044
2069
2094
2110
2108
2087
2056
2025
2001
1990
1989
1995
2003
2012
2020
2026
2029
2030
2030
2029
2029
2030
2030
2031
2032
2033
2034
2034
2035
2035
2035
2036
2036
2036
2037
2038
2039
2040
2040
2040
2040
2040
2040
2041
2042
2043
2044
2045
2046
2047
2048
2048
2048
2048
2048
2048
2049
2050
2051
2051
2052
2052
2052
2052
2052
2051
2050
2049
2047
2044
2041
2038
2036
2034
2031
2029
2028
2026
2025
2024
2024
2023
2023
2023
2023
2024
2024
2024
2024
2025
2025
2025
2025
2025
2025
2026
2026
2027
2029
2029
2029
2029
2029
2029
2029
2030
2031
2032
2033
2033
2032
2032
2032
2031
2031
2031
2032
2032
2032
2032
2032
2032
2031
2031
2031
2031
2032
2032
2033
2033
2032
2032
2032
2032
2033
2033
2034
2035
2035
2035
2035
2034
2034
2034
2034
2034
2034
2035
2035
2035
2035
2035
2035
2035
2035
2035
2036
2037
2038
2038
2038
2039
2039
2039
2039
2039
2039
2039
2039
2039
2039
2039
2039
2038
2038
2037
2038
2040
2041
2043
2045
2046
2046
2046
2046
2045
2045
2044
2044
2044
2044
2044
2043
2043
2043
2043
2044
2045
2046
2046
2046
2046
2046
2046
2046
2045
2043
2040
2039
2042
2052
2073
2100
2123
2133
2125
2100
2067
2037
2018
2011
2014
2021
2031
2039
2046
2050
2053
2054
2054
2053
2054
2054
2054
2054
2054
2055
2056
2057
2058
2059
2059
2059
2058
2058
2059
2060
2062
2063
2063
2064
2064
2064
2065
2066
2066
2068
2069
2070
2072
2072
2073
2074
2074
2075
2077
2078
2079
2079
2080
2080
2080
2080
2080
2080
2080
2079
2077
2075
2072
2069
2066
2062
2060
2058
2056
2056
2055
2055
2053
2052
2051
2051
2050
2050
2050
2051
2051
2051
2052
2052
2052
2052
2052
2052
2052
2053
2053
2053
2054
2054
2054
2054
2053
2053
2053
2053
2053
2054
2054
2055
2054
2054
2053
2053
2053
2053
2053
2053
2053
2053
2053
2053
2054
2054
2054
2054
2054
2054
2054
2054
2053
2053
2052
2052
2052
2052
2053
2053
2053
2052
2052
2052
2053
2054
2054
2054
2055
2055
2055
2055
2054
2053
2053
2053
2054
2055
2055
2055
2055
2055
2055
2055
2055
2054
2054
2054
2055
2056
2056
2056
2056
2055
2054
2054
2054
2055
2055
2056
2056
2055
2055
2055
2055
2055
2055
2055
2055
2055
2055
2055
2055
2055
2056
2057
2059
2061
2062
2062
2062
2061
2060
2059
2058
2058
2057
2057
2058
2058
2058
2058
2058
2058
2058
2058
2057
2058
2059
2059
2059
2058
2055
2052
2051
2054
2065
2085
2111
2134
2144
2136
2111
2078
2048
2029
2022
2027
2038
2048
2057
2062
2064
2064
2063
2062
2062
2063
2064
2065
2065
2066
2066
2066
2066
2066
2066
2066
2067
2067
2068
2068
2068
2068
2068
2069
2069
2070
2071
2072
2073
2073
2074
2074
2075
2076
2078
2079
2080
2080
2081
2082
2083
2083
2083
2084
2084
2085
2085
2086
2085
2085
2084
2082
2080
2077
2074
2072
2070
2068
2066
2065
2063
2061
2059
2058
2058
2058
2058
2058
2058
2057
2057
2056
2056
2056
2056
2056
2057
2057
2057
2057
2058
2058
2058
2058
2058
2058
2058
2058
2058
2058
2058
2057
2056
2056
2056
2057
2057
2057
2057
2057
2057
2057
2057
2057
2057
2057
2057
2057
2057
2057
2057
2057
2057
2057
2056
2057
2057
2057
2057
2057
2057
2057
2057
2057
2057
2057
2057
2057
2057
2056
2056
2055
2055
2055
2055
2055
2056
2056
2056
2056
2056
2056
2056
2055
2055
2055
2055
2056
2056
2056
2056
2055
2055
2055
2055
2056
2056
2057
2058
2058
2058
2058
2057
2057
2057
2057
2058
2058
2058
2058
2058
2058
2058
2057
2057
2057
2057
2058
2058
2057
2057
2057
2057
2057
2057
2057
2057
2057
2057
2057
2056
2056
2056
2056
2057
2059
2060
2062
2062
2063
2062
2062
2061
2060
2059
2059
2059
2059
2059
2059
2059
2058
2057
2057
2058
2059
2059
2060
2060
2059
2059
2057
2056
2054
2052
2053
2059
2073
2094
2118
2136
2140
2126
2098
2065
2040
2025
2024
2032
2043
2052
2059
2062
2063
2062
2061
2062
2063
2063
2064
2064
2063
2063
2063
2063
2064
2064
2065
2065
2065
2066
2066
2066
2067
2067
2068
2068
2069
2069
2070
2070
2071
2072
2073
2073
2074
2075
2076
2077
2078
2078
2078
2079
2079
2080
2081
2082
2082
2083
2083
2083
2083
2082
2081
2080
2079
2077
2075
2073
2070
2067
2064
2062
2060
2059
2058
2057
2056
2056
2055
2055
2055
2055
2056
2057
2057
2057
2058
2058
2058
2058
2057
2057
2057
2057
2058
2058
2058
2058
2058
2057
2056
2055
2055
2055
2055
2055
2055
2055
2055
2055
2054
2054
2054
2054
2054
2054
2055
2055
2055
2055
2055
2055
2056
2056
2056
2056
2056
2056
2056
2055
2055
2055
2054
2054
2055
2056
2057
2058
2058
2058
2057
2056
2056
2055
2056
2056
2056
2056
2055
2055
2055
2055
2055
2055
2055
2056
2056
2056
2056
2056
2055
2055
2055
2054
2054
2054
2055
2055
2055
2055
2055
2055
2054
2054
2054
2055
2055
2056
2056
2056
2056
2055
2055
2056
2056
2056
2056
2056
2057
2057
2057
2057
2056
2056
2056
2056
2057
2058
2058
2058
2058
2057
2057
2057
2058
2058
2058
2058
2058
2058
2058
2058
2059
2058
2058
2057
2057
2058
2059
2059
2060
2060
2061
2061
2062
2063
2063
2063
2061
2061
2060
2059
2059
2059
2059
2060
2060
2060
2060
2060
2060
2060
2059
2060
2060
2060
2060
2060
2058
2056
2053
2053
2060
2075
2099
2124
2140
2140
2123
2093
2061
2038
2026
2026
2035
2046
2054
2061
2064
2065
2065
2064
2065
2065
2065
2066
2066
2067
2067
2068
2068
2068
2068
2068
2069
2069
2070
2070
2070
2070
2070
2070
2071
2072
2073
2074
2075
2075
2076
2076
2076
2077
2077
2078
2080
2081
2082
2082
2082
2082
2082
2082
2083
2085
2086
2088
2089
2089
2088
2087
2085
2082
2079
2076
2073
2071
2070
2068
2066
2065
2063
2062
2061
2060
2059
2059
2059
2059
2059
2059
2059
2059
2059
2059
2060
2060
2060
2060
2059
2059
2059
2059
2059
2059
2059
2060
2060
2060
2060
2059
2058
2058
2057
2057
2057
2056
2056
2056
2056
2056
2055
2055
2055
2055
2055
2055
2055
2055
2055
2055
2055
2055
2054
2054
2054
2055
2055
2055
2055
2054
2053
2053
2053
2053
2053
2053
2053
2053
2053
2053
2052
2052
2052
2052
2052
2052
2052
2052
2051
2051
2050
2050
2050
2050
2050
2050
2050
2050
2050
2050
2050
2049
2049
2049
2049
2049
2049
2049
2049
2049
2049
2050
2050
2050
2051
2050
2050
2050
2050
2050
2050
2050
2050
2050
2050
2049
2049
2049
2049
2049
2049
2049
2049
2049
2049
2049
2049
2048
2048
2048
2047
2047
2047
2048
2048
2049
2050
2051
2052
2052
2052
2051
2050
2049
2049
2049
2049
2048
2048
2048
2047
2046
2046
2046
2046
2046
2046
2045
2045
2045
2045
2045
2044
2042
2040
2040
2044
2054
2074
2099
2120
2127
2117
2092
2060
2032
2014
2009
2011
2019
2029
2037
2043
2046
2047
2046
2046
2045
2046
2046
2045
2045
2045
2045
2046
2046
2047
2047
2048
2048
2048
2048
2048
2048
2049
2050
2051
2051
2051
2051
2051
2052
2053
2054
2055
2056
2056
2056
2057
2058
2059
2059
2060
2060
2062
2063
2064
2064
2064
2064
2063
2062
2062
2061
2061
2060
2058
2055
2052
2048
2046
2043
2041
2039
2038
2037
2035
2034
2032
2031
2031
2030
2029
2029
2030
2030
2031
2031
2031
2030
2029
2029
2029
2030
2031
2031
2032
2032
2032
2032
2031
2031
2031
2031
2032
2032
2033
2033
2032
2031
2030
2030
2030
2031
2032
2032
2033
2033
2033
2033
2033
2034
2034
2033
2033
2033
2033
2033
2033
2033
2032
2032
2032
2032
2032
2032
2032
2032
2032
2032
2031
2031
2031
2031
2031
2032
2033
2033
2032
2032
2031
2031
2031
2031
2032
2032
2033
2033
2033
2033
2032
2032
2032
2032
2033
2034
2034
2034
2034
2034
2033
2033
2032
2032
2033
2033
2033
2033
2033
2033
2033
2032
2032
2032
2032
2032
2033
2034
2034
2034
2034
2035
2036
2036
2036
2036
2036
2035
2035
2035
2034
2033
2033
2033
2033
2033
2034
2034
2034
2034
2033
2034
2034
2034
2035
2035
2034
2031
2029
2029
2036
2052
2077
2103
2120
2120
2102
2071
2039
2013
2000
1998
2004
2013
2022
2030
2037
2040
2042
2041
2041
2041
2042
2042
2043
2044
2045
2045
2045
2045
2046
2046
2047
2047
2048
2049
2050
2051
2052
2053
2053
2053
2054
2054
2056
2057
2058
2060
2061
2061
2062
2063
2064
2065
2067
2068
2068
2069
2069
2069
2069
2070
2070
2071
2071
2072
2072
2071
2070
2067
2064
2060
2057
2054
2052
2050
2048
2047
2045
2044
2043
2042
2041
2041
2041
2041
2041
2041
2041
2041
2041
2041
2041
2042
2043
2043
2044
2044
2044
2044
2044
2044
2044
2045
2045
2046
2047
2047
2047
2046
2046
2046
2046
2046
2047
2047
2047
2047
2047
2046
2046
2046
2046
2046
2047
2047
2048
2048
2048
2048
2047
2046
2045
2045
2046
2046
2046
2047
2047
2047
2047
2048
2048
2048
2048
2048
2048
2048
2048
2048
2048
2048
2048
2048
2048
2049
2050
2050
2050
2050
2050
2050
2051
2051
2051
2051
2051
2051
2051
2051
2051
2051
2051
2051
2051
2051
2052
2052
2052
2051
2051
2050
2051
2052
2054
2056
2058
2059
2059
2059
2058
2057
2057
2057
2057
2057
2057
2057
2057
2057
2057
2056
2056
2056
2056
2057
2057
2057
2057
2058
2057
2057
2056
2055
2052
2050
2052
2061
2079
2105
2130
2144
2141
2120
2088
2056
2034
2024
2026
2034
2044
2052
2058
2063
2065
2065
2065
2065
2065
2065
2065
2065
2066
2066
2067
2068
2069
2069
2070
2070
2070
2070
2070
2071
2072
2073
2073
2074
2074
2075
2076
2076
2077
2078
2079
2080
2081
2082
2083
2084
2085
2086
2088
2089
2090
2091
2092
2092
2093
2093
2093
2093
2092
2091
2090
2088
2086
2083
2079
2076
2072
2070
2067
2066
2064
2063
2063
2063
2062
2062
2062
2061
2061
2060
2061
2061
2061
2062
2061
2061
2061
2060
2060
2061
2061
2062
2063
2063
2063
2063
2063
2063
2062
2062
2062
2063
2063
2063
2062
2062
2062
2061
2061
2061
2061
2061
2062
2062
2063
2063
2062
2062
2062
2062
2062
2062
2061
2061
2061
2061
2061
2062
2062
2062
2062
2062
2062
2062
2062
2061
2061
2061
2061
2061
2061
2062
2063
2063
2063
2062
2061
2061
2060
2061
2061
2062
2062
2062
2061
2061
2060
2060
2060
2060
2061
2061
2062
2062
2061
2061
2060
2060
2060
2060
2061
2061
2062
2062
2062
2062
2062
2062
2062
2061
2061
2062
2062
2062
2062
2062
2060
2059
2058
2058
2060
2061
2063
2065
2066
2067
2067
2067
2066
2065
2065
2064
2064
2064
2064
2064
2064
2063
2062
2061
2062
2062
2062
2063
2063
2063
2062
2062
2062
2062
2062
2062
2060
2057
2057
2063
2079
2102
2127
2144
2145
2127
2097
2065
2041
2029
2030
2039
2049
2058
2065
2068
2069
2068
2067
2066
2066
2067
2068
2068
2069
2070
2070
2071
2071
2071
2071
2071
2072
2072
2073
2073
2074
2074
2075
2075
2076
2076
2077
2078
2079
2080
2081
2082
2083
2083
2083
2084
2085
2086
2087
2089
2090
2090
2091
2091
2091
2091
2091
2091
2091
2091
2091
2090
2087
2085
2081
2078
2075
2073
2071
2069
2068
2067
2066
2065
2064
2063
2062
2062
2062
2062
2063
2063
2062
2062
2061
2062
2062
2063
2063
2064
2064
2064
2064
2063
2063
2063
2063
2063
2062
2063
2063
2063
2063
2063
2062
2062
2061
2061
2061
2062
2062
2062
2062
2062
2061
2061
2060
2060
2061
2061
2062
2062
2061
2060
2060
2059
2059
2060
2060
2060
2061
2060
2060
2060
2059
2059
2059
2059
2059
2059
2060
2060
2060
2059
2059
2059
2059
2059
2060
2060
2061
2061
2060
2060
2059
2059
2059
2059
2059
2060
2060
2060
2059
2059
2059
2058
2058
2058
2058
2058
2059
2059
2058
2058
2057
2057
2057
2057
2057
2057
2058
2058
2059
2059
2059
2058
2058
2058
2059
2059
2059
2059
2059
2058
2057
2057
2057
2057
2057
2058
2058
2059
2060
2060
2061
2061
2060
2060
2059
2059
2058
2058
2058
2057
2057
2056
2056
2056
2056
2056
2056
2056
2055
2054
2054
2055
2055
2055
2055
2053
2050
2048
2051
2061
2080
2105
2127
2136
2128
2104
2072
2044
2024
2018
2021
2030
2040
2048
2053
2057
2058
2057
2057
2057
2056
2056
2056
2056
2057
2058
2059
2060
2060
2060
2059
2059
2060
2060
2062
2063
2063
2063
2063
2063
2063
2063
2063
2064
2065
2066
2067
2068
2068
2069
2070
2070
2071
2072
2073
2074
2075
2076
2076
2075
2074
2074
2074
2074
2075
2075
2075
2074
2072
2070
2067
2064
2061
2058
2056
2054
2053
2051
2050
2049
2048
2046
2045
2044
2044
2045
2045
2045
2044
2044
2043
2043
2043
2043
2044
2045
2045
2046
2046
2046
2045
2044
2044
2044
2044
2044
2045
2045
2046
2046
2046
2045
2045
2044
2044
2044
2044
2045
2044
2044
2043
2042
2041
2042
2042
2042
2043
2043
2043
2043
2042
2041
2041
2041
2041
2042
2043
2042
2041
2040
2040
2040
2040
2041
2041
2042
2042
2042
2041
2041
2040
2040
2040
2040
2040
2040
2040
2040
2040
2040
2040
2040
2041
2041
2042
2042
2042
2042
2041
2040
2040
2039
2039
2040
2040
2040
2041
2041
2041
2041
2041
2041
2042
2042
2042
2042
2042
2041
2040
2040
2040
2040
2041
2042
2044
2045
2047
2047
2047
2046
2045
2044
2043
2043
2044
2044
2045
2045
2045
2044
2044
2044
2043
2043
2043
2043
2043
2043
2044
2044
2044
2043
2042
2039
2036
2037
2045
2063
2089
2116
2134
2133
2113
2081
2047
2022
2009
2008
2014
2023
2031
2038
2043
2046
2047
2047
2047
2048
2048
2048
2048
2047
2048
2048
2049
2050
2051
2052
2053
2053
2053
2053
2054
2054
2055
2056
2057
2058
2059
2059
2060
2060
2062
2063
2064
2065
2066
2067
2067
2068
2068
2069
2070
2071
2073
2074
2075
2075
2076
2075
2075
2074
2074
2072
2071
2069
2067
2064
2061
2057
2054
2052
2050
2049
2048
2048
2047
2046
2045
2044
2043
2042
2041
2041
2042
2042
2043
2043
2043
2043
2043
2043
2043
2044
2045
2046
2047
2047
2047
2047
2046
2046
2046
2047
2048
2048
2048
2048
2048
2048
2048
2047
2047
2047
2047
2048
2048
2048
2048
2047
2047
2046
2046
2046
2046
2047
2048
2048
2048
2048
2047
2047
2047
2047
2047
2047
2047
2047
2047
2046
2046
2047
2047
2047
2048
2048
2048
2048
2048
2048
2048
2048
2048
2048
2048
2049
2049
2050
2050
2050
2049
2049
2050
2050
2051
2051
2051
2051
2051
2051
2051
2050
2050
2050
2050
2051
2051
2051
2051
2051
2053
2054
2056
2057
2058
2058
2058
2057
2057
2056
2056
2055
2055
2055
2056
2056
2057
2057
2056
2055
2054
2054
2054
2055
2056
2056
2057
2057
2056
2054
2050
2049
2051
2062
2084
2111
2136
2147
2139
2113
2079
2048
2027
2020
2023
2032
2042
2050
2057
2061
2063
2064
2063
2063
2064
2064
2065
2065
2066
2067
2067
2068
2068
2068
2068
2068
2069
2070
2071
2072
2072
2073
2073
2074
2075
2076
2077
2078
2079
2080
2080
2081
2081
2082
2083
2085
2087
2088
2089
2089
2089
2089
2089
2090
2091
2092
2092
2092
2092
2090
2088
2086
2083
2080
2077
2074
2071
2069
2067
2065
2063
2062
2061
2061
2060
2060
2059
2059
2059
2058
2058
2058
2058
2058
2058
2058
2058
2059
2059
2059
2059
2059
2058
2058
2059
2060
2060
2060
2060
2060
2059
2059
2059
2059
2059
2059
2059
2060
2060
2060
2059
2059
2058
2058
2058
2058
2059
2059
2059
2059
2058
2058
2058
2058
2058
2058
2059
2059
2059
2059
2058
2058
2058
2058
2058
2058
2058
2058
2059
2059
2060
2060
2061
2062
2062
2063
2063
2062
2061
2059
2058
2058
2057
2057
2057
2057
2058
2058
2058
2058
2057
2057
2057
2057
2058
2058
2058
2058
2058
2058
2058
2057
2057
2058
2058
2058
2058
2058
2059
2059
2059
2059
2058
2057
2057
2057
2057
2058
2059
2060
2061
2061
2062
2062
2062
2062
2062
2062
2061
2060
2059
2058
2058
2058
2059
2059
2060
2059
2059
2058
2058
2057
2057
2058
2058
2058
2058
2057
2054
2052
2051
2056
2070
2092
2119
2140
2146
2133
2105
2070
2042
2025
2022
2028
2039
2049
2058
2062
2064
2064
2063
2062
2062
2062
2063
2064
2065
2065
2065
2064
2063
2063
2063
2064
2065
2066
2067
2067
2067
2068
2067
2068
2068
2068
2069
2070
2072
2073
2074
2074
2075
2075
2076
2078
2079
2080
2082
2083
2085
2086
2087
2088
2088
2089
2089
2089
2090
2090
2089
2087
2084
2081
2078
2075
2072
2070
2068
2066
2065
2063
2060
2058
2057
2056
2056
2056
2057
2057
2057
2056
2056
2056
2056
2056
2057
2057
2058
2058
2058
2057
2057
2056
2056
2056
2057
2057
2058
2059
2059
2058
2057
2057
2056
2056
2057
2057
2057
2057
2057
2057
2057
2057
2056
2056
2056
2056
2056
2056
2056
2056
2056
2056
2056
2056
2056
2057
2057
2058
2057
2056
2055
2054
2054
2055
2055
2056
2056
2056
2056
2056
2055
2055
2054
2054
2055
2055
2056
2056
2056
2055
2055
2055
2055
2055
2055
2056
2056
2056
2056
2056
2055
2055
2055
2055
2055
2055
2055
2055
2055
2055
2055
2055
2055
2055
2055
2055
2056
2056
2056
2056
2055
2055
2055
2055
2055
2055
2056
2056
2055
2055
2054
2054
2053
2054
2054
2056
2057
2059
2059
2059
2059
2058
2057
2057
2056
2057
2056
2056
2055
2054
2053
2053
2053
2053
2053
2053
2053
2053
2053
2052
2052
2053
2053
2053
2053
2052
2050
2048
2048
2054
2068
2091
2116
2133
2135
2120
2090
2058
2033
2019
2018
2026
2037
2047
2053
2057
2057
2057
2056
2056
2056
2056
2055
2055
2056
2057
2058
2059
2059
2059
2059
2059
2059
2060
2061
2061
2061
2061
2061
2061
2061
2062
2063
2064
2065
2066
2067
2068
2068
2068
2068
2069
2070
2071
2072
2073
2074
2074
2075
2075
2075
2076
2075
2076
2076
2076
2075
2074
2072
2069
2066
2063
2060
2058
2056
2054
2053
2052
2051
2049
2048
2046
2045
2044
2045
2045
2046
2046
2046
2046
2045
2045
2044
2044
2044
2045
2045
2046
2046
2046
2046
2045
2045
2044
2043
2043
2043
2042
2042
2042
2042
2041
2040
2039
2039
2038
2038
2037
2037
2036
2036
2036
2037
2038
2038
2038
2038
2038
2038
2037
2037
2036
2037
2037
2037
2037
2037
2036
2036
2036
2036
2037
2037
2037
2037
2037
2037
2036
2036
2035
2034
2034
2035
2035
2035
2036
2037
2037
2036
2036
2035
2034
2034
2034
2034
2034
2035
2035
2035
2035
2034
2033
2032
2032
2033
2034
2035
2035
2035
2034
2033
2033
2033
2033
2033
2033
2034
2034
2034
2034
2033
2032
2032
2032
2032
2033
2034
2035
2036
2037
2038
2038
2037
2036
2034
2032
2032
2032
2032
2032
2031
2030
2030
2029
2030
2030
2031
2032
2032
2032
2032
2032
2033
2033
2032
2031
2029
2027
2028
2036
2053
2078
2104
2119
2117
2096
2064
2032
2009
1998
1998
2004
2014
2023
2030
2036
2039
2040
2039
2039
2039
2039
2040
2041
2042
2042
2043
2044
2044
2045
2045
2044
2044
2045
2045
2046
2047
2048
2048
2048
2049
2050
2051
2052
2054
2055
2056
2057
2057
2057
2056
2057
2058
2059
2060
2062
2063
2063
2063
2064
2064
2064
2065
2065
2066
2065
2064
2063
2061
2058
2055
2052
2049
2047
2044
2042
2041
2040
2040
2039
2038
2037
2036
2035
2034
2034
2035
2035
2036
2036
2036
2036
2036
2036
2036
2037
2037
2037
2037
2037
2038
2038
2038
2038
2038
2039
2040
2040
2041
2040
2039
2038
2037
2037
2038
2038
2039
2039
2039
2038
2038
2037
2038
2037
2037
2037
2038
2038
2039
2039
2039
2039
2038
2038
2038
2039
2039
2040
2040
2040
2040
2040
2040
2041
2042
2042
2042
2043
2042
2042
2042
2043
2043
2044
2044
2044
2044
2044
2044
2043
2043
2043
2043
2043
2043
2043
2043
2043
2044
2045
2046
2048
2049
2050
2050
2050
2049
2049
2048
2048
2048
2047
2047
2047
2047
2047
2047
2048
2048
2048
2047
2047
2047
2047
2048
2048
2049
2049
2048
2046
2042
2042
2047
2060
2085
2113
2134
2139
2125
2095
2060
2032
2016
2012
2017
2027
2037
2045
2051
2055
2056
2056
2056
2056
2056
2057
2058
2059
2059
2060
2060
2060
2060
2060
2061
2062
2063
2064
2064
2064
2064
2064
2065
2066
2067
2068
2069
2070
2070
2071
2072
2073
2075
2076
2078
2079
2080
2081
2082
2083
2083
2083
2084
2084
2085
2085
2086
2085
2085
2083
2081
2078
2076
2072
2069
2066
2064
2061
2059
2057
2055
2054
2053
2052
2052
2052
2053
2053
2053
2052
2052
2051
2051
2051
2052
2053
2054
2054
2054
2054
2054
2054
2054
2055
2055
2056
2056
2056
2056
2056
2055
2055
2055
2055
2056
2056
2057
2057
2057
2057
2057
2057
2056
2056
2055
2055
2056
2056
2057
2057
2057
2056
2056
2056
2056
2056
2056
2056
2056
2056
2056
2056
2056
2056
2057
2057
2058
2058
2058
2057
2057
2057
2057
2057
2058
2058
2058
2058
2057
2057
2057
2057
2057
2057
2057
2058
2058
2058
2057
2056
2055
2054
2053
2054
2055
2057
2059
2061
2061
2061
2060
2059
2059
2058
2058
2058
2058
2058
2057
2057
2056
2056
2056
2056
2056
2056
2055
2055
2055
2055
2054
2054
2055
2054
2054
2052
2049
2048
2050
2061
2082
2108
2131
2142
2134
2108
2075
2044
2024
2018
2022
2032
2044
2052
2058
2061
2061
2061
2060
2060
2060
2060
2060
2060
2061
2061
2062
2062
2063
2063
2063
2063
2064
2064
2065
2065
2066
2066
2067
2067
2067
2067
2068
2069
2070
2071
2072
2072
2073
2074
2075
2076
2077
2078
2079
2080
2081
2082
2082
2082
2082
2082
2082
2082
2082
2081
2080
2077
2074
2071
2068
2065
2063
2060
2058
2056
2055
2054
2053
2052
2050
2049
2048
2048
2048
2049
2050
2050
2049
2048
2048
2048
2048
2048
2049
2050
2051
2051
2051
2051
2050
2050
2050
2050
2050
2050
2050
2050
2049
2049
2048
2048
2048
2049
2049
2050
2050
2049
2049
2048
2049
2049
2049
2050
2050
2051
2051
2052
2052
2051
2050
2050
2050
2050
2050
2051
2052
2052
2052
2052
2051
2050
2050
2050
2051
2051
2052
2052
2051
2051
2050
2049
2049
2048
2049
2050
2050
2051
2051
2051
2051
2051
2051
2052
2052
2053
2054
2054
2054
2053
2052
2052
2052
2052
2053
2054
2054
2055
2055
2055
2055
2055
2055
2055
2055
2056
2056
2056
2056
2057
2058
2060
2061
2062
2063
2063
2063
2062
2061
2060
2059
2058
2058
2058
2059
2059
2060
2060
2060
2059
2059
2059
2059
2059
2060
2061
2062
2062
2062
2060
2057
2054
2053
2058
2071
2093
2120
2140
2146
2133
2105
2072
2044
2028
2026
2034
2046
2056
2063
2066
2067
2066
2065
2064
2065
2066
2066
2067
2067
2068
2068
2068
2068
2069
2070
2071
2071
2071
2071
2071
2071
2071
2072
2073
2074
2074
2075
2076
2077
2078
2078
2079
2080
2080
2081
2083
2084
2085
2085
2086
2086
2086
2087
2087
2088
2089
2089
2090
2090
2090
2089
2087
2086
2084
2081
2079
2077
2074
2071
2068
2066
2064
2063
2062
2062
2062
2062
2062
2061
2060
2060
2059
2060
2060
2061
2061
2061
2061
2061
2061
2061
2061
2061
2060
2061
2062
2062
2063
2063
2063
2062
2062
2062
2062
2062
2062
2061
2061
2060
2059
2059
2059
2059
2059
2059
2059
2059
2059
2058
2058
2057
2057
2057
2057
2058
2058
2058
2058
2058
2057
2057
2056
2056
2056
2057
2057
2057
2058
2057
2057
2057
2056
2056
2056
2056
2057
2057
2058
2058
2058
2057
2056
2056
2056
2056
2057
2057
2058
2058
2057
2056
2056
2055
2055
2055
2055
2056
2056
2056
2056
2056
2055
2055
2055
2055
2055
2055
2055
2055
2054
2053
2053
2054
2055
2056
2058
2059
2060
2060
2059
2058
2057
2055
2054
2054
2054
2054
2053
2053
2052
2052
2052
2052
2053
2053
2053
2052
2052
2052
2052
2052
2051
2049
2046
2045
2047
2057
2078
2104
2127
2136
2127
2101
2068
2039
2020
2014
2017
2025
2035
2044
2049
2053
2054
2054
2054
2054
2054
2054
2054
2054
2054
2054
2055
2056
2057
2057
2058
2058
2058
2057
2057
2058
2058
2059
2060
2061
2062
2062
2062
2062
2063
2064
2065
2066
2067
2068
2069
2069
2069
2069
2070
2070
2071
2072
2073
2074
2074
2075
2074
2074
2073
2073
2072
2071
2069
2067
2064
2061
2059
2056
2053
2051
2049
2048
2047
2046
2045
2044
2044
2043
2043
2042
2042
2043
2043
2043
2043
2043
2043
2043
2043
2044
2044
2045
2045
2046
2046
2045
2045
2045
2044
2044
2045
2045
2046
2046
2046
2046
2045
2045
2045
2045
2045
2045
2046
2046
2046
2046
2045
2045
2044
2044
2043
2044
2044
2044
2044
2044
2044
2044
2045
2044
2044
2045
2045
2045
2045
2045
2045
2045
2045
2045
2045
2046
2048
2048
2048
2048
2048
2047
2047
2046
2046
2046
2047
2047
2048
2048
2048
2048
2047
2047
2046
2046
2047
2048
2049
2050
2052
2052
2052
2052
2052
2052
2052
2052
2051
2050
2049
2048
2048
2048
2048
2049
2049
2050
2050
2050
2050
2049
2050
2050
2051
2051
2050
2049
2046
2044
2047
2056
2077
2105
2130
2142
2134
2109
2074
2042
2020
2011
2013
2021
2031
2041
2048
2053
2055
2055
2054
2054
2054
2055
2055
2056
2056
2057
2057
2058
2058
2058
2058
2059
2060
2061
2062
2063
2063
2063
2063
2063
2063
2064
2065
2067
2068
2069
2070
2071
2071
2072
2073
2074
2075
2076
2077
2078
2079
2079
2080
2080
2080
2080
2080
2080
2081
2081
2080
2077
2073
2069
2065
2062
2060
2059
2057
2055
2053
2051
2049
2048
2048
2048
2048
2048
2048
2048
2048
2048
2048
2048
2048
2048
2048
2048
2049
2049
2049
2050
2050
2050
2050
2050
2050
2051
2051
2052
2052
2051
2050
2049
2049
2050
2050
2051
2051
2051
2051
2050
2049
2049
2049
2049
2049
2049
2049
2049
2049
2049
2048
2048
2048
2048
2048
2048
2049
2049
2050
2050
2049
2049
2049
2049
2049
2050
2050
2050
2050
2049
2049
2048
2048
2048
2048
2049
2050
2051
2052
2052
2051
2049
2049
2049
2050
2051
2053
2055
2057
2057
2057
2056
2055
2054
2053
2053
2053
2053
2053
2052
2051
2050
2050
2050
2050
2051
2052
2052
2051
2050
2049
2049
2050
2050
2049
2048
2047
2045
2047
2055
2074
2100
2124
2137
2131
2108
2075
2044
2022
2013
2015
2024
2034
2044
2050
2056
2058
2058
2057
2056
2056
2056
2055
2056
2056
2057
2058
2059
2059
2059
2059
2059
2059
2059
2060
2062
2063
2064
2065
2065
2064
2064
2064
2065
2066
2067
2068
2069
2070
2071
2072
2073
2074
2074
2075
2076
2077
2078
2079
2079
2079
2078
2078
2077
2077
2076
2075
2073
2070
2067
2064
2061
2058
2056
2053
2051
2050
2049
2048
2048
2047
2047
2046
2045
2045
2045
2045
2045
2046
2046
2046
2046
2046
2046
2046
2047
2047
2047
2047
2047
2047
2047
2047
2046
2046
2046
2046
2046
2046
2046
2045
2044
2044
2044
2044
2045
2045
2046
2045
2045
2044
2044
2043
2043
2043
2044
2044
2044
2045
2045
2045
2044
2044
2044
2044
2045
2045
2045
2044
2044
2043
2043
2043
2043
2043
2044
2044
2044
2044
2044
2044
2043
2043
2044
2044
2044
2044
2044
2044
2044
2044
2043
2043
2043
2044
2045
2045
2046
2045
2045
2044
2044
2044
2044
2044
2044
2044
2044
2044
2044
2044
2045
2046
2046
2046
2047
2047
2048
2047
2046
2046
2045
2044
2044
2043
2044
2044
2045
2045
2045
2045
2045
2045
2045
2044
2045
2045
2045
2044
2043
2041
2038
2038
2045
2060
2084
2110
2128
2129
2112
2081
2048
2022
2010
2010
2018
2030
2040
2047
2050
2051
2050
2049
2048
2049
2050
2051
2051
2052
2052
2052
2051
2052
2052
2053
2054
2055
2056
2056
2057
2057
2057
2057
2058
2059
2060
2061
2062
2062
2062
2062
2062
2063
2064
2065
2066
2068
2069
2069
2069
2069
2069
2070
2070
2071
2073
2074
2075
2075
2074
2073
2071
2069
2067
2064
2062
2059
2057
2055
2053
2051
2048
2048
2047
2047
2047
2046
2046
2046
2045
2045
2045
2045
2046
2046
2047
2047
2047
2047
2047
2047
2047
2046
2046
2046
2047
2047
2048
2048
2047
2047
2046
2046
2047
2047
2047
2048
2048
2048
2048
2048
2048
2047
2047
2047
2047
2047
2047
2047
2046
2046
2045
2045
2045
2045
2045
2045
2046
2046
2046
2046
2046
2046
2045
2045
2045
2045
2045
2045
2045
2045
2044
2044
2043
2043
2043
2043
2044
2044
2045
2045
2044
2044
2044
2044
2044
2044
2045
2045
2046
2046
2045
2045
2045
2045
2045
2045
2045
2044
2044
2044
2044
2044
2044
2044
2045
2045
2045
2045
2044
2044
2043
2043
2043
2044
2045
2047
2048
2049
2049
2049
2048
2048
2046
2045
2045
2045
2045
2045
2045
2046
2045
2045
2045
2045
2046
2046
2046
2046
2046
2046
2045
2044
2043
2041
2039
2038
2041
2051
2070
2095
2117
2127
2119
2096
2064
2036
2017
2011
2015
2024
2034
2042
2047
2048
2049
2049
2049
2049
2049
2048
2048
2048
2048
2049
2050
2050
2050
2050
2050
2051
2051
2051
2051
2052
2052
2053
2054
2054
2055
2055
2055
2055
2055
2056
2057
2058
2058
2059
2059
2060
2060
2061
2061
2062
2063
2064
2065
2066
2066
2066
2065
2065
2064
2064
2064
2063
2061
2058
2056
2053
2049
2048
2045
2043
2041
2040
2039
2038
2038
2037
2037
2037
2036
2036
2036
2036
2036
2037
2037
2038
2037
2037
2037
2037
2037
2037
2036
2036
2036
2036
2036
2036
2036
2036
2036
2037
2037
2036
2036
2036
2035
2035
2035
2035
2036
2036
2037
2037
2036
2036
2035
2035
2035
2035
2035
2036
2036
2036
2035
2035
2034
2034
2034
2034
2034
2034
2035
2035
2036
2036
2036
2036
2035
2035
2035
2034
2034
2034
2034
2034
2033
2034
2034
2034
2035
2036
2036
2037
2037
2037
2036
2035
2034
2034
2034
2035
2035
2035
2035
2036
2036
2036
2035
2035
2035
2035
2036
2037
2037
2036
2035
2034
2033
2034
2035
2036
2038
2038
2039
2040
2040
2040
2040
2039
2039
2039
2039
2039
2038
2037
2036
2036
2036
2036
2037
2037
2038
2038
2038
2038
2037
2037
2037
2038
2038
2037
2035
2033
2034
2042
2059
2084
2110
2125
2122
2101
2069
2038
2015
2004
2004
2010
2019
2028
2036
2041
2045
2046
2046
2046
2046
2046
2046
2046
2046
2047
2047
2048
2048
2048
2048
2048
2049
2049
2051
2052
2053
2053
2053
2053
2053
2054
2054
2055
2057
2058
2059
2060
2060
2061
2061
2062
2062
2063
2064
2064
2065
2066
2067
2068
2068
2068
2069
2070
2070
2070
2069
2067
2066
2063
2060
2058
2056
2053
2051
2049
2048
2046
2044
2043
2042
2041
2041
2041
2041
2041
2041
2041
2041
2041
2041
2042
2042
2041
2042
2042
2042
2043
2043
2044
2044
2044
2044
2044
2044
2044
2044
2044
2043
2043
2042
2042
2042
2042
2043
2044
2044
2044
2043
2043
2042
2042
2042
2042
2043
2043
2042
2042
2042
2042
2041
2042
2042
2042
2042
2042
2042
2043
2043
2043
2042
2042
2042
2042
2043
2044
2045
2046
2045
2044
2043
2043
2043
2043
2044
2044
2044
2044
2044
2045
2045
2046
2046
2045
2046
2046
2047
2047
2048
2048
2047
2046
2045
2044
2044
2044
2046
2048
2048
2050
2050
2051
2050
2050
2050
2049
2049
2048
2048
2048
2046
2046
2046
2046
2047
2048
2048
2048
2048
2048
2048
2048
2048
2048
2048
2048
2047
2045
2043
2046
2055
2075
2101
2126
2137
2129
2104
2070
2040
2019
2011
2013
2021
2031
2040
2048
2052
2055
2055
2054
2053
2053
2054
2054
2055
2056
2056
2056
2057
2058
2058
2058
2059
2059
2060
2061
2062
2062
2062
2062
2061
2062
2063
2064
2065
2066
2067
2068
2069
2070
2070
2071
2072
2072
2073
2075
2076
2077
2078
2078
2078
2078
2078
2078
2079
2079
2078
2078
2076
2073
2070
2067
2065
2062
2060
2058
2056
2054
2052
2051
2049
2048
2048
2048
2048
2048
2049
2049
2048
2048
2048
2048
2048
2049
2050
2051
2052
2052
2051
2051
2050
2050
2049
2049
2050
2051
2051
2052
2052
2051
2051
2051
2051
2050
2051
2051
2051
2051
2051
2051
2050
2050
2050
2049
2049
2049
2049
2049
2049
2049
2049
2048
2048
2049
2049
2050
2050
2051
2051
2051
2050
2050
2050
2050
2050
2051
2051
2052
2052
2052
2052
2052
2051
2051
2052
2052
2052
2052
2052
2052
2052
2052
2052
2052
2052
2052
2052
2053
2053
2053
2052
2052
2052
2052
2053
2053
2054
2054
2054
2054
2053
2053
2052
2052
2051
2051
2052
2053
2054
2055
2056
2057
2057
2057
2057
2057
2056
2055
2055
2054
2054
2054
2054
2054
2054
2054
2054
2053
2053
2053
2053
2053
2053
2053
2054
2054
2053
2052
2049
2048
2051
2063
2085
2111
2133
2141
2129
2102
2068
2039
2022
2017
2022
2032
2043
2050
2056
2059
2059
2058
2058
2058
2058
2058
2059
2060
2060
2061
2061
2061
2061
2061
2062
2063
2063
2064
2064
2064
2064
2065
2065
2065
2066
2067
2068
2069
2071
2072
2073
2073
2074
2074
2075
2075
2076
2078
2079
2080
2080
2081
2081
2081
2082
2082
2083
2084
2084
2083
2081
2079
2077
2074
2072
2069
2067
2065
2063
2061
2060
2058
2057
2056
2055
2054
2054
2054
2054
2054
2054
2054
2054
2054
2054
2054
2055
2055
2055
2055
2055
2055
2054
2054
2055
2055
2056
2056
2057
2057
2056
2055
2055
2054
2054
2055
2056
2056
2057
2057
2057
2056
2056
2056
2056
2056
2057
2057
2057
2057
2056
2056
2056
2056
2056
2056
2056
2056
2056
2056
2056
2056
2055
2055
2055
2054
2054
2054
2055
2055
2055
2055
2055
2055
2055
2054
2055
2055
2056
2056
2056
2056
2056
2056
2056
2055
2056
2056
2056
2056
2056
2057
2056
2056
2056
2056
2056
2056
2057
2057
2057
2057
2056
2055
2055
2055
2055
2055
2056
2056
2056
2056
2057
2058
2058
2059
2060
2060
2061
2061
2060
2059
2058
2057
2056
2056
2057
2058
2058
2059
2059
2058
2058
2057
2057
2057
2057
2058
2059
2059
2058
2056
2052
2050
2053
2063
2083
2109
2132
2143
2136
2112
2079
2048
2028
2022
2027
2038
2048
2057
2061
2063
2063
2062
2062
2062
2063
2064
2064
2065
2065
2064
2065
2065
2065
2065
2066
2067
2067
2068
2068
2068
2068
2068
2069
2070
2071
2072
2073
2074
2074
2074
2075
2076
2077
2078
2079
2079
2080
2081
2081
2082
2082
2083
2083
2084
2085
2086
2087
2087
2087
2087
2085
2083
2081
2078
2076
2073
2071
2068
2066
2064
2062
2061
2059
2058
2058
2058
2058
2058
2058
2058
2057
2057
2057
2057
2058
2058
2059
2059
2060
2059
2059
2058
2058
2058
2058
2058
2059
2059
2058
2057
2056
2056
2055
2055
2056
2056
2057
2057
2057
2056
2055
2055
2055
2055
2055
2055
2055
2055
2055
2055
2054
2054
2054
2054
2054
2054
2054
2054
2054
2053
2053
2054
2054
2054
2053
2053
2052
2052
2052
2052
2052
2052
2052
2052
2053
2053
2053
2053
2053
2053
2052
2052
2052
2051
2052
2052
2052
2053
2053
2053
2052
2051
2050
2050
2050
2051
2051
2052
2051
2051
2050
2050
2050
2049
2049
2048
2048
2049
2050
2051
2052
2053
2053
2053
2054
2054
2054
2053
2052
2051
2049
2048
2048
2048
2048
2048
2048
2048
2048
2048
2048
2048
2048
2048
2048
2048
2048
2047
2044
2042
2043
2048
2064
2088
2113
2130
2131
2113
2082
2049
2024
2011
2010
2017
2027
2036
2044
2048
2051
2052
2050
2049
2048
2048
2049
2051
2053
2054
2055
2054
2054
2053
2052
2052
2053
2054
2055
2055
2056
2056
2055
2056
2056
2057
2058
2059
2061
2061
2062
2062
2062
2062
2063
2063
2064
2065
2066
2066
2067
2067
2067
2068
2068
2069
2070
2071
2071
2070
2069
2067
2065
2062
2060
2058
2055
2053
2050
2048
2046
2044
2042
2041
2040
2040
2039
2039
2039
2039
2039
2038
2037
2037
2037
2037
2038
2039
2040
2040
2040
2040
2039
2039
2039
2039
2040
2041
2041
2041
2041
2040
2040
2040
2040
2040
2040
2040
2040
2039
2039
2040
2039
2039
2039
2040
2040
2040
2040
2040
2040
2039
2039
2038
2038
2039
2039
2040
2040
2040
2040
2039
2039
2038
2037
2037
2038
2039
2039
2039
2039
2039
2039
2039
2039
2039
2040
2040
2041
2041
2041
2040
2040
2039
2040
2040
2041
2041
2041
2042
2042
2042
2042
2041
2041
2041
2041
2042
2042
2042
2041
2041
2040
2041
2042
2044
2045
2046
2047
2046
2045
2045
2044
2043
2043
2042
2042
2042
2042
2042
2043
2043
2044
2044
2043
2043
2043
2044
2045
2045
2045
2043
2040
2037
2039
2047
2065
2091
2117
2133
2130
2108
2075
2042
2018
2007
2008
2015
2025
2033
2041
2046
2048
2049
2050
2050
2050
2051
2052
2053
2053
2053
2054
2054
2055
2055
2056
2057
2057
2058
2058
2058
2058
2059
2059
2060
2061
2062
2064
2065
2066
2067
2067
2068
2069
2070
2071
2072
2073
2074
2075
2075
2075
2076
2076
2077
2078
2079
2080
2080
2080
2079
2078
2077
2075
2072
2070
2067
2065
2062
2060
2058
2056
2054
2052
2051
2051
2051
2051
2050
2051
2051
2051
2051
2051
2051
2051
2052
2052
2053
2053
2053
2053
2053
2053
2053
2053
2053
2053
2054
2054
2053
2053
2053
2053
2053
2054
2054
2054
2054
2054
2054
2054
2053
2053
2053
2053
2053
2054
2054
2054
2053
2052
2052
2052
2052
2053
2053
2054
2054
2054
2054
2053
2053
2053
2053
2054
2055
2055
2055
2055
2054
2054
2054
2054
2054
2055
2055
2056
2056
2056
2056
2056
2056
2056
2056
2057
2057
2056
2056
2056
2056
2056
2056
2056
2056
2056
2055
2055
2055
2055
2056
2057
2058
2060
2061
2062
2062
2062
2061
2060
2058
2057
2057
2057
2057
2058
2058
2059
2059
2059
2058
2057
2057
2057
2058
2059
2059
2060
2059
2057
2055
2052
2054
2063
2082
2108
2133
2146
2142
2119
2086
2053
2031
2022
2024
2033
2045
2054
2061
2065
2066
2065
2064
2064
2064
2065
2066
2067
2068
2067
2067
2067
2067
2067
2068
2069
2070
2071
2071
2071
2071
2071
2072
2072
2073
2075
2076
2077
2077
2077
2078
2078
2079
2080
2081
2083
2085
2086
2088
2088
2089
2089
2089
2089
2090
2091
2092
2093
2093
2092
2090
2088
2085
2083
2080
2078
2075
2072
2070
2068
2066
2064
2063
2062
2061
2060
2060
2061
2061
2061
2061
2060
2060
2060
2061
2061
2062
2062
2062
2062
2062
2062
2061
2061
2061
2062
2063
2064
2064
2063
2063
2062
2062
2062
2062
2063
2063
2063
2063
2063
2062
2062
2062
2062
2062
2062
2062
2062
2062
2062
2062
2061
2061
2061
2062
2062
2063
2063
2063
2062
2061
2061
2060
2061
2061
2062
2063
2064
2063
2063
2062
2061
2060
2060
2060
2061
2062
2062
2062
2062
2061
2061
2060
2060
2060
2061
2061
2061
2061
2060
2060
2060
2060
2061
2061
2062
2062
2061
2061
2060
2060
2060
2060
2061
2063
2065
2066
2067
2067
2066
2065
2064
2063
2062
2061
2061
2061
2061
2061
2061
2061
2061
2060
2060
2060
2061
2061
2061
2062
2062
2062
2061
2059
2057
2055
2057
2066
2084
2109
2133
2146
2141
2119
2086
2054
2034
2026
2029
2039
2049
2058
2063
2065
2066
2065
2065
2066
2066
2067
2067
2067
2066
2066
2066
2067
2068
2069
2070
2071
2071
2071
2071
2070
2071
2071
2073
2074
2074
2074
2074
2074
2074
2075
2076
2077
2078
2080
2081
2081
2082
2082
2082
2082
2083
2084
2086
2087
2088
2088
2088
2088
2087
2086
2086
2084
2083
2081
2079
2076
2073
2071
2068
2066
2064
2062
2061
2060
2059
2059
2059
2059
2059
2058
2058
2058
2059
2060
2060
2060
2060
2060
2060
2059
2059
2059
2060
2060
2061
2061
2061
2060
2060
2059
2059
2059
2059
2060
2061
2061
2061
2061
2059
2059
2058
2058
2059
2060
2060
2060
2059
2059
2058
2058
2058
2058
2058
2058
2059
2059
2059
2059
2058
2058
2058
2058
2058
2059
2059
2059
2058
2058
2058
2058
2058
2058
2058
2058
2058
2059
2059
2058
2058
2058
2058
2058
2059
2059
2060
2060
2059
2059
2059
2058
2058
2058
2058
2058
2058
2058
2058
2058
2058
2058
2058
2058
2057
2057
2057
2057
2057
2057
2057
2058
2059
2061
2062
2063
2063
2063
2062
2061
2060
2059
2059
2058
2058
2058
2058
2058
2058
2058
2059
2059
2059
2058
2058
2059
2059
2060
2059
2058
2054
2052
2052
2060
2077
2102
2126
2141
2138
2118
2085
2053
2030
2021
2023
2033
2045
2054
2060
2062
2062
2061
2060
2060
2060
2061
2061
2061
2061
2062
2062
2062
2063
2063
2063
2063
2064
2064
2064
2064
2064
2064
2065
2065
2065
2066
2066
2067
2067
2067
2068
2068
2069
2070
2071
2073
2074
2075
2075
2075
2075
2075
2075
2076
2076
2077
2077
2078
2078
2078
2077
2075
2073
2070
2067
2065
2063
2061
2059
2056
2054
2052
2051
2050
2050
2050
2049
2049
2048
2048
2048
2047
2047
2047
2048
2048
2048
2048
2048
2048
2048
2048
2048
2048
2048
2048
2048
2048
2047
2047
2046
2046
2045
2045
2046
2046
2045
2045
2045
2044
2044
2043
2042
2042
2042
2043
2043
2043
2042
2042
2042
2041
2041
2041
2041
2041
2041
2041
2041
2040
2040
2040
2040
2040
2040
2040
2040
2040
2040
2041
2040
2040
2040
2039
2040
2040
2040
2039
2039
2039
2038
2038
2038
2038
2038
2038
2038
2038
2038
2038
2037
2037
2036
2036
2035
2035
2036
2036
2036
2035
2034
2034
2033
2033
2034
2035
2036
2037
2038
2039
2039
2039
2039
2038
2038
2037
2036
2035
2034
2034
2033
2033
2034
2034
2034
2035
2035
2036
2036
2036
2035
2035
2035
2034
2034
2032
2029
2030
2036
2051
2074
2100
2117
2118
2100
2070
2039
2014
2001
1999
2004
2013
2022
2030
2036
2040
2042
2041
2040
2040
2040
2040
2041
2041
2042
2043
2043
2043
2043
2043
2043
2043
2043
2044
2044
2045
2047
2048
2048
2049
2050
2050
2050
2051
2051
2052
2053
2053
2054
2055
2055
2056
2056
2056
2058
2059
2060
2060
2060
2060
2060
2060
2061
2061
2061
2061
2060
2059
2056
2053
2050
2047
2044
2042
2040
2039
2037
2036
2034
2033
2032
2031
2031
2031
2032
2033
2033
2033
2033
2032
2032
2032
2033
2034
2035
2035
2036
2036
2036
2036
2036
2036
2036
2036
2036
2036
2037
2037
2037
2037
2036
2036
2035
2035
2035
2036
2036
2037
2037
2038
2037
2037
2037
2036
2036
2037
2037
2038
2038
2038
2038
2037
2037
2038
2039
2039
2040
2040
2040
2039
2039
2039
2039
2039
2040
2040
2041
2040
2040
2040
2040
2040
2040
2041
2041
2042
2042
2042
2043
2043
2044
2044
2044
2045
2045
2045
2045
2045
2046
2047
2048
2048
2049
2051
2052
2053
2053
2053
2053
2052
2051
2050
2050
2050
2051
2052
2052
2053
2053
2053
2052
2052
2053
2054
2055
2056
2057
2057
2055
2053
2050
2049
2054
2068
2092
2119
2140
2145
2130
2101
2066
2038
2023
2019
2025
2035
2045
2053
2059
2063
2064
2064
2063
2064
2064
2065
2066
2067
2067
2067
2067
2067
2067
2068
2069
2070
2072
2072
2072
2072
2072
2073
2074
2075
2076
2077
2079
2080
2080
2080
2080
2080
2080
2081
2082
2083
2084
2085
2086
2086
2087
2088
2090
2091
2092
2094
2095
2095
2095
2094
2092
2089
2086
2083
2081
2078
2075
2072
2069
2066
2063
2062
2061
2060
2060
2059
2059
2059
2058
2058
2058
2058
2058
2058
2059
2059
2059
2059
2060
2060
2060
2060
2060
2059
2060
2060
2061
2061
2061
2060
2059
2059
2059
2059
2059
2060
2060
2060
2060
2060
2060
2060
2060
2059
2059
2059
2059
2059
2059
2059
2058
2058
2058
2058
2058
2058
2059
2059
2058
2058
2058
2057
2057
2058
2058
2059
2059
2059
2059
2059
2059
2059
2059
2058
2058
2058
2059
2059
2059
2058
2058
2057
2057
2057
2058
2058
2059
2059
2059
2059
2059
2059
2059
2059
2059
2059
2059
2060
2059
2058
2057
2056
2057
2059
2061
2063
2064
2064
2064
2063
2062
2061
2061
2061
2062
2062
2062
2061
2060
2060
2059
2059
2059
2059
2059
2059
2059
2060
2060
2059
2059
2057
2055
2052
2052
2056
2070
2092
2118
2139
2145
2133
2105
2071
2043
2026
2023
2030
2041
2050
2058
2062
2064
2064
2064
2063
2064
2064
2064
2065
2065
2065
2066
2066
2067
2067
2068
2068
2069
2069
2069
2069
2069
2070
2071
2072
2073
2073
2074
2074
2074
2075
2075
2076
2077
2078
2079
2080
2081
2081
2082
2082
2083
2084
2084
2085
2086
2087
2087
2087
2087
2086
2086
2084
2083
2081
2078
2075
2072
2069
2066
2063
2062
2061
2060
2059
2058
2057
2056
2056
2055
2054
2054
2054
2055
2055
2056
2056
2056
2056
2055
2055
2055
2055
2056
2057
2057
2057
2056
2056
2055
2055
2055
2055
2056
2056
2056
2056
2056
2056
2055
2054
2054
2054
2054
2055
2055
2055
2055
2055
2054
2054
2054
2054
2054
2055
2055
2055
2054
2054
2054
2054
2054
2054
2054
2054
2054
2054
2054
2054
2053
2053
2053
2053
2054
2054
2054
2054
2054
2054
2053
2053
2054
2054
2054
2054
2054
2054
2054
2053
2053
2053
2053
2053
2053
2053
2054
2054
2054
2054
2054
2054
2053
2053
2053
2053
2052
2053
2054
2055
2057
2058
2059
2059
2059
2059
2059
2059
2058
2057
2055
2054
2054
2054
2055
2055
2056
2056
2055
2055
2054
2053
2053
2053
2053
2054
2055
2055
2054
2051
2048
2048
2054
2069
2092
2117
2135
2137
2121
2092
2058
2033
2020
2020
2029
2041
2051
2059
2062
2063
2061
2060
2059
2060
2061
2062
2063
2064
2065
2065
2066
2066
2066
2066
2066
2067
2067
2068
2069
2069
2069
2069
2069
2069
2070
2071
2072
2073
2073
2073
2074
2074
2075
2076
2077
2078
2079
2080
2080
2081
2081
2081
2081
2082
2083
2084
2085
2085
2085
2084
2081
2079
2076
2073
2071
2069
2067
2065
2063
2061
2060
2059
2058
2057
2056
2056
2057
2057
2057
2057
2057
2057
2057
2058
2058
2059
2059
2059
2059
2059
2059
2059
2060
2060
2060
2060
2060
2060
2060
2059
2059
2058
2058
2059
2059
2060
2060
2060
2060
2060
2059
2059
2059
2060
2060
2060
2060
2060
2060
2059
2059
2059
2059
2058
2059
2059
2060
2060
2059
2059
2058
2058
2058
2059
2059
2060
2060
2060
2059
2059
2058
2058
2058
2058
2059
2059
2059
2059
2059
2059
2059
2059
2058
2058
2058
2058
2058
2058
2058
2058
2058
2059
2059
2059
2059
2059
2058
2058
2058
2057
2057
2057
2057
2056
2056
2056
2056
2056
2057
2059
2060
2060
2060
2060
2059
2059
2058
2058
2057
2056
2055
2054
2053
2053
2053
2053
2053
2053
2053
2053
2052
2051
2051
2051
2052
2052
2052
2051
2048
2047
2047
2054
2071
2095
2119
2134
2131
2111
2080
2048
2026
2016
2017
2026
2037
2047
2053
2057
2057
2056
2055
2055
2054
2055
2055
2055
2056
2057
2058
2058
2058
2058
2057
2058
2059
2060
2061
2061
2061
2061
2061
2061
2061
2061
2062
2063
2063
2064
2065
2066
2066
2067
2067
2068
2069
2070
2071
2071
2071
2071
2071
2072
2072
2073
2074
2075
2076
2076
2075
2073
2071
2069
2067
2064
2062
2060
2058
2056
2054
2052
2050
2049
2048
2048
2047
2047
2048
2048
2048
2048
2048
2048
2047
2047
2047
2048
2048
2048
2048
2048
2047
2047
2046
2047
2047
2048
2048
2049
2049
2049
2048
2048
2047
2047
2047
2048
2048
2048
2048
2047
2047
2046
2046
2046
2047
2047
2047
2047
2046
2045
2045
2045
2045
2045
2046
2046
2046
2046
2046
2046
2046
2046
2046
2046
2046
2046
2047
2047
2046
2046
2046
2045
2045
2045
2045
2045
2046
2046
2046
2046
2046
2045
2045
2045
2045
2046
2046
2046
2046
2046
2045
2046
2046
2046
2046
2045
2045
2045
2044
2044
2044
2045
2046
2048
2049
2051
2051
2051
2051
2049
2048
2047
2045
2044
2045
2046
2047
2047
2047
2046
2045
2044
2044
2044
2045
2045
2045
2046
2046
2046
2045
2043
2040
2038
2041
2050
2071
2097
2120
2132
2124
2100
2067
2037
2016
2008
2010
2017
2026
2035
2042
2048
2050
2051
2051
2051
2051
2052
2052
2053
2054
2054
2053
2053
2054
2055
2056
2057
2058
2058
2058
2058
2058
2059
2059
2060
2061
2061
2062
2063
2064
2065
2066
2067
2068
2069
2070
2071
2072
2072
2073
2073
2074
2074
2075
2075
2075
2075
2076
2076
2076
2075
2074
2073
2072
2071
2068
2064
2061
2057
2053
2051
2049
2048
2048
2047
2046
2046
2046
2046
2046
2046
2046
2046
2046
2047
2047
2047
2047
2046
2046
2045
2045
2046
2046
2047
2048
2048
2048
2048
2048
2047
2047
2047
2047
2047
2048
2048
2047
2047
2047
2047
2048
2048
2048
2048
2048
2048
2048
2048
2048
2048
2047
2047
2047
2048
2048
2048
2048
2048
2047
2047
2046
2046
2046
2047
2048
2048
2048
2048
2048
2048
2048
2049
2049
2049
2049
2048
2048
2048
2049
2050
2050
2049
2048
2048
2048
2048
2049
2050
2051
2052
2053
2053
2054
2054
2054
2054
2053
2052
2051
2050
2050
2050
2051
2051
2052
2052
2052
2051
2050
2049
2049
2049
2050
2051
2052
2051
2049
2047
2045
2048
2057
2078
2105
2128
2138
2129
2102
2068
2038
2019
2012
2015
2024
2034
2044
2050
2055
2057
2057
2057
2057
2058
2059
2059
2060
2060
2061
2061
2061
2061
2062
2062
2063
2064
2064
2065
2065
2065
2066
2066
2067
2069
2070
2071
2072
2073
2073
2074
2074
2075
2075
2075
2076
2077
2079
2080
2080
2081
2081
2081
2081
2082
2083
2084
2085
2085
2083
2081
2079
2076
2073
2070
2068
2066
2064
2061
2059
2058
2056
2054
2053
2052
2052
2052
2053
2053
2053
2053
2053
2052
2052
2053
2053
2054
2054
2055
2055
2055
2054
2054
2054
2054
2054
2055
2055
2055
2055
2054
2054
2054
2054
2054
2054
2054
2054
2054
2054
2054
2053
2054
2054
2054
2055
2055
2055
2055
2055
2055
2054
2054
2055
2055
2056
2056
2057
2057
2056
2056
2055
2055
2054
2054
2055
2055
2055
2055
2055
2054
2054
2053
2053
2054
2054
2055
2055
2056
2056
2056
2055
2055
2055
2055
2056
2056
2056
2056
2056
2056
2055
2054
2054
2054
2054
2056
2057
2059
2061
2062
2061
2061
2061
2061
2061
2060
2060
2060
2059
2059
2058
2058
2058
2059
2059
2060
2060
2060
2060
2059
2059
2059
2060
2060
2059
2058
2055
2054
2057
2069
2089
2115
2137
2145
2136
2111
2078
2048
2030
2025
2030
2040
2050
2058
2064
2067
2068
2068
2068
2068
2067
2067
2067
2068
2069
2070
2071
2072
2073
2073
2072
2072
2073
2073
2074
2075
2076
2076
2077
2077
2077
2078
2078
2079
2081
2083
2084
2085
2087
2087
2088
2089
2090
2092
2093
2095
2096
2097
2098
2098
2099
2099
2100
2100
2100
2100
2100
2098
2096
2094
2091
2089
2087
2086
2085
2084
2083
2083
2082
2081
2081
2081
2081
2081
2082
2084
2085
2087
2088
2088
2089
2089
2090
2090
2092
2093
2093
2093
2093
2092
2092
2092
2092
2093
2094
2095
2095
2096
2096
2095
2095
2095
2095
2095
2096
2097
2097
2097
2097
2097
2097
2098
2098
2099
2099
2100
2100
2101
2100
2099
2098
2097
2096
2097
2099
2100
2101
2101
2101
2101
2100
2100
2099
2099
2098
2098
2098
2097
2097
2096
2095
2094
2093
2093
2093
2093
2093
2092
2091
2090
2089
2088
2087
2086
2086
2086
2085
2085
2085
2085
2085
2084
2084
2083
2084
2084
2084
2084
2083
2082
2081
2080
2080
2080
2082
2083
2085
2085
2085
2084
2083
2082
2081
2080
2080
2079
2079
2078
2078
2077
2077
2077
2077
2077
2077
2077
2078
2078
2077
2077
2075
2074
2073
2072
2070
2068
2069
2076
2091
2114
2137
2151
2149
2129
2099
2066
2044
2035
2037
2047
2057
2066
2070
2073
2073
2073
2073
2073
2073
2073
2073
2072
2072
2073
2073
2074
2074
2075
2074
2074
2073
2072
2072
2072
2072
2073
2074
2074
2074
2075
2075
2075
2076
2077
2078
2079
2080
2081
2082
2082
2083
2083
2084
2085
2086
2087
2087
2088
2089
2089
2089
2090
2090
2090
2091
2090
2089
2087
2084
2081
2078
2076
2073
2071
2069
2068
2067
2066
2065
2064
2062
2062
2061
2061
2061
2062
2062
2062
2062
2062
2061
2061
2062
2063
2064
2064
2064
2064
2064
2063
2063
2063
2063
2063
2063
2063
2064
2064
2064
2063
2063
2062
2062
2063
2063
2064
2065
2065
2064
2064
2064
2063
2063
2063
2063
2063
2063
2062
2062
2062
2061
2061
2061
2062
2062
2062
2062
2062
2061
2060
2059
2058
2058
2058
2058
2058
2057
2056
2055
2055
2054
2054
2054
2055
2055
2055
2055
2055
2054
2053
2053
2052
2052
2052
2052
2052
2052
2052
2052
2052
2051
2051
2051
2051
2051
2051
2051
2051
2050
2050
2049
2049
2048
2048
2048
2048
2048
2048
2048
2047
2048
2048
2048
2049
2051
2051
2052
2052
2051
2051
2049
2048
2048
2047
2048
2048
2048
2048
2048
2047
2046
2046
2046
2046
2047
2048
2048
2048
2048
2047
2045
2043
2041
2043
2050
2067
2090
2114
2128
2125
2106
2075
2045
2022
2012
2014
2024
2035
2045
2050
2052
2053
2052
2051
2052
2053
2053
2054
2054
2054
2054
2054
2054
2055
2055
2056
2057
2057
2057
2057
2057
2057
2057
2058
2059
2060
2061
2062
2062
2062
2062
2062
2063
2064
2066
2067
2068
2068
2069
2070
2070
2071
2072
2072
2073
2074
2074
2075
2076
2076
2075
2075
2074
2072
2070
2068
2066
2064
2061
2059
2056
2054
2052
2051
2050
2049
2049
2048
2048
2048
2048
2048
2047
2048
2048
2049
2049
2050
2049
2049
2048
2048
2048
2048
2048
2048
2048
2048
2048
2048
2048
2048
2048
2048
2048
2048
2048
2048
2048
2048
2047
2047
2046
2047
2047
2048
2048
2048
2048
2047
2046
2046
2045
2045
2046
2047
2047
2048
2047
2047
2046
2046
2045
2045
2045
2046
2046
2046
2046
2045
2044
2044
2044
2045
2045
2046
2046
2046
2046
2045
2044
2043
2043
2043
2044
2045
2045
2045
2044
2043
2043
2043
2043
2043
2043
2044
2044
2044
2044
2044
2044
2043
2044
2044
2044
2044
2044
2044
2044
2043
2042
2042
2042
2042
2043
2043
2043
2043
2043
2044
2045
2047
2048
2048
2048
2048
2047
2046
2045
2044
2043
2043
2043
2043
2043
2042
2041
2040
2040
2040
2040
2040
2041
2041
2041
2041
2041
2041
2040
2038
2036
2035
2039
2052
2074
2100
2120
2124
2111
2083
2051
2024
2008
2004
2009
2018
2028
2036
2042
2045
2046
2046
2045
2045
2046
2046
2046
2047
2048
2048
2048
2048
2048
2049
2049
2050
2050
2050
2050
2050
2050
2051
2052
2053
2055
2056
2056
2057
2057
2057
2056
2056
2057
2057
2058
2059
2060
2061
2062
2063
2063
2063
2064
2065
2066
2067
2068
2068
2067
2067
2065
2064
2062
2060
2058
2055
2053
2050
2048
2045
2043
2041
2040
2040
2039
2039
2039
2038
2037
2036
2036
2036
2037
2037
2037
2036
2036
2036
2036
2037
2037
2037
2037
2037
2037
2037
2037
2037
2037
2037
2037
2036
2036
2036
2037
2038
2038
2038
2037
2036
2036
2035
2035
2035
2035
2035
2036
2036
2036
2036
2036
2036
2036
2036
2036
2036
2036
2036
2036
2037
2036
2036
2036
2035
2036
2036
2037
2037
2036
2036
2036
2036
2036
2036
2037
2037
2037
2038
2038
2037
2037
2036
2036
2036
2036
2037
2038
2038
2038
2038
2038
2038
2037
2037
2037
2037
2038
2038
2038
2038
2037
2037
2036
2037
2037
2038
2039
2041
2041
2042
2043
2043
2043
2043
2042
2042
2041
2041
2040
2040
2040
2040
2040
2039
2038
2038
2038
2039
2039
2040
2040
2040
2040
2041
2041
2040
2039
2036
2033
2034
2042
2058
2082
2108
2125
2125
2106
2075
2042
2017
2004
2003
2009
2019
2029
2037
2043
2046
2047
2046
2045
2045
2046
2047
2048
2048
2049
2050
2050
2050
2050
2050
2050
2051
2052
2054
2055
2056
2056
2056
2056
2057
2057
2058
2059
2060
2061
2062
2063
2064
2064
2064
2065
2066
2067
2068
2069
2070
2070
2071
2071
2071
2072
2072
2073
2073
2073
2073
2071
2069
2067
2064
2062
2059
2057
2054
2052
2049
2047
2045
2044
2044
2044
2044
2044
2044
2044
2044
2044
2044
2044
2044
2044
2045
2045
2045
2046
2046
2046
2046
2046
2047
2047
2048
2048
2049
2049
2050
2050
2049
2049
2048
2048
2048
2048
2049
2050
2050
2050
2049
2049
2049
2048
2048
2049
2050
2050
2051
2051
2050
2050
2049
2049
2050
2050
2051
2052
2052
2052
2052
2051
2051
2051
2051
2052
2052
2052
2052
2052
2051
2051
2051
2051
2051
2051
2051
2051
2051
2051
2052
2052
2052
2052
2052
2052
2053
2053
2054
2054
2054
2055
2056
2058
2059
2060
2060
2060
2059
2058
2057
2056
2056
2055
2055
2055
2056
2056
2056
2056
2055
2055
2054
2055
2055
2056
2057
2058
2058
2057
2055
2052
2049
2049
2055
2071
2095
2121
2139
2140
2123
2092
2058
2034
2020
2020
2027
2037
2047
2054
2059
2061
2061
2061
2061
2062
2063
2064
2064
2064
2064
2064
2065
2065
2066
2066
2067
2067
2068
2068
2069
2069
2070
2070
2071
2072
2073
2074
2074
2075
2075
2076
2076
2077
2078
2079
2080
2082
2083
2084
2085
2085
2085
2086
2086
2087
2088
2089
2090
2090
2089
2088
2086
2083
2081
2078
2075
2073
2070
2068
2065
2062
2060
2058
2058
2058
2058
2057
2057
2056
2056
2055
2055
2055
2055
2055
2056
2057
2057
2057
2056
2056
2056
2055
2056
2056
2057
2057
2058
2058
2058
2057
2057
2056
2056
2056
2056
2056
2056
2056
2056
2055
2054
2054
2054
2055
2055
2055
2054
2053
2052
2052
2052
2052
2052
2052
2052
2052
2052
2052
2052
2052
2051
2051
2051
2051
2052
2052
2052
2052
2052
2051
2052
2052
2052
2052
2053
2052
2052
2052
2052
2052
2052
2052
2052
2052
2052
2052
2052
2052
2051
2051
2051
2050
2050
2050
2051
2051
2051
2051
2051
2051
2050
2050
2049
2049
2049
2049
2049
2050
2051
2053
2053
2054
2054
2053
2053
2053
2053
2052
2051
2050
2049
2049
2049
2049
2049
2049
2049
2048
2048
2048
2048
2048
2048
2048
2049
2049
2048
2048
2046
2043
2043
2049
2065
2089
2114
2130
2130
2112
2081
2049
2025
2013
2015
2024
2036
2045
2051
2054
2054
2053
2052
2052
2052
2052
2053
2054
2055
2055
2056
2056
2056
2056
2057
2057
2057
2057
2057
2057
2057
2057
2057
2057
2058
2059
2060
2061
2062
2062
2063
2064
2065
2066
2067
2068
2069
2070
2071
2072
2073
2074
2074
2075
2075
2076
2076
2076
2076
2076
2075
2073
2072
2069
2067
2065
2063
2060
2058
2056
2054
2051
2049
2048
2048
2048
2047
2047
2047
2047
2046
2046
2046
2047
2048
2048
2049
2049
2049
2048
2048
2048
2047
2047
2047
2048
2048
2048
2048
2048
2048
2048
2048
2048
2048
2048
2048
2048
2048
2048
2048
2048
2048
2048
2047
2047
2047
2048
2048
2048
2048
2047
2047
2047
2047
2048
2048
2048
2048
2048
2048
2047
2047
2047
2047
2047
2048
2048
2048
2048
2048
2047
2047
2047
2048
2048
2048
2049
2048
2048
2048
2047
2048
2048
2048
2048
2048
2048
2048
2048
2048
2048
2048
2048
2048
2048
2048
2049
2049
2048
2048
2048
2048
2048
2049
2049
2049
2049
2049
2049
2049
2048
2048
2049
2050
2051
2053
2055
2055
2055
2054
2053
2052
2051
2050
2050
2050
2051
2051
2050
2050
2049
2049
2048
2048
2049
2049
2049
2050
2050
2051
2050
2050
2049
2048
2046
2045
2048
2058
2077
2102
2123
2132
2123
2099
2067
2039
2021
2017
2022
2033
2044
2051
2055
2057
2057
2057
2057
2057
2057
2058
2057
2057
2058
2058
2059
2060
2060
2061
2061
2061
2061
2061
2062
2062
2063
2064
2065
2065
2065
2065
2065
2065
2066
2067
2069
2070
2072
2073
2073
2074
2074
2074
2074
2075
2076
2077
2078
2079
2079
2079
2079
2079
2079
2079
2078
2077
2076
2073
2071
2068
2065
2062
2060
2058
2057
2056
2055
2054
2053
2052
2052
2052
2052
2052
2052
2052
2052
2053
2053
2053
2053
2053
2053
2053
2053
2053
2053
2053
2053
2053
2053
2053
2053
2053
2053
2054
2054
2054
2054
2054
2053
2053
2053
2053
2053
2053
2054
2054
2055
2055
2054
2053
2052
2052
2052
2052
2052
2052
2052
2052
2051
2051
2051
2051
2052
2053
2053
2053
2053
2052
2052
2052
2052
2052
2053
2054
2054
2054
2053
2053
2052
2052
2052
2052
2053
2053
2053
2053
2053
2053
2053
2053
2052
2052
2053
2053
2054
2054
2054
2053
2053
2052
2052
2052
2052
2053
2053
2053
2053
2053
2053
2052
2052
2052
2052
2052
2052
2052
2052
2052
2053
2055
2056
2057
2058
2058
2058
2057
2056
2055
2054
2053
2052
2052
2053
2053
2053
2053
2053
2052
2051
2051
2051
2052
2052
2053
2054
2054
2053
2052
2050
2048
2046
2048
2059
2079
2104
2126
2134
2126
2101
2068
2040
2022
2017
2023
2034
2045
2052
2056
2058
2057
2056
2055
2056
2057
2057
2058
2058
2058
2058
2058
2058
2058
2059
2059
2060
2061
2061
2061
2061
2061
2061
2062
2063
2063
2064
2064
2065
2065
2065
2065
2066
2066
2067
2068
2069
2070
2071
2071
2071
2071
2072
2073
2074
2075
2076
2076
2076
2076
2075
2074
2073
2071
2070
2068
2066
2063
2061
2058
2055
2053
2051
2050
2049
2049
2048
2048
2048
2048
2048
2047
2047
2047
2047
2048
2048
2048
2048
2047
2047
2047
2047
2047
2047
2048
2048
2048
2048
2047
2046
2046
2046
2046
2047
2048
2048
2047
2047
2047
2046
2046
2046
2045
2045
2045
2045
2045
2045
2045
2044
2043
2043
2043
2043
2043
2043
2043
2043
2043
2042
2042
2042
2042
2043
2043
2043
2043
2043
2043
2043
2043
2043
2043
2043
2043
2042
2042
2042
2042
2042
2042
2042
2041
2041
2042
2042
2043
2043
2043
2042
2042
2042
2042
2042
2043
2043
2043
2043
2042
2042
2041
2041
2041
2041
2041
2041
2042
2042
2042
2043
2044
2045
2047
2048
2048
2048
2047
2046
2044
2043
2042
2041
2041
2041
2042
2042
2041
2041
2040
2040
2040
2040
2039
2039
2039
2039
2040
2040
2040
2039
2036
2034
2035
2043
2059
2084
2109
2123
2121
2101
2070
2039
2015
2004
2005
2011
2021
2031
2038
2043
2046
2047
2047
2047
2047
2047
2047
2048
2048
2048
2048
2048
2048
2048
2048
2049
2049
2050
2050
2050
2050
2050
2051
2051
2053
2054
2054
2055
2055
2055
2055
2056
2056
2057
2058
2059
2059
2060
2061
2063
2064
2064
2065
2065
2066
2066
2066
2066
2066
2065
2065
2064
2063
2061
2059
2056
2052
2049
2047
2045
2043
2042
2041
2039
2038
2037
2036
2036
2035
2035
2035
2035
2035
2035
2035
2035
2036
2037
2037
2037
2036
2036
2036
2036
2036
2037
2037
2037
2037
2037
2037
2037
2037
2037
2038
2038
2038
2037
2037
2036
2036
2036
2036
2036
2037
2037
2038
2037
2037
2036
2036
2036
2036
2036
2036
2037
2037
2037
2037
2037
2036
2036
2036
2036
2036
2037
2037
2037
2037
2036
2036
2037
2037
2037
2037
2038
2038
2038
2037
2037
2037
2037
2037
2038
2038
2039
2040
2040
2039
2039
2038
2038
2038
2039
2040
2042
2044
2046
2046
2046
2045
2044
2043
2043
2043
2043
2043
2043
2043
2042
2042
2042
2042
2042
2042
2042
2042
2043
2043
2043
2044
2044
2044
2043
2041
2038
2037
2043
2056
2079
2106
2125
2128
2113
2084
2050
2024
2009
2007
2011
2021
2031
2039
2046
2049
2051
2051
2051
2051
2051
2052
2052
2053
2054
2054
2055
2055
2056
2056
2056
2056
2057
2058
2059
2060
2061
2061
2062
2062
2063
2063
2064
2064
2065
2066
2068
2069
2070
2071
2071
2072
2073
2074
2076
2077
2078
2079
2079
2080
2080
2080
2081
2081
2081
2080
2079
2077
2074
2071
2067
2064
2061
2059
2057
2055
2053
2051
2050
2049
2048
2048
2048
2048
2048
2048
2048
2048
2048
2048
2048
2048
2047
2048
2048
2049
2050
2050
2050
2050
2049
2049
2049
2049
2049
2049
2050
2050
2050
2049
2048
2048
2048
2048
2048
2049
2049
2049
2049
2049
2048
2048
2048
2048
2048
2048
2049
2049
2049
2048
2048
2048
2048
2048
2048
2048
2049
2049
2049
2049
2049
2049
2049
2049
2049
2050
2050
2050
2050
2050
2050
2050
2050
2050
2051
2051
2051
2051
2051
2051
2051
2051
2051
2051
2052
2052
2052
2052
2051
2050
2050
2050
2050
2051
2052
2054
2056
2058
2059
2058
2057
2057
2056
2055
2055
2055
2054
2054
2054
2054
2053
2053
2053
2053
2054
2055
2055
2055
2055
2055
2055
2055
2055
2054
2052
2050
2049
2054
2066
2087
2112
2133
2139
2128
2101
2068
2040
2023
2019
2025
2034
2044
2052
2057
2061
2062
2062
2061
2061
2061
2061
2061
2062
2062
2063
2064
2065
2065
2065
2066
2066
2066
2066
2067
2067
2068
2069
2069
2070
2071
2071
2071
2072
2073
2074
2075
2076
2077
2078
2078
2079
2079
2079
2080
2081
2083
2084
2085
2085
2085
2085
2085
2086
2085
2085
2084
2082
2079
2076
2073
2070
2068
2066
2064
2062
2060
2059
2058
2056
2055
2054
2054
2054
2054
2054
2054
2055
2055
2055
2055
2055
2055
2055
2055
2055
2056
2056
2056
2056
2056
2056
2056
2056
2056
2056
2057
2057
2057
2057
2057
2057
2056
2056
2055
2056
2056
2057
2057
2056
2055
2055
2054
2054
2055
2055
2055
2056
2056
2056
2055
2055
2055
2055
2055
2056
2056
2056
2056
2055
2055
2055
2055
2055
2055
2056
2056
2056
2056
2056
2055
2055
2055
2055
2056
2056
2057
2057
2057
2057
2056
2056
2056
2056
2056
2057
2057
2058
2058
2058
2057
2057
2057
2057
2057
2058
2058
2059
2059
2058
2057
2056
2055
2055
2056
2058
2061
2062
2063
2063
2063
2062
2062
2061
2061
2060
2060
2060
2061
2061
2060
2060
2059
2058
2058
2058
2059
2059
2059
2059
2059
2059
2060
2059
2058
2056
2053
2053
2058
2071
2093
2118
2136
2141
2127
2099
2066
2040
2026
2025
2032
2043
2053
2060
2064
2065
2065
2065
2065
2065
2064
2064
2063
2063
2064
2064
2065
2066
2067
2068
2068
2068
2068
2068
2068
2069
2070
2070
2071
2072
2072
2072
2072
2073
2073
2074
2074
2075
2077
2078
2079
2080
2081
2081
2082
2083
2084
2084
2085
2085
2085
2086
2086
2086
2086
2086
2085
2083
2081
2078
2075
2072
2070
2067
2065
2063
2061
2060
2059
2058
2057
2056
2055
2055
2056
2056
2057
2057
2057
2057
2057
2056
2056
2056
2057
2058
2058
2058
2058
2058
2058
2057
2057
2057
2057
2057
2057
2058
2058
2057
2057
2056
2056
2056
2056
2056
2057
2057
2056
2056
2056
2056
2056
2056
2056
2057
2057
2057
2057
2057
2057
2057
2057
2058
2057
2057
2057
2058
2058
2058
2058
2058
2057
2056
2056
2057
2057
2058
2058
2058
2057
2056
2055
2055
2055
2056
2056
2057
2057
2057
2057
2056
2055
2055
2055
2055
2056
2057
2058
2058
2057
2056
2056
2055
2056
2056
2056
2057
2057
2057
2056
2056
2056
2056
2056
2057
2058
2059
2059
2059
2058
2057
2057
2058
2060
2062
2063
2064
2064
2064
2063
2062
2061
2060
2059
2059
2060
2060
2060
2059
2059
2058
2058
2058
2058
2059
2059
2060
2060
2060
2060
2059
2058
2056
2054
2054
2059
2072
2094
2118
2137
2140
2126
2098
2065
2040
2026
2025
2032
2044
2053
2060
2063
2063
2062
2062
2062
2063
2064
2064
2064
2063
2063
2064
2064
2065
2065
2066
2066
2066
2066
2066
2067
2067
2067
2068
2068
2069
2069
2069
2070
2070
2070
2071
2072
2073
2074
2075
2076
2076
2077
2077
2077
2078
2079
2080
2081
2082
2083
2083
2083
2082
2082
2081
2081
2080
2078
2076
2074
2071
2068
2065
2062
2060
2059
2058
2057
2057
2056
2055
2054
2053
2052
2052
2052
2053
2054
2054
2054
2054
2054
2054
2054
2054
2054
2054
2055
2055
2055
2055
2054
2054
2053
2053
2052
2052
2052
2053
2053
2053
2053
2052
2052
2051
2051
2052
2052
2052
2052
2052
2051
2051
2050
2050
2049
2050
2050
2051
2051
2052
2051
2051
2050
2050
2050
2050
2050
2051
2051
2052
2052
2051
2050
2050
2050
2051
2051
2051
2052
2051
2051
2051
2051
2051
2050
2050
2051
2051
2051
2051
2050
2049
2048
2048
2048
2048
2049
2049
2050
2050
2049
2049
2049
2049
2050
2050
2050
2049
2049
2049
2048
2048
2048
2049
2050
2051
2052
2053
2053
2052
2051
2050
2049
2048
2048
2048
2048
2048
2048
2048
2048
2048
2047
2047
2047
2047
2048
2048
2048
2047
2047
2046
2045
2042
2040
2043
2052
2071
2096
2118
2129
2121
2098
2066
2037
2017
2010
2013
2022
2031
2040
2046
2048
2049
2049
2049
2050
2051
2051
2051
2050
2050
2049
2050
2050
2051
2052
2052
2053
2053
2052
2052
2052
2053
2053
2054
2055
2056
2056
2057
2057
2057
2058
2058
2059
2060
2061
2062
2063
2064
2064
2064
2064
2065
2065
2066
2067
2068
2069
2069
2069
2069
2068
2067
2065
2064
2062
2060
2057
2054
2052
2049
2047
2044
2042
2040
2039
2039
2039
2038
2037
2037
2036
2036
2036
2037
2038
2039
2039
2039
2039
2038
2038
2038
2038
2038
2039
2039
2039
2040
2039
2039
2038
2038
2038
2038
2039
2039
2039
2039
2039
2038
2038
2037
2037
2038
2038
2038
2037
2036
2036
2036
2036
2036
2037
2037
2038
2038
2038
2038
2038
2038
2038
2038
2038
2038
2038
2038
2038
2038
2038
2037
2037
2037
2037
2038
2038
2038
2038
2038
2038
2037
2037
2038
2038
2039
2039
2039
2039
2039
2039
2038
2039
2039
2039
2040
2041
2041
2041
2040
2040
2040
2040
2041
2043
2045
2046
2047
2047
2046
2045
2044
2043
2043
2042
2042
2042
2042
2042
2041
2041
2042
2042
2042
2042
2042
2042
2042
2043
2043
2043
2042
2041
2038
2036
2037
2044
2059
2083
2108
2126
2127
2110
2080
2048
2024
2011
2010
2016
2025
2034
2042
2047
2050
2050
2050
2050
2050
2051
2051
2051
2051
2052
2052
2053
2055
2056
2056
2056
2056
2056
2056
2057
2057
2058
2059
2059
2060
2061
2062
2062
2062
2063
2064
2065
2066
2068
2069
2070
2071
2071
2072
2073
2073
2074
2075
2076
2077
2078
2078
2078
2078
2077
2076
2075
2073
2072
2070
2068
2065
2062
2059
2056
2054
2052
2051
2050
2050
2049
2048
2047
2047
2047
2047
2048
2048
2049
2050
2050
2050
2050
2050
2050
2050
2050
2050
2050
2050
2050
2050
2050
2050
2050
2051
2051
2051
2052
2052
2052
2051
2051
2050
2050
2050
2050
2050
2051
2052
2052
2052
2052
2051
2050
2050
2050
2051
2051
2052
2052
2052
2052
2052
2052
2052
2052
2052
2052
2053
2053
2053
2052
2051
2051
2051
2051
2052
2053
2054
2054
2053
2053
2052
2052
2052
2052
2052
2053
2053
2053
2053
2052
2052
2051
2051
2051
2051
2052
2054
2055
2056
2057
2057
2057
2057
2056
2056
2056
2055
2055
2054
2054
2053
2052
2052
2053
2053
2054
2054
2054
2053
2053
2053
2053
2054
2054
2054
2053
2051
2049
2048
2052
2064
2085
2110
2130
2136
2123
2096
2063
2036
2020
2016
2022
2033
2044
2052
2057
2059
2059
2058
2057
2057
2057
2058
2058
2059
2060
2060
2061
2061
2061
2061
2062
2062
2063
2064
2064
2065
2065
2066
2066
2066
2066
2067
2068
2069
2070
2071
2072
2072
2073
2073
2074
2074
2076
2077
2078
2080
2080
2080
2080
2080
2081
2082
2082
2083
2083
2082
2081
2078
2076
2073
2070
2068
2065
2063
2062
2060
2058
2057
2055
2054
2054
2053
2053
2053
2053
2053
2053
2053
2052
2052
2052
2052
2052
2052
2052
2053
2053
2053
2053
2053
2052
2052
2052
2053
2054
2054
2054
2053
2053
2052
2052
2052
2052
2053
2054
2054
2054
2053
2052
2052
2052
2052
2052
2052
2052
2053
2053
2052
2052
2051
2051
2051
2051
2052
2052
2052
2053
2053
2053
2053
2052
2052
2052
2053
2053
2054
2054
2054
2053
2052
2052
2052
2052
2053
2053
2053
2053
2053
2053
2052
2052
2052
2052
2052
2052
2051
2052
2052
2053
2054
2055
2057
2058
2058
2059
2058
2058
2057
2056
2054
2054
2054
2053
2054
2054
2053
2053
2053
2052
2051
2051
2051
2051
2052
2053
2054
2054
2053
2052
2050
2048
2048
2053
2068
2091
2115
2133
2135
2118
2089
2056
2031
2019
2020
2029
2041
2050
2056
2058
2059
2058
2057
2058
2058
2059
2060
2060
2060
2060
2060
2060
2061
2061
2062
2062
2062
2063
2063
2063
2063
2063
2064
2064
2064
2065
2066
2067
2068
2069
2069
2069
2070
2071
2072
2073
2075
2076
2076
2077
2077
2078
2078
2079
2080
2081
2082
2083
2083
2083
2082
2081
2079
2077
2074
2072
2070
2067
2065
2063
2061
2059
2057
2056
2056
2055
2055
2055
2055
2055
2054
2054
2054
2054
2054
2054
2054
2054
2054
2054
2054
2054
2054
2054
2054
2055
2055
2055
2055
2054
2054
2054
2054
2054
2054
2054
2054
2054
2054
2054
2054
2053
2053
2053
2054
2054
2054
2054
2054
2054
2054
2054
2054
2054
2054
2054
2054
2053
2053
2053
2052
2052
2052
2051
2052
2052
2052
2053
2053
2052
2051
2051
2050
2050
2051
2051
2052
2052
2051
2051
2050
2050
2051
2051
2052
2053
2053
2053
2053
2053
2053
2053
2053
2053
2053
2053
2052
2052
2052
2053
2054
2056
2057
2057
2057
2057
2057
2056
2055
2054
2053
2053
2053
2052
2052
2052
2052
2052
2052
2052
2051
2050
2050
2049
2050
2051
2051
2051
2050
2048
2046
2045
2049
2062
2083
2108
2128
2133
2119
2091
2058
2032
2017
2015
2022
2033
2044
2051
2055
2056
2055
2053
2052
2053
2054
2055
2055
2056
2056
2056
2056
2056
2056
2056
2057
2057
2058
2058
2058
2058
2058
2058
2059
2059
2060
2060
2061
2061
2061
2061
2062
2063
2064
2065
2066
2067
2067
2068
2068
2069
2069
2069
2070
2070
2071
2072
2073
2072
2071
2070
2068
2066
2065
2063
2061
2058
2056
2054
2051
2049
2047
2045
2044
2043
2042
2042
2042
2042
2042
2041
2041
2041
2042
2042
2042
2043
2043
2043
2042
2042
2041
2042
2042
2043
2044
2044
2044
2044
2044
2043
2043
2043
2042
2042
2042
2042
2043
2043
2042
2041
2041
2040
2040
2040
2040
2040
2040
2039
2039
2038
2038
2038
2038
2038
2039
2039
2039
2039
2038
2038
2038
2038
2038
2038
2038
2038
2038
2038
2038
2038
2038
2038
2038
2038
2039
2039
2039
2039
2038
2037
2036
2036
2035
2036
2037
2039
2041
2042
2043
2042
2042
2041
2041
2040
2040
2040
2039
2039
2039
2038
2038
2037
2037
2037
2037
2038
2038
2039
2039
2039
2038
2038
2038
2037
2036
2034
2032
2033
2040
2055
2079
2104
2120
2118
2099
2068
2037
2014
2002
2002
2008
2017
2027
2034
2040
2042
2043
2042
2041
2041
2041
2042
2042
2043
2044
2045
2046
2047
2047
2047
2047
2047
2047
2048
2048
2049
2050
2050
2050
2051
2051
2052
2053
2053
2054
2055
2057
2058
2059
2059
2059
2059
2060
2061
2062
2063
2063
2063
2064
2064
2064
2064
2065
2064
2064
2064
2062
2061
2058
2055
2052
2049
2047
2044
2042
2040
2039
2037
2036
2035
2034
2033
2033
2033
2033
2034
2034
2035
2035
2035
2034
2034
2034
2034
2035
2035
2036
2036
2036
2036
2036
2036
2036
2036
2036
2037
2037
2038
2038
2037
2037
2036
2036
2035
2035
2036
2037
2037
2037
2037
2036
2036
2036
2036
2037
2037
2037
2037
2037
2037
2036
2036
2036
2036
2036
2036
2037
2037
2037
2037
2036
2036
2036
2036
2036
2037
2037
2038
2038
2038
2037
2037
2036
2036
2036
2036
2038
2040
2042
2043
2044
2044
2044
2043
2043
2043
2043
2042
2042
2041
2041
2041
2041
2040
2041
2041
2041
2041
2041
2040
2040
2040
2041
2041
2042
2042
2040
2037
2036
2040
2051
2074
2100
2121
2127
2114
2086
2053
2026
2009
2005
2010
2020
2031
2040
2046
2049
2051
2050
2049
2048
2048
2049
2049
2051
2052
2053
2054
2055
2055
2054
2054
2054
2055
2057
2058
2059
2059
2059
2059
2059
2059
2060
2060
2061
2063
2064
2065
2066
2067
2068
2068
2069
2070
2071
2071
2072
2073
2073
2073
2074
2074
2074
2074
2075
2075
2075
2074
2072
2069
2066
2063
2060
2057
2055
2053
2052
2050
2048
2047
2045
2044
2044
2044
2045
2045
2045
2046
2046
2046
2046
2046
2046
2046
2047
2048
2048
2048
2048
2047
2047
2047
2047
2047
2048
2048
2048
2048
2048
2048
2047
2047
2046
2046
2046
2047
2047
2046
2046
2045
2045
2045
2045
2046
2046
2046
2046
2046
2045
2044
2044
2044
2045
2046
2047
2047
2048
2048
2047
2047
2046
2046
2046
2046
2047
2047
2048
2048
2048
2048
2048
2047
2046
2045
2045
2046
2046
2047
2048
2049
2050
2051
2051
2051
2051
2051
2051
2051
2050
2049
2048
2048
2048
2048
2048
2048
2048
2048
2048
2048
2048
2048
2049
2049
2050
2050
2049
2048
2045
2045
2048
2061
2083
2108
2128
2133
2120
2091
2058
2031
2015
2013
2020
2031
2043
2051
2055
2057
2057
2055
2055
2055
2055
2056
2057
2057
2058
2059
2059
2059
2059
2059
2059
2059
2060
2060
2061
2062
2062
2063
2063
2064
2064
2065
2065
2066
2067
2068
2069
2069
2070
2070
2071
2072
2073
2074
2075
2076
2077
2078
2078
2078
2079
2079
2080
2081
2081
2080
2079
2076
2074
2071
2068
2066
2063
2061
2059
2058
2056
2055
2054
2053
2052
2052
2052
2052
2052
2053
2053
2053
2052
2052
2052
2052
2052
2053
2054
2054
2053
2053
2052
2052
2052
2052
2053
2054
2054
2054
2053
2053
2052
2052
2052
2052
2052
2053
2053
2053
2053
2053
2052
2052
2052
2052
2052
2052
2052
2053
2053
2053
2053
2053
2052
2052
2053
2053
2053
2053
2053
2053
2053
2053
2053
2053
2053
2053
2053
2053
2053
2053
2053
2053
2053
2053
2053
2053
2053
2053
2054
2053
2053
2052
2051
2051
2052
2053
2054
2056
2057
2058
2058
2058
2058
2057
2056
2056
2055
2055
2055
2055
2054
2054
2054
2053
2053
2054
2054
2055
2055
2055
2054
2054
2054
2054
2054
2053
2051
2050
2055
2068
2089
2113
2132
2136
2122
2094
2061
2035
2021
2020
2028
2040
2049
2056
2060
2061
2060
2059
2059
2058
2058
2059
2059
2060
2061
2061
2062
2063
2063
2064
2064
2064
2064
2064
2065
2066
2067
2067
2067
2067
2067
2068
2068
2069
2069
2070
2071
2071
2072
2072
2073
2074
2074
2075
2076
2077
2078
2078
2079
2079
2078
2078
2079
2079
2080
2080
2079
2078
2076
2073
2070
2067
2065
2063
2061
2059
2058
2057
2056
2054
2053
2053
2052
2052
2052
2053
2054
2054
2054
2053
2052
2052
2052
2052
2053
2053
2053
2053
2053
2052
2052
2052
2052
2052
2053
2053
2053
2052
2052
2051
2051
2050
2050
2050
2050
2051
2051
2052
2051
2051
2050
2050
2050
2050
2050
2050
2051
2051
2052
2052
2051
2051
2051
2051
2051
2051
2052
2052
2052
2051
2051
2051
2051
2051
2051
2051
2051
2051
2051
2051
2051
2050
2050
2050
2050
2050
2051
2051
2051
2051
2050
2050
2049
2049
2049
2049
2049
2050
2051
2052
2053
2054
2055
2055
2054
2054
2053
2052
2052
2051
2050
2050
2049
2049
2050
2050
2050
2049
2049
2048
2048
2048
2048
2048
2049
2049
2049
2048
2046
2044
2046
2053
2071
2095
2118
2129
2124
2101
2070
2041
2021
2013
2016
2025
2036
2045
2051
2054
2055
2054
2053
2052
2052
2053
2054
2055
2055
2055
2055
2056
2055
2056
2056
2056
2057
2057
2058
2059
2060
2060
2060
2060
2060
2061
2062
2063
2064
2064
2064
2063
2063
2063
2064
2065
2066
2067
2068
2069
2070
2070
2070
2070
2071
2071
2072
2073
2073
2073
2072
2071
2068
2066
2063
2060
2058
2057
2055
2053
2051
2048
2047
2046
2045
2044
2044
2044
2044
2044
2044
2044
2043
2043
2043
2044
2045
2045
2045
2045
2045
2045
2045
2045
2045
2045
2045
2045
2044
2044
2044
2044
2043
2043
2043
2043
2043
2043
2043
2043
2043
2043
2043
2043
2043
2043
2043
2044
2044
2044
2044
2043
2043
2043
2043
2043
2044
2044
2044
2044
2044
2044
2043
2043
2043
2043
2043
2043
2043
2043
2042
2042
2042
2043
2043
2043
2043
2043
2043
2043
2042
2042
2043
2044
2045
2046
2047
2048
2048
2048
2048
2047
2046
2046
2045
2045
2045
2045
2045
2044
2044
2044
2044
2044
2044
2044
2044
2044
2044
2044
2044
2044
2043
2040
2037
2038
2045
2061
2086
2112
2128
2127
2108
2076
2044
2020
2008
2008
2015
2025
2035
2043
2048
2050
2050
2049
2049
2049
2051
2051
2052
2052
2052
2052
2053
2053
2054
2055
2056
2057
2057
2057
2056
2057
2057
2058
2059
2059
2060
2061
2062
2062
2062
2062
2063
2064
2066
2067
2068
2068
2068
2069
2069
2070
2071
2071
2072
2073
2073
2074
2074
2074
2073
2072
2070
2068
2066
2063
2061
2058
2055
2053
2050
2048
2047
2046
2046
2046
2046
2045
2045
2044
2044
2044
2044
2044
2045
2045
2046
2046
2046
2046
2045
2044
2044
2044
2044
2045
2046
2046
2047
2047
2046
2046
2046
2046
2046
2047
2047
2047
2046
2046
2045
2045
2045
2045
2046
2046
2046
2046
2046
2046
2045
2045
2045
2045
2046
2047
2047
2048
2048
2048
2047
2048
2048
2048
2048
2048
2048
2048
2048
2048
2047
2047
2048
2048
2048
2048
2048
2048
2048
2048
2048
2049
2050
2052
2053
2053
2053
2053
2052
2052
2051
2051
2050
2049
2049
2049
2049
2049
2050
2050
2050
2050
2049
2049
2049
2050
2051
2051
2051
2050
2048
2046
2045
2048
2061
2083
2109
2130
2136
2123
2096
2062
2034
2017
2014
2019
2030
2041
2049
2054
2057
2057
2056
2056
2056
2057
2058
2059
2059
2060
2060
2061
2061
2061
2062
2063
2064
2065
2065
2065
2065
2065
2066
2066
2067
2068
2068
2069
2069
2070
2070
2071
2072
2073
2074
2075
2076
2077
2078
2078
2078
2079
2079
2079
2080
2081
2081
2082
2082
2082
2081
2079
2077
2075
2073
2071
2069
2066
2064
2061
2059
2057
2056
2054
2054
2053
2053
2053
2053
2053
2053
2053
2054
2054
2054
2055
2055
2055
2054
2054
2053
2053
2053
2052
2053
2053
2054
2054
2055
2054
2054
2053
2053
2053
2053
2054
2054
2053
2053
2052
2052
2051
2051
2051
2052
2052
2053
2053
2052
2052
2051
2051
2051
2051
2052
2052
2052
2052
2052
2052
2052
2052
2053
2053
2053
2053
2054
2054
2054
2053
2053
2052
2052
2052
2052
2053
2053
2052
2052
2051
2051
2052
2054
2056
2058
2059
2059
2059
2058
2057
2056
2055
2054
2054
2054
2055
2055
2054
2054
2053
2053
2053
2053
2054
2054
2055
2055
2054
2054
2054
2054
2052
2050
2049
2052
2063
2082
2108
2129
2138
2128
2103
2069
2040
2022
2018
2025
2036
2047
2054
2058
2060
2060
2059
2060
2060
2061
2061
2061
2062
2062
2062
2063
2063
2064
2064
2065
2065
2065
2065
2065
2065
2065
2065
2065
2066
2067
2068
2069
2070
2070
2071
2071
2072
2073
2074
2075
2076
2076
2077
2078
2078
2079
2080
2080
2081
2082
2082
2083
2083
2082
2081
2080
2078
2076
2075
2073
2071
2069
2067
2064
2061
2059
2058
2057
2056
2056
2055
2056
2056
2056
2056
2055
2055
2055
2055
2056
2056
2056
2056
2056
2055
2055
2056
2056
2056
2057
2057
2057
2056
2055
2055
2055
2054
2054
2054
2055
2055
2055
2054
2054
2053
2053
2053
2054
2054
2055
2055
2055
2054
2054
2053
2053
2053
2054
2054
2055
2055
2055
2055
2055
2055
2055
2056
2056
2056
2056
2056
2056
2056
2056
2055
2055
2055
2055
2056
2056
2056
2056
2056
2056
2055
2055
2055
2055
2056
2056
2056
2056
2056
2056
2057
2058
2060
2061
2061
2062
2061
2061
2060
2058
2057
2057
2056
2057
2058
2058
2058
2058
2057
2057
2056
2056
2056
2057
2057
2058
2058
2057
2056
2055
2052
2050
2051
2060
2079
2104
2126
2138
2131
2108
2076
2046
2026
2021
2026
2037
2048
2056
2061
2062
2062
2061
2060
2060
2061
2061
2062
2062
2062
2062
2062
2062
2062
2063
2063
2064
2064
2065
2065
2066
2066
2066
2066
2067
2068
2069
2069
2069
2069
2069
2070
2070
2071
2072
2072
2073
2074
2074
2075
2075
2075
2075
2075
2076
2077
2078
2079
2080
2080
2078
2077
2075
2073
2072
2070
2067
2065
2062
2060
2057
2055
2054
2053
2053
2053
2053
2053
2053
2053
2052
2051
2050
2050
2050
2051
2052
2052
2052
2052
2051
2050
2050
2050
2051
2051
2051
2051
2051
2051
2051
2050
2049
2049
2049
2049
2050
2050
2050
2049
2049
2048
2048
2047
2047
2046
2046
2046
2046
2046
2046
2045
2045
2045
2045
2045
2045
2045
2045
2045
2044
2044
2044
2044
2044
2044
2044
2045
2044
2044
2044
2044
2044
2044
2045
2045
2045
2045
2045
2044
2044
2044
2045
2046
2048
2048
2049
2049
2048
2048
2046
2045
2044
2044
2043
2043
2043
2044
2043
2043
2042
2042
2041
2042
2042
2043
2044
2044
2043
2042
2041
2041
2040
2039
2037
2037
2042
2054
2076
2101
2119
2122
2108
2080
2048
2022
2007
2005
2010
2020
2030
2038
2044
2046
2047
2047
2047
2047
2047
2048
2048
2048
2048
2048
2048
2049
2050
2050
2049
2048
2048
2048
2048
2049
2050
2051
2052
2053
2053
2053
2053
2053
2054
2054
2055
2056
2057
2057
2057
2057
2057
2058
2059
2060
2061
2062
2062
2062
2063
2063
2063
2063
2063
2062
2061
2060
2058
2056
2054
2052
2049
2047
2045
2042
2041
2040
2039
2039
2039
2038
2038
2037
2037
2037
2037
2037
2038
2038
2038
2038
2038
2038
2038
2038
2039
2039
2039
2039
2039
2039
2038
2038
2038
2038
2038
2038
2038
2038
2038
2038
2038
2037
2037
2037
2037
2038
2039
2039
2038
2038
2037
2037
2037
2038
2038
2039
2040
2039
2039
2038
2037
2037
2037
2038
2039
2040
2040
2040
2039
2039
2038
2038
2038
2038
2038
2039
2039
2040
2041
2042
2043
2043
2043
2043
2043
2043
2043
2042
2042
2041
2041
2040
2039
2038
2038
2039
2039
2040
2040
2040
2039
2039
2039
2039
2040
2040
2040
2039
2036
2034
2036
2045
2064
2091
2115
2127
2120
2096
2062
2031
2010
2003
2006
2014
2025
2035
2043
2048
2048
2048
2047
2047
2047
2048
2048
2049
2050
2051
2051
2052
2051
2051
2051
2051
2052
2053
2054
2055
2056
2056
2057
2057
2058
2058
2059
2060
2061
2062
2062
2063
2063
2064
2065
2066
2067
2069
2070
2070
2071
2071
2070
2070
2071
2072
2073
2074
2075
2074
2072
2070
2067
2064
2062
2060
2058
2056
2054
2052
2051
2049
2048
2047
2046
2045
2046
2046
2046
2046
2046
2046
2046
2046
2046
2046
2046
2047
2047
2048
2048
2048
2048
2048
2048
2048
2048
2048
2048
2048
2048
2049
2049
2048
2048
2048
2049
2049
2050
2050
2049
2049
2048
2048
2048
2048
2048
2049
2049
2049
2049
2049
2048
2048
2048
2048
2048
2049
2049
2050
2050
2050
2050
2049
2049
2048
2048
2049
2050
2052
2053
2054
2055
2055
2055
2055
2055
2055
2054
2053
2052
2051
2051
2051
2051
2051
2051
2051
2051
2051
2051
2051
2051
2051
2051
2052
2052
2052
2052
2050
2048
2048
2054
2069
2092
2118
2135
2136
2118
2087
2054
2030
2017
2017
2025
2036
2047
2054
2059
2060
2060
2059
2058
2058
2059
2060
2061
2061
2062
2062
2063
2063
2063
2064
2064
2064
2065
2066
2067
2068
2069
2069
2069
2070
2070
2070
2071
2072
2074
2075
2076
2076
2077
2077
2078
2079
2080
2081
2083
2083
2084
2084
2084
2083
2083
2083
2084
2084
2084
2083
2082
2079
2076
2073
2071
2068
2066
2064
2063
2061
2060
2059
2058
2057
2056
2056
2056
2056
2057
2057
2058
2058
2057
2057
2057
2057
2058
2058
2059
2059
2059
2059
2058
2058
2058
2059
2059
2059
2059
2059
2058
2058
2058
2058
2058
2058
2058
2059
2059
2059
2058
2057
2057
2057
2057
2057
2057
2057
2057
2057
2057
2057
2056
2056
2056
2056
2057
2057
2058
2058
2058
2057
2057
2057
2057
2057
2057
2057
2058
2058
2058
2058
2057
2056
2056
2056
2058
2060
2062
2063
2064
2063
2062
2061
2060
2060
2060
2060
2060
2059
2059
2058
2057
2057
2057
2057
2058
2059
2059
2059
2058
2058
2058
2059
2059
2059
2058
2055
2052
2053
2060
2076
2100
2124
2139
2136
2116
2084
2052
2030
2021
2024
2033
2045
2054
2060
2063
2064
2063
2063
2062
2063
2063
2063
2064
2064
2065
2066
2066
2066
2067
2067
2067
2067
2067
2067
2068
2069
2070
2070
2071
2071
2071
2071
2071
2072
2073
2074
2075
2075
2076
2076
2077
2077
2078
2079
2080
2081
2082
2082
2083
2083
2082
2082
2083
2083
2082
2081
2079
2077
2074
2072
2069
2067
2065
2063
2062
2061
2060
2059
2058
2057
2056
2056
2056
2056
2056
2056
2056
2056
2056
2056
2056
2056
2056
2056
2057
2057
2057
2057
2057
2057
2057
2056
2056
2056
2056
2056
2056
2057
2057
2056
2055
2055
2054
2054
2054
2055
2055
2055
2054
2054
2053
2053
2053
2053
2053
2054
2054
2054
2054
2054
2054
2054
2054
2053
2053
2053
2053
2053
2053
2053
2053
2052
2052
2052
2053
2053
2053
2053
2053
2053
2052
2052
2052
2052
2052
2052
2052
2051
2051
2050
2050
2051
2053
2055
2056
2058
2058
2057
2056
2055
2053
2052
2052
2052
2052
2052
2052
2052
2051
2051
2050
2050
2050
2050
2051
2051
2051
2051
2050
2049
2048
2046
2045
2047
2056
2075
2100
2122
2132
2125
2101
2068
2039
2020
2014
2020
2032
2043
2050
2055
2056
2055
2054
2053
2053
2054
2054
2055
2055
2055
2054
2054
2054
2054
2055
2056
2056
2056
2056
2056
2056
2056
2057
2058
2059
2059
2060
2060
2060
2060
2060
2060
2061
2061
2062
2063
2064
2064
2065
2065
2065
2065
2065
2065
2066
2067
2067
2068
2068
2067
2066
2065
2063
2062
2060
2059
2057
2054
2052
2049
2048
2046
2045
2044
2044
2043
2042
2042
2041
2041
2040
2040
2040
2040
2041
2041
2042
2042
2042
2041
2041
2040
2040
2040
2040
2040
2040
2040
2040
2040
2039
2039
2039
2039
2039
2040
2040
2041
2041
2040
2040
2039
2039
2038
2039
2039
2039
2039
2038
2038
2037
2038
2038
2038
2037
2037
2037
2037
2037
2037
2037
2036
2036
2036
2036
2036
2037
2037
2037
2037
2036
2035
2035
2034
2035
2035
2035
2035
2035
2035
2035
2035
2034
2034
2033
2033
2033
2034
2035
2036
2037
2038
2039
2039
2040
2039
2038
2037
2036
2035
2034
2033
2033
2033
2033
2034
2034
2034
2034
2034
2034
2034
2034
2034
2035
2035
2034
2033
2030
2029
2032
2044
2064
2090
2112
2119
2108
2081
2048
2019
2002
1997
2001
2010
2020
2029
2035
2039
2040
2040
2039
2040
2040
2041
2041
2042
2042
2042
2042
2043
2043
2043
2044
2044
2045
2046
2046
2046
2047
2047
2047
2048
2048
2048
2049
2049
2050
2051
2051
2052
2052
2053
2054
2055
2056
2056
2057
2057
2057
2057
2057
2057
2058
2059
2059
2060
2060
2060
2059
2057
2055
2052
2050
2048
2046
2044
2042
2040
2038
2037
2036
2035
2034
2034
2034
2034
2034
2033
2033
2033
2033
2033
2033
2034
2035
2035
2036
2036
2036
2036
2035
2035
2035
2035
2035
2036
2036
2036
2037
2036
2036
2036
2036
2036
2036
2036
2036
2036
2036
2036
2035
2035
2035
2035
2035
2036
2036
2036
2036
2036
2035
2035
2035
2035
2036
2036
2037
2037
2037
2037
2037
2037
2037
2038
2038
2039
2039
2040
2040
2039
2039
2038
2038
2038
2039
2039
2040
2040
2041
2042
2042
2043
2044
2044
2045
2045
2045
2044
2043
2042
2042
2041
2041
2041
2041
2041
2041
2041
2041
2041
2041
2041
2042
2042
2043
2043
2042
2039
2036
2035
2039
2052
2075
2102
2122
2127
2112
2083
2049
2023
2007
2005
2011
2021
2032
2041
2047
2049
2049
2048
2048
2048
2049
2050
2051
2052
2052
2053
2053
2053
2053
2054
2054
2054
2055
2056
2057
2058
2059
2059
2059
2059
2059
2060
2062
2063
2064
2065
2065
2065
2066
2066
2066
2067
2067
2068
2069
2069
2070
2070
2071
2071
2071
2072
2073
2074
2074
2074
2073
2071
2069
2066
2063
2061
2058
2057
2055
2054
2052
2050
2049
2048
2048
2048
2048
2049
2049
2049
2049
2048
2048
2048
2048
2048
2049
2049
2050
2049
2049
2049
2049
2049
2049
2049
2049
2049
2049
2049
2048
2048
2048
2048
2048
2048
2048
2048
2049
2049
2049
2048
2048
2048
2048
2048
2048
2049
2050
2050
2050
2049
2049
2048
2048
2048
2048
2048
2048
2048
2048
2047
2047
2047
2048
2048
2048
2048
2047
2048
2048
2048
2048
2048
2048
2048
2048
2049
2050
2050
2049
2048
2048
2047
2047
2048
2049
2051
2053
2054
2055
2054
2053
2052
2051
2050
2050
2050
2050
2050
2051
2051
2050
2050
2050
2050
2050
2051
2051
2051
2052
2052
2051
2049
2048
2046
2044
2046
2054
2071
2095
2119
2132
2128
2107
2075
2045
2023
2015
2018
2027
2038
2047
2052
2056
2057
2057
2057
2057
2057
2057
2057
2057
2057
2058
2059
2060
2060
2061
2061
2061
2062
2062
2062
2063
2063
2063
2064
2065
2065
2066
2067
2067
2068
2068
2069
2070
2071
2072
2073
2073
2073
2073
2073
2073
2074
2075
2076
2077
2078
2078
2078
2078
2078
2077
2076
2075
2074
2072
2070
2067
2064
2061
2059
2057
2056
2055
2054
2054
2053
2052
2051
2051
2051
2051
2051
2052
2052
2053
2053
2053
2053
2053
2053
2053
2053
2053
2053
2054
2054
2054
2054
2054
2054
2054
2054
2054
2054
2054
2054
2054
2054
2053
2053
2052
2052
2052
2052
2053
2053
2053
2053
2053
2053
2053
2053
2054
2054
2054
2053
2052
2051
2051
2051
2052
2052
2053
2053
2053
2052
2052
2051
2051
2051
2051
2052
2053
2053
2053
2053
2053
2053
2053
2053
2053
2053
2053
2053
2052
2052
2051
2051
2051
2052
2053
2055
2057
2058
2058
2058
2057
2057
2056
2055
2054
2054
2054
2054
2054
2054
2054
2054
2053
2054
2054
2054
2054
2054
2055
2055
2055
2054
2051
2048
2048
2049
2059
2079
2104
2126
2136
2128
2103
2070
2040
2021
2017
2023
2035
2047
2054
2058
2059
2058
2056
2056
2057
2058
2059
2059
2059
2059
2058
2058
2059
2059
2059
2060
2061
2061
2061
2061
2061
2061
2062
2062
2063
2064
2064
2064
2065
2065
2066
2066
2067
2067
2068
2069
2070
2071
2072
2072
2072
2072
2073
2073
2074
2075
2076
2076
2076
2076
2075
2073
2071
2069
2068
2066
2064
2062
2060
2058
2055
2053
2052
2051
2051
2051
2050
2050
2050
2049
2049
2048
2048
2049
2049
2049
2049
2049
2049
2049
2049
2049
2048
2048
2049
2049
2049
2049
2049
2048
2048
2048
2047
2048
2048
2048
2048
2048
2048
2047
2046
2046
2046
2046
2046
2047
2047
2047
2047
2047
2046
2046
2045
2045
2046
2046
2047
2047
2047
2047
2047
2047
2046
2046
2047
2047
2047
2047
2047
2046
2045
2045
2045
2045
2045
2046
2046
2046
2046
2045
2045
2045
2045
2046
2046
2046
2047
2046
2046
2045
2044
2044
2044
2045
2047
2048
2049
2050
2051
2050
2049
2048
2048
2047
2047
2047
2048
2048
2047
2046
2045
2044
2044
2044
2045
2046
2046
2046
2046
2046
2046
2045
2044
2041
2039
2040
2047
2061
2084
2108
2123
2122
2104
2074
2044
2020
2010
2011
2019
2030
2040
2046
2049
2050
2050
2050
2050
2050
2050
2050
2050
2050
2050
2051
2052
2053
2054
2054
2054
2054
2054
2054
2055
2055
2056
2057
2057
2057
2057
2057
2057
2058
2059
2060
2061
2062
2062
2063
2064
2064
2065
2065
2065
2065
2065
2066
2067
2068
2068
2068
2067
2067
2067
2067
2067
2066
2064
2061
2058
2055
2052
2049
2048
2047
2046
2045
2044
2044
2043
2043
2042
2042
2041
2041
2041
2042
2042
2043
2043
2043
2043
2042
2042
2042
2042
2042
2043
2043
2043
2043
2043
2042
2042
2042
2042
2042
2042
2042
2042
2042
2042
2042
2042
2042
2042
2042
2042
2041
2041
2040
2040
2040
2040
2040
2041
2041
2042
2042
2041
2041
2041
2041
2041
2041
2041
2041
2041
2041
2041
2041
2040
2040
2039
2040
2041
2041
2042
2042
2042
2042
2041
2041
2041
2041
2042
2042
2042
2041
2041
2040
2040
2040
2041
2042
2044
2046
2047
2047
2047
2046
2044
2043
2042
2041
2041
2041
2041
2041
2041
2041
2041
2041
2040
2040
2039
2039
2040
2041
2042
2042
2041
2039
2036
2034
2038
2049
2070
2096
2117
2124
2112
2085
2053
2025
2009
2005
2009
2018
2028
2036
2042
2045
2046
2045
2045
2046
2047
2048
2048
2048
2048
2048
2048
2048
2049
2050
2050
2050
2050
2050
2050
2050
2051
2052
2053
2055
2056
2057
2057
2058
2058
2058
2059
2060
2061
2062
2063
2064
2064
2063
2063
2063
2064
2064
2065
2067
2067
2068
2068
2067
2066
2065
2064
2063
2062
2060
2058
2056
2053
2050
2048
2045
2043
2042
2042
2042
2043
2042
2042
2041
2041
2041
2041
2041
2041
2041
2041
2042
2042
2042
2042
2042
2042
2042
2042
2043
2043
2043
2043
2043
2043
2042
2041
2041
2041
2041
2042
2042
2042
2041
2040
2040
2040
2040
2041
2041
2041
2041
2041
2040
2040
2040
2040
2041
2041
2042
2042
2042
2041
2041
2040
2040
2040
2040
2040
2041
2042
2042
2042
2041
2041
2041
2041
2041
2042
2043
2043
2042
2042
2041
2041
2041
2042
2044
2046
2047
2048
2048
2048
2048
2047
2045
2044
2044
2044
2045
2045
2045
2045
2045
2045
2045
2045
2045
2045
2045
2045
2046
2046
2046
2045
2043
2041
2041
2046
2058
2080
2106
2126
2131
2117
2089
2055
2029
2014
2011
2017
2027
2037
2045
2050
2053
2054
2054
2054
2055
2056
2056
2057
2057
2057
2056
2056
2057
2058
2059
2060
2060
2060
2060
2061
2061
2062
2063
2065
2065
2066
2066
2067
2067
2068
2068
2069
2070
2071
2072
2073
2074
2075
2076
2076
2077
2077
2077
2077
2078
2079
2080
2080
2080
2079
2078
2076
2074
2072
2070
2068
2065
2063
2060
2058
2056
2054
2052
2052
2051
2051
2051
2050
2050
2049
2049
2050
2050
2051
2051
2052
2052
2052
2051
2051
2051
2051
2052
2052
2053
2053
2053
2052
2052
2051
2051
2051
2051
2051
2052
2052
2051
2051
2051
2051
2051
2051
2051
2051
2051
2051
2051
2050
2050
2050
2050
2050
2050
2050
2050
2051
2051
2051
2051
2051
2051
2051
2051
2051
2052
2052
2052
2052
2051
2051
2051
2051
2051
2052
2052
2052
2052
2052
2052
2051
2050
2050
2049
2050
2050
2052
2053
2054
2055
2055
2055
2054
2054
2054
2053
2053
2053
2052
2052
2051
2051
2051
2051
2051
2052
2052
2052
2052
2052
2051
2051
2051
2051
2051
2050
2048
2047
2048
2054
2070
2094
2118
2133
2131
2112
2080
2048
2025
2015
2017
2026
2038
2048
2054
2058
2059
2058
2057
2056
2056
2056
2056
2057
2058
2059
2059
2060
2060
2060
2060
2060
2060
2060
2061
2062
2063
2064
2064
2065
2065
2065
2066
2066
2068
2069
2069
2070
2071
2071
2071
2072
2072
2073
2074
2075
2076
2076
2077
2077
2077
2078
2078
2078
2079
2079
2079
2077
2075
2072
2069
2067
2065
2063
2061
2059
2058
2056
2055
2054
2053
2053
2052
2052
2052
2052
2053
2053
2053
2053
2053
2053
2053
2053
2053
2053
2053
2053
2054
2053
2053
2053
2053
2053
2053
2054
2054
2054
2054
2054
2053
2053
2052
2052
2052
2052
2053
2053
2053
2053
2053
2052
2052
2052
2052
2053
2053
2053
2053
2052
2052
2051
2051
2051
2052
2052
2052
2052
2052
2052
2052
2052
2052
2053
2053
2053
2053
2054
2054
2054
2053
2053
2053
2053
2054
2054
2055
2055
2055
2054
2053
2052
2052
2052
2053
2055
2057
2058
2059
2059
2058
2057
2057
2057
2056
2056
2056
2055
2054
2054
2053
2053
2054
2054
2055
2056
2058
2059
2061
2063
2066
2067
2069
2069
2068
2067
2069
2076
2091
2113
2137
2154
2155
2138
2105
2069
2039
2022
2020
2027
2037
2046
2051
2054
2056
2056
2055
2055
2055
2055
2054
2054
2054
2055
2056
2057
2058
2058
2058
2057
2056
2056
2055
2056
2056
2057
2057
2057
2057
2057
2057
2057
2057
2058
2058
2059
2059
2059
2059
2059
2059
2060
2060
2060
2061
2062
2063
2064
2065
2066
2066
2067
2068
2068
2069
2069
2069
2068
2067
2065
2063
2062
2060
2058
2057
2057
2056
2056
2056
2056
2055
2055
2055
2055
2055
2055
2055
2054
2054
2054
2053
2053
2053
2053
2053
2053
2052
2052
2052
2052
2052
2052
2052
2051
2051
2052
2052
2053
2053
2052
2051
2050
2049
2049
2050
2051
2051
2051
2050
2050
2049
2049
2049
2049
2050
2051
2051
2051
2051
2050
2050
2050
2049
2050
2050
2050
2050
2049
2049
2049
2048
2048
2049
2049
2049
2049
2049
2049
2049
2049
2048
2048
2048
2048
2048
2048
2048
2048
2048
2048
2047
2046
2047
2048
2049
2051
2053
2054
2053
2052
2051
2050
2049
2048
2048
2048
2048
2048
2048
2048
2048
2048
2047
2047
2048
2048
2048
2049
2049
2049
2048
2048
2046
2044
2042
2043
2048
2062
2085
2109
2125
2126
2109
2080
2048
2025
2013
2012
2019
2030
2040
2047
2050
2052
2052
2051
2051
2050
2051
2051
2051
2052
2052
2053
2053
2054
2054
2055
2055
2055
2055
2056
2056
2056
2057
2058
2059
2060
2060
2060
2060
2060
2061
2062
2063
2064
2065
2066
2067
2067
2068
2068
2069
2069
2069
2070
2071
2072
2073
2073
2073
2073
2073
2072
2071
2070
2068
2065
2063
2061
2058
2056
2054
2052
2051
2050
2049
2048
2048
2047
2046
2045
2045
2046
2047
2047
2048
2048
2048
2048
2047
2047
2048
2048
2048
2048
2049
2049
2049
2049
2048
2048
2048
2048
2048
2048
2049
2049
2049
2049
2048
2048
2048
2048
2048
2048
2048
2048
2048
2048
2048
2048
2048
2048
2048
2048
2048
2048
2048
2048
2048
2048
2048
2047
2047
2047
2048
2048
2048
2048
2048
2048
2048
2048
2048
2048
2048
2049
2049
2049
2049
2049
2049
2048
2048
2048
2048
2048
2048
2048
2049
2051
2053
2055
2056
2055
2055
2054
2054
2053
2051
2050
2049
2049
2049
2049
2050
2050
2050
2049
2048
2048
2048
2048
2049
2050
2051
2050
2049
2047
2044
2043
2048
2061
2083
2110
2130
2134
2120
2091
2057
2031
2015
2013
2018
2028
2038
2047
2051
2054
2055
2054
2054
2054
2055
2056
2056
2056
2056
2056
2056
2057
2058
2059
2060
2061
2062
2062
2063
2063
2063
2062
2062
2063
2064
2066
2067
2067
2068
2068
2069
2069
2070
2070
2071
2072
2073
2074
2074
2075
2075
2075
2076
2076
2077
2077
2078
2078
2078
2077
2075
2073
2071
2069
2067
2064
2061
2059
2057
2055
2053
2051
2050
2049
2048
2048
2048
2048
2048
2048
2047
2047
2048
2048
2048
2049
2049
2049
2049
2049
2049
2049
2050
2050
2051
2052
2053
2053
2053
2053
2053
2053
2054
2055
2056
2057
2057
2057
2057
2057
2056
2056
2056
2057
2057
2058
2058
2058
2058
2057
2057
2057
2057
2058
2059
2059
2060
2060
2059
2059
2059
2059
2059
2060
2061
2061
2061
2061
2061
2061
2060
2060
2060
2059
2058
2059
2059
2061
2062
2063
2064
2064
