2016
2020
2021
2022
2021
2018
2015
2012
2010
2008
2007
2007
2009
2011
2014
2018
2024
2029
2033
2036
2037
2036
2033
2028
2022
2019
2017
2020
2026
2032
2034
2033
2030
2027
2027
2029
2031
2032
2032
2029
2026
2023
2021
2021
2021
2022
2024
2025
2027
2028
2028
2028
2028
2028
2029
2029
2030
2030
2030
2030
2031
2030
2030
2029
2029
2028
2028
2028
2028
2028
2029
2030
2028
2022
2013
2003
1999
2008
2034
2075
2123
2165
2185
2174
2134
2078
2027
1994
1983
1990
2003
2012
2015
2013
2011
2012
2014
2015
2016
2016
2015
2014
2015
2016
2017
2018
2019
2018
2017
2015
2014
2014
2015
2017
2019
2020
2021
2021
2022
2023
2024
2025
2026
2027
2028
2029
2031
2033
2035
2037
2037
2036
2034
2033
2033
2034
2035
2035
2033
2031
2028
2025
2022
2019
2016
2014
2013
2013
2012
2012
2011
2010
2008
2007
2007
2007
2008
2009
2010
2011
2011
2013
2014
2015
2015
2016
2016
2016
2016
2016
2016
2017
2017
2018
2018
2018
2017
2016
2014
2014
2014
2015
2016
2017
2018
2018
2019
2019
2019
2018
2017
2015
2014
2014
2015
2017
2019
2020
2020
2021
2021
2020
2020
2020
2020
2020
2021
2020
2020
2018
2017
2016
2015
2014
2014
2015
2016
2017
2018
2016
2010
2000
1990
1985
1993
2018
2058
2108
2154
2181
2178
2144
2088
2030
1987
1967
1969
1982
1994
2002
2003
2002
2002
2003
2005
2006
2007
2009
2010
2010
2010
2009
2008
2007
2008
2009
2011
2012
2013
2013
2013
2013
2013
2014
2015
2017
2018
2018
2019
2020
2021
2022
2022
2024
2025
2027
2028
2029
2029
2029
2029
2028
2027
2025
2024
2022
2021
2019
2016
2013
2009
2005
2002
2000
1998
1997
1996
1996
1995
1994
1993
1993
1992
1992
1991
1990
1990
1990
1991
1992
1992
1991
1989
1988
1988
1989
1990
1990
1991
1991
1990
1988
1986
1985
1985
1986
1986
1986
1986
1985
1984
1983
1983
1982
1982
1981
1981
1981
1980
1979
1979
1978
1979
1979
1980
1981
1982
1983
1983
1983
1983
1982
1982
1981
1981
1981
1981
1981
1981
1980
1980
1980
1979
1979
1980
1983
1986
1987
1984
1976
1965
1958
1959
1975
2008
2052
2099
2134
2143
2120
2071
2014
1966
1940
1935
1944
1955
1963
1965
1964
1962
1961
1962
1962
1964
1966
1967
1968
1967
1967
1968
1971
1975
1977
1977
1974
1972
1970
1971
1973
1976
1977
1978
1976
1974
1975
1978
1984
1991
1995
1995
1992
1989
1988
1991
1996
2002
2004
2003
1999
1995
1994
1996
1999
2003
2004
2002
1999
1996
1993
1990
1987
1986
1986
1987
1989
1990
1990
1988
1986
1984
1982
1979
1976
1973
1970
1968
1970
1974
1978
1981
1983
1984
1984
1985
1986
1986
1983
1979
1976
1975
1977
1980
1982
1983
1983
1982
1983
1985
1987
1989
1991
1992
1991
1988
1985
1982
1981
1983
1986
1989
1991
1991
1991
1989
1989
1989
1989
1990
1990
1990
1990
1990
1990
1990
1990
1990
1990
1989
1989
1988
1989
1990
1991
1991
1988
1982
1973
1965
1962
1969
1993
2032
2080
2128
2158
2158
2125
2070
2012
1968
1947
1948
1961
1975
1983
1984
1983
1983
1984
1987
1989
1990
1989
1987
1985
1984
1983
1983
1984
1987
1991
1995
1997
1997
1996
1994
1991
1991
1993
1997
2001
2005
2007
2008
2010
2014
2019
2024
2026
2026
2024
2024
2024
2027
2029
2030
2029
2025
2018
2012
2005
1999
1993
1987
1982
1980
1979
1981
1982
1983
1982
1980
1979
1978
1980
1984
1989
1992
1993
1990
1987
1986
1987
1992
1998
2003
2006
2008
2007
2004
1999
1995
1993
1996
2002
2010
2016
2017
2012
2004
1997
1995
1996
2000
2002
2003
2004
2007
2011
2015
2017
2016
2013
2012
2013
2014
2014
2013
2011
2010
2009
2008
2008
2009
2010
2010
2008
2004
1998
1994
1992
1991
1990
1989
1988
1988
1991
1996
1999
1998
1996
1992
1989
1989
1991
1996
2002
2007
2005
1996
1981
1964
1955
1962
1991
2039
2099
2155
2188
2185
2147
2087
2027
1986
1969
1973
1985
1994
1996
1992
1986
1983
1981
1981
1982
1984
1985
1986
1987
1988
1990
1993
1997
2001
2003
2003
2001
1998
1996
1995
1995
1994
1995
1997
2002
2008
2015
2020
2023
2024
2025
2025
2026
2027
2028
2030
2031
2032
2032
2031
2029
2027
2024
2021
2019
2017
2014
2011
2009
2005
2003
2000
1998
1996
1994
1993
1992
1991
1990
1988
1987
1985
1984
1984
1985
1986
1986
1986
1986
1985
1984
1983
1982
1981
1981
1981
1981
1981
1981
1981
1980
1980
1979
1978
1977
1977
1977
1978
1978
1979
1978
1976
1974
1971
1968
1965
1962
1959
1956
1954
1953
1953
1955
1958
1960
1961
1960
1958
1955
1954
1954
1955
1956
1956
1955
1955
1955
1957
1961
1966
1972
1976
1978
1978
1976
1975
1974
1973
1971
1970
1968
1967
1966
1966
1968
1969
1967
1962
1952
1941
1934
1936
1955
1990
2039
2092
2135
2151
2132
2084
2022
1967
1934
1925
1933
1945
1954
1957
1955
1954
1953
1955
1957
1959
1960
1961
1961
1960
1959
1959
1958
1958
1957
1957
1958
1959
1961
1963
1964
1965
1966
1967
1968
1969
1970
1970
1970
1970
1971
1972
1974
1977
1979
1981
1983
1983
1984
1985
1985
1985
1985
1984
1982
1979
1975
1973
1971
1969
1967
1965
1963
1962
1962
1962
1962
1962
1962
1962
1962
1963
1962
1962
1961
1961
1961
1962
1963
1964
1965
1966
1966
1966
1966
1966
1967
1968
1968
1968
1968
1968
1968
1969
1970
1971
1972
1972
1972
1973
1973
1973
1973
1973
1973
1973
1973
1973
1974
1974
1974
1974
1974
1974
1974
1974
1974
1975
1976
1976
1976
1975
1974
1973
1973
1974
1975
1976
1978
1979
1980
1980
1979
1979
1978
1978
1977
1977
1978
1978
1979
1980
1981
1982
1983
1983
1984
1985
1987
1989
1989
1989
1988
1987
1985
1984
1984
1985
1986
1987
1987
1987
1986
1986
1987
1989
1989
1986
1979
1969
1961
1962
1977
2009
2054
2107
2151
2173
2162
2120
2061
2004
1965
1951
1954
1966
1975
1979
1979
1979
1980
1982
1983
1984
1985
1986
1987
1988
1988
1988
1988
1988
1988
1988
1989
1990
1991
1991
1992
1992
1993
1993
1993
1993
1992
1993
1993
1995
1996
1998
2000
2001
2002
2003
2003
2004
2005
2007
2009
2010
2010
2009
2008
2006
2003
2001
1999
1996
1994
1992
1989
1987
1985
1983
1982
1981
1980
1980
1981
1982
1982
1983
1982
1981
1981
1981
1981
1981
1981
1981
1981
1981
1981
1982
1982
1983
1983
1984
1984
1984
1983
1983
1983
1983
1982
1982
1982
1982
1983
1983
1984
1983
1982
1981
1980
1980
1981
1982
1983
1983
1982
1981
1981
1980
1981
1981
1982
1982
1983
1983
1983
1982
1982
1981
1981
1981
1981
1980
1979
1979
1979
1980
1981
1982
1982
1982
1982
1981
1981
1981
1981
1981
1981
1980
1980
1980
1981
1983
1985
1985
1985
1985
1985
1986
1986
1985
1985
1984
1984
1983
1982
1981
1978
1976
1975
1974
1974
1974
1974
1973
1971
1968
1967
1967
1966
1963
1958
1953
1951
1959
1980
2017
2066
2118
2160
2175
2156
2107
2045
1988
1951
1938
1942
1951
1958
1962
1964
1966
1968
1969
1970
1970
1973
1977
1982
1988
1991
1993
1993
1992
1991
1990
1989
1989
1990
1991
1992
1994
1996
1997
1998
1998
1998
1998
1998
1999
2001
2003
2004
2006
2007
2009
2010
2011
2012
2012
2012
2012
2013
2013
2012
2011
2008
2005
2001
1999
1997
1995
1992
1990
1988
1986
1985
1984
1983
1983
1983
1983
1983
1984
1984
1984
1984
1984
1983
1983
1983
1984
1985
1985
1986
1986
1985
1984
1983
1983
1984
1985
1986
1987
1987
1987
1985
1983
1982
1982
1984
1986
1988
1989
1989
1989
1988
1987
1987
1987
1988
1988
1988
1987
1985
1981
1977
1974
1972
1970
1969
1969
1968
1968
1968
1969
1970
1972
1974
1976
1977
1978
1978
1977
1976
1974
1974
1973
1973
1974
1975
1975
1975
1975
1975
1975
1975
1975
1975
1976
1976
1977
1978
1979
1979
1980
1980
1980
1980
1980
1980
1979
1979
1978
1978
1977
1977
1977
1978
1980
1981
1980
1975
1965
1953
1945
1950
1972
2012
2065
2121
2163
2178
2157
2106
2042
1985
1949
1938
1943
1955
1963
1965
1964
1963
1963
1964
1966
1968
1969
1970
1970
1971
1970
1971
1972
1974
1979
1983
1987
1988
1987
1985
1983
1982
1982
1982
1983
1983
1984
1986
1987
1988
1990
1991
1992
1992
1993
1993
1994
1997
1999
2002
2003
2003
2002
1999
1996
1993
1990
1988
1985
1983
1982
1980
1979
1977
1975
1973
1971
1971
1971
1971
1971
1970
1970
1969
1969
1969
1970
1971
1972
1972
1973
1973
1972
1971
1970
1969
1969
1968
1969
1971
1973
1976
1978
1980
1980
1979
1978
1977
1977
1978
1978
1979
1978
1978
1976
1974
1972
1971
1970
1969
1969
1969
1968
1967
1966
1965
1965
1965
1966
1966
1966
1966
1966
1967
1970
1975
1979
1982
1983
1981
1977
1974
1972
1973
1977
1983
1987
1990
1989
1986
1982
1979
1979
1979
1981
1982
1982
1981
1978
1974
1971
1969
1968
1967
1967
1968
1969
1970
1971
1973
1974
1976
1976
1974
1972
1970
1968
1967
1967
1967
1970
1973
1977
1980
1981
1981
1979
1974
1967
1957
1946
1939
1942
1958
1991
2038
2089
2134
2155
2143
2099
2038
1978
1938
1922
1926
1938
1948
1952
1953
1952
1952
1953
1953
1954
1956
1957
1958
1958
1957
1958
1960
1963
1967
1969
1969
1969
1969
1970
1974
1979
1984
1991
1996
2000
2001
2002
2002
2003
2004
2004
2004
2004
2003
2003
2003
2003
2003
2003
2005
2007
2010
2013
2013
2010
2004
1997
1988
1979
1971
1965
1961
1960
1961
1963
1966
1969
1971
1972
1972
1972
1972
1972
1972
1973
1974
1976
1978
1981
1984
1987
1988
1988
1988
1987
1987
1987
1987
1987
1987
1986
1986
1986
1987
1987
1987
1987
1987
1987
1988
1988
1987
1986
1985
1984
1984
1984
1983
1982
1981
1980
1979
1978
1978
1978
1977
1977
1977
1977
1977
1977
1977
1977
1976
1977
1977
1978
1979
1980
1980
1980
1980
1980
1981
1981
1981
1981
1980
1980
1980
1980
1980
1980
1980
1979
1978
1977
1977
1978
1980
1981
1982
1982
1982
1983
1983
1984
1984
1984
1984
1983
1982
1981
1981
1980
1981
1981
1982
1983
1984
1986
1987
1984
1978
1968
1958
1953
1959
1981
2019
2067
2117
2154
2164
2141
2090
2029
1976
1945
1938
1945
1956
1964
1967
1967
1969
1971
1973
1974
1974
1974
1974
1975
1975
1976
1976
1977
1977
1978
1980
1981
1982
1983
1983
1983
1984
1985
1986
1987
1989
1990
1991
1991
1992
1993
1995
1997
1999
2001
2003
2004
2005
2005
2005
2005
2005
2004
2003
2003
2003
2002
2000
1998
1995
1991
1989
1987
1985
1984
1983
1982
1981
1981
1980
1979
1978
1978
1979
1980
1981
1981
1981
1980
1979
1978
1978
1979
1980
1981
1982
1983
1983
1982
1982
1981
1981
1982
1983
1985
1986
1987
1987
1986
1985
1984
1984
1984
1985
1986
1987
1987
1987
1986
1985
1984
1984
1984
1985
1986
1988
1988
1988
1988
1987
1987
1987
1987
1988
1988
1988
1988
1988
1987
1987
1986
1986
1986
1986
1987
1989
1990
1990
1989
1987
1985
1984
1983
1983
1985
1986
1988
1989
1990
1990
1990
1990
1991
1992
1993
1993
1992
1991
1989
1987
1986
1985
1986
1987
1988
1989
1990
1991
1991
1987
1979
1968
1957
1952
1958
1982
2022
2074
2126
2160
2165
2136
2083
2024
1976
1949
1943
1949
1957
1963
1965
1966
1968
1972
1976
1979
1981
1982
1982
1983
1983
1984
1985
1985
1986
1987
1987
1988
1988
1987
1987
1986
1985
1986
1986
1987
1988
1988
1988
1987
1986
1986
1987
1988
1990
1992
1993
1994
1994
1996
1997
2000
2002
2004
2004
2003
2000
1996
1993
1990
1988
1986
1983
1981
1980
1981
1982
1983
1984
1983
1981
1978
1976
1975
1974
1973
1971
1969
1967
1967
1967
1969
1970
1971
1973
1975
1979
1983
1986
1988
1988
1985
1981
1977
1973
1969
1968
1968
1969
1970
1971
1971
1971
1972
1973
1975
1977
1978
1979
1981
1983
1985
1987
1989
1990
1990
1990
1989
1988
1988
1988
1988
1989
1989
1989
1989
1989
1988
1987
1986
1984
1983
1982
1982
1981
1981
1981
1980
1980
1980
1981
1982
1984
1987
1989
1989
1985
1979
1974
1973
1976
1982
1989
1993
1994
1993
1991
1990
1991
1992
1992
1988
1980
1968
1956
1952
1963
1991
2034
2082
2122
2138
2124
2082
2027
1975
1943
1933
1939
1951
1961
1966
1969
1972
1976
1980
1983
1985
1985
1984
1983
1983
1984
1985
1986
1988
1989
1989
1989
1989
1989
1989
1989
1990
1991
1992
1994
1994
1995
1995
1996
1997
1998
2001
2003
2005
2007
2008
2008
2009
2009
2009
2009
2009
2009
2009
2008
2006
2003
1999
1995
1991
1988
1985
1983
1982
1981
1981
1980
1978
1977
1976
1976
1976
1976
1976
1976
1975
1975
1975
1974
1974
1974
1975
1976
1977
1978
1978
1978
1977
1977
1977
1977
1979
1980
1981
1982
1982
1982
1981
1981
1980
1980
1980
1980
1981
1981
1981
1981
1980
1979
1979
1979
1980
1981
1981
1982
1981
1980
1980
1979
1979
1980
1980
1981
1981
1981
1980
1980
1979
1979
1978
1978
1979
1980
1981
1982
1983
1983
1983
1983
1983
1983
1983
1983
1983
1983
1983
1982
1981
1980
1980
1981
1981
1982
1984
1985
1984
1980
1972
1961
1953
1953
1968
1999
2044
2093
2136
2155
2143
2100
2043
1987
1951
1938
1944
1956
1966
1970
1969
1969
1969
1970
1972
1973
1974
1975
1975
1975
1974
1974
1974
1975
1976
1977
1978
1978
1977
1977
1978
1978
1979
1980
1980
1981
1982
1983
1984
1984
1985
1985
1986
1988
1990
1992
1993
1995
1996
1996
1996
1996
1996
1995
1994
1993
1992
1991
1988
1984
1981
1978
1975
1974
1974
1973
1973
1973
1972
1972
1971
1970
1969
1969
1970
1971
1972
1972
1972
1972
1972
1971
1971
1972
1973
1974
1975
1976
1975
1975
1974
1974
1974
1975
1976
1976
1977
1977
1977
1977
1976
1976
1976
1976
1976
1976
1976
1976
1976
1976
1976
1975
1975
1974
1974
1974
1975
1975
1975
1975
1975
1974
1974
1974
1974
1974
1974
1973
1972
1972
1972
1972
1973
1974
1975
1976
1977
1978
1979
1979
1979
1978
1978
1978
1977
1977
1977
1977
1977
1977
1977
1977
1977
1978
1979
1976
1970
1960
1951
1946
1955
1979
2020
2069
2118
2149
2151
2119
2065
2006
1959
1937
1936
1946
1958
1965
1966
1966
1966
1966
1967
1968
1969
1970
1971
1972
1972
1973
1973
1973
1972
1972
1971
1972
1972
1973
1974
1974
1974
1975
1975
1976
1977
1978
1979
1980
1981
1982
1983
1985
1986
1988
1989
1990
1992
1993
1994
1994
1994
1993
1991
1989
1987
1986
1984
1983
1981
1978
1976
1974
1972
1970
1969
1969
1968
1969
1969
1969
1970
1969
1969
1969
1969
1969
1970
1970
1971
1972
1972
1972
1972
1971
1971
1971
1972
1973
1974
1975
1975
1974
1974
1974
1974
1974
1974
1975
1975
1976
1976
1976
1975
1975
1976
1976
1977
1977
1977
1977
1976
1975
1974
1974
1974
1974
1975
1975
1976
1976
1977
1976
1976
1974
1973
1972
1972
1972
1973
1973
1972
1970
1967
1964
1962
1962
1962
1963
1964
1965
1965
1964
1963
1962
1961
1960
1960
1961
1963
1964
1966
1967
1967
1967
1964
1958
1949
1940
1938
1948
1975
2016
2065
2112
2139
2137
2104
2049
1992
1949
1929
1930
1940
1950
1956
1957
1958
1959
1961
1962
1963
1964
1964
1965
1966
1967
1968
1969
1970
1972
1972
1972
1972
1972
1972
1972
1973
1974
1975
1976
1977
1978
1978
1979
1979
1980
1982
1984
1986
1987
1988
1989
1990
1991
1991
1992
1993
1993
1993
1993
1992
1990
1987
1984
1982
1979
1977
1976
1975
1974
1973
1972
1971
1970
1969
1969
1969
1970
1970
1971
1971
1971
1970
1971
1971
1972
1973
1973
1974
1975
1975
1976
1976
1975
1975
1975
1976
1977
1978
1978
1978
1978
1978
1978
1979
1979
1980
1980
1981
1981
1982
1982
1982
1982
1982
1982
1982
1982
1983
1983
1983
1983
1983
1983
1983
1983
1984
1984
1984
1985
1985
1984
1983
1982
1981
1980
1981
1983
1984
1986
1987
1987
1987
1986
1986
1987
1988
1988
1988
1988
1987
1986
1985
1984
1984
1984
1985
1986
1987
1989
1990
1988
1983
1973
1963
1956
1960
1980
2016
2062
2110
2145
2154
2131
2082
2025
1976
1948
1943
1952
1964
1973
1976
1976
1976
1978
1980
1981
1982
1982
1982
1982
1982
1982
1983
1984
1985
1986
1986
1986
1986
1986
1986
1985
1986
1986
1988
1989
1990
1991
1992
1993
1993
1993
1994
1995
1996
1998
2000
2002
2003
2003
2004
2004
2003
2003
2002
2001
2000
1998
1996
1993
1990
1987
1984
1982
1979
1978
1977
1976
1976
1976
1975
1974
1974
1975
1975
1976
1977
1977
1976
1976
1976
1976
1977
1977
1979
1980
1981
1982
1982
1982
1982
1982
1982
1982
1983
1985
1987
1990
1992
1994
1997
1999
2002
2004
2006
2009
2012
2013
2012
2010
2007
2004
2003
2002
2003
2002
2001
1999
1996
1992
1989
1986
1983
1981
1981
1982
1984
1986
1990
1993
1995
1997
1998
1999
2001
2002
2002
2002
2001
1999
1997
1996
1996
1996
1998
2001
2003
2004
2004
2004
2004
2003
1998
1990
1979
1969
1966
1976
2004
2046
2094
2136
2154
2140
2096
2038
1983
1947
1935
1942
1957
1969
1975
1977
1977
1978
1980
1982
1982
1982
1981
1980
1981
1982
1983
1984
1985
1985
1986
1987
1988
1989
1990
1991
1991
1991
1991
1991
1991
1991
1991
1991
1992
1993
1995
1997
1999
2001
2003
2004
2005
2005
2005
2005
2005
2006
2006
2005
2003
2000
1996
1991
1987
1983
1980
1977
1975
1973
1971
1970
1969
1968
1968
1967
1967
1967
1967
1967
1967
1967
1967
1968
1968
1969
1969
1969
1970
1970
1970
1970
1970
1969
1969
1969
1970
1972
1972
1973
1972
1972
1971
1970
1970
1970
1971
1972
1972
1972
1972
1972
1971
1970
1970
1969
1969
1969
1970
1970
1970
1969
1967
1966
1964
1964
1964
1965
1966
1966
1967
1967
1967
1968
1969
1969
1970
1970
1970
1970
1970
1969
1969
1968
1967
1966
1966
1965
1965
1966
1968
1968
1966
1960
1950
1939
1934
1940
1962
2000
2048
2096
2129
2133
2106
2053
1995
1949
1925
1923
1933
1945
1951
1952
1951
1951
1953
1955
1956
1957
1957
1958
1959
1960
1960
1961
1961
1961
1961
1961
1961
1961
1961
1962
1962
1962
1963
1964
1966
1967
1968
1968
1968
1968
1969
1971
1974
1976
1978
1980
1981
1983
1984
1986
1987
1987
1987
1987
1985
1982
1979
1975
1972
1970
1967
1965
1963
1961
1960
1959
1959
1959
1959
1958
1957
1957
1957
1958
1958
1958
1958
1958
1958
1958
1958
1958
1959
1960
1962
1963
1964
1964
1964
1963
1962
1962
1963
1964
1966
1967
1969
1969
1970
1970
1971
1971
1973
1974
1975
1975
1975
1974
1973
1974
1975
1976
1978
1979
1979
1978
1976
1975
1973
1973
1974
1975
1976
1977
1978
1979
1981
1983
1986
1988
1990
1990
1991
1991
1991
1990
1991
1991
1991
1991
1991
1991
1991
1993
1995
1995
1991
1983
1972
1962
1960
1973
2003
2048
2100
2147
2171
2163
2124
2065
2008
1968
1951
1954
1965
1976
1981
1981
1981
1982
1983
1984
1985
1987
1988
1989
1989
1989
1988
1988
1987
1987
1987
1987
1987
1986
1984
1982
1981
1979
1978
1979
1979
1981
1982
1984
1985
1986
1987
1988
1989
1990
1993
1995
1998
2001
2002
2003
2003
2002
2002
2002
2001
2001
1999
1997
1994
1992
1990
1987
1986
1985
1984
1983
1983
1983
1982
1982
1981
1981
1980
1980
1981
1981
1982
1982
1983
1984
1984
1984
1984
1985
1985
1986
1987
1988
1989
1989
1988
1988
1987
1987
1988
1989
1989
1989
1988
1987
1985
1985
1985
1985
1986
1986
1987
1988
1988
1988
1988
1987
1986
1986
1986
1985
1985
1984
1983
1983
1983
1984
1986
1988
1989
1991
1992
1992
1993
1993
1992
1992
1993
1995
1998
2000
2001
1999
1996
1993
1990
1989
1989
1991
1993
1994
1991
1985
1975
1966
1962
1972
1998
2039
2088
2135
2164
2164
2131
2077
2019
1974
1952
1952
1963
1975
1982
1983
1982
1982
1982
1983
1984
1986
1987
1988
1989
1990
1990
1990
1990
1990
1991
1991
1992
1993
1994
1995
1995
1994
1994
1993
1994
1994
1996
1997
1998
1999
2000
2001
2002
2003
2004
2006
2007
2008
2010
2011
2012
2012
2011
2009
2007
2005
2003
2001
1999
1996
1993
1989
1986
1984
1982
1982
1981
1982
1982
1983
1984
1984
1983
1983
1983
1985
1988
1992
1994
1997
1999
2001
2003
2004
2005
2005
2004
2004
2004
2005
2006
2007
2008
2008
2007
2007
2007
2007
2007
2007
2008
2008
2008
2008
2008
2007
2007
2007
2006
2006
2005
2004
2004
2003
2002
2002
2002
2003
2002
2002
2000
1998
1996
1996
1997
1998
1999
1999
1998
1998
1998
1999
1999
1998
1997
1995
1993
1991
1990
1989
1988
1988
1988
1988
1988
1989
1991
1993
1993
1989
1981
1970
1961
1961
1975
2007
2052
2103
2143
2159
2141
2094
2035
1981
1947
1937
1944
1958
1968
1972
1972
1972
1972
1974
1975
1977
1979
1980
1981
1981
1983
1984
1986
1987
1988
1988
1988
1988
1987
1986
1985
1984
1985
1989
1994
2001
2008
2013
2016
2018
2020
2020
2019
2015
2010
2006
2004
2007
2013
2021
2027
2030
2029
2027
2024
2021
2018
2015
2011
2008
2005
2002
1999
1996
1994
1992
1992
1991
1991
1990
1990
1989
1988
1988
1988
1988
1988
1988
1989
1989
1990
1989
1987
1984
1980
1978
1977
1976
1975
1974
1975
1977
1982
1987
1990
1992
1993
1994
1994
1994
1993
1993
1993
1992
1992
1992
1992
1992
1992
1991
1991
1991
1991
1991
1991
1991
1991
1991
1990
1990
1989
1988
1987
1987
1988
1988
1988
1989
1990
1990
1991
1991
1991
1990
1990
1990
1991
1991
1990
1989
1988
1986
1985
1983
1981
1980
1981
1981
1978
1971
1961
1952
1950
1963
1993
2038
2088
2131
2151
2140
2098
2041
1985
1947
1934
1940
1954
1967
1974
1975
1975
1976
1978
1980
1983
1985
1987
1988
1989
1990
1990
1990
1990
1990
1991
1992
1993
1994
1994
1995
1995
1995
1995
1996
1997
1997
1998
2000
2001
2002
2004
2005
2006
2007
2008
2010
2011
2012
2013
2014
2013
2012
2011
2009
2007
2005
2003
2000
1998
1995
1992
1989
1986
1984
1982
1981
1981
1981
1982
1982
1981
1980
1980
1979
1978
1978
1979
1980
1980
1981
1981
1981
1982
1982
1982
1981
1978
1975
1971
1968
1966
1965
1965
1966
1966
1967
1968
1968
1969
1969
1969
1969
1969
1969
1968
1969
1969
1970
1971
1972
1972
1972
1972
1972
1972
1972
1972
1973
1973
1973
1973
1973
1972
1972
1972
1972
1973
1974
1977
1980
1984
1988
1991
1994
1995
1996
1997
1998
1998
1998
1997
1995
1993
1991
1990
1989
1990
1991
1992
1992
1992
1991
1991
1988
1983
1975
1964
1955
1954
1967
1995
2039
2090
2135
2158
2148
2106
2047
1988
1948
1932
1935
1946
1956
1961
1962
1964
1965
1967
1968
1968
1968
1967
1967
1967
1967
1969
1970
1971
1971
1971
1971
1972
1972
1973
1975
1976
1977
1978
1979
1979
1979
1979
1980
1981
1983
1985
1988
1990
1992
1994
1995
1996
1997
1998
1999
2000
2001
2002
2002
2001
1999
1996
1992
1990
1988
1986
1985
1984
1983
1981
1980
1980
1979
1978
1977
1976
1975
1974
1975
1976
1977
1979
1979
1979
1979
1978
1977
1977
1977
1979
1980
1981
1982
1982
1983
1983
1982
1981
1980
1978
1976
1975
1974
1973
1973
1973
1974
1974
1974
1974
1974
1973
1972
1972
1972
1972
1973
1974
1974
1974
1973
1972
1972
1971
1971
1972
1973
1973
1974
1974
1974
1974
1973
1974
1974
1975
1975
1975
1974
1973
1973
1974
1975
1976
1978
1979
1980
1981
1982
1983
1985
1986
1987
1987
1987
1988
1988
1988
1988
1988
1987
1987
1987
1988
1989
1991
1992
1990
1985
1975
1965
1959
1965
1987
2024
2072
2121
2155
2161
2135
2082
2022
1971
1943
1938
1947
1958
1966
1968
1968
1969
1970
1973
1975
1977
1979
1979
1980
1980
1980
1981
1983
1985
1989
1993
1995
1996
1995
1992
1989
1986
1985
1985
1985
1985
1986
1987
1988
1989
1990
1991
1991
1991
1992
1992
1994
1995
1997
1998
1998
1997
1996
1995
1994
1994
1993
1992
1990
1988
1986
1983
1981
1979
1977
1976
1976
1976
1976
1976
1975
1974
1974
1974
1974
1975
1976
1976
1977
1977
1977
1977
1977
1977
1977
1977
1977
1978
1978
1978
1978
1978
1977
1977
1978
1978
1979
1979
1978
1978
1977
1977
1977
1977
1977
1977
1977
1977
1977
1978
1978
1978
1977
1977
1976
1976
1976
1977
1979
1980
1981
1981
1980
1980
1980
1980
1981
1982
1983
1984
1984
1983
1982
1981
1981
1981
1983
1984
1986
1987
1988
1988
1989
1990
1991
1991
1991
1990
1989
1988
1988
1989
1991
1993
1995
1997
1998
1998
1998
1997
1996
1996
1995
1995
1995
1996
1997
1997
1997
1995
1994
1992
1992
1993
1997
2001
2005
2009
2012
2014
2014
2010
2002
1992
1983
1981
1993
2021
2061
2110
2154
2178
2172
2136
2080
2023
1982
1963
1965
1975
1985
1989
1989
1988
1989
1990
1991
1992
1992
1992
1992
1991
1991
1991
1991
1991
1992
1992
1993
1994
1994
1994
1994
1993
1993
1994
1994
1995
1996
1997
1998
1998
1999
1999
1999
2000
2001
2002
2004
2005
2006
2006
2006
2005
2005
2005
2005
2004
2004
2002
2000
1997
1995
1992
1990
1988
1987
1986
1986
1985
1984
1983
1982
1981
1981
1981
1982
1982
1982
1982
1982
1982
1982
1981
1981
1982
1982
1984
1984
1985
1985
1985
1984
1984
1984
1984
1985
1985
1985
1985
1985
1985
1985
1984
1984
1984
1984
1984
1984
1984
1984
1984
1984
1984
1984
1984
1984
1985
1985
1986
1986
1986
1985
1985
1985
1986
1986
1987
1986
1985
1985
1985
1985
1985
1985
1985
1985
1986
1988
1988
1987
1984
1980
1974
1969
1964
1962
1962
1965
1972
1979
1986
1991
1993
1993
1992
1991
1989
1987
1984
1982
1982
1984
1987
1988
1988
1985
1982
1980
1979
1980
1983
1988
1991
1993
1993
1991
1986
1979
1971
1963
1961
1969
1993
2032
2078
2120
2143
2137
2105
2056
2008
1970
1951
1948
1953
1963
1972
1980
1986
1991
1994
1996
1997
1997
1998
1998
1998
1999
1999
1999
1999
1999
1999
1999
2000
2001
2001
2001
1999
1996
1993
1991
1989
1988
1988
1991
1995
2000
2006
2009
2010
2010
2010
2011
2014
2016
2018
2019
2019
2019
2017
2015
2012
2010
2007
2004
2002
1999
1996
1993
1990
1986
1983
1980
1978
1977
1975
1975
1975
1974
1974
1974
1974
1974
1974
1974
1973
1973
1974
1976
1979
1984
1988
1990
1991
1992
1991
1991
1992
1992
1991
1991
1991
1991
1991
1991
1991
1992
1991
1991
1990
1989
1988
1988
1987
1988
1988
1989
1989
1988
1987
1986
1985
1984
1985
1985
1986
1986
1986
1986
1986
1986
1986
1986
1985
1985
1985
1985
1984
1983
1982
1981
1979
1978
1977
1976
1977
1978
1979
1980
1981
1982
1982
1982
1983
1984
1985
1986
1987
1987
1986
1985
1984
1983
1982
1982
1983
1983
1983
1983
1982
1983
1983
1983
1979
1972
1963
1956
1958
1974
2006
2050
2100
2141
2159
2145
2103
2046
1992
1958
1947
1952
1964
1973
1977
1977
1977
1978
1978
1977
1976
1975
1974
1973
1973
1974
1976
1978
1979
1980
1981
1981
1981
1981
1981
1982
1983
1984
1985
1985
1985
1986
1986
1987
1988
1990
1991
1992
1993
1994
1995
1995
1996
1998
1999
2000
2000
2001
2001
2001
2001
2000
1998
1995
1992
1988
1984
1981
1979
1978
1977
1976
1975
1975
1975
1975
1975
1975
1976
1976
1975
1975
1974
1974
1974
1975
1976
1977
1978
1978
1977
1977
1977
1978
1978
1979
1979
1980
1981
1981
1982
1982
1982
1982
1982
1983
1983
1983
1983
1982
1982
1981
1981
1980
1981
1981
1982
1983
1983
1983
1983
1983
1982
1983
1983
1984
1985
1985
1985
1984
1983
1982
1982
1982
1982
1982
1983
1983
1983
1984
1984
1983
1982
1981
1981
1980
1980
1981
1982
1983
1984
1985
1986
1986
1987
1988
1990
1991
1991
1991
1990
1988
1987
1985
1984
1984
1983
1983
1983
1982
1982
1983
1982
1980
1975
1966
1956
1951
1957
1978
2013
2059
2107
2143
2153
2131
2082
2024
1973
1943
1936
1944
1955
1963
1965
1965
1966
1968
1969
1970
1970
1970
1969
1970
1970
1971
1972
1973
1973
1973
1973
1973
1973
1973
1973
1974
1975
1975
1976
1977
1977
1978
1978
1979
1980
1981
1982
1984
1985
1986
1987
1987
1987
1988
1988
1989
1990
1991
1991
1990
1989
1987
1985
1983
1981
1978
1977
1975
1974
1973
1972
1971
1970
1969
1969
1969
1969
1969
1969
1969
1968
1968
1968
1968
1969
1970
1971
1971
1972
1972
1972
1972
1972
1972
1972
1973
1974
1975
1976
1976
1975
1974
1974
1974
1974
1974
1975
1976
1977
1977
1976
1975
1975
1975
1975
1976
1976
1977
1977
1977
1976
1976
1976
1976
1976
1976
1976
1977
1977
1977
1977
1977
1977
1976
1977
1977
1977
1978
1977
1977
1976
1975
1976
1976
1977
1979
1981
1982
1983
1983
1983
1983
1983
1984
1984
1984
1983
1983
1982
1982
1981
1981
1981
1981
1981
1983
1984
1984
1981
1973
1963
1954
1954
1967
1997
2040
2089
2131
2151
2141
2101
2045
1989
1951
1937
1942
1954
1966
1971
1971
1971
1971
1971
1972
1973
1974
1975
1976
1977
1978
1978
1977
1977
1978
1978
1979
1980
1981
1982
1983
1983
1983
1983
1983
1984
1985
1986
1988
1989
1990
1991
1991
1992
1993
1994
1995
1997
1998
1999
2000
1999
1999
1998
1997
1996
1995
1994
1992
1990
1987
1985
1982
1980
1978
1977
1977
1977
1977
1977
1976
1976
1975
1974
1974
1974
1975
1976
1977
1977
1977
1977
1977
1976
1977
1977
1978
1979
1980
1981
1981
1981
1980
1980
1980
1980
1980
1981
1982
1983
1983
1982
1982
1981
1981
1981
1981
1982
1982
1982
1982
1982
1982
1981
1981
1982
1982
1983
1984
1984
1984
1984
1983
1983
1983
1983
1983
1984
1984
1984
1984
1984
1983
1982
1981
1981
1982
1983
1985
1987
1988
1988
1988
1988
1988
1989
1990
1991
1991
1991
1990
1988
1987
1986
1986
1986
1987
1987
1988
1989
1990
1990
1986
1978
1967
1960
1961
1976
2007
2050
2099
2138
2154
2139
2096
2040
1987
1953
1943
1950
1963
1973
1977
1977
1977
1978
1980
1981
1983
1983
1983
1983
1983
1984
1984
1985
1985
1986
1987
1988
1988
1988
1988
1989
1989
1989
1990
1991
1992
1993
1994
1995
1995
1996
1997
1998
2000
2001
2003
2004
2005
2005
2006
2005
2006
2006
2006
2006
2005
2004
2002
2000
1997
1994
1991
1990
1988
1987
1987
1986
1986
1985
1985
1984
1984
1983
1984
1984
1985
1985
1986
1986
1986
1986
1986
1986
1987
1989
1990
1990
1990
1990
1990
1989
1989
1989
1990
1991
1991
1992
1992
1992
1992
1991
1991
1991
1992
1992
1993
1993
1994
1993
1993
1992
1991
1991
1992
1993
1994
1995
1995
1994
1994
1993
1993
1993
1994
1995
1995
1995
1994
1993
1992
1992
1993
1994
1996
1997
1998
1999
2000
2000
2000
1999
1999
1999
1998
1999
1998
1998
1998
1997
1997
1996
1996
1996
1997
1999
2000
1997
1990
1980
1971
1970
1983
2012
2054
2103
2142
2158
2143
2099
2042
1987
1950
1937
1942
1955
1965
1970
1970
1970
1970
1971
1971
1972
1973
1974
1975
1976
1977
1977
1977
1976
1976
1976
1977
1978
1979
1979
1978
1978
1978
1979
1981
1986
1991
1996
2000
2003
2005
2006
2007
2007
2008
2009
2011
2013
2014
2015
2015
2014
2012
2009
2007
2004
2000
1995
1990
1983
1977
1972
1968
1965
1962
1959
1957
1955
1954
1955
1957
1960
1964
1968
1972
1975
1978
1979
1980
1979
1978
1977
1977
1977
1978
1979
1979
1980
1980
1979
1979
1979
1978
1978
1977
1976
1976
1977
1977
1977
1976
1975
1973
1972
1972
1972
1972
1973
1973
1972
1972
1972
1971
1970
1969
1968
1968
1968
1968
1969
1969
1968
1968
1968
1968
1969
1970
1971
1972
1973
1973
1973
1973
1974
1974
1975
1976
1976
1976
1975
1974
1973
1972
1971
1971
1972
1973
1974
1976
1977
1976
1971
1963
1953
1946
1950
1969
2004
2050
2098
2132
2139
2114
2064
2006
1957
1931
1928
1939
1953
1962
1964
1963
1963
1964
1966
1968
1970
1971
1971
1972
1972
1973
1973
1973
1974
1975
1976
1976
1977
1978
1978
1978
1977
1978
1978
1980
1982
1984
1985
1986
1987
1988
1989
1990
1991
1993
1995
1998
1999
2001
2001
2002
2002
2002
2001
2001
2000
1998
1996
1993
1990
1987
1985
1983
1982
1981
1982
1982
1982
1983
1982
1982
1981
1980
1980
1980
1981
1981
1981
1981
1979
1978
1976
1975
1975
1976
1977
1978
1978
1978
1978
1977
1976
1976
1977
1977
1978
1978
1979
1979
1979
1978
1978
1978
1978
1978
1978
1977
1977
1977
1977
1977
1977
1977
1976
1976
1977
1977
1978
1978
1978
1977
1975
1974
1973
1973
1974
1975
1976
1977
1977
1977
1977
1978
1979
1980
1981
1981
1981
1981
1980
1978
1977
1976
1975
1976
1976
1977
1977
1978
1979
1978
1974
1966
1956
1948
1948
1961
1990
2034
2083
2126
2147
2138
2097
2040
1984
1944
1929
1933
1944
1955
1960
1961
1961
1962
1964
1965
1966
1966
1966
1966
1966
1966
1966
1967
1967
1968
1969
1969
1969
1969
1969
1969
1969
1970
1971
1972
1973
1974
1974
1974
1974
1974
1975
1977
1979
1980
1981
1982
1982
1982
1982
1983
1983
1983
1984
1983
1982
1980
1977
1973
1970
1968
1966
1964
1963
1962
1961
1959
1958
1957
1956
1956
1956
1957
1958
1958
1959
1958
1958
1957
1957
1957
1958
1959
1959
1960
1960
1960
1960
1959
1958
1958
1958
1959
1960
1961
1961
1961
1960
1960
1959
1959
1960
1960
1961
1961
1961
1961
1961
1960
1959
1959
1959
1960
1961
1962
1962
1962
1962
1961
1961
1960
1960
1961
1962
1962
1962
1962
1962
1962
1963
1964
1964
1965
1966
1967
1968
1969
1969
1968
1968
1967
1967
1966
1966
1966
1966
1966
1966
1965
1966
1967
1967
1966
1961
1952
1943
1938
1943
1964
2001
2048
2097
2132
2139
2114
2063
2004
1955
1927
1922
1931
1943
1952
1955
1955
1956
1957
1959
1960
1960
1960
1961
1962
1963
1964
1965
1965
1964
1964
1964
1964
1965
1965
1966
1967
1968
1969
1969
1969
1970
1970
1971
1972
1974
1976
1977
1979
1980
1980
1981
1982
1984
1985
1986
1986
1986
1986
1985
1984
1982
1981
1979
1977
1975
1974
1972
1970
1968
1967
1966
1965
1964
1964
1964
1965
1965
1964
1964
1964
1964
1965
1966
1966
1967
1968
1968
1968
1969
1969
1969
1970
1971
1972
1973
1974
1974
1975
1975
1974
1974
1974
1974
1975
1976
1976
1977
1977
1976
1976
1975
1974
1974
1974
1975
1975
1976
1976
1976
1976
1975
1975
1976
1976
1976
1977
1977
1977
1977
1977
1976
1976
1976
1976
1976
1976
1976
1976
1976
1977
1978
1979
1979
1981
1982
1983
1984
1984
1984
1984
1983
1983
1982
1982
1981
1981
1981
1982
1981
1981
1980
1980
1982
1982
1980
1974
1964
1956
1954
1965
1992
2035
2084
2129
2154
2149
2111
2054
1997
1955
1936
1939
1951
1963
1970
1972
1972
1973
1974
1975
1975
1976
1976
1977
1978
1978
1978
1979
1979
1980
1980
1980
1981
1981
1982
1984
1984
1983
1981
1978
1975
1973
1974
1977
1982
1987
1990
1991
1991
1990
1990
1991
1992
1993
1995
1996
1996
1997
1996
1995
1994
1992
1990
1988
1986
1984
1981
1979
1977
1975
1973
1972
1972
1972
1973
1973
1973
1973
1972
1971
1971
1970
1971
1972
1973
1974
1975
1975
1975
1975
1975
1975
1975
1976
1977
1978
1978
1979
1979
1978
1978
1978
1978
1979
1980
1980
1981
1981
1980
1979
1979
1979
1979
1979
1980
1981
1981
1980
1979
1978
1978
1978
1979
1981
1982
1983
1984
1985
1985
1984
1982
1980
1979
1979
1980
1981
1981
1980
1978
1976
1974
1973
1972
1972
1972
1973
1973
1975
1976
1977
1977
1977
1977
1979
1982
1984
1986
1986
1986
1986
1986
1988
1989
1990
1992
1994
1995
1993
1987
1978
1968
1964
1972
1997
2037
2086
2132
2159
2155
2119
2062
2004
1961
1942
1944
1956
1968
1976
1978
1979
1981
1984
1988
1992
1995
1999
2001
2001
2001
2001
2001
2002
2004
2005
2007
2008
2010
2010
2010
2010
2009
2009
2009
2008
2008
2007
2006
2004
2002
2001
1999
1998
1997
1998
1999
2001
2003
2004
2004
2005
2005
2006
2007
2007
2006
2004
2001
1999
1996
1993
1991
1988
1985
1983
1982
1982
1983
1983
1983
1983
1983
1983
1984
1985
1986
1987
1987
1988
1988
1989
1991
1994
1996
1997
1998
1998
1999
2000
2001
2001
2001
2001
2001
2002
2003
2003
2003
2002
2002
2002
2003
2003
2003
2003
2002
2001
1999
1997
1995
1992
1990
1988
1987
1988
1989
1990
1990
1990
1990
1988
1988
1987
1988
1989
1989
1989
1989
1987
1986
1986
1986
1988
1990
1992
1993
1994
1995
1995
1996
1997
1997
1997
1996
1996
1996
1996
1995
1994
1993
1991
1991
1990
1989
1989
1990
1991
1991
1989
1983
1975
1969
1970
1986
2017
2061
2112
2156
2176
2163
2120
2058
1999
1959
1944
1948
1959
1969
1973
1973
1972
1972
1974
1975
1977
1978
1980
1981
1981
1981
1981
1980
1980
1981
1981
1982
1982
1983
1984
1984
1985
1985
1986
1986
1988
1989
1991
1992
1993
1994
1994
1995
1996
1998
2000
2002
2004
2006
2006
2007
2006
2006
2006
2006
2005
2003
2001
1998
1995
1993
1990
1988
1986
1984
1983
1983
1982
1981
1981
1980
1980
1979
1979
1979
1980
1981
1982
1982
1983
1983
1983
1983
1983
1983
1983
1984
1984
1985
1985
1985
1985
1985
1986
1986
1987
1988
1989
1989
1988
1988
1987
1987
1987
1987
1989
1990
1991
1992
1992
1991
1990
1989
1989
1988
1988
1988
1989
1989
1988
1988
1987
1986
1986
1987
1988
1990
1991
1991
1990
1989
1987
1985
1984
1984
1985
1987
1989
1990
1991
1991
1990
1990
1990
1991
1993
1994
1994
1994
1992
1991
1990
1989
1988
1989
1989
1990
1990
1991
1992
1992
1988
1981
1971
1961
1958
1966
1989
2027
2075
2125
2159
2166
2140
2088
2029
1979
1952
1948
1957
1969
1976
1978
1978
1979
1981
1984
1985
1985
1985
1985
1985
1985
1986
1987
1988
1989
1990
1990
1990
1990
1990
1991
1991
1990
1990
1993
2000
2010
2018
2020
2015
2007
1999
1996
1996
1999
2002
2003
2004
2005
2005
2005
2005
2004
2004
2004
2004
2003
2001
1999
1995
1992
1990
1988
1986
1985
1984
1984
1983
1982
1982
1981
1981
1981
1982
1982
1982
1982
1982
1981
1981
1981
1981
1981
1982
1983
1983
1984
1984
1985
1985
1985
1986
1987
1988
1988
1989
1989
1989
1990
1990
1990
1990
1990
1990
1990
1990
1990
1990
1990
1989
1989
1989
1989
1990
1991
1992
1992
1992
1992
1991
1991
1991
1991
1991
1991
1991
1991
1991
1990
1990
1990
1990
1990
1990
1990
1989
1989
1990
1990
1991
1991
1992
1992
1993
1994
1995
1995
1995
1994
1993
1992
1990
1989
1989
1989
1990
1990
1990
1990
1989
1990
1990
1989
1984
1976
1968
1964
1971
1993
2030
2077
2126
2160
2168
2144
2093
2033
1983
1955
1950
1959
1972
1981
1984
1985
1985
1987
1988
1988
1988
1988
1988
1988
1989
1989
1990
1991
1991
1992
1993
1993
1993
1993
1993
1994
1994
1994
1994
1993
1992
1992
1993
1994
1995
1996
1997
1998
1999
1999
2000
2000
2001
2002
2003
2004
2005
2005
2004
2003
2001
1999
1997
1994
1992
1989
1987
1985
1983
1981
1980
1978
1977
1977
1977
1978
1978
1978
1977
1976
1975
1975
1975
1976
1976
1976
1976
1975
1975
1975
1974
1974
1974
1974
1974
1974
1974
1974
1974
1974
1973
1973
1972
1972
1973
1974
1974
1974
1974
1973
1972
1971
1971
1971
1971
1971
1971
1970
1970
1969
1969
1969
1969
1970
1971
1972
1972
1972
1972
1971
1970
1969
1969
1969
1970
1972
1973
1974
1974
1974
1974
1974
1974
1974
1974
1974
1974
1974
1975
1975
1976
1977
1978
1980
1981
1983
1984
1986
1986
1987
1986
1985
1985
1985
1986
1988
1990
1992
1995
1997
2000
2003
2004
2003
1999
1990
1981
1975
1979
1998
2031
2076
2124
2159
2170
2149
2101
2043
1992
1963
1956
1965
1979
1988
1992
1992
1993
1993
1994
1995
1995
1994
1994
1994
1994
1995
1995
1995
1995
1994
1993
1992
1991
1991
1991
1991
1991
1991
1991
1990
1990
1990
1990
1991
1991
1992
1992
1993
1994
1995
1996
1997
1999
2000
2001
2003
2003
2004
2003
2002
2000
1998
1997
1996
1996
1995
1994
1993
1992
1990
1988
1987
1986
1985
1985
1986
1986
1986
1985
1984
1983
1982
1981
1981
1982
1982
1982
1981
1979
1975
1971
1966
1962
1958
1956
1956
1956
1957
1958
1958
1959
1959
1960
1961
1962
1963
1964
1965
1966
1968
1971
1973
1974
1975
1976
1978
1981
1984
1987
1989
1990
1991
1991
1992
1992
1993
1993
1994
1994
1994
1994
1993
1993
1992
1992
1992
1991
1991
1990
1989
1989
1989
1989
1990
1991
1992
1993
1994
1994
1995
1994
1994
1993
1992
1992
1992
1991
1990
1989
1988
1988
1987
1988
1989
1990
1992
1990
1983
1973
1964
1960
1968
1995
2036
2086
2130
2153
2144
2103
2045
1987
1947
1930
1933
1943
1953
1958
1959
1958
1959
1961
1962
1964
1967
1971
1976
1981
1986
1988
1989
1988
1987
1987
1987
1988
1988
1989
1989
1988
1987
1987
1986
1987
1987
1989
1990
1992
1994
1995
1997
1998
1998
1999
2000
2002
2003
2005
2005
2005
2005
2004
2002
2000
1998
1995
1991
1987
1982
1978
1975
1971
1969
1967
1966
1966
1966
1966
1966
1965
1965
1964
1963
1964
1964
1966
1967
1968
1969
1968
1968
1968
1969
1970
1971
1972
1974
1975
1976
1976
1975
1974
1972
1972
1973
1974
1975
1976
1976
1976
1976
1976
1976
1976
1976
1976
1977
1977
1977
1977
1977
1977
1976
1975
1974
1972
1971
1970
1969
1970
1971
1971
1972
1972
1972
1972
1972
1972
1974
1975
1976
1976
1975
1975
1976
1976
1977
1978
1978
1977
1977
1977
1976
1976
1976
1976
1976
1975
1975
1974
1975
1976
1979
1980
1978
1972
1963
1955
1955
1969
1999
2044
2093
2135
2154
2141
2099
2041
1986
1949
1936
1941
1953
1964
1969
1970
1970
1972
1973
1974
1974
1973
1974
1975
1976
1977
1978
1979
1979
1979
1978
1977
1977
1977
1977
1977
1978
1979
1980
1981
1982
1982
1983
1983
1984
1985
1986
1988
1990
1992
1993
1993
1994
1995
1996
1997
1998
1999
1999
1997
1996
1994
1991
1989
1987
1985
1983
1981
1979
1978
1976
1975
1973
1972
1972
1972
1972
1972
1971
1970
1969
1968
1967
1966
1967
1968
1970
1972
1973
1973
1973
1972
1972
1973
1973
1973
1974
1975
1975
1976
1976
1976
1976
1976
1976
1977
1978
1978
1978
1977
1976
1975
1975
1975
1976
1977
1978
1978
1978
1978
1978
1977
1977
1977
1978
1979
1979
1980
1979
1978
1977
1976
1975
1975
1976
1977
1979
1980
1981
1982
1982
1983
1983
1984
1984
1984
1984
1983
1983
1982
1981
1980
1980
1980
1981
1982
1984
1986
1987
1984
1977
1966
1956
1953
1962
1989
2031
2082
2131
2162
2162
2129
2073
2013
1966
1943
1942
1953
1965
1972
1974
1974
1974
1976
1977
1978
1979
1979
1980
1981
1981
1982
1982
1982
1982
1982
1983
1984
1985
1986
1986
1985
1985
1985
1985
1986
1988
1989
1990
1990
1990
1991
1992
1993
1995
1997
1998
2000
2001
2002
2002
2002
2002
2001
2000
1999
1998
1997
1996
1994
1991
1988
1985
1983
1981
1981
1980
1980
1979
1979
1978
1977
1976
1976
1976
1976
1977
1977
1978
1978
1978
1978
1978
1978
1979
1979
1980
1981
1981
1981
1981
1981
1981
1981
1981
1982
1983
1984
1984
1984
1984
1983
1982
1982
1982
1982
1983
1984
1983
1983
1983
1982
1982
1982
1982
1982
1982
1983
1983
1983
1983
1983
1983
1983
1983
1984
1984
1984
1983
1982
1982
1981
1981
1982
1983
1985
1986
1988
1989
1989
1990
1990
1990
1989
1989
1988
1987
1986
1986
1985
1985
1985
1985
1985
1986
1989
1991
1992
1988
1980
1969
1962
1964
1981
2015
2062
2113
2154
2170
2153
2106
2047
1993
1959
1949
1956
1969
1979
1983
1984
1983
1984
1984
1985
1986
1987
1988
1989
1989
1989
1989
1989
1988
1988
1989
1989
1990
1991
1992
1992
1992
1992
1992
1993
1993
1994
1996
1997
1998
1999
1999
1999
2000
2001
2003
2004
2006
2007
2008
2008
2007
2007
2006
2005
2005
2004
2002
2000
1997
1995
1992
1990
1988
1986
1985
1985
1985
1985
1985
1985
1984
1984
1984
1984
1984
1985
1985
1986
1986
1987
1986
1986
1986
1986
1986
1986
1987
1988
1988
1988
1988
1988
1988
1988
1988
1989
1989
1990
1990
1990
1990
1990
1989
1989
1989
1989
1990
1990
1990
1990
1989
1988
1988
1988
1989
1989
1990
1990
1991
1990
1990
1990
1990
1990
1990
1991
1992
1992
1993
1992
1991
1990
1988
1988
1988
1989
1991
1992
1993
1993
1993
1994
1994
1995
1996
1997
1997
1997
1996
1995
1993
1992
1991
1992
1992
1993
1994
1995
1996
1997
1994
1987
1978
1969
1966
1975
2000
2040
2088
2134
2161
2160
2126
2071
2014
1970
1950
1951
1962
1974
1980
1981
1980
1980
1982
1984
1985
1986
1987
1987
1987
1987
1987
1987
1988
1989
1989
1990
1990
1991
1991
1990
1990
1990
1990
1990
1991
1993
1994
1995
1996
1997
1998
1998
1999
2000
2002
2003
2005
2006
2007
2007
2008
2008
2008
2008
2007
2006
2003
2001
1998
1995
1994
1995
1996
1997
1997
1996
1995
1993
1991
1989
1988
1988
1988
1988
1989
1989
1990
1990
1989
1988
1987
1986
1986
1987
1987
1988
1988
1988
1988
1987
1987
1988
1988
1988
1989
1989
1990
1991
1991
1991
1990
1990
1990
1990
1990
1991
1990
1990
1990
1990
1990
1990
1990
1990
1991
1991
1991
1991
1990
1990
1990
1989
1989
1989
1990
1990
1990
1991
1991
1990
1990
1991
1991
1993
1994
1995
1996
1996
1996
1995
1995
1994
1994
1994
1993
1993
1993
1993
1993
1994
1996
1996
1992
1983
1968
1954
1945
1948
1969
2007
2055
2106
2143
2153
2131
2082
2024
1973
1944
1940
1951
1967
1978
1983
1983
1983
1984
1985
1986
1987
1988
1988
1988
1989
1989
1990
1990
1991
1991
1991
1990
1989
1986
1984
1982
1982
1982
1982
1983
1983
1984
1984
1984
1985
1987
1990
1992
1994
1996
1997
1998
2000
2002
2004
2006
2007
2007
2005
2002
1998
1994
1991
1988
1987
1986
1985
1983
1981
1979
1975
1971
1966
1963
1961
1961
1963
1965
1967
1968
1968
1968
1968
1969
1969
1969
1969
1968
1966
1964
1963
1963
1964
1965
1967
1967
1966
1966
1966
1966
1966
1966
1966
1966
1967
1968
1970
1970
1970
1969
1967
1965
1963
1963
1964
1965
1967
1968
1968
1968
1968
1966
1966
1966
1968
1972
1976
1978
1978
1975
1972
1971
1972
1974
1977
1978
1976
1974
1973
1974
1976
1979
1981
1982
1982
1982
1981
1979
1977
1976
1975
1974
1972
1970
1967
1965
1963
1960
1954
1945
1934
1927
1930
1949
1987
2038
2092
2132
2144
2122
2070
2009
1957
1927
1921
1930
1943
1951
1953
1952
1952
1953
1955
1956
1957
1958
1959
1960
1961
1962
1963
1964
1964
1965
1965
1966
1967
1968
1969
1970
1971
1971
1972
1974
1976
1978
1980
1981
1982
1982
1983
1984
1985
1986
1988
1990
1991
1992
1992
1993
1993
1992
1991
1990
1988
1986
1984
1982
1979
1976
1973
1971
1968
1966
1965
1964
1964
1964
1965
1964
1964
1963
1962
1961
1962
1963
1964
1964
1964
1963
1962
1961
1960
1960
1961
1962
1963
1963
1964
1964
1964
1964
1965
1966
1968
1971
1974
1976
1977
1978
1978
1979
1980
1981
1982
1982
1982
1981
1981
1981
1980
1980
1980
1980
1980
1980
1980
1980
1980
1980
1980
1980
1978
1977
1977
1978
1978
1978
1977
1975
1975
1975
1977
1980
1983
1985
1987
1988
1988
1988
1987
1986
1985
1984
1983
1982
1982
1983
1986
1989
1991
1990
1985
1977
1968
1964
1971
1992
2029
2075
2124
2159
2168
2144
2094
2035
1983
1954
1947
1954
1965
1975
1982
1987
1993
1999
2002
2003
2003
2002
2001
2000
2001
2001
2001
2001
2002
2002
2002
2001
2001
2000
2000
2000
2000
2001
2001
2002
2002
2002
2001
2001
2002
2003
2004
2006
2007
2008
2009
2009
2010
2010
2010
2011
2012
2012
2012
2011
2009
2007
2004
2001
1998
1996
1994
1992
1991
1989
1988
1987
1985
1984
1984
1984
1984
1984
1984
1985
1985
1984
1984
1983
1983
1983
1984
1985
1985
1986
1986
1986
1985
1985
1985
1985
1985
1985
1986
1986
1986
1985
1984
1983
1982
1982
1982
1983
1984
1984
1984
1984
1984
1983
1982
1982
1983
1984
1985
1986
1986
1986
1985
1985
1985
1985
1986
1986
1987
1987
1987
1986
1985
1985
1985
1985
1986
1987
1987
1986
1986
1986
1986
1987
1988
1989
1989
1989
1989
1988
1987
1986
1986
1986
1986
1986
1987
1988
1990
1991
1987
1979
1969
1960
1958
1971
2001
2044
2094
2139
2161
2152
2111
2050
1992
1951
1936
1942
1958
1973
1980
1981
1981
1981
1981
1982
1984
1985
1986
1987
1988
1985
1979
1969
1959
1950
1945
1943
1942
1941
1938
1935
1933
1933
1934
1935
1937
1938
1940
1941
1943
1946
1948
1951
1954
1956
1957
1959
1961
1963
1964
1966
1967
1968
1969
1969
1969
1969
1969
1967
1965
1963
1961
1959
1958
1957
1958
1958
1959
1960
1962
1965
1969
1972
1974
1975
1974
1974
1974
1974
1974
1974
1974
1973
1972
1972
1973
1975
1976
1977
1977
1978
1978
1978
1978
1979
1979
1979
1979
1980
1980
1980
1980
1980
1981
1982
1984
1986
1987
1989
1990
1990
1991
1991
1991
1991
1991
1991
1991
1991
1990
1989
1989
1988
1988
1988
1988
1988
1988
1986
1984
1980
1977
1974
1972
1971
1971
1971
1971
1971
1971
1971
1970
1969
1968
1965
1963
1962
1967
1978
1994
2011
2026
2034
2036
2034
2032
2031
2031
2028
2021
2010
1998
1991
1994
2013
2049
2096
2143
2173
2174
2144
2089
2030
1983
1959
1958
1970
1983
1991
1993
1992
1991
1992
1992
1993
1994
1995
1996
1997
1997
1997
1997
1997
1997
1998
1999
2000
2001
2001
2001
2001
2001
2000
2000
2000
2001
2002
2004
2005
2007
2008
2009
2009
2008
2004
1996
1987
1976
1968
1963
1960
1958
1954
1951
1951
1958
1973
1993
2011
2021
2022
2018
2011
2005
2002
2001
2000
1999
1998
1997
1996
1995
1994
1993
1992
1992
1993
1993
1993
1993
1992
1992
1992
1992
1992
1992
1992
1993
1993
1993
1993
1993
1993
1993
1993
1994
1995
1995
1995
1995
1994
1993
1992
1991
1991
1991
1991
1992
1991
1989
1986
1982
1978
1975
1972
1969
1965
1960
1955
1952
1949
1947
1946
1946
1946
1948
1951
1954
1956
1959
1961
1963
1967
1970
1973
1975
1976
1975
1975
1974
1973
1972
1971
1971
1973
1977
1981
1986
1988
1989
1987
1981
1972
1962
1954
1954
1968
1999
2044
2092
2132
2147
2132
2088
2032
1981
1950
1944
1955
1970
1980
1982
1979
1977
1977
1982
1990
1999
2007
2012
2014
2012
2010
2008
2007
2007
2007
2008
2008
2009
2010
2010
2012
2013
2014
2015
2016
2016
2016
2017
2017
2018
2017
2017
2018
2019
2021
2025
2028
2030
2031
2031
2031
2032
2032
2032
2032
2030
2027
2023
2018
2014
2011
2008
2006
2004
2002
2001
2000
1999
1998
1997
1995
1994
1994
1994
1995
1996
1997
1997
1996
1995
1994
1993
1993
1995
1997
2001
2004
2006
2006
2005
2003
2003
2004
2006
2007
2008
2007
2006
2004
2003
2004
2005
2006
2007
2008
2009
2009
2010
2010
2010
2010
2010
2010
2010
2011
2011
2011
2010
2009
2007
2007
2007
2007
2008
2008
2007
2006
2006
2007
2008
2010
2011
2012
2012
2011
2011
2012
2012
2013
2013
2013
2013
2012
2011
2010
2010
2011
2011
2010
2009
2008
2008
2009
2009
2005
1998
1987
1977
1973
1982
2005
2044
2092
2139
2171
2172
2141
2085
2025
1978
1955
1954
1964
1976
1981
1981
1980
1980
1981
1983
1984
1985
1985
1986
1986
1987
1987
1987
1987
1986
1986
1986
1987
1987
1988
1989
1989
1989
1989
1989
1991
1993
1994
1995
1996
1996
1996
1997
1998
1999
1999
2001
2002
2004
2006
2008
2009
2009
2009
2007
2005
2003
2000
1998
1996
1994
1992
1990
1987
1985
1983
1981
1980
1980
1980
1981
1982
1982
1982
1982
1981
1981
1981
1982
1983
1985
1986
1986
1986
1985
1984
1984
1984
1985
1986
1988
1989
1990
1990
1990
1990
1991
1992
1993
1994
1994
1993
1993
1993
1993
1994
1995
1996
1996
1996
1995
1994
1993
1992
1991
1990
1989
1989
1990
1991
1993
1993
1993
1993
1992
1992
1992
1991
1991
1992
1993
1995
1996
1998
1999
2001
2003
2005
2005
2004
2002
2001
2001
2000
2000
1998
1997
1996
1996
1996
1997
1997
1997
1997
1996
1997
1998
1998
1995
1988
1979
1970
1968
1979
2006
2048
2099
2147
2177
2176
2142
2084
2025
1979
1957
1956
1967
1977
1983
1984
1984
1985
1986
1987
1988
1988
1988
1988
1989
1990
1991
1991
1991
1991
1990
1990
1990
1990
1991
1992
1993
1994
1995
1995
1994
1994
1994
1995
1996
1998
1999
2000
2001
2002
2003
2004
2005
2006
2008
2010
2011
2011
2011
2010
2009
2006
2004
2002
1999
1997
1995
1993
1991
1989
1987
1986
1985
1984
1984
1985
1985
1984
1984
1984
1983
1983
1983
1984
1985
1986
1986
1987
1986
1986
1986
1985
1986
1986
1986
1986
1986
1987
1987
1987
1987
1986
1986
1987
1988
1989
1990
1990
1991
1990
1990
1989
1989
1989
1989
1990
1992
1993
1993
1993
1992
1992
1992
1992
1993
1994
1994
1994
1994
1993
1992
1992
1991
1992
1993
1994
1995
1995
1995
1994
1992
1991
1990
1989
1990
1991
1993
1994
1995
1996
1996
1996
1996
1996
1997
1998
1999
1998
1997
1995
1993
1992
1991
1991
1992
1993
1993
1993
1993
1993
1992
1989
1983
1974
1964
1956
1959
1975
2008
2052
2103
2144
2162
2147
2102
2043
1987
1951
1939
1943
1954
1963
1966
1966
1967
1969
1972
1973
1974
1973
1972
1971
1971
1973
1975
1977
1978
1978
1978
1978
1978
1979
1980
1981
1981
1982
1982
1982
1982
1982
1982
1981
1982
1985
1989
1993
1997
2000
2001
2002
2003
2004
2004
2005
2005
2006
2006
2005
2004
2002
1998
1994
1990
1988
1986
1985
1983
1979
1975
1970
1966
1964
1964
1965
1967
1969
1969
1969
1968
1966
1966
1966
1966
1967
1968
1969
1970
1971
1971
1971
1972
1972
1972
1973
1974
1974
1975
1975
1974
1974
1973
1973
1974
1974
1975
1976
1976
1977
1977
1977
1977
1976
1975
1975
1975
1975
1976
1977
1977
1977
1977
1977
1977
1978
1979
1979
1979
1978
1978
1977
1977
1976
1977
1977
1978
1980
1981
1982
1981
1980
1979
1978
1979
1980
1981
1981
1981
1980
1978
1976
1975
1975
1975
1977
1978
1979
1980
1981
1981
1981
1981
1981
1981
1980
1979
1979
1978
1977
1976
1976
1976
1976
1977
1978
1979
1980
1979
1975
1967
1957
1951
1953
1969
2000
2043
2089
2128
2145
2133
2093
2040
1988
1954
1943
1949
1962
1974
1978
1978
1978
1978
1980
1983
1986
1988
1989
1990
1989
1988
1987
1987
1990
1996
2004
2011
2016
2018
2018
2017
2016
2015
2015
2014
2014
2014
2015
2016
2016
2016
2014
2011
2009
2008
2009
2013
2017
2022
2025
2027
2027
2027
2026
2026
2024
2023
2020
2018
2014
2011
2007
2004
2001
1999
1998
1997
1996
1996
1995
1994
1993
1991
1990
1990
1990
1990
1990
1991
1991
1991
1990
1990
1989
1988
1989
1989
1991
1991
1992
1992
1991
1990
1989
1989
1989
1990
1990
1991
1991
1991
1990
1990
1989
1989
1989
1989
1989
1988
1987
1986
1984
1983
1982
1979
1976
1973
1971
1971
1973
1977
1981
1984
1985
1985
1983
1982
1982
1983
1984
1984
1984
1983
1982
1981
1980
1980
1979
1978
1977
1975
1975
1975
1975
1976
1977
1977
1978
1979
1979
1980
1979
1979
1977
1976
1975
1975
1974
1974
1973
1973
1972
1972
1971
1971
1972
1972
1971
1966
1956
1946
1939
1942
1961
1995
2043
2092
2129
2141
2120
2072
2012
1959
1928
1920
1927
1939
1947
1950
1949
1949
1949
1950
1951
1951
1951
1952
1952
1953
1953
1953
1953
1953
1953
1952
1952
1952
1953
1953
1954
1954
1954
1954
1954
1953
1954
1955
1956
1957
1958
1958
1959
1959
1960
1961
1962
1963
1965
1966
1967
1967
1967
1965
1964
1963
1961
1959
1958
1955
1952
1949
1946
1944
1941
1940
1939
1938
1937
1937
1936
1936
1935
1934
1933
1933
1933
1933
1934
1934
1934
1934
1934
1933
1933
1934
1934
1935
1936
1936
1936
1936
1936
1936
1935
1935
1935
1936
1937
1937
1938
1938
1937
1937
1936
1936
1936
1937
1937
1938
1938
1938
1938
1938
1937
1937
1937
1938
1939
1940
1941
1941
1940
1939
1939
1939
1939
1940
1941
1942
1943
1943
1942
1942
1942
1943
1943
1944
1944
1944
1944
1943
1942
1942
1942
1943
1945
1947
1949
1950
1950
1951
1951
1952
1953
1953
1953
1954
1954
1953
1953
1953
1953
1953
1953
1953
1953
1955
1957
1958
1955
1947
1937
1929
1928
1940
1969
2012
2062
2109
2136
2133
2097
2040
1981
1938
1918
1920
1932
1943
1948
1949
1949
1949
1950
1952
1953
1954
1956
1957
1958
1959
1959
1959
1959
1959
1959
1960
1962
1963
1964
1964
1965
1965
1966
1966
1967
1968
1969
1970
1971
1972
1973
1974
1976
1977
1979
1980
1982
1983
1984
1985
1986
1986
1986
1986
1986
1986
1985
1984
1983
1980
1978
1975
1973
1972
1971
1970
1970
1970
1970
1969
1968
1966
1964
1962
1961
1961
1962
1963
1965
1966
1968
1969
1970
1971
1972
1973
1974
1975
1976
1978
1980
1980
1980
1979
1978
1977
1977
1978
1979
1980
1979
1978
1977
1977
1977
1978
1978
1979
1980
1980
1981
1981
1982
1982
1983
1983
1984
1984
1985
1986
1986
1987
1987
1987
1987
1988
1988
1988
1988
1988
1988
1987
1987
1987
1988
1988
1989
1989
1989
1988
1987
1986
1986
1986
1987
1989
1991
1992
1993
1993
1993
1993
1994
1995
1995
1995
1995
1995
1994
1993
1992
1991
1991
1991
1991
1992
1993
1995
1996
1994
1989
1980
1969
1963
1967
1987
2022
2067
2117
2155
2168
2149
2103
2046
1994
1962
1953
1960
1972
1980
1983
1982
1982
1982
1984
1986
1987
1988
1989
1990
1990
1990
1989
1990
1990
1991
1992
1992
1993
1993
1993
1993
1993
1993
1994
1994
1995
1996
1997
1998
1998
1998
1998
1998
2000
2001
2003
2005
2006
2007
2007
2008
2008
2008
2008
2007
2007
2006
2005
2003
2000
1997
1995
1992
1991
1990
1989
1989
1988
1987
1987
1986
1986
1985
1986
1986
1986
1987
1987
1987
1987
1987
1987
1987
1987
1988
1989
1990
1990
1990
1990
1989
1989
1989
1989
1990
1991
1992
1992
1991
1991
1990
1990
1990
1990
1990
1990
1991
1991
1991
1991
1990
1989
1989
1989
1990
1990
1991
1991
1991
1991
1991
1990
1990
1989
1989
1990
1990
1991
1991
1991
1991
1990
1990
1989
1990
1990
1991
1991
1991
1990
1988
1987
1986
1986
1987
1989
1991
1992
1993
1992
1992
1992
1993
1994
1994
1995
1994
1994
1993
1992
1990
1989
1989
1989
1990
1990
1992
1993
1993
1991
1985
1975
1966
1960
1964
1984
2018
2063
2112
2148
2160
2140
2093
2035
1984
1954
1947
1954
1967
1975
1977
1976
1976
1977
1979
1980
1982
1982
1983
1983
1983
1984
1984
1984
1984
1984
1984
1984
1985
1985
1986
1986
1986
1986
1986
1987
1988
1988
1989
1989
1989
1990
1990
1992
1993
1995
1997
1998
1999
1999
2000
2000
2000
2000
2000
2000
2000
1999
1997
1995
1992
1989
1987
1985
1984
1983
1982
1982
1981
1980
1978
1977
1977
1976
1976
1977
1977
1977
1977
1977
1976
1975
1974
1973
1973
1973
1973
1973
1973
1973
1973
1973
1973
1974
1975
1976
1976
1977
1977
1978
1978
1978
1979
1980
1980
1981
1983
1983
1984
1984
1985
1985
1985
1985
1986
1987
1988
1988
1988
1988
1987
1987
1986
1987
1987
1988
1989
1989
1988
1987
1985
1984
1983
1984
1985
1987
1989
1990
1991
1991
1991
1991
1991
1992
1992
1993
1993
1993
1992
1990
1987
1985
1984
1983
1983
1984
1985
1987
1989
1989
1985
1978
1968
1960
1962
1978
2011
2057
2107
2145
2157
2136
2089
2030
1979
1949
1943
1954
1968
1979
1983
1983
1982
1983
1985
1987
1988
1989
1990
1991
1991
1991
1992
1992
1993
1996
1998
2000
2001
2000
2000
1999
1999
2000
2001
2002
2003
2004
2004
2005
2006
2007
2008
2009
2011
2012
2014
2015
2016
2017
2017
2018
2018
2018
2017
2017
2015
2013
2010
2007
2004
2000
1997
1994
1992
1991
1989
1988
1987
1986
1985
1984
1983
1983
1983
1983
1984
1984
1983
1983
1982
1982
1982
1982
1983
1983
1984
1984
1985
1985
1984
1984
1984
1984
1984
1985
1985
1985
1985
1985
1985
1984
1984
1984
1984
1984
1984
1984
1984
1984
1983
1983
1983
1984
1984
1985
1985
1986
1986
1986
1986
1986
1987
1987
1988
1988
1989
1988
1988
1987
1986
1986
1987
1988
1989
1990
1991
1992
1992
1993
1993
1993
1993
1993
1993
1992
1992
1991
1990
1989
1989
1989
1989
1990
1991
1994
1994
1992
1985
1974
1965
1962
1972
1998
2039
2088
2135
2162
2160
2127
2072
2014
1971
1951
1952
1963
1974
1980
1980
1978
1978
1978
1980
1981
1982
1983
1984
1985
1985
1985
1984
1984
1984
1984
1984
1985
1985
1986
1986
1986
1985
1985
1986
1987
1988
1990
1991
1991
1991
1991
1991
1991
1992
1993
1994
1996
1998
1999
1999
1999
1999
1998
1998
1997
1997
1996
1994
1992
1990
1987
1984
1982
1980
1979
1978
1978
1978
1977
1977
1977
1976
1975
1975
1975
1975
1976
1976
1977
1977
1977
1977
1977
1977
1978
1979
1980
1980
1981
1981
1980
1980
1979
1979
1980
1981
1982
1983
1983
1983
1982
1981
1981
1980
1980
1980
1981
1982
1982
1982
1982
1982
1981
1981
1980
1980
1981
1981
1981
1981
1981
1980
1979
1978
1978
1978
1979
1980
1981
1982
1982
1982
1983
1983
1984
1985
1986
1986
1986
1985
1984
1982
1981
1980
1980
1980
1981
1982
1983
1984
1984
1982
1977
1968
1959
1953
1957
1975
2009
2054
2103
2141
2155
2137
2091
2033
1981
1949
1940
1947
1958
1966
1968
1968
1969
1970
1973
1974
1975
1975
1975
1975
1975
1975
1976
1977
1978
1977
1976
1975
1973
1971
1971
1971
1972
1973
1974
1975
1976
1977
1977
1977
1978
1979
1980
1982
1984
1986
1987
1989
1989
1990
1990
1991
1991
1991
1991
1991
1990
1989
1987
1985
1982
1980
1978
1977
1976
1974
1973
1972
1971
1970
1970
1970
1970
1970
1971
1971
1972
1972
1972
1972
1972
1972
1971
1971
1972
1973
1973
1973
1973
1972
1971
1972
1973
1975
1977
1980
1981
1982
1981
1980
1979
1979
1979
1980
1981
1981
1981
1981
1980
1980
1979
1979
1979
1980
1980
1981
1981
1981
1981
1980
1979
1978
1978
1977
1978
1979
1980
1981
1981
1981
1980
1980
1981
1983
1984
1986
1986
1985
1984
1983
1981
1980
1980
1980
1980
1981
1981
1981
1981
1981
1979
1975
1968
1958
1950
1949
1961
1989
2030
2078
2121
2143
2136
2099
2045
1990
1950
1934
1936
1946
1956
1961
1962
1963
1964
1966
1968
1968
1968
1968
1968
1969
1970
1971
1972
1973
1974
1974
1974
1973
1974
1976
1978
1981
1983
1984
1984
1983
1983
1983
1983
1984
1985
1985
1987
1988
1990
1992
1994
1995
1995
1996
1996
1997
1997
1997
1997
1996
1994
1991
1989
1986
1983
1981
1979
1978
1977
1975
1974
1973
1971
1970
1970
1970
1971
1971
1971
1970
1970
1970
1969
1969
1970
1970
1971
1972
1972
1972
1972
1972
1972
1972
1972
1973
1973
1974
1974
1974
1973
1973
1972
1972
1972
1973
1973
1974
1974
1973
1973
1972
1972
1972
1972
1973
1973
1974
1974
1974
1974
1973
1972
1972
1972
1973
1973
1973
1972
1972
1972
1972
1972
1973
1974
1975
1976
1977
1978
1979
1979
1979
1978
1977
1976
1975
1975
1975
1975
1975
1975
1974
1974
1974
1976
1977
1975
1970
1960
1951
1947
1955
1978
2017
2064
2110
2140
2140
2110
2056
1999
1954
1932
1931
1941
1953
1960
1962
1962
1963
1964
1965
1965
1966
1966
1967
1968
1969
1970
1971
1970
1970
1970
1970
1971
1971
1972
1974
1974
1975
1975
1975
1975
1975
1976
1977
1978
1980
1981
1982
1983
1984
1984
1985
1986
1987
1989
1990
1990
1990
1989
1988
1987
1986
1985
1984
1982
1980
1978
1975
1972
1970
1968
1967
1966
1966
1966
1967
1967
1967
1966
1966
1966
1966
1966
1967
1968
1968
1968
1968
1968
1968
1968
1968
1969
1970
1971
1972
1972
1971
1970
1970
1969
1969
1970
1971
1972
1972
1972
1972
1971
1970
1969
1968
1968
1969
1970
1970
1971
1971
1970
1970
1970
1970
1970
1970
1970
1970
1969
1969
1968
1968
1969
1971
1973
1974
1975
1976
1976
1976
1976
1976
1976
1976
1976
1976
1975
1975
1975
1975
1976
1975
1975
1976
1977
1978
1976
1969
1960
1951
1950
1962
1992
2036
2085
2127
2145
2130
2086
2028
1972
1936
1925
1933
1947
1960
1966
1966
1966
1967
1968
1970
1972
1972
1973
1974
1975
1975
1976
1976
1976
1976
1976
1977
1977
1978
1979
1980
1981
1982
1982
1982
1982
1983
1984
1985
1987
1988
1990
1991
1992
1993
1994
1995
1997
1998
1999
2000
2000
2000
2000
1998
1996
1994
1991
1988
1985
1983
1980
1978
1976
1974
1973
1971
1970
1970
1970
1970
1970
1969
1969
1968
1967
1968
1968
1969
1969
1970
1970
1969
1969
1969
1969
1969
1969
1970
1971
1971
1972
1972
1972
1972
1971
1971
1971
1972
1972
1972
1973
1973
1973
1972
1972
1971
1971
1972
1972
1973
1973
1972
1971
1970
1970
1970
1970
1971
1971
1971
1970
1969
1968
1968
1968
1969
1970
1970
1971
1972
1973
1973
1974
1974
1974
1973
1973
1972
1972
1971
1971
1970
1970
1970
1969
1969
1969
1971
1973
1971
1965
1956
1946
1940
1946
1969
2007
2055
2104
2138
2143
2116
2063
2004
1956
1930
1927
1937
1948
1956
1957
1957
1957
1957
1958
1958
1959
1960
1961
1961
1962
1962
1962
1962
1962
1962
1962
1963
1964
1964
1964
1964
1964
1964
1963
1964
1964
1965
1966
1967
1968
1969
1969
1970
1971
1972
1973
1974
1976
1978
1980
1980
1980
1979
1978
1977
1976
1975
1973
1971
1969
1966
1964
1962
1960
1958
1957
1956
1955
1955
1954
1953
1953
1952
1952
1953
1953
1954
1955
1955
1955
1955
1955
1955
1954
1954
1954
1954
1955
1955
1955
1954
1954
1953
1953
1953
1954
1954
1955
1956
1956
1955
1955
1954
1953
1953
1954
1954
1955
1955
1955
1954
1954
1953
1952
1952
1952
1953
1954
1955
1955
1954
1953
1952
1951
1951
1951
1953
1954
1956
1956
1957
1957
1957
1958
1959
1959
1960
1960
1959
1959
1958
1957
1956
1955
1955
1955
1956
1957
1958
1960
1960
1956
1948
1938
1931
1932
1949
1982
2028
2079
2120
2138
2124
2080
2021
1966
1930
1917
1922
1933
1942
1945
1944
1944
1944
1945
1947
1948
1948
1948
1948
1949
1949
1949
1950
1951
1952
1953
1953
1953
1954
1954
1954
1953
1953
1953
1953
1954
1955
1956
1956
1957
1957
1957
1958
1959
1960
1962
1964
1966
1966
1967
1967
1966
1966
1966
1966
1966
1965
1964
1962
1959
1957
1954
1952
1951
1950
1950
1949
1949
1949
1949
1948
1946
1945
1945
1945
1946
1947
1948
1948
1947
1947
1946
1946
1946
1947
1948
1949
1950
1950
1950
1949
1949
1950
1950
1952
1953
1953
1954
1954
1954
1953
1953
1953
1953
1953
1954
1954
1955
1955
1954
1954
1953
1953
1953
1953
1953
1953
1953
1953
1952
1952
1951
1951
1952
1953
1954
1954
1953
1952
1951
1950
1950
1950
1951
1952
1953
1954
1954
1954
1954
1954
1954
1954
1953
1953
1952
1951
1950
1949
1949
1948
1948
1947
1948
1949
1951
1950
1946
1938
1927
1917
1916
1929
1958
2002
2052
2094
2114
2103
2061
2004
1948
1910
1897
1901
1913
1923
1927
1927
1927
1927
1927
1928
1929
1930
1931
1932
1932
1932
1932
1932
1932
1932
1932
1933
1934
1935
1936
1936
1936
1936
1936
1936
1937
1938
1939
1940
1941
1941
1942
1942
1943
1944
1945
1946
1948
1949
1950
1951
1951
1951
1950
1949
1948
1947
1946
1945
1943
1940
1937
1934
1932
1930
1929
1929
1928
1928
1928
1927
1927
1927
1926
1926
1926
1927
1928
1929
1929
1929
1928
1928
1928
1928
1929
1931
1932
1933
1933
1933
1932
1932
1932
1932
1933
1934
1935
1935
1936
1936
1936
1936
1936
1936
1936
1936
1937
1938
1938
1938
1938
1937
1937
1938
1938
1939
1940
1940
1940
1940
1940
1939
1939
1939
1940
1941
1943
1943
1944
1943
1943
1942
1941
1941
1941
1942
1943
1945
1946
1947
1948
1948
1949
1950
1951
1952
1953
1953
1953
1953
1952
1950
1949
1949
1950
1951
1952
1953
1954
1956
1956
1953
1947
1939
1930
1927
1936
1961
2002
2050
2095
2121
2118
2084
2030
1973
1931
1913
1915
1927
1939
1946
1947
1947
1948
1950
1952
1954
1955
1956
1956
1956
1956
1956
1957
1958
1959
1960
1961
1961
1961
1961
1961
1961
1962
1963
1964
1965
1967
1968
1969
1970
1971
1972
1973
1974
1976
1978
1980
1981
1983
1983
1984
1984
1984
1984
1985
1985
1984
1982
1980
1977
1973
1971
1969
1968
1967
1966
1965
1964
1963
1962
1962
1961
1961
1962
1963
1963
1964
1964
1964
1963
1963
1963
1964
1965
1966
1967
1967
1968
1968
1968
1968
1968
1969
1970
1971
1972
1972
1972
1972
1971
1971
1971
1972
1973
1975
1976
1977
1977
1977
1977
1976
1975
1975
1976
1976
1977
1977
1977
1977
1977
1976
1976
1976
1977
1978
1980
1981
1980
1979
1977
1975
1974
1974
1976
1978
1980
1982
1983
1983
1983
1984
1985
1985
1986
1985
1984
1983
1982
1981
1980
1979
1979
1979
1980
1981
1982
1983
1984
1983
1979
1970
1960
1952
1955
1972
2006
2051
2099
2136
2148
2128
2081
2024
1973
1944
1938
1947
1960
1969
1971
1970
1969
1969
1971
1973
1975
1976
1977
1978
1979
1979
1979
1979
1979
1980
1981
1982
1982
1982
1981
1980
1980
1981
1982
1984
1985
1985
1986
1987
1988
1989
1990
1991
1992
1994
1995
1996
1998
1998
1999
1999
2000
2000
2001
2001
2000
1999
1997
1994
1991
1987
1984
1982
1981
1980
1980
1979
1978
1977
1976
1975
1975
1975
1975
1976
1976
1977
1977
1976
1976
1975
1976
1976
1977
1979
1980
1981
1981
1981
1981
1980
1980
1979
1979
1979
1980
1980
1980
1980
1979
1979
1979
1979
1980
1980
1981
1981
1980
1979
1978
1977
1977
1977
1977
1978
1978
1978
1978
1977
1977
1976
1975
1974
1973
1974
1974
1974
1974
1973
1971
1970
1969
1968
1968
1967
1967
1967
1965
1963
1961
1958
1956
1955
1955
1955
1955
1955
1954
1953
1952
1951
1951
1951
1951
1951
1950
1949
1948
1946
1944
1943
1943
1943
1943
1943
1943
1944
1945
1943
1937
1928
1917
1910
1914
1932
1966
2013
2063
2104
2121
2105
2059
1999
1944
1910
1899
1904
1915
1923
1926
1925
1925
1926
1928
1930
1931
1931
1931
1931
1931
1931
1932
1932
1933
1934
1935
1935
1935
1935
1935
1935
1935
1936
1937
1938
1939
1940
1940
1940
1941
1941
1942
1943
1945
1947
1949
1950
1952
1952
1953
1953
1954
1954
1955
1955
1955
1955
1954
1952
1950
1947
1945
1944
1943
1942
1942
1942
1941
1941
1940
1940
1939
1939
1940
1940
1941
1941
1942
1942
1942
1942
1942
1942
1943
1943
1944
1945
1945
1945
1945
1945
1945
1946
1946
1947
1948
1949
1949
1949
1949
1949
1949
1950
1951
1952
1952
1952
1952
1952
1951
1951
1951
1951
1951
1952
1952
1953
1953
1953
1952
1952
1952
1952
1953
1954
1954
1954
1954
1954
1954
1954
1954
1954
1955
1956
1956
1957
1957
1956
1956
1956
1956
1956
1956
1956
1955
1955
1955
1956
1956
1957
1958
1959
1960
1961
1963
1964
1965
1965
1964
1963
1962
1961
1961
1960
1960
1960
1961
1961
1960
1960
1961
1963
1963
1959
1952
1942
1935
1936
1951
1982
2026
2076
2118
2139
2128
2087
2029
1973
1935
1920
1924
1936
1945
1950
1951
1952
1953
1954
1955
1955
1955
1955
1957
1958
1959
1960
1960
1960
1960
1960
1960
1961
1961
1962
1963
1964
1964
1964
1964
1964
1965
1966
1967
1968
1970
1971
1972
1972
1973
1974
1975
1976
1978
1979
1980
1981
1981
1981
1980
1979
1978
1977
1976
1975
1973
1971
1969
1967
1965
1964
1963
1962
1962
1962
1962
1962
1963
1963
1963
1963
1962
1963
1963
1964
1965
1966
1966
1966
1966
1966
1966
1966
1967
1968
1969
1969
1970
1970
1970
1969
1969
1969
1970
1971
1971
1972
1972
1971
1971
1971
1971
1971
1972
1972
1973
1973
1973
1972
1972
1972
1971
1972
1972
1972
1973
1973
1973
1973
1972
1972
1972
1972
1973
1974
1974
1974
1974
1973
1973
1973
1973
1973
1974
1974
1975
1975
1975
1975
1975
1974
1973
1973
1972
1972
1972
1972
1973
1974
1974
1975
1976
1976
1978
1979
1980
1980
1980
1980
1979
1978
1977
1975
1975
1975
1976
1976
1976
1976
1976
1976
1976
1974
1968
1960
1952
1950
1959
1983
2022
2068
2114
2142
2141
2110
2056
1999
1955
1933
1933
1943
1954
1960
1962
1963
1965
1966
1968
1968
1968
1968
1968
1969
1970
1971
1972
1973
1973
1973
1972
1972
1972
1972
1973
1974
1975
1976
1977
1977
1977
1977
1976
1977
1978
1980
1981
1983
1984
1985
1985
1986
1987
1988
1989
1990
1991
1990
1990
1989
1988
1986
1985
1983
1981
1979
1977
1974
1973
1971
1970
1969
1968
1967
1967
1967
1967
1968
1968
1968
1968
1967
1967
1967
1967
1968
1969
1970
1970
1970
1969
1969
1969
1970
1970
1971
1972
1972
1972
1972
1972
1971
1971
1972
1972
1973
1974
1975
1975
1975
1974
1973
1973
1973
1974
1975
1975
1975
1975
1975
1974
1974
1974
1975
1975
1976
1976
1976
1976
1976
1976
1976
1975
1975
1976
1976
1977
1978
1977
1977
1976
1975
1974
1974
1975
1977
1978
1980
1980
1980
1980
1980
1981
1981
1983
1984
1984
1984
1983
1982
1981
1980
1979
1979
1980
1981
1982
1984
1985
1982
1975
1965
1956
1953
1963
1990
2032
2081
2126
2149
2140
2100
2042
1984
1944
1929
1936
1951
1964
1971
1972
1971
1972
1973
1976
1978
1979
1980
1980
1981
1981
1982
1982
1983
1984
1985
1986
1987
1988
1989
1990
1990
1991
1992
1993
1994
1996
1997
1998
1999
2000
2002
2003
2005
2007
2010
2012
2013
2014
2015
2016
2016
2016
2016
2016
2016
2015
2014
2011
2008
2005
2002
1999
1997
1996
1995
1994
1994
1993
1993
1992
1991
1991
1991
1991
1992
1993
1993
1993
1993
1992
1992
1992
1992
1993
1994
1995
1996
1996
1995
1994
1994
1994
1995
1996
1997
1998
1998
1998
1997
1997
1997
1996
1996
1996
1996
1996
1996
1995
1994
1994
1993
1992
1992
1993
1993
1993
1993
1993
1993
1992
1992
1991
1991
1992
1992
1993
1993
1993
1993
1993
1992
1990
1989
1989
1989
1989
1989
1990
1991
1991
1990
1990
1991
1991
1993
1994
1995
1995
1994
1993
1992
1991
1990
1990
1990
1990
1990
1990
1990
1991
1991
1988
1983
1974
1964
1958
1962
1981
2014
2059
2108
2146
2159
2140
2093
2035
1983
1951
1943
1949
1960
1968
1970
1970
1971
1972
1974
1974
1974
1974
1973
1973
1974
1974
1975
1975
1976
1976
1976
1975
1975
1975
1975
1975
1976
1976
1977
1977
1977
1977
1977
1977
1977
1978
1980
1981
1982
1983
1984
1984
1985
1986
1987
1987
1988
1989
1989
1988
1987
1985
1983
1981
1979
1977
1975
1974
1972
1970
1969
1967
1966
1965
1965
1965
1965
1965
1965
1965
1965
1964
1964
1964
1964
1965
1965
1966
1966
1966
1966
1966
1966
1966
1966
1967
1968
1968
1969
1969
1969
1968
1968
1968
1968
1968
1969
1970
1970
1970
1970
1969
1969
1969
1969
1970
1970
1970
1970
1970
1970
1970
1969
1969
1969
1970
1970
1971
1971
1971
1971
1970
1969
1968
1968
1967
1968
1968
1969
1970
1970
1971
1971
1971
1972
1973
1975
1976
1976
1976
1975
1974
1973
1972
1971
1971
1972
1972
1973
1973
1973
1974
1973
1970
1964
1955
1947
1945
1956
1982
2022
2070
2116
2144
2143
2110
2056
1999
1956
1935
1934
1944
1954
1960
1961
1962
1963
1965
1966
1967
1967
1967
1967
1968
1969
1970
1970
1971
1972
1972
1972
1972
1972
1972
1973
1974
1975
1976
1976
1977
1977
1977
1977
1978
1979
1980
1982
1983
1985
1986
1987
1988
1989
1989
1990
1991
1991
1991
1992
1991
1990
1989
1986
1984
1981
1979
1978
1977
1975
1974
1973
1972
1971
1971
1970
1970
1971
1971
1971
1971
1971
1971
1971
1971
1971
1972
1972
1973
1974
1974
1974
1974
1974
1974
1974
1975
1976
1976
1977
1977
1977
1976
1976
1976
1976
1977
1978
1978
1979
1978
1978
1977
1977
1977
1977
1978
1979
1979
1980
1979
1979
1978
1977
1977
1978
1978
1979
1979
1980
1980
1980
1979
1979
1978
1978
1977
1977
1977
1977
1978
1979
1979
1980
1980
1981
1982
1983
1984
1985
1985
1984
1983
1982
1981
1980
1979
1979
1980
1980
1980
1980
1980
1981
1981
1980
1976
1968
1959
1952
1955
1972
2005
2050
2099
2138
2152
2134
2089
2031
1978
1945
1936
1942
1953
1962
1965
1966
1966
1967
1968
1969
1970
1970
1970
1970
1971
1972
1973
1973
1974
1974
1973
1973
1973
1973
1973
1974
1974
1975
1975
1975
1975
1975
1975
1976
1977
1978
1980
1981
1982
1983
1983
1984
1985
1985
1986
1987
1988
1988
1987
1986
1984
1982
1981
1979
1977
1974
1972
1970
1968
1966
1964
1962
1960
1960
1960
1960
1960
1960
1960
1959
1959
1958
1958
1959
1959
1960
1961
1961
1961
1960
1960
1960
1961
1961
1961
1962
1962
1963
1963
1963
1963
1963
1962
1962
1962
1963
1963
1963
1963
1963
1963
1963
1963
1963
1963
1963
1963
1963
1963
1963
1963
1962
1962
1963
1963
1963
1964
1964
1964
1964
1963
1963
1962
1961
1961
1961
1962
1963
1964
1965
1965
1965
1965
1966
1967
1968
1969
1969
1968
1967
1966
1965
1964
1963
1964
1964
1965
1966
1966
1967
1968
1968
1966
1960
1951
1943
1940
1949
1975
2015
2063
2106
2129
2121
2083
2027
1971
1931
1916
1920
1933
1946
1953
1955
1955
1957
1959
1962
1964
1964
1965
1965
1965
1965
1966
1967
1967
1968
1968
1968
1969
1969
1969
1970
1971
1971
1972
1973
1973
1974
1975
1976
1977
1979
1981
1982
1984
1986
1987
1989
1989
1990
1991
1992
1993
1993
1994
1993
1992
1990
1987
1984
1981
1979
1976
1974
1972
1970
1969
1967
1965
1964
1964
1963
1963
1963
1963
1963
1963
1963
1963
1962
1962
1962
1963
1964
1965
1966
1966
1966
1966
1965
1966
1966
1967
1968
1969
1970
1970
1970
1970
1969
1969
1969
1970
1970
1970
1970
1970
1970
1970
1970
1970
1970
1970
1970
1971
1971
1971
1971
1970
1970
1970
1970
1970
1970
1970
1969
1969
1968
1968
1969
1970
1970
1971
1972
1973
1974
1974
1975
1975
1975
1974
1974
1974
1973
1973
1973
1973
1973
1972
1972
1972
1973
1975
1974
1970
1962
1952
1946
1951
1972
2009
2056
2102
2133
2136
2107
2054
1996
1950
1927
1926
1938
1952
1961
1963
1963
1964
1965
1965
1966
1966
1967
1968
1969
1970
1971
1971
1971
1971
1971
1971
1972
1972
1973
1974
1975
1975
1976
1976
1976
1976
1977
1978
1980
1981
1981
1982
1983
1984
1985
1986
1987
1988
1990
1992
1993
1994
1994
1993
1991
1989
1987
1985
1983
1981
1979
1976
1974
1971
1969
1968
1967
1966
1966
1966
1966
1965
1965
1964
1964
1964
1964
1965
1966
1966
1966
1966
1966
1966
1966
1967
1967
1968
1968
1969
1969
1969
1969
1969
1969
1969
1969
1970
1971
1971
1971
1971
1971
1970
1969
1969
1970
1970
1970
1970
1970
1970
1970
1970
1970
1970
1970
1970
1971
1971
1971
1971
1971
1970
1969
1968
1968
1968
1969
1970
1971
1972
1973
1973
1973
1974
1975
1976
1977
1977
1977
1976
1975
1974
1972
1971
1971
1972
1973
1973
1974
1975
1976
1975
1971
1963
1953
1945
1945
1958
1988
2031
2081
2125
2148
2141
2102
2046
1989
1949
1933
1935
1945
1955
1959
1959
1960
1961
1963
1965
1966
1966
1966
1966
1967
1967
1967
1968
1969
1970
1970
1970
1970
1970
1970
1970
1971
1972
1972
1973
1974
1974
1975
1975
1976
1976
1977
1979
1980
1982
1984
1985
1985
1986
1986
1987
1988
1988
1989
1989
1989
1988
1986
1984
1981
1979
1976
1975
1974
1973
1972
1971
1970
1969
1968
1968
1968
1968
1969
1970
1970
1970
1970
1970
1969
1970
1970
1970
1971
1972
1973
1973
1973
1973
1973
1973
1973
1974
1975
1975
1976
1976
1976
1975
1975
1974
1974
1975
1976
1977
1977
1977
1977
1976
1976
1976
1976
1977
1977
1978
1979
1979
1978
1978
1977
1977
1977
1977
1978
1979
1979
1979
1978
1977
1976
1975
1974
1974
1975
1977
1979
1980
1980
1980
1980
1981
1982
1983
1984
1984
1984
1983
1982
1980
1979
1979
1979
1979
1980
1980
1981
1982
1983
1982
1977
1968
1958
1951
1954
1972
2005
2050
2100
2140
2156
2140
2095
2037
1984
1950
1939
1945
1956
1965
1968
1967
1968
1970
1972
1974
1975
1975
1975
1975
1975
1975
1975
1976
1977
1978
1978
1979
1978
1978
1978
1978
1979
1979
1980
1981
1982
1982
1982
1983
1983
1983
1984
1986
1987
1989
1990
1991
1992
1993
1993
1993
1994
1995
1995
1996
1995
1994
1993
1990
1988
1986
1984
1982
1981
1980
1979
1978
1977
1976
1976
1975
1975
1976
1976
1977
1977
1977
1977
1976
1976
1976
1977
1978
1978
1979
1979
1979
1979
1979
1979
1979
1979
1980
1980
1981
1981
1981
1981
1981
1980
1980
1981
1981
1981
1982
1982
1982
1982
1981
1981
1980
1981
1981
1982
1983
1983
1983
1983
1982
1982
1982
1982
1983
1983
1984
1984
1984
1983
1983
1983
1982
1983
1983
1982
1982
1981
1980
1980
1981
1981
1982
1983
1984
1985
1986
1988
1988
1988
1988
1987
1986
1985
1985
1985
1985
1985
1985
1985
1984
1984
1984
1985
1987
1986
1982
1974
1964
1957
1961
1979
2013
2058
2107
2145
2158
2138
2091
2033
1981
1949
1942
1949
1962
1971
1974
1975
1975
1976
1977
1978
1979
1979
1980
1981
1982
1983
1983
1984
1983
1983
1983
1983
1984
1985
1985
1986
1986
1986
1986
1986
1986
1987
1988
1989
1990
1991
1992
1993
1993
1994
1995
1996
1997
1999
2000
2000
2000
2000
1999
1999
1998
1997
1995
1994
1992
1990
1988
1986
1984
1982
1981
1979
1979
1979
1979
1979
1979
1978
1978
1977
1977
1977
1978
1979
1979
1980
1980
1980
1979
1979
1979
1980
1980
1981
1982
1982
1982
1982
1982
1982
1981
1982
1982
1982
1982
1982
1982
1982
1982
1981
1981
1982
1982
1983
1983
1983
1983
1983
1982
1982
1982
1982
1983
1983
1983
1984
1983
1983
1982
1982
1981
1981
1982
1982
1983
1983
1983
1982
1982
1981
1980
1980
1981
1982
1984
1985
1985
1985
1985
1985
1986
1987
1988
1988
1988
1987
1987
1985
1984
1983
1983
1983
1984
1984
1985
1986
1987
1987
1983
1976
1966
1959
1960
1975
2007
2050
2099
2137
2151
2133
2087
2029
1977
1945
1937
1946
1960
1970
1974
1973
1973
1975
1977
1980
1982
1982
1982
1982
1982
1982
1983
1983
1984
1985
1986
1986
1986
1987
1987
1987
1987
1988
1989
1990
1991
1992
1992
1993
1993
1994
1995
1996
1997
1999
2000
2002
2003
2004
2004
2004
2004
2004
2004
2004
2003
2001
1999
1996
1993
1990
1987
1985
1984
1982
1982
1981
1980
1979
1978
1977
1977
1977
1977
1977
1978
1978
1978
1978
1977
1976
1976
1977
1977
1979
1980
1980
1981
1980
1980
1980
1980
1980
1981
1982
1982
1983
1983
1983
1983
1983
1983
1983
1984
1984
1984
1985
1984
1984
1984
1983
1984
1984
1984
1985
1986
1986
1986
1986
1985
1985
1985
1986
1986
1986
1986
1985
1984
1984
1983
1984
1984
1985
1986
1987
1988
1989
1989
1990
1990
1990
1990
1990
1990
1990
1989
1989
1989
1988
1988
1987
1987
1988
1990
1992
1993
1989
1981
1971
1962
1962
1977
2009
2053
2102
2142
2157
2141
2096
2037
1984
1951
1942
1951
1965
1975
1980
1980
1980
1980
1982
1983
1983
1984
1986
1987
1988
1989
1989
1989
1989
1990
1990
1991
1992
1993
1994
1994
1995
1995
1995
1995
1996
1997
1998
1998
1998
1999
1999
2000
2001
2003
2004
2006
2008
2009
2011
2011
2012
2012
2011
2010
2010
2009
2008
2006
2004
2002
2000
1997
1994
1992
1991
1990
1989
1989
1988
1988
1987
1986
1985
1984
1984
1985
1985
1986
1986
1986
1986
1985
1985
1985
1985
1986
1987
1987
1988
1987
1987
1987
1986
1986
1987
1987
1988
1988
1988
1988
1987
1987
1986
1986
1986
1986
1986
1986
1986
1986
1985
1984
1984
1983
1983
1984
1984
1984
1984
1984
1983
1982
1982
1981
1981
1981
1981
1980
1979
1978
1977
1977
1977
1977
1978
1979
1980
1981
1981
1982
1983
1982
1982
1981
1980
1979
1979
1978
1977
1976
1975
1975
1974
1974
1975
1977
1977
1974
1968
1958
1948
1945
1953
1978
2017
2065
2112
2142
2142
2111
2056
1997
1951
1929
1928
1938
1950
1956
1957
1957
1957
1957
1958
1958
1959
1960
1961
1961
1962
1962
1961
1961
1960
1960
1960
1961
1961
1962
1962
1962
1962
1962
1962
1962
1962
1963
1964
1965
1966
1966
1966
1966
1967
1968
1969
1970
1972
1973
1974
1974
1974
1973
1972
1971
1970
1969
1968
1966
1964
1962
1960
1957
1955
1954
1953
1952
1952
1952
1951
1951
1950
1950
1949
1949
1949
1950
1951
1951
1952
1952
1951
1951
1951
1951
1951
1952
1953
1953
1954
1954
1953
1953
1953
1953
1953
1954
1954
1955
1955
1955
1955
1954
1954
1954
1954
1954
1955
1955
1956
1956
1955
1955
1954
1954
1955
1955
1956
1956
1956
1956
1956
1956
1956
1956
1956
1956
1956
1955
1955
1955
1956
1956
1957
1957
1958
1959
1961
1963
1964
1965
1965
1964
1962
1962
1961
1961
1961
1961
1962
1962
1962
1961
1962
1963
1964
1963
1958
1950
1940
1935
1939
1959
1994
2041
2089
2125
2135
2113
2065
2006
1956
1926
1919
1928
1940
1949
1953
1954
1954
1955
1956
1956
1956
1957
1957
1959
1960
1961
1962
1962
1962
1962
1962
1963
1963
1964
1965
1966
1966
1967
1967
1967
1967
1968
1969
1970
1972
1973
1974
1975
1975
1976
1977
1978
1979
1981
1982
1984
1984
1984
1984
1983
1981
1980
1979
1977
1976
1975
1973
1971
1969
1967
1965
1964
1964
1964
1965
1965
1965
1965
1964
1964
1963
1964
1964
1964
1965
1966
1966
1966
1966
1966
1966
1966
1967
1967
1968
1969
1969
1970
1969
1969
1969
1969
1969
1970
1970
1971
1971
1971
1971
1970
1970
1970
1970
1970
1970
1970
1971
1971
1970
1970
1970
1970
1970
1971
1972
1972
1972
1973
1973
1972
1972
1971
1971
1971
1971
1971
1971
1972
1973
1973
1974
1974
1974
1975
1976
1978
1979
1979
1979
1978
1977
1976
1975
1975
1976
1976
1977
1977
1977
1977
1978
1978
1977
1971
1963
1954
1950
1957
1980
2018
2065
2111
2142
2145
2116
2063
2005
1959
1936
1934
1944
1956
1964
1966
1967
1968
1970
1972
1973
1973
1972
1972
1973
1974
1975
1976
1977
1977
1978
1977
1977
1977
1978
1979
1980
1980
1981
1981
1981
1981
1981
1982
1983
1984
1986
1987
1988
1989
1990
1991
1992
1992
1993
1994
1995
1995
1996
1995
1993
1991
1989
1988
1986
1984
1982
1980
1978
1975
1973
1972
1971
1970
1970
1970
1971
1971
1971
1970
1970
1969
1969
1969
1970
1970
1971
1972
1972
1972
1972
1972
1972
1973
1974
1974
1975
1975
1975
1975
1975
1975
1975
1975
1976
1976
1976
1976
1977
1977
1977
1976
1976
1975
1975
1975
1976
1977
1977
1977
1977
1976
1976
1976
1976
1977
1978
1978
1978
1977
1977
1976
1975
1975
1976
1977
1978
1980
1981
1982
1982
1982
1982
1982
1982
1982
1983
1983
1982
1981
1980
1979
1979
1979
1980
1982
1984
1985
1983
1977
1968
1958
1955
1964
1991
2034
2084
2129
2152
2142
2100
2040
1981
1941
1927
1934
1950
1964
1971
1973
1972
1972
1973
1975
1977
1978
1979
1980
1981
1981
1981
1982
1982
1982
1982
1983
1984
1985
1986
1987
1987
1988
1987
1987
1988
1989
1991
1992
1994
1995
1995
1996
1997
1998
1999
2001
2003
2005
2006
2007
2007
2006
2005
2004
2003
2001
1999
1997
1994
1991
1988
1985
1982
1980
1978
1977
1977
1977
1977
1976
1976
1975
1975
1974
1974
1975
1975
1976
1976
1976
1976
1976
1976
1976
1976
1977
1978
1978
1978
1979
1979
1979
1979
1980
1980
1980
1981
1982
1982
1982
1982
1981
1981
1981
1981
1982
1982
1983
1983
1983
1982
1981
1981
1981
1981
1981
1982
1982
1983
1983
1982
1981
1980
1979
1978
1979
1981
1982
1983
1984
1984
1984
1984
1985
1986
1987
1987
1987
1987
1986
1985
1984
1983
1983
1983
1983
1984
1984
1986
1987
1986
1981
1972
1962
1955
1958
1975
2008
2053
2103
2143
2159
2142
2098
2039
1985
1952
1942
1948
1960
1969
1973
1972
1972
1974
1975
1977
1978
1979
1979
1979
1979
1979
1979
1980
1981
1982
1983
1983
1983
1983
1983
1982
1983
1983
1984
1985
1986
1987
1987
1987
1988
1988
1988
1989
1991
1993
1994
1996
1997
1998
1998
1998
1998
1998
1999
2000
1999
1998
1996
1994
1991
1988
1985
1984
1982
1982
1981
1980
1980
1979
1978
1977
1976
1976
1976
1977
1978
1978
1979
1979
1978
1977
1977
1977
1978
1979
1980
1981
1981
1981
1981
1981
1981
1982
1983
1983
1984
1984
1983
1983
1983
1983
1983
1983
1983
1983
1984
1984
1984
1984
1983
1983
1983
1983
1984
1984
1984
1984
1984
1983
1983
1982
1982
1981
1981
1982
1983
1984
1984
1985
1985
1985
1985
1987
1988
1989
1990
1990
1989
1988
1987
1985
1984
1983
1983
1983
1984
1985
1986
1987
1988
1987
1982
1974
1965
1957
1959
1975
2007
2051
2101
2142
2161
2147
2105
2047
1992
1956
1943
1948
1959
1968
1973
1973
1974
1976
1977
1978
1979
1979
1979
1979
1980
1980
1981
1982
1983
1983
1983
1983
1983
1983
1983
1984
1984
1985
1986
1986
1987
1987
1987
1987
1988
1989
1990
1992
1993
1995
1996
1997
1997
1998
1999
2000
2001
2001
2001
2001
2000
1998
1996
1994
1991
1989
1987
1986
1985
1984
1983
1982
1980
1979
1979
1979
1979
1979
1979
1980
1979
1979
1979
1978
1978
1979
1979
1980
1981
1982
1982
1982
1982
1981
1981
1981
1981
1982
1983
1983
1984
1984
1983
1983
1982
1982
1983
1984
1984
1984
1984
1983
1983
1982
1983
1983
1983
1984
1984
1984
1984
1984
1983
1983
1982
1982
1983
1984
1984
1984
1984
1982
1981
1979
1979
1979
1981
1983
1984
1985
1985
1985
1986
1986
1987
1988
1988
1988
1988
1987
1986
1985
1983
1983
1983
1983
1984
1984
1985
1987
1987
1985
1979
1969
1960
1956
1964
1988
2026
2074
2122
2153
2156
2126
2073
2015
1968
1945
1943
1953
1965
1972
1973
1973
1973
1974
1976
1977
1979
1979
1980
1980
1980
1980
1980
1981
1982
1982
1983
1983
1984
1983
1983
1983
1983
1983
1984
1985
1986
1987
1988
1988
1988
1988
1989
1990
1991
1993
1995
1997
1998
1999
1999
1999
1999
1999
1999
1999
1998
1997
1995
1993
1991
1988
1986
1984
1982
1981
1980
1980
1979
1979
1978
1978
1978
1978
1978
1978
1978
1979
1979
1979
1979
1979
1979
1980
1981
1982
1983
1983
1983
1982
1982
1982
1982
1983
1983
1984
1985
1985
1985
1984
1983
1983
1983
1983
1984
1985
1985
1985
1985
1985
1984
1984
1983
1983
1984
1985
1985
1986
1986
1985
1985
1984
1984
1984
1985
1985
1985
1985
1985
1985
1984
1983
1983
1982
1982
1983
1984
1985
1987
1987
1987
1987
1988
1988
1990
1991
1991
1991
1990
1988
1987
1986
1985
1985
1985
1985
1986
1986
1987
1988
1988
1986
1980
1971
1962
1958
1966
1989
2027
2074
2120
2150
2152
2121
2069
2011
1966
1944
1942
1953
1964
1971
1973
1974
1975
1977
1979
1980
1981
1981
1980
1980
1981
1981
1983
1984
1984
1985
1985
1985
1985
1984
1985
1985
1986
1987
1988
1988
1989
1989
1990
1990
1991
1992
1993
1995
1996
1997
1998
1998
1999
1999
2000
2001
2001
2002
2001
2001
2000
1998
1996
1993
1991
1989
1986
1985
1983
1981
1980
1979
1978
1978
1978
1977
1977
1978
1978
1978
1978
1977
1977
1977
1977
1978
1979
1979
1979
1979
1979
1979
1979
1979
1979
1980
1980
1981
1981
1981
1981
1981
1981
1981
1981
1981
1982
1983
1983
1983
1983
1982
1982
1982
1982
1982
1982
1982
1982
1983
1983
1983
1983
1982
1982
1982
1982
1983
1983
1984
1983
1983
1982
1981
1981
1981
1982
1983
1984
1985
1985
1985
1986
1986
1987
1987
1988
1988
1988
1987
1986
1985
1984
1984
1984
1984
1985
1985
1986
1988
1988
1986
1980
1970
1961
1958
1966
1992
2034
2082
2127
2151
2144
2105
2048
1989
1948
1931
1936
1951
1964
1972
1973
1972
1973
1974
1976
1978
1979
1980
1980
1980
1980
1980
1981
1981
1982
1983
1984
1984
1984
1985
1984
1984
1984
1985
1986
1987
1988
1990
1991
1991
1992
1992
1993
1995
1997
1999
2000
2002
2003
2003
2003
2003
2004
2004
2004
2004
2003
2001
1998
1994
1990
1987
1984
1982
1980
1979
1978
1977
1977
1976
1975
1974
1974
1974
1974
1975
1975
1975
1975
1975
1975
1974
1974
1975
1975
1976
1977
1977
1977
1977
1977
1977
1977
1977
1978
1979
1980
1980
1980
1979
1979
1978
1978
1978
1979
1979
1979
1979
1979
1979
1978
1977
1977
1977
1977
1978
1978
1978
1978
1978
1977
1977
1976
1976
1977
1978
1978
1978
1978
1978
1977
1976
1975
1974
1974
1975
1976
1977
1978
1978
1978
1978
1979
1980
1981
1983
1984
1984
1984
1983
1982
1980
1979
1979
1979
1980
1981
1981
1981
1982
1983
1983
1980
1974
1965
1956
1951
1959
1982
2019
2066
2114
2148
2154
2128
2076
2018
1970
1944
1940
1948
1959
1966
1967
1968
1969
1970
1972
1973
1973
1973
1973
1973
1974
1974
1975
1976
1977
1977
1977
1977
1977
1977
1977
1978
1979
1980
1981
1981
1981
1981
1981
1981
1982
1983
1985
1986
1987
1988
1988
1989
1990
1991
1992
1993
1994
1994
1994
1994
1993
1991
1989
1987
1985
1984
1982
1981
1979
1978
1976
1975
1974
1973
1973
1974
1974
1974
1974
1974
1974
1973
1973
1973
1974
1974
1975
1975
1975
1976
1976
1976
1976
1976
1976
1977
1977
1978
1978
1978
1978
1978
1978
1978
1978
1978
1979
1979
1980
1980
1979
1979
1978
1978
1978
1978
1979
1979
1979
1979
1979
1979
1979
1979
1979
1979
1980
1980
1980
1980
1980
1980
1979
1979
1979
1979
1978
1978
1978
1978
1979
1980
1980
1981
1981
1982
1983
1985
1985
1986
1985
1985
1984
1983
1982
1982
1981
1981
1982
1982
1982
1982
1982
1983
1984
1982
1977
1968
1959
1954
1960
1983
2020
2067
2116
2150
2157
2131
2079
2019
1970
1943
1939
1948
1960
1968
1970
1970
1971
1972
1973
1974
1974
1975
1976
1977
1978
1979
1979
1979
1979
1979
1978
1979
1979
1980
1980
1981
1982
1982
1983
1983
1983
1983
1984
1985
1986
1987
1988
1989
1990
1991
1992
1993
1994
1995
1996
1997
1997
1997
1997
1996
1994
1993
1991
1989
1988
1986
1985
1983
1980
1978
1976
1975
1974
1974
1974
1975
1975
1975
1975
1974
1974
1973
1973
1974
1975
1975
1976
1976
1975
1974
1974
1974
1974
1975
1975
1976
1976
1976
1976
1976
1975
1975
1975
1975
1975
1976
1976
1976
1976
1975
1974
1974
1973
1974
1974
1974
1974
1974
1973
1972
1972
1971
1971
1971
1972
1972
1972
1971
1971
1970
1970
1969
1969
1969
1969
1969
1969
1969
1967
1966
1965
1964
1964
1965
1966
1968
1968
1968
1968
1968
1968
1968
1969
1970
1970
1969
1969
1967
1966
1964
1963
1963
1963
1963
1963
1963
1964
1965
1964
1959
1951
1940
1932
1934
1949
1981
2025
2074
2115
2133
2119
2077
2019
1964
1928
1915
1920
1932
1941
1945
1945
1945
1946
1947
1949
1950
1950
1951
1951
1952
1951
1951
1951
1952
1953
1953
1954
1954
1953
1953
1953
1953
1953
1954
1955
1956
1957
1958
1959
1959
1959
1960
1961
1962
1964
1965
1967
1968
1970
1970
1971
1971
1970
1970
1970
1969
1969
1967
1966
1964
1961
1959
1957
1955
1954
1953
1952
1951
1950
1949
1948
1948
1948
1948
1949
1950
1950
1950
1949
1949
1949
1949
1950
1950
1951
1951
1952
1952
1952
1951
1951
1951
1952
1953
1954
1954
1955
1955
1954
1954
1954
1954
1955
1955
1956
1957
1957
1957
1956
1956
1956
1957
1957
1957
1958
1958
1958
1958
1958
1958
1958
1958
1958
1958
1959
1959
1960
1960
1960
1960
1959
1959
1959
1959
1959
1959
1960
1961
1961
1962
1963
1963
1964
1965
1966
1967
1968
1968
1968
1967
1966
1965
1964
1965
1965
1966
1967
1967
1966
1967
1968
1968
1966
1960
1951
1944
1943
1956
1985
2028
2075
2116
2135
2121
2079
2021
1966
1931
1920
1926
1940
1952
1958
1959
1960
1961
1964
1967
1968
1969
1970
1970
1972
1974
1975
1977
1978
1978
1978
1978
1978
1978
1979
1980
1981
1983
1984
1985
1986
1986
1985
1986
1987
1988
1990
1992
1993
1994
1995
1996
1997
1998
1998
1999
2000
2001
2001
2000
1999
1996
1994
1991
1988
1985
1983
1981
1979
1977
1975
1973
1972
1971
1971
1971
1971
1971
1970
1970
1969
1969
1969
1969
1969
1970
1971
1971
1972
1972
1972
1971
1971
1972
1972
1973
1974
1975
1976
1977
1977
1976
1976
1975
1975
1975
1975
1976
1976
1976
1976
1976
1976
1976
1976
1976
1977
1977
1977
1977
1977
1976
1976
1976
1976
1976
1976
1977
1977
1977
1976
1975
1974
1974
1974
1975
1976
1977
1978
1978
1979
1979
1979
1980
1980
1981
1981
1981
1980
1979
1978
1977
1976
1976
1977
1977
1978
1979
1981
1981
1978
1970
1960
1952
1951
1965
1995
2040
2088
2129
2147
2132
2088
2030
1974
1939
1929
1937
1951
1962
1967
1966
1966
1966
1968
1970
1972
1973
1973
1974
1974
1974
1974
1974
1975
1975
1976
1976
1977
1977
1977
1977
1977
1977
1977
1978
1979
1980
1981
1982
1983
1984
1984
1985
1987
1989
1991
1992
1994
1995
1996
1996
1996
1997
1997
1996
1996
1994
1992
1989
1986
1982
1979
1977
1974
1973
1972
1972
1971
1970
1970
1969
1969
1969
1969
1969
1969
1969
1970
1970
1970
1969
1969
1969
1970
1970
1971
1972
1972
1972
1972
1972
1971
1971
1971
1972
1972
1973
1973
1973
1973
1973
1973
1973
1973
1974
1974
1975
1975
1974
1973
1972
1971
1971
1971
1972
1972
1973
1973
1973
1972
1971
1971
1971
1971
1972
1973
1973
1972
1971
1970
1969
1969
1970
1971
1972
1973
1974
1975
1976
1977
1977
1978
1978
1978
1977
1977
1977
1976
1976
1975
1974
1974
1974
1974
1976
1979
1980
1977
1969
1959
1950
1947
1959
1987
2030
2081
2128
2156
2152
2116
2059
2001
1957
1938
1939
1949
1960
1966
1967
1966
1966
1966
1967
1967
1968
1969
1970
1970
1971
1970
1970
1969
1969
1970
1970
1971
1971
1971
1971
1971
1971
1971
1971
1971
1972
1974
1975
1976
1978
1978
1979
1980
1980
1981
1983
1984
1986
1987
1988
1988
1988
1987
1987
1986
1985
1984
1983
1981
1979
1976
1973
1971
1969
1968
1968
1968
1967
1967
1966
1966
1966
1965
1965
1966
1966
1967
1967
1967
1968
1967
1967
1967
1967
1967
1968
1968
1969
1969
1969
1969
1969
1969
1969
1969
1970
1970
1971
1971
1971
1971
1971
1971
1971
1971
1971
1972
1972
1972
1972
1972
1971
1971
1971
1971
1971
1972
1972
1972
1972
1972
1971
1971
1971
1971
1971
1971
1971
1971
1970
1970
1970
1971
1972
1973
1974
1975
1976
1977
1978
1978
1978
1977
1976
1975
1975
1975
1974
1974
1974
1974
1974
1973
1974
1975
1977
1975
1970
1961
1952
1946
1951
1972
2008
2056
2106
2142
2152
2128
2078
2018
1967
1938
1932
1941
1953
1962
1965
1965
1965
1966
1967
1968
1968
1969
1970
1972
1973
1973
1974
1973
1973
1973
1973
1974
1975
1975
1976
1977
1977
1977
1976
1977
1977
1978
1979
1981
1982
1984
1985
1985
1986
1986
1988
1989
1990
1992
1993
1993
1993
1993
1992
1992
1991
1989
1988
1987
1985
1984
1982
1979
1977
1975
1974
1973
1973
1973
1974
1974
1973
1973
1972
1972
1972
1972
1973
1974
1975
1975
1975
1975
1974
1974
1974
1975
1975
1976
1977
1978
1979
1979
1979
1978
1978
1978
1978
1979
1980
1980
1980
1980
1980
1980
1980
1980
1980
1981
1981
1981
1981
1981
1980
1980
1980
1980
1981
1981
1982
1982
1982
1982
1982
1981
1982
1982
1982
1982
1981
1981
1979
1978
1978
1978
1979
1980
1981
1982
1983
1983
1984
1985
1985
1985
1985
1984
1984
1983
1983
1982
1981
1981
1982
1982
1982
1982
1983
1984
1984
1981
1974
1964
1955
1954
1967
1996
2039
2088
2132
2155
2146
2106
2048
1991
1951
1936
1941
1954
1965
1971
1971
1970
1971
1972
1974
1975
1975
1976
1977
1977
1977
1978
1978
1978
1978
1979
1979
1980
1980
1980
1980
1980
1980
1981
1981
1982
1983
1984
1985
1986
1987
1987
1988
1989
1990
1991
1993
1995
1996
1997
1997
1998
1997
1997
1996
1996
1995
1994
1992
1990
1987
1985
1982
1980
1978
1977
1976
1976
1975
1975
1974
1974
1973
1973
1972
1972
1973
1974
1975
1975
1975
1975
1975
1975
1975
1976
1976
1977
1977
1977
1977
1976
1976
1976
1976
1976
1977
1978
1978
1978
1978
1978
1978
1978
1978
1978
1979
1979
1980
1980
1981
1980
1980
1978
1978
1978
1979
1979
1980
1980
1980
1979
1979
1979
1979
1979
1980
1980
1980
1979
1979
1978
1979
1979
1979
1980
1981
1982
1983
1984
1985
1985
1985
1984
1984
1984
1984
1984
1983
1983
1982
1981
1981
1980
1981
1983
1986
1987
1984
1977
1967
1960
1962
1980
2015
2061
2110
2145
2153
2128
2077
2017
1965
1937
1933
1945
1960
1972
1976
1977
1976
1976
1977
1978
1979
1980
1981
1983
1984
1984
1984
1984
1984
1984
1985
1986
1986
1987
1988
1988
1989
1989
1990
1990
1991
1991
1992
1993
1994
1996
1997
1998
1999
2000
2001
2002
2004
2006
2007
2008
2008
2007
2006
2004
2003
2001
1998
1996
1993
1990
1987
1984
1982
1979
1978
1977
1977
1977
1977
1976
1976
1975
1974
1974
1974
1975
1975
1976
1977
1977
1976
1976
1976
1976
1976
1977
1978
1978
1979
1980
1980
1980
1980
1980
1981
1981
1981
1981
1981
1981
1980
1980
1980
1980
1980
1980
1980
1981
1982
1982
1982
1981
1981
1980
1980
1980
1981
1981
1982
1982
1981
1981
1980
1979
1978
1978
1979
1979
1980
1980
1981
1981
1981
1981
1982
1983
1984
1985
1986
1986
1985
1984
1983
1982
1981
1980
1980
1981
1981
1982
1982
1983
1983
1981
1975
1966
1957
1952
1958
1979
2015
2061
2109
2143
2150
2125
2076
2018
1969
1942
1937
1946
1958
1966
1968
1968
1968
1970
1971
1972
1973
1973
1972
1972
1973
1973
1975
1976
1977
1978
1977
1977
1976
1976
1976
1977
1978
1979
1980
1980
1980
1980
1980
1980
1981
1982
1983
1985
1986
1987
1987
1988
1989
1989
1990
1990
1991
1992
1993
1993
1992
1990
1987
1984
1980
1977
1975
1973
1972
1971
1970
1969
1968
1967
1967
1967
1967
1967
1967
1966
1966
1966
1966
1965
1966
1966
1967
1967
1968
1969
1970
1970
1970
1970
1970
1970
1970
1971
1972
1972
1972
1972
1972
1971
1971
1971
1972
1973
1974
1974
1975
1975
1975
1974
1974
1974
1975
1975
1976
1976
1975
1975
1975
1975
1975
1975
1976
1976
1977
1976
1976
1975
1973
1973
1973
1974
1975
1976
1978
1978
1979
1980
1980
1980
1981
1981
1981
1981
1981
1980
1979
1978
1978
1977
1977
1978
1978
1979
1981
1982
1980
1975
1966
1957
1950
1954
1972
2007
2053
2103
2142
2156
2136
2089
2029
1975
1943
1935
1943
1956
1965
1968
1968
1968
1968
1970
1972
1973
1974
1974
1975
1975
1976
1976
1976
1977
1977
1978
1978
1979
1979
1979
1979
1979
1980
1981
1982
1983
1984
1986
1987
1988
1989
1989
1990
1991
1993
1994
1996
1998
2000
2001
2001
2001
2001
2001
2001
2001
2000
1999
1997
1994
1991
1988
1986
1985
1984
1983
1983
1982
1981
1981
1980
1980
1980
1980
1980
1981
1981
1981
1981
1981
1981
1981
1982
1982
1983
1984
1985
1985
1986
1986
1985
1985
1986
1986
1987
1988
1988
1989
1989
1989
1988
1988
1987
1986
1986
1987
1988
1989
1990
1990
1989
1988
1988
1989
1991
1992
1992
1992
1992
1992
1992
1992
1992
1992
1992
1992
1992
1992
1992
1993
1994
1994
1994
1994
1995
1996
1997
1998
1998
1997
1997
1996
1996
1995
1995
1994
1994
1994
1994
1994
1994
1995
1996
1994
1990
1982
1973
1967
1970
1987
2021
2065
2113
2149
2161
2141
2094
2036
1983
1951
1943
1951
1964
1975
1979
1981
1981
1983
1984
1985
1986
1986
1986
1986
1987
1988
1990
1990
1991
1990
1990
1990
1990
1992
1993
1995
1996
1996
1997
1997
1998
1998
1999
2000
2002
2004
2005
2007
2008
2008
2009
2009
2010
2011
2013
2014
2015
2015
2014
2013
2011
2008
2006
2003
2001
1999
1997
1995
1992
1990
1988
1986
1984
1983
1983
1983
1984
1985
1985
1985
1984
1984
1984
1984
1984
1985
1986
1986
1985
1985
1985
1985
1985
1985
1986
1986
1987
1988
1988
1988
1987
1986
1986
1987
1987
1988
1989
1989
1989
1988
1988
1987
1987
1987
1987
1988
1988
1989
1988
1988
1987
1987
1987
1988
1988
1988
1988
1987
1987
1986
1986
1986
1987
1988
1989
1990
1991
1992
1993
1993
1992
1991
1990
1990
1990
1990
1990
1989
1988
1987
1987
1986
1986
1987
1989
1991
1990
1985
1976
1966
1959
1963
1983
2019
2066
2114
2147
2152
2125
2073
2014
1964
1938
1935
1947
1961
1971
1974
1974
1974
1975
1977
1979
1980
1980
1981
1982
1982
1983
1983
1983
1983
1983
1983
1984
1985
1986
1986
1986
1987
1987
1987
1988
1989
1990
1992
1993
1995
1996
1996
1997
1998
1999
2001
2003
2005
2007
2008
2008
2008
2006
2005
2003
2002
2000
1998
1995
1992
1989
1985
1982
1979
1977
1975
1974
1974
1974
1974
1973
1973
1972
1971
1971
1971
1971
1972
1972
1972
1972
1972
1971
1971
1971
1972
1972
1973
1973
1974
1974
1974
1974
1974
1974
1974
1974
1974
1974
1974
1974
1974
1974
1974
1974
1974
1974
1974
1974
1974
1975
1975
1975
1975
1975
1976
1977
1977
1976
1974
1972
1971
1971
1973
1974
1975
1976
1977
1978
1979
1980
1980
1980
1979
1979
1978
1978
1977
1976
1976
1975
1975
1975
1975
1975
1977
1978
1978
1973
1964
1954
1948
1954
1977
2018
2067
2115
2144
2141
2104
2047
1987
1942
1922
1925
1939
1953
1963
1965
1966
1966
1968
1969
1970
1971
1972
1973
1974
1976
1977
1978
1978
1979
1979
1979
1979
1980
1981
1981
1982
1983
1983
1983
1984
1985
1986
1987
1989
1990
1992
1993
1995
1996
1997
1999
2000
2002
2004
2005
2006
2006
2006
2005
2003
2001
1998
1995
1992
1989
1986
1983
1980
1977
1975
1974
1973
1972
1972
1972
1972
1972
1971
1971
1970
1970
1970
1970
1971
1971
1971
1972
1972
1973
1973
1973
1973
1974
1974
1974
1975
1975
1976
1976
1976
1976
1976
1976
1977
1977
1978
1978
1978
1977
1977
1976
1976
1976
1976
1976
1976
1976
1976
1975
1974
1974
1974
1973
1973
1974
1975
1976
1977
1977
1977
1977
1977
1978
1979
1980
1981
1981
1981
1981
1980
1979
1978
1978
1978
1978
1979
1979
1978
1978
1978
1980
1980
1976
1969
1960
1952
1952
1967
1997
2041
2090
2132
2152
2141
2100
2043
1987
1950
1936
1941
1952
1962
1967
1967
1968
1969
1970
1970
1971
1971
1972
1973
1974
1976
1976
1976
1976
1976
1977
1977
1977
1978
1979
1980
1981
1982
1983
1983
1983
1983
1983
1984
1985
1987
1988
1990
1991
1992
1994
1995
1997
1999
2001
2002
2003
2003
2002
2002
2000
1999
1997
1995
1992
1990
1988
1987
1985
1983
1981
1979
1978
1978
1978
1979
1979
1979
1979
1978
1977
1977
1977
1978
1979
1980
1980
1981
1981
1981
1980
1980
1980
1980
1981
1983
1984
1985
1985
1984
1983
1983
1983
1983
1983
1984
1985
1985
1985
1985
1984
1984
1984
1984
1985
1985
1986
1986
1986
1986
1985
1984
1983
1982
1982
1981
1981
1982
1982
1983
1983
1983
1984
1985
1986
1987
1987
1988
1987
1986
1984
1983
1981
1981
1981
1981
1982
1982
1982
1981
1980
1981
1982
1980
1976
1968
1958
1952
1957
1978
2014
2061
2111
2147
2156
2133
2083
2024
1973
1943
1936
1944
1957
1965
1969
1969
1970
1971
1972
1973
1973
1974
1974
1974
1974
1975
1975
1975
1975
1975
1975
1974
1973
1973
1974
1975
1976
1977
1978
1978
1977
1977
1978
1978
1979
1981
1982
1984
1986
1988
1989
1990
1991
1991
1992
1993
1994
1994
1994
1992
1991
1988
1986
1983
1981
1978
1975
1973
1971
1968
1966
1964
1962
1962
1962
1963
1964
1964
1964
1964
1963
1963
1962
1962
1962
1962
1963
1963
1963
1964
1964
1964
1965
1965
1965
1965
1966
1966
1966
1965
1965
1965
1965
1966
1966
1966
1966
1966
1967
1967
1968
1967
1967
1967
1967
1967
1967
1967
1967
1967
1967
1967
1968
1968
1968
1968
1967
1967
1967
1967
1968
1969
1970
1972
1974
1975
1976
1976
1977
1977
1977
1976
1976
1977
1977
1977
1977
1976
1976
1976
1976
1976
1977
1979
1981
1980
1975
1966
1956
1948
1950
1967
2001
2047
2099
2142
2161
2148
2105
2046
1990
1953
1939
1943
1954
1964
1968
1968
1969
1971
1973
1974
1974
1973
1973
1974
1976
1978
1978
1978
1977
1977
1979
1980
1981
1982
1981
1981
1981
1981
1983
1984
1985
1986
1986
1986
1986
1986
1987
1988
1989
1991
1992
1993
1994
1995
1996
1996
1996
1995
1993
1992
1991
1990
1989
1986
1983
1979
1976
1974
1972
1970
1969
1967
1965
1964
1963
1963
1962
1962
1961
1960
1960
1959
1960
1960
1961
1962
1962
1962
1961
1960
1959
1959
1961
1963
1964
1964
1964
1963
1962
1962
1962
1964
1965
1965
1965
1964
1964
1964
1964
1964
1964
1964
1964
1964
1964
1964
1964
1963
1963
1962
1962
1961
1962
1962
1963
1963
1963
1962
1961
1960
1958
1957
1957
1959
1960
1962
1963
1963
1963
1963
1963
1964
1965
1966
1966
1965
1964
1963
1961
1960
1959
1960
1960
1960
1960
1960
1960
1960
1961
1960
1956
1948
1938
1931
1934
1953
1988
2034
2082
2118
2129
2108
2060
2002
1950
1920
1913
1922
1934
1944
1948
1949
1950
1951
1953
1954
1954
1955
1956
1956
1957
1958
1959
1960
1961
1962
1962
1963
1963
1963
1963
1964
1965
1966
1967
1968
1968
1969
1969
1970
1971
1973
1975
1977
1979
1980
1982
1983
1984
1985
1986
1987
1988
1988
1988
1987
1985
1983
1980
1978
1975
1973
1970
1967
1965
1963
1961
1960
1959
1958
1957
1958
1958
1958
1958
1958
1958
1959
1959
1959
1960
1960
1960
1961
1961
1961
1961
1961
1961
1961
1962
1962
1963
1964
1964
1965
1965
1964
1963
1962
1962
1963
1965
1967
1968
1968
1968
1966
1965
1965
1964
1965
1965
1966
1966
1966
1967
1967
1967
1966
1966
1966
1966
1966
1966
1966
1966
1966
1966
1966
1967
1967
1967
1968
1970
1971
1972
1971
1971
1970
1969
1969
1969
1968
1967
1967
1967
1967
1967
1967
1968
1969
1970
1968
1963
1954
1944
1940
1947
1972
2013
2063
2109
2134
2127
2088
2029
1970
1928
1912
1917
1931
1945
1953
1956
1956
1956
1957
1958
1959
1960
1961
1962
1963
1964
1965
1966
1966
1965
1965
1965
1966
1967
1968
1968
1969
1969
1969
1969
1970
1971
1972
1974
1975
1976
1977
1978
1980
1981
1983
1985
1986
1988
1989
1990
1990
1990
1990
1988
1986
1984
1981
1978
1974
1971
1967
1964
1960
1957
1954
1952
1951
1951
1951
1952
1952
1952
1951
1950
1950
1949
1949
1949
1950
1951
1951
1951
1951
1951
1951
1951
1951
1951
1951
1951
1952
1953
1954
1954
1955
1955
1955
1955
1955
1956
1957
1957
1956
1955
1955
1954
1954
1955
1956
1957
1957
1956
1955
1955
1954
1953
1953
1954
1954
1955
1954
1953
1953
1953
1953
1954
1955
1956
1957
1958
1959
1960
1960
1960
1960
1960
1960
1960
1959
1958
1957
1957
1957
1957
1957
1957
1958
1959
1961
1962
1959
1951
1941
1932
1931
1944
1974
2018
2068
2111
2132
2121
2079
2022
1966
1930
1917
1922
1935
1945
1950
1950
1950
1950
1951
1952
1953
1954
1955
1956
1957
1957
1957
1957
1957
1957
1958
1958
1960
1961
1962
1963
1963
1963
1963
1963
1964
1965
1967
1968
1969
1970
1971
1971
1972
1973
1975
1977
1979
1980
1982
1983
1984
1984
1984
1983
1982
1981
1979
1977
1975
1972
1970
1967
1965
1963
1962
1961
1961
1960
1960
1960
1960
1959
1959
1959
1959
1960
1961
1962
1962
1962
1962
1961
1961
1961
1962
1964
1966
1967
1968
1968
1967
1967
1966
1967
1967
1968
1970
1971
1972
1972
1971
1970
1969
1969
1969
1970
1970
1971
1971
1971
1971
1971
1971
1970
1970
1970
1971
1971
1972
1972
1972
1972
1972
1971
1970
1970
1971
1972
1973
1974
1974
1974
1975
1975
1976
1978
1979
1980
1980
1979
1978
1977
1976
1975
1975
1975
1975
1976
1976
1976
1977
1979
1979
1977
1971
1961
1952
1947
1953
1975
2012
2061
2111
2147
2156
2131
2080
2020
1969
1940
1935
1943
1954
1962
1964
1965
1966
1968
1970
1971
1971
1972
1972
1973
1973
1974
1975
1976
1977
1977
1977
1976
1976
1977
1978
1979
1981
1982
1982
1983
1983
1982
1982
1983
1984
1985
1987
1989
1990
1991
1992
1993
1995
1996
1998
1999
2000
2001
2001
2000
1998
1996
1993
1991
1988
1986
1983
1981
1979
1978
1976
1975
1974
1974
1973
1973
1973
1973
1973
1973
1973
1973
1972
1972
1973
1974
1975
1975
1976
1976
1976
1976
1976
1976
1977
1978
1979
1979
1979
1979
1979
1978
1978
1978
1978
1979
1980
1980
1981
1980
1980
1979
1978
1979
1979
1980
1981
1981
1981
1980
1980
1980
1980
1980
1981
1981
1981
1981
1981
1981
1981
1981
1980
1980
1980
1981
1982
1983
1984
1985
1985
1985
1985
1986
1987
1988
1989
1989
1989
1988
1987
1986
1985
1984
1984
1985
1986
1986
1987
1988
1989
1988
1984
1976
1965
1957
1957
1971
2002
2046
2096
2140
2163
2154
2115
2057
2000
1960
1943
1946
1957
1968
1973
1973
1974
1975
1978
1979
1980
1980
1980
1980
1980
1981
1981
1982
1983
1984
1985
1985
1985
1985
1984
1984
1984
1985
1986
1988
1989
1990
1990
1990
1990
1991
1992
1994
1996
1998
1999
2001
2002
2003
2003
2004
2004
2005
2005
2006
2005
2004
2002
2000
1997
1994
1991
1989
1987
1985
1984
1983
1982
1981
1980
1980
1980
1980
1981
1981
1982
1982
1982
1982
1982
1981
1982
1982
1983
1984
1985
1985
1984
1984
1984
1984
1985
1986
1987
1987
1987
1987
1987
1986
1986
1986
1987
1987
1988
1989
1989
1989
1989
1989
1988
1989
1989
1990
1991
1991
1991
1991
1991
1991
1991
1991
1991
1991
1991
1992
1993
1993
1993
1992
1991
1990
1990
1990
1991
1992
1994
1996
1997
1998
1999
1999
1999
1999
2000
2000
1999
1998
1997
1996
1994
1992
1991
1990
1991
1991
1993
1994
1996
1995
1992
1986
1976
1968
1965
1974
1999
2038
2086
2134
2165
2167
2136
2082
2022
1975
1950
1947
1957
1969
1976
1978
1979
1980
1982
1984
1986
1987
1987
1987
1987
1987
1988
1989
1989
1989
1989
1988
1988
1988
1988
1989
1989
1990
1991
1992
1994
1995
1996
1997
1997
1998
1999
2001
2004
2006
2008
2009
2010
2011
2011
2012
2013
2014
2015
2015
2014
2012
2010
2008
2005
2003
2000
1998
1996
1994
1993
1991
1990
1989
1988
1987
1987
1987
1988
1988
1988
1988
1987
1986
1986
1987
1988
1989
1990
1991
1991
1991
1991
1991
1991
1991
1992
1992
1993
1994
1994
1995
1994
1994
1994
1995
1996
1997
1997
1998
1998
1998
1998
1998
1998
1998
1997
1997
1998
1999
2000
2000
2001
2001
2001
2001
2001
2002
2003
2003
2003
2002
2001
2000
1999
1998
1999
2000
2002
2003
2003
2004
2004
2004
2003
2003
2003
2003
2003
2003
2002
2000
1999
1999
2000
2001
2003
2003
2004
2006
2007
2007
2003
1995
1984
1975
1974
1988
2020
2064
2114
2154
2170
2153
2108
2048
1995
1961
1951
1959
1974
1985
1991
1991
1991
1991
1993
1995
1997
1998
1998
1998
1998
1998
1998
1998
1998
1999
1999
2000
2001
2001
2001
2001
2001
2002
2002
2003
2004
2005
2005
2005
2006
2006
2007
2008
2010
2012
2013
2015
2016
2017
2017
2017
2017
2017
2017
2017
2017
2016
2015
2012
2008
2005
2001
1998
1996
1995
1994
1994
1993
1992
1990
1989
1989
1989
1989
1990
1990
1991
1991
1991
1991
1991
1991
1992
1993
1994
1994
1995
1995
1995
1995
1995
1994
1994
1994
1995
1996
1997
1997
1997
1997
1996
1995
1995
1995
1996
1996
1996
1996
1996
1996
1995
1995
1995
1995
1994
1994
1994
1994
1994
1994
1994
1993
1992
1991
1991
1992
1992
1993
1993
1992
1992
1992
1992
1994
1995
1996
1996
1997
1996
