2025
2025
2026
2026
2027
2027
2027
2027
2027
2027
2026
2027
2027
2027
2028
2028
2027
2027
2027
2027
2028
2029
2029
2030
2030
2030
2031
2030
2030
2030
2030
2030
2031
2031
2031
2031
2031
2031
2032
2033
2033
2033
2033
2033
2033
2033
2035
2036
2038
2040
2042
2043
2042
2040
2037
2034
2032
2030
2029
2029
2028
2027
2027
2028
2029
2031
2032
2033
2032
2029
2023
2016
2011
2011
2025
2057
2112
2189
2278
2352
2385
2358
2271
2147
2026
1939
1901
1904
1931
1964
1991
2011
2030
2046
2056
2062
2066
2068
2069
2071
2073
2075
2077
2078
2080
2082
2084
2085
2086
2087
2087
2089
2090
2091
2093
2094
2095
2097
2098
2100
2102
2104
2106
2109
2111
2115
2118
2122
2125
2129
2132
2135
2139
2142
2146
2149
2152
2153
2154
2155
2155
2154
2153
2151
2148
2145
2140
2134
2126
2119
2111
2106
2101
2097
2093
2088
2084
2080
2077
2075
2073
2072
2070
2069
2069
2068
2068
2068
2068
2067
2066
2066
2065
2066
2066
2067
2067
2067
2067
2067
2067
2067
2067
2068
2068
2068
2068
2068
2067
2066
2066
2065
2064
2064
2064
2064
2064
2064
2063
2061
2060
2059
2059
2059
2059
2060
2060
2059
2059
2058
2058
2057
2057
2057
2056
2056
2056
2055
2055
2055
2055
2055
2056
2056
2056
2057
2056
2056
2056
2056
2055
2056
2055
2055
2054
2054
2054
2054
2055
2055
2056
2056
2055
2054
2053
2052
2052
2052
2053
2053
2053
2053
2054
2054
2054
2054
2053
2053
2053
2054
2054
2054
2054
2054
2054
2054
2053
2053
2052
2052
2052
2052
2052
2052
2052
2053
2053
2053
2052
2052
2052
2052
2053
2053
2053
2053
2052
2051
2050
2050
2050
2050
2050
2050
2050
2050
2050
2050
2049
2049
2049
2049
2049
2050
2050
2051
2051
2051
2051
2051
2050
2050
2050
2050
2051
2051
2051
2050
2050
2050
2050
2051
2051
2051
2050
2051
2054
2057
2060
2062
2062
2061
2059
2057
2055
2053
2051
2049
2048
2047
2046
2045
2045
2046
2046
2047
2047
2048
2048
2048
2047
2043
2036
2028
2021
2019
2033
2066
2122
2197
2279
2343
2364
2327
2235
2114
2001
1927
1902
1916
1950
1984
2007
2020
2032
2040
2045
2048
2048
2048
2047
2048
2048
2050
2052
2054
2055
2056
2055
2054
2053
2052
2053
2054
2056
2059
2061
2062
2062
2063
2063
2064
2066
2068
2071
2073
2075
2077
2080
2083
2086
2090
2093
2097
2100
2104
2106
2109
2110
2111
2111
2112
2112
2112
2111
2110
2107
2103
2098
2092
2085
2078
2072
2067
2062
2057
2052
2048
2044
2040
2037
2034
2032
2031
2030
2031
2031
2032
2032
2033
2033
2034
2036
2037
2039
2040
2041
2041
2041
2042
2042
2042
2041
2041
2041
2041
2041
2040
2040
2039
2039
2039
2038
2039
2039
2040
2041
2040
2039
2038
2036
2035
2034
2033
2032
2032
2032
2032
2032
2032
2032
2032
2032
2032
2032
2032
2032
2033
2033
2033
2032
2032
2031
2031
2032
2032
2033
2033
2032
2032
2031
2031
2032
2033
2034
2035
2035
2034
2033
2033
2033
2033
2033
2033
2034
2035
2035
2035
2035
2034
2034
2034
2035
2035
2036
2036
2036
2036
2035
2035
2035
2035
2035
2035
2036
2036
2037
2037
2036
2036
2035
2035
2036
2037
2037
2036
2034
2032
2031
2031
2031
2032
2033
2033
2034
2033
2033
2032
2031
2031
2031
2032
2032
2032
2032
2032
2033
2034
2034
2034
2033
2032
2031
2032
2033
2033
2032
2032
2032
2033
2034
2035
2036
2037
2038
2038
2038
2037
2034
2030
2026
2023
2020
2018
2016
2014
2014
2014
2013
2013
2011
2009
2008
2009
2010
2013
2015
2016
2013
2008
2001
1995
1994
2007
2040
2095
2173
2263
2336
2365
2332
2238
2110
1988
1902
1865
1870
1896
1927
1951
1969
1987
2002
2014
2021
2026
2028
2029
2030
2032
2034
2036
2038
2039
2040
2042
2044
2046
2047
2048
2049
2051
2052
2054
2056
2057
2059
2060
2061
2063
2065
2068
2071
2075
2078
2082
2086
2089
2092
2095
2098
2102
2105
2109
2113
2116
2118
2120
2122
2122
2122
2120
2117
2114
2109
2104
2099
2092
2084
2076
2068
2060
2053
2047
2041
2036
2031
2026
2023
2020
2018
2017
2016
2015
2015
2014
2014
2014
2015
2014
2014
2014
2014
2014
2014
2015
2015
2016
2017
2018
2020
2021
2021
2022
2022
2023
2023
2023
2023
2023
2023
2023
2024
2025
2026
2026
2026
2026
2025
2024
2023
2023
2023
2024
2025
2025
2026
2025
2024
2023
2022
2022
2022
2023
2024
2025
2026
2027
2027
2027
2026
2026
2026
2026
2027
2027
2028
2028
2028
2028
2027
2027
2027
2028
2029
2030
2030
2031
2031
2030
2030
2029
2029
2029
2030
2031
2032
2032
2032
2031
2031
2031
2031
2031
2032
2033
2033
2033
2033
2033
2033
2033
2033
2034
2035
2035
2036
2036
2036
2036
2035
2036
2036
2036
2036
2037
2037
2037
2037
2037
2037
2037
2038
2038
2038
2038
2038
2039
2041
2044
2046
2048
2051
2053
2055
2056
2054
2052
2048
2045
2043
2041
2040
2039
2039
2039
2038
2037
2036
2035
2035
2035
2036
2037
2039
2040
2039
2035
2027
2017
2008
2006
2020
2057
2120
2205
2299
2373
2397
2354
2248
2110
1984
1903
1878
1896
1934
1970
1994
2009
2022
2033
2040
2045
2047
2048
2049
2050
2051
2052
2053
2054
2056
2057
2059
2061
2062
2064
2065
2066
2068
2069
2070
2072
2074
2075
2077
2079
2080
2082
2085
2089
2092
2097
2101
2105
2108
2112
2115
2120
2124
2129
2133
2137
2140
2142
2144
2144
2144
2142
2140
2137
2133
2128
2121
2114
2105
2095
2085
2076
2067
2060
2053
2048
2044
2040
2037
2034
2032
2030
2029
2028
2028
2028
2028
2028
2028
2028
2027
2027
2028
2029
2030
2030
2031
2032
2033
2034
2034
2034
2033
2033
2033
2034
2035
2035
2035
2035
2035
2034
2034
2034
2033
2033
2033
2033
2033
2033
2033
2033
2032
2033
2032
2032
2032
2032
2031
2031
2031
2031
2031
2031
2031
2032
2032
2032
2032
2032
2031
2031
2031
2031
2031
2032
2033
2034
2035
2035
2035
2035
2034
2033
2034
2034
2035
2036
2036
2036
2035
2035
2035
2036
2036
2036
2036
2036
2036
2036
2037
2037
2036
2036
2037
2037
2038
2039
2039
2039
2039
2039
2039
2039
2039
2040
2041
2041
2042
2041
2041
2040
2040
2040
2040
2041
2042
2043
2044
2045
2045
2045
2046
2046
2047
2048
2048
2049
2050
2050
2051
2051
2052
2053
2054
2055
2056
2058
2059
2060
2060
2061
2062
2064
2066
2070
2072
2075
2076
2078
2079
2080
2078
2076
2073
2070
2069
2068
2069
2068
2067
2066
2065
2064
2064
2063
2063
2063
2063
2062
2061
2060
2057
2052
2046
2039
2032
2031
2043
2073
2127
2202
2287
2358
2387
2357
2269
2148
2031
1950
1919
1930
1963
1998
2023
2038
2049
2057
2063
2066
2068
2069
2070
2070
2070
2071
2071
2072
2073
2074
2075
2076
2077
2077
2078
2079
2081
2083
2084
2086
2087
2089
2090
2092
2094
2097
2099
2102
2104
2106
2108
2110
2112
2115
2118
2122
2125
2129
2132
2135
2137
2138
2138
2138
2138
2137
2136
2134
2131
2127
2122
2118
2112
2106
2099
2091
2084
2078
2072
2067
2063
2059
2057
2055
2053
2052
2052
2051
2050
2049
2049
2049
2050
2050
2050
2050
2051
2051
2053
2054
2055
2056
2056
2056
2056
2057
2058
2059
2059
2059
2059
2058
2057
2056
2056
2057
2058
2059
2059
2058
2057
2055
2054
2053
2053
2053
2053
2053
2054
2054
2054
2054
2053
2052
2051
2051
2052
2052
2052
2052
2052
2051
2051
2052
2052
2053
2053
2053
2053
2053
2053
2054
2054
2055
2055
2056
2056
2056
2056
2055
2055
2055
2055
2056
2056
2056
2056
2056
2055
2054
2054
2054
2055
2056
2056
2057
2056
2057
2057
2057
2057
2056
2055
2054
2055
2056
2057
2058
2058
2057
2057
2057
2057
2058
2059
2060
2061
2061
2060
2059
2059
2059
2060
2061
2061
2061
2060
2060
2061
2062
2062
2062
2062
2061
2062
2062
2062
2062
2061
2059
2058
2059
2061
2064
2068
2071
2073
2075
2076
2075
2073
2070
2066
2064
2063
2063
2063
2062
2061
2060
2058
2056
2054
2053
2054
2056
2057
2058
2059
2058
2057
2055
2050
2044
2038
2037
2049
2081
2136
2213
2301
2373
2401
2367
2273
2146
2024
1939
1903
1907
1932
1961
1985
2004
2023
2040
2052
2061
2065
2067
2067
2068
2069
2072
2074
2076
2078
2080
2080
2080
2081
2082
2084
2085
2087
2088
2090
2091
2093
2094
2096
2097
2099
2101
2104
2108
2112
2115
2118
2119
2122
2124
2128
2132
2135
2139
2142
2146
2149
2152
2154
2156
2156
2155
2153
2149
2145
2139
2134
2129
2123
2116
2109
2102
2095
2089
2083
2077
2072
2067
2063
2060
2059
2058
2057
2057
2057
2056
2055
2054
2054
2054
2054
2055
2055
2055
2055
2056
2056
2056
2056
2056
2056
2057
2056
2056
2056
2057
2057
2056
2055
2054
2053
2053
2053
2053
2054
2053
2052
2050
2049
2048
2048
2048
2048
2049
2048
2048
2047
2046
2045
2045
2044
2044
2044
2045
2045
2045
2045
2044
2043
2042
2041
2041
2041
2042
2043
2043
2043
2043
2042
2042
2042
2042
2043
2044
2044
2044
2042
2041
2040
2040
2040
2041
2041
2042
2043
2043
2044
2044
2044
2043
2042
2042
2043
2044
2044
2045
2045
2044
2044
2044
2045
2045
2046
2046
2046
2047
2047
2047
2047
2046
2045
2045
2045
2046
2046
2047
2047
2046
2046
2045
2045
2045
2045
2045
2046
2047
2048
2049
2051
2053
2055
2057
2059
2060
2059
2057
2054
2051
2049
2048
2047
2046
2044
2043
2042
2041
2041
2040
2041
2041
2042
2043
2043
2044
2042
2038
2031
2022
2013
2015
2034
2075
2141
2226
2314
2375
2383
2324
2209
2073
1959
1894
1882
1909
1948
1982
2003
2017
2030
2040
2046
2049
2051
2052
2053
2055
2056
2057
2058
2059
2060
2061
2062
2063
2064
2065
2066
2067
2068
2069
2070
2071
2073
2074
2076
2077
2079
2081
2083
2086
2088
2091
2094
2099
2104
2109
2113
2117
2120
2124
2127
2130
2132
2133
2134
2134
2133
2132
2130
2127
2123
2117
2110
2102
2094
2086
2078
2070
2063
2055
2049
2045
2040
2036
2033
2031
2029
2027
2026
2025
2024
2024
2024
2025
2026
2026
2027
2027
2027
2027
2027
2027
2027
2028
2028
2028
2029
2030
2031
2031
2031
2031
2030
2030
2029
2029
2028
2027
2027
2026
2026
2026
2026
2026
2026
2026
2026
2026
2026
2026
2026
2026
2026
2026
2026
2026
2026
2026
2026
2027
2027
2027
2028
2028
2028
2029
2028
2028
2028
2028
2028
2028
2029
2029
2029
2029
2029
2030
2029
2029
2029
2029
2029
2029
2030
2030
2030
2030
2030
2030
2030
2031
2031
2031
2030
2031
2031
2031
2031
2030
2029
2029
2028
2029
2029
2030
2030
2029
2029
2027
2027
2026
2026
2026
2027
2027
2027
2027
2026
2026
2026
2026
2027
2028
2028
2028
2028
2028
2027
2027
2027
2027
2028
2029
2031
2033
2034
2035
2035
2036
2036
2037
2039
2041
2044
2047
2048
2049
2048
2046
2042
2039
2037
2036
2036
2035
2034
2034
2033
2032
2031
2030
2030
2031
2031
2033
2035
2035
2033
2027
2019
2009
2000
2003
2025
2069
2137
2225
2310
2366
2365
2300
2183
2051
1945
1889
1884
1913
1952
1985
2005
2018
2029
2036
2040
2042
2043
2044
2045
2047
2048
2050
2051
2053
2055
2056
2058
2059
2059
2060
2061
2062
2064
2066
2068
2070
2072
2074
2076
2077
2078
2079
2081
2083
2086
2090
2094
2098
2102
2106
2109
2113
2116
2119
2122
2125
2127
2129
2130
2130
2129
2128
2127
2124
2121
2116
2110
2103
2095
2087
2078
2070
2063
2057
2052
2048
2044
2040
2036
2032
2029
2028
2027
2027
2028
2029
2029
2028
2027
2027
2027
2028
2030
2031
2032
2032
2032
2032
2032
2032
2032
2032
2032
2032
2031
2031
2031
2031
2030
2029
2028
2028
2027
2028
2027
2027
2026
2024
2023
2021
2020
2020
2019
2020
2020
2020
2020
2020
2020
2020
2019
2019
2019
2020
2020
2020
2020
2020
2020
2020
2020
2021
2021
2021
2021
2021
2021
2021
2021
2021
2021
2022
2022
2023
2023
2023
2023
2023
2023
2023
2023
2024
2024
2025
2025
2025
2025
2026
2026
2026
2026
2027
2027
2028
2029
2029
2029
2029
2029
2029
2030
2030
2030
2030
2030
2031
2031
2031
2032
2032
2032
2033
2034
2035
2035
2036
2036
2036
2036
2036
2036
2036
2037
2037
2037
2038
2038
2038
2038
2038
2039
2039
2039
2040
2042
2044
2046
2048
2050
2052
2054
2054
2053
2050
2047
2044
2042
2041
2039
2037
2036
2035
2034
2034
2033
2033
2033
2033
2033
2033
2034
2034
2033
2030
2024
2018
2012
2014
2031
2069
2129
2209
2290
2346
2353
2299
2195
2072
1968
1907
1893
1914
1948
1980
2001
2017
2029
2037
2042
2044
2045
2046
2047
2048
2050
2052
2053
2054
2055
2056
2056
2057
2057
2059
2060
2062
2064
2065
2066
2067
2068
2069
2071
2073
2075
2078
2080
2082
2084
2087
2089
2092
2095
2098
2101
2104
2107
2110
2112
2113
2114
2115
2115
2116
2117
2116
2115
2113
2110
2107
2102
2097
2092
2086
2080
2074
2069
2063
2058
2053
2049
2046
2043
2041
2040
2039
2039
2038
2037
2036
2035
2035
2035
2036
2037
2038
2038
2038
2039
2039
2038
2038
2038
2039
2039
2039
2038
2038
2037
2036
2035
2034
2034
2034
2034
2034
2034
2033
2032
2032
2031
2031
2031
2031
2031
2032
2031
2030
2029
2028
2028
2028
2028
2029
2030
2031
2031
2032
2032
2031
2031
2031
2032
2032
2033
2034
2034
2034
2034
2034
2034
2034
2035
2035
2036
2036
2036
2035
2035
2034
2033
2033
2034
2035
2036
2036
2037
2037
2037
2037
2036
2035
2035
2035
2035
2035
2036
2036
2036
2036
2036
2036
2036
2037
2037
2038
2039
2039
2039
2038
2037
2037
2037
2037
2037
2038
2038
2038
2038
2038
2037
2037
2037
2038
2039
2039
2039
2039
2038
2037
2037
2038
2038
2039
2041
2042
2044
2046
2048
2050
2052
2054
2054
2053
2050
2048
2046
2044
2042
2041
2040
2038
2036
2036
2036
2036
2036
2036
2035
2035
2035
2036
2036
2035
2033
2028
2023
2017
2019
2035
2070
2127
2205
2286
2343
2353
2304
2205
2084
1979
1913
1892
1906
1936
1967
1989
2007
2021
2032
2039
2043
2045
2045
2046
2047
2048
2048
2050
2051
2052
2053
2054
2054
2056
2057
2059
2060
2061
2062
2064
2065
2067
2069
2071
2073
2074
2076
2077
2079
2081
2083
2086
2089
2092
2096
2099
2102
2105
2107
2109
2111
2112
2114
2115
2115
2114
2114
2113
2111
2109
2107
2103
2099
2093
2087
2081
2075
2069
2063
2057
2051
2048
2044
2041
2039
2037
2036
2034
2033
2032
2032
2032
2033
2033
2033
2033
2033
2033
2033
2033
2033
2032
2032
2031
2031
2030
2030
2030
2029
2028
2027
2026
2025
2026
2026
2026
2026
2025
2023
2022
2020
2019
2019
2019
2019
2019
2018
2017
2016
2015
2015
2014
2014
2014
2014
2015
2016
2016
2015
2013
2012
2011
2011
2013
2014
2014
2014
2013
2012
2010
2010
2010
2012
2013
2015
2015
2015
2014
2014
2014
2013
2013
2013
2014
2015
2016
2017
2018
2018
2017
2016
2016
2016
2016
2017
2018
2019
2020
2020
2021
2020
2019
2018
2018
2019
2021
2024
2025
2026
2024
2023
2022
2023
2025
2028
2031
2033
2035
2034
2032
2029
2025
2023
2021
2021
2021
2020
2019
2018
2018
2018
2019
2020
2021
2021
2019
2016
2011
2007
2004
2009
2031
2072
2137
2219
2299
2346
2341
2276
2165
2044
1944
1886
1869
1881
1906
1931
1952
1974
1994
2010
2022
2030
2034
2037
2038
2039
2040
2040
2042
2044
2046
2048
2048
2050
2052
2053
2055
2056
2056
2057
2058
2059
2062
2066
2069
2070
2071
2071
2072
2075
2078
2083
2087
2090
2093
2096
2098
2101
2105
2109
2112
2114
2115
2116
2116
2117
2117
2117
2115
2112
2108
2103
2099
2094
2089
2083
2076
2069
2062
2056
2051
2048
2044
2041
2038
2035
2032
2030
2028
2027
2027
2027
2028
2029
2030
2030
2030
2030
2029
2030
2031
2031
2032
2032
2032
2033
2033
2034
2033
2032
2032
2031
2032
2033
2033
2034
2033
2032
2031
2030
2030
2030
2030
2031
2031
2031
2030
2029
2028
2028
2028
2028
2028
2029
2029
2029
2029
2029
2028
2028
2029
2029
2030
2030
2030
2030
2030
2031
2031
2031
2031
2032
2033
2033
2034
2033
2033
2032
2032
2033
2035
2037
2039
2042
2044
2045
2045
2043
2039
2036
2034
2033
2033
2033
2032
2031
2031
2032
2033
2033
2034
2035
2035
2034
2030
2024
2017
2015
2025
2053
2106
2182
2271
2345
2376
2348
2259
2136
2015
1927
1886
1885
1908
1938
1963
1984
2004
2021
2033
2042
2047
2049
2051
2053
2056
2058
2059
2061
2061
2062
2063
2065
2066
2067
2069
2070
2072
2074
2075
2076
2077
2078
2079
2082
2084
2087
2090
2092
2094
2097
2100
2103
2107
2110
2114
2117
2120
2123
2125
2128
2129
2131
2132
2132
2132
2132
2130
2127
2124
2119
2113
2106
2099
2092
2085
2078
2071
2064
2057
2050
2046
2042
2039
2037
2035
2034
2032
2031
2031
2031
2031
2031
2031
2030
2030
2030
2030
2030
2030
2030
2030
2031
2032
2032
2033
2033
2033
2033
2033
2033
2033
2033
2033
2033
2033
2033
2033
2032
2031
2031
2030
2029
2030
2030
2030
2030
2030
2030
2030
2030
2030
2030
2030
2030
2031
2031
2031
2031
2031
2030
2030
2030
2031
2032
2032
2033
2033
2033
2032
2032
2033
2034
2035
2036
2038
2039
2039
2039
2039
2040
2040
2040
2040
2040
2040
2040
2041
2043
2045
2047
2048
2050
2052
2052
2049
2047
2043
2040
2038
2037
2037
2037
2037
2038
2040
2040
2041
2041
2041
2040
2036
2029
2020
2010
2006
2019
2052
2114
2197
2293
2370
2399
2360
2256
2116
1986
1902
1875
1895
1937
1977
2005
2021
2035
2045
2050
2053
2054
2054
2056
2058
2059
2061
2061
2062
2063
2064
2066
2068
2069
2071
2072
2074
2076
2078
2080
2081
2082
2084
2086
2088
2090
2092
2095
2097
2100
2103
2106
2109
2112
2115
2119
2124
2128
2131
2134
2136
2136
2136
2136
2136
2136
2136
2134
2132
2127
2121
2114
2107
2100
2093
2085
2078
2071
2065
2059
2054
2049
2046
2043
2041
2039
2038
2038
2038
2038
2037
2037
2037
2037
2037
2037
2038
2038
2039
2039
2039
2039
2039
2039
2039
2038
2038
2038
2038
2037
2036
2036
2035
2034
2034
2034
2034
2034
2034
2034
2034
2034
2034
2034
2034
2034
2034
2034
2033
2033
2033
2033
2033
2033
2033
2033
2033
2033
2033
2034
2034
2034
2033
2033
2033
2033
2034
2034
2035
2034
2034
2033
2033
2033
2033
2033
2034
2034
2034
2034
2033
2032
2031
2031
2030
2031
2031
2032
2033
2033
2033
2033
2034
2034
2034
2034
2034
2034
2033
2032
2032
2032
2033
2035
2037
2039
2042
2044
2046
2046
2045
2042
2038
2036
2034
2033
2033
2033
2033
2033
2033
2032
2032
2032
2033
2033
2031
2026
2018
2008
2002
2009
2035
2086
2162
2255
2338
2382
2363
2278
2150
2019
1922
1880
1886
1920
1959
1989
2008
2022
2034
2041
2046
2048
2049
2049
2050
2051
2053
2055
2056
2057
2058
2059
2060
2061
2062
2064
2065
2066
2068
2069
2071
2072
2073
2075
2076
2077
2079
2082
2084
2087
2090
2093
2096
2100
2103
2106
2110
2112
2114
2116
2118
2119
2121
2122
2123
2124
2124
2123
2121
2117
2113
2108
2102
2096
2090
2085
2079
2074
2068
2063
2059
2055
2053
2050
2048
2047
2047
2046
2047
2047
2047
2047
2046
2046
2047
2047
2048
2049
2049
2049
2048
2048
2047
2048
2048
2049
2050
2049
2049
2048
2048
2048
2048
2048
2048
2048
2049
2050
2051
2051
2050
2049
2049
2049
2049
2049
2049
2049
2049
2049
2049
2049
2050
2050
2051
2051
2051
2050
2050
2050
2050
2050
2050
2050
2050
2051
2051
2052
2052
2052
2051
2050
2050
2050
2050
2051
2052
2052
2052
2051
2051
2050
2050
2050
2050
2051
2051
2052
2052
2052
2052
2052
2052
2052
2052
2052
2052
2052
2050
2049
2049
2048
2049
2049
2050
2051
2051
2051
2051
2051
2050
2049
2048
2048
2049
2050
2051
2050
2048
2046
2043
2040
2039
2038
2038
2038
2037
2036
2035
2034
2034
2033
2032
2032
2032
2033
2034
2034
2034
2034
2033
2031
2031
2031
2033
2035
2038
2040
2042
2041
2039
2036
2033
2030
2029
2028
2028
2028
2028
2028
2028
2028
2029
2030
2032
2032
2030
2024
2016
2007
2001
2008
2035
2086
2162
2255
2337
2377
2356
2271
2145
2019
1927
1887
1892
1923
1959
1986
2002
2016
2027
2035
2041
2044
2046
2048
2049
2050
2051
2052
2053
2053
2054
2056
2057
2058
2058
2058
2058
2058
2059
2060
2062
2063
2065
2066
2068
2070
2072
2074
2076
2078
2080
2083
2086
2088
2090
2092
2095
2098
2101
2103
2106
2107
2109
2109
2109
2109
2109
2108
2106
2104
2101
2097
2092
2087
2082
2076
2070
2064
2057
2051
2046
2041
2037
2036
2035
2035
2034
2033
2032
2031
2031
2031
2032
2032
2033
2033
2033
2033
2033
2034
2034
2035
2036
2037
2038
2038
2038
2038
2038
2038
2037
2037
2037
2037
2037
2037
2036
2036
2035
2034
2035
2035
2036
2036
2035
2034
2033
2033
2032
2032
2031
2031
2030
2030
2031
2031
2031
2030
2029
2028
2028
2028
2029
2030
2030
2030
2029
2029
2028
2027
2027
2027
2028
2028
2028
2029
2029
2029
2030
2031
2032
2033
2033
2032
2031
2031
2031
2030
2030
2029
2029
2029
2030
2031
2032
2032
2031
2031
2031
2031
2031
2032
2032
2033
2033
2033
2032
2032
2032
2032
2033
2033
2033
2032
2032
2032
2034
2035
2036
2037
2036
2036
2036
2036
2037
2038
2038
2038
2038
2037
2037
2037
2038
2040
2042
2043
2042
2041
2040
2040
2042
2044
2045
2046
2046
2046
2047
2048
2047
2044
2041
2038
2036
2036
2036
2035
2035
2035
2035
2035
2036
2038
2039
2037
2033
2026
2017
2010
2010
2027
2063
2124
2205
2290
2353
2368
2323
2224
2101
1992
1922
1898
1911
1942
1974
1998
2015
2028
2036
2040
2042
2043
2042
2042
2040
2038
2037
2036
2037
2039
2041
2043
2045
2047
2047
2047
2045
2045
2046
2048
2051
2053
2055
2055
2056
2058
2060
2064
2067
2069
2072
2075
2080
2085
2090
2095
2099
2103
2107
2111
2115
2119
2123
2126
2131
2134
2137
2138
2137
2135
2132
2129
2126
2123
2120
2116
2113
2109
2106
2102
2098
2096
2094
2094
2093
2093
2092
2091
2091
2091
2091
2092
2093
2093
2094
2094
2093
2093
2093
2093
2095
2096
2099
2100
2101
2100
2099
2098
2098
2097
2098
2098
2098
2097
2096
2095
2093
2093
2092
2091
2090
2089
2089
2089
2089
2089
2089
2088
2087
2086
2085
2085
2084
2084
2084
2083
2083
2083
2083
2083
2083
2082
2081
2079
2077
2076
2076
2077
2077
2077
2077
2077
2077
2077
2077
2076
2076
2075
2075
2075
2075
2075
2074
2074
2074
2073
2073
2073
2072
2070
2069
2069
2071
2074
2077
2078
2075
2071
2066
2061
2057
2054
2050
2048
2046
2046
2048
2048
2048
2047
2046
2044
2044
2045
2046
2047
2047
2047
2047
2047
2045
2042
2037
2032
2027
2022
2019
2018
2018
2018
2018
2019
2020
2020
2021
2021
2020
2017
2012
2005
1999
1995
2003
2028
2074
2145
2230
2306
2345
2328
2253
2138
2019
1927
1880
1873
1894
1924
1952
1972
1991
2006
2016
2023
2028
2031
2033
2035
2037
2040
2044
2048
2050
2051
2051
2049
2048
2047
2046
2047
2048
2050
2053
2056
2058
2059
2060
2064
2069
2075
2080
2081
2079
2076
2075
2077
2081
2086
2091
2095
2098
2101
2103
2105
2105
2105
2106
2107
2108
2108
2107
2106
2103
2100
2096
2090
2084
2077
2070
2064
2058
2052
2048
2044
2041
2038
2035
2031
2028
2027
2026
2026
2026
2027
2027
2027
2027
2027
2027
2026
2026
2026
2027
2029
2031
2032
2032
2030
2029
2028
2028
2029
2030
2031
2031
2032
2032
2031
2030
2028
2027
2026
2027
2027
2028
2029
2029
2028
2028
2027
2027
2027
2028
2028
2029
2031
2031
2031
2031
2030
2030
2030
2032
2033
2034
2034
2034
2034
2034
2034
2036
2038
2040
2042
2044
2045
2047
2048
2048
2048
2048
2048
2048
2049
2050
2051
2051
2051
2051
2051
2051
2051
2052
2053
2054
2054
2054
2053
2052
2051
2050
2050
2051
2053
2055
2055
2054
2053
2051
2051
2051
2052
2053
2053
2054
2055
2054
2053
2052
2051
2051
2052
2054
2056
2057
2058
2057
2057
2057
2056
2055
2053
2052
2050
2048
2046
2044
2042
2043
2044
2046
2047
2048
2048
2046
2045
2041
2037
2032
2026
2026
2041
2075
2134
2214
2297
2356
2367
2318
2218
2096
1989
1920
1895
1903
1930
1961
1986
2006
2023
2034
2041
2046
2048
2051
2052
2052
2051
2051
2052
2054
2057
2060
2062
2062
2061
2058
2057
2056
2058
2061
2064
2067
2069
2070
2072
2074
2076
2078
2080
2082
2084
2087
2091
2094
2098
2102
2105
2108
2110
2111
2112
2114
2116
2118
2119
2119
2119
2117
2114
2111
2108
2105
2101
2096
2090
2083
2077
2071
2065
2060
2056
2051
2048
2046
2043
2041
2039
2037
2035
2033
2033
2033
2033
2032
2032
2033
2034
2035
2036
2036
2035
2035
2035
2036
2037
2038
2038
2036
2035
2034
2033
2033
2033
2033
2032
2032
2031
2031
2032
2032
2032
2031
2031
2031
2031
2031
2032
2031
2031
2030
2030
2031
2033
2035
2036
2035
2033
2030
2028
2028
2029
2032
2034
2035
2034
2033
2032
2032
2033
2036
2037
2038
2038
2037
2035
2034
2035
2036
2038
2039
2040
2041
2041
2042
2042
2042
2042
2040
2040
2039
2040
2041
2042
2042
2043
2043
2044
2045
2046
2047
2047
2046
2046
2045
2044
2045
2045
2045
2045
2045
2045
2046
2047
2047
2048
2048
2048
2048
2048
2048
2048
2048
2048
2048
2048
2048
2049
2050
2052
2054
2057
2059
2061
2061
2059
2055
2052
2049
2048
2046
2045
2044
2044
2043
2044
2044
2044
2045
2046
2045
2042
2037
2030
2023
2024
2042
2079
2140
2221
2306
2365
2375
2323
2219
2094
1987
1923
1906
1925
1960
1992
2015
2031
2044
2052
2057
2059
2059
2060
2061
2061
2063
2064
2066
2068
2069
2070
2071
2072
2073
2074
2075
2076
2077
2079
2081
2083
2085
2086
2087
2088
2090
2092
2096
2099
2102
2104
2106
2108
2111
2115
2119
2124
2127
2130
2131
2132
2133
2134
2135
2136
2139
2142
2145
2146
2145
2142
2137
2131
2124
2118
2112
2106
2101
2097
2093
2090
2086
2082
2079
2077
2076
2076
2076
2076
2076
2075
2076
2076
2076
2076
2076
2076
2077
2078
2079
2080
2080
2080
2081
2082
2083
2084
2085
2086
2085
2085
2084
2083
2082
2082
2083
2083
2084
2083
2083
2082
2081
2081
2080
2080
2080
2080
2080
2080
2079
2078
2077
2076
2075
2074
2074
2074
2074
2074
2073
2073
2072
2071
2070
2070
2070
2071
2071
2071
2071
2069
2068
2066
2066
2065
2066
2067
2067
2068
2067
2066
2065
2064
2063
2062
2061
2060
2060
2060
2061
2062
2062
2062
2060
2058
2057
2057
2057
2058
2059
2059
2059
2058
2057
2056
2055
2054
2054
2055
2055
2055
2056
2056
2056
2055
2053
2053
2052
2051
2051
2051
2050
2048
2048
2046
2046
2046
2046
2047
2046
2046
2045
2045
2045
2045
2045
2045
2045
2044
2044
2043
2042
2042
2042
2042
2043
2044
2045
2045
2046
2045
2044
2042
2041
2042
2043
2046
2048
2050
2051
2052
2053
2053
2053
2051
2048
2047
2044
2042
2040
2039
2037
2036
2036
2037
2038
2039
2041
2041
2040
2036
2031
2026
2020
2018
2027
2051
2097
2163
2243
2315
2353
2338
2266
2155
2040
1950
1904
1898
1917
1944
1968
1987
2006
2022
2035
2043
2046
2048
2048
2048
2050
2050
2051
2051
2052
2054
2055
2056
2057
2057
2057
2058
2059
2060
2062
2064
2065
2067
2069
2071
2072
2074
2075
2077
2079
2082
2085
2088
2090
2093
2095
2098
2101
2105
2108
2111
2112
2112
2113
2113
2114
2114
2113
2111
2108
2106
2103
2100
2096
2090
2083
2076
2069
2063
2057
2052
2048
2043
2039
2035
2032
2030
2029
2028
2029
2029
2029
2030
2030
2029
2028
2028
2027
2027
2028
2029
2030
2030
2029
2028
2027
2026
2026
2027
2029
2030
2030
2029
2027
2026
2025
2025
2026
2027
2027
2027
2026
2025
2023
2022
2021
2021
2021
2021
2022
2022
2023
2024
2024
2023
2023
2022
2021
2021
2021
2021
2021
2022
2022
2022
2022
2022
2022
2023
2023
2023
2023
2022
2022
2022
2021
2022
2022
2023
2024
2024
2024
2024
2024
2024
2025
2025
2025
2025
2025
2025
2025
2025
2025
2024
2024
2024
2024
2025
2027
2028
2028
2028
2027
2026
2026
2026
2027
2028
2029
2030
2030
2030
2029
2028
2028
2029
2030
2031
2031
2031
2031
2031
2033
2035
2037
2039
2040
2041
2042
2041
2039
2037
2035
2033
2032
2031
2031
2031
2031
2032
2033
2034
2035
2035
2034
2031
2027
2022
2018
2016
2025
2050
2098
2170
2258
2335
2374
2353
2271
2149
2026
1935
1890
1887
1907
1936
1961
1981
2002
2019
2032
2041
2046
2048
2049
2050
2051
2052
2054
2056
2058
2060
2062
2063
2063
2064
2065
2066
2068
2069
2071
2072
2073
2075
2077
2079
2081
2082
2084
2085
2088
2091
2094
2098
2101
2104
2107
2111
2114
2117
2120
2122
2123
2124
2124
2124
2124
2124
2123
2122
2119
2116
2110
2104
2097
2090
2082
2075
2069
2064
2058
2053
2048
2044
2041
2038
2037
2036
2035
2034
2033
2032
2032
2032
2032
2033
2034
2034
2034
2035
2035
2036
2037
2037
2037
2037
2037
2037
2037
2039
2040
2040
2040
2039
2037
2036
2036
2036
2036
2037
2037
2037
2037
2036
2035
2035
2035
2035
2036
2036
2036
2035
2034
2034
2034
2034
2034
2035
2036
2037
2036
2036
2035
2034
2035
2035
2036
2037
2037
2037
2037
2038
2038
2039
2038
2038
2038
2039
2040
2041
2043
2043
2043
2043
2043
2043
2043
2043
2043
2044
2044
2044
2045
2045
2046
2046
2047
2048
2049
2050
2051
2051
2051
2050
2050
2050
2050
2050
2051
2051
2051
2051
2051
2051
2051
2052
2052
2052
2053
2054
2054
2054
2053
2052
2052
2053
2056
2059
2062
2064
2065
2065
2063
2061
2057
2054
2052
2051
2051
2051
2052
2051
2050
2050
2051
2052
2054
2054
2053
2049
2044
2037
2030
2027
2036
2063
2113
2186
2273
2349
2386
2365
2283
2163
2042
1953
1912
1913
1940
1973
2000
2018
2034
2046
2053
2058
2060
2060
2062
2064
2066
2068
2070
2070
2070
2070
2070
2071
2072
2074
2075
2077
2078
2078
2078
2079
2080
2081
2083
2086
2088
2090
2091
2093
2094
2095
2097
2100
2103
2107
2110
2114
2116
2119
2121
2123
2124
2124
2125
2125
2126
2125
2124
2121
2118
2113
2108
2102
2096
2091
2086
2081
2076
2070
2063
2057
2052
2049
2048
2046
2044
2043
2041
2040
2039
2039
2039
2039
2039
2039
2039
2039
2039
2040
2041
2042
2043
2043
2043
2043
2042
2042
2042
2043
2042
2042
2041
2040
2040
2041
2042
2042
2042
2042
2041
2041
2041
2041
2041
2042
2042
2042
2042
2042
2041
2041
2041
2041
2041
2040
2041
2041
2041
2041
2041
2041
2040
2039
2039
2039
2040
2040
2041
2041
2040
2040
2039
2040
2040
2040
2040
2041
2041
2041
2042
2042
2042
2041
2041
2042
2042
2043
2044
2044
2044
2044
2044
2045
2045
2046
2046
2047
2047
2046
2046
2045
2046
2046
2047
2046
2046
2045
2044
2044
2044
2045
2046
2047
2048
2047
2047
2047
2047
2047
2046
2046
2046
2047
2048
2048
2049
2049
2048
2048
2047
2047
2048
2048
2048
2049
2049
2049
2049
2049
2048
2048
2047
2047
2048
2048
2049
2049
2050
2049
2049
2048
2048
2048
2049
2050
2051
2052
2051
2049
2048
2048
2048
2048
2050
2051
2051
2051
2050
2051
2052
2054
2056
2059
2060
2061
2060
2058
2055
2051
2049
2048
2048
2048
2048
2047
2047
2047
2045
2045
2044
2044
2045
2044
2041
2035
2028
2022
2024
2042
2079
2139
2217
2295
2349
2355
2302
2201
2082
1981
1921
1907
1926
1959
1989
2010
2024
2036
2044
2048
2050
2051
2051
2051
2053
2055
2057
2057
2058
2058
2058
2058
2059
2060
2062
2063
2064
2064
2064
2064
2065
2067
2069
2071
2072
2074
2075
2077
2079
2082
2083
2085
2086
2089
2092
2096
2100
2103
2105
2107
2108
2108
2109
2109
2110
2111
2111
2111
2109
2105
2100
2093
2087
2080
2074
2069
2063
2058
2052
2047
2041
2035
2031
2028
2026
2025
2025
2024
2023
2023
2022
2021
2020
2019
2018
2017
2017
2017
2017
2017
2016
2016
2016
2016
2017
2018
2018
2018
2018
2017
2016
2015
2015
2015
2015
2015
2015
2013
2013
2012
2012
2012
2013
2013
2013
2013
2012
2011
2010
2010
2009
2009
2010
2011
2013
2013
2013
2012
2011
2011
2012
2012
2014
2015
2017
2017
2018
2018
2017
2016
2016
2016
2016
2016
2018
2019
2020
2020
2019
2018
2017
2017
2018
2019
2020
2020
2020
2020
2021
2022
2022
2022
2022
2021
2021
2022
2024
2025
2025
2025
2025
2025
2025
2024
2025
2026
2028
2030
2030
2029
2028
2027
2027
2028
2030
2032
2033
2033
2033
2032
2032
2033
2034
2034
2034
2033
2033
2034
2036
2038
2039
2040
2041
2041
2041
2042
2041
2040
2040
2040
2041
2043
2046
2048
2050
2053
2055
2056
2056
2055
2052
2050
2048
2048
2047
2047
2046
2045
2043
2043
2042
2042
2042
2041
2042
2043
2044
2045
2045
2042
2036
2029
2021
2019
2030
2060
2115
2194
2288
2367
2402
2373
2281
2151
2024
1933
1894
1897
1924
1956
1981
2000
2020
2038
2050
2059
2065
2067
2068
2068
2070
2073
2076
2079
2082
2084
2084
2084
2084
2084
2084
2085
2086
2087
2087
2089
2090
2092
2093
2094
2096
2097
2098
2100
2104
2108
2113
2118
2122
2126
2130
2134
2137
2140
2144
2147
2149
2151
2152
2152
2152
2151
2149
2146
2141
2135
2127
2118
2109
2100
2091
2082
2074
2067
2060
2055
2050
2047
2043
2040
2038
2036
2035
2035
2035
2035
2035
2036
2036
2036
2036
2036
2036
2036
2037
2038
2039
2040
2040
2040
2040
2039
2039
2039
2040
2040
2041
2040
2040
2040
2039
2039
2038
2038
2038
2039
2040
2040
2040
2039
2037
2036
2035
2035
2035
2036
2037
2038
2038
2038
2037
2037
2036
2036
2037
2037
2037
2037
2037
2037
2037
2037
2037
2038
2038
2039
2039
2039
2039
2039
2039
2040
2040
2040
2041
2041
2042
2042
2042
2042
2041
2041
2042
2043
2043
2044
2044
2044
2043
2042
2041
2040
2040
2041
2042
2044
2045
2045
2045
2045
2044
2044
2045
2045
2046
2046
2045
2045
2045
2045
2044
2044
2044
2044
2045
2045
2045
2045
2045
2045
2045
2045
2045
2046
2046
2046
2047
2048
2051
2054
2057
2060
2063
2064
2065
2064
2063
2062
2061
2061
2061
2060
2060
2059
2058
2057
2056
2056
2056
2057
2058
2059
2060
2061
2061
2058
2051
2042
2030
2024
2033
2064
2123
2204
2296
2372
2403
2370
2276
2147
2024
1942
1914
1930
1968
2007
2034
2048
2057
2063
2066
2067
2068
2069
2071
2073
2075
2077
2077
2078
2078
2079
2081
2082
2083
2084
2085
2086
2087
2089
2090
2091
2092
2094
2096
2097
2099
2101
2103
2106
2109
2111
2114
2117
2120
2124
2128
2132
2135
2138
2140
2142
2143
2144
2145
2145
2145
2144
2142
2139
2135
2130
2124
2118
2110
2103
2095
2088
2080
2073
2067
2062
2058
2054
2052
2049
2048
2046
2045
2045
2045
2044
2044
2044
2044
2045
2046
2047
2047
2047
2047
2047
2048
2048
2050
2051
2052
2053
2053
2054
2054
2055
2055
2055
2056
2056
2057
2058
2058
2057
2056
2055
2054
2054
2054
2054
2055
2055
2054
2054
2053
2052
2053
2053
2053
2053
2052
2052
2052
2052
2051
2051
2050
2050
2050
2051
2051
2051
2050
2050
2049
2048
2048
2048
2048
2048
2048
2048
2048
2048
2048
2048
2047
2047
2047
2047
2047
2047
2047
2047
2046
2046
2046
2046
2046
2047
2048
2048
2048
2048
2047
2047
2047
2047
2047
2048
2048
2048
2048
2048
2047
2047
2047
2047
2047
2048
2048
2048
2048
2048
2048
2047
2047
2046
2047
2047
2047
2047
2047
2047
2046
2046
2046
2046
2046
2047
2048
2048
2048
2048
2047
2046
2046
2047
2048
2048
2049
2050
2050
2052
2053
2055
2057
2059
2062
2064
2064
2062
2059
2055
2052
2050
2049
2048
2048
2048
2048
2048
2047
2046
2045
2045
2046
2047
2048
2048
2048
2046
2041
2033
2025
2021
2030
2058
2108
2179
2263
2335
2369
2346
2265
2149
2034
1950
1914
1918
1946
1979
2004
2021
2035
2045
2051
2055
2058
2060
2061
2062
2064
2064
2065
2065
2066
2066
2067
2068
2070
2071
2073
2074
2076
2078
2081
2083
2085
2088
2090
2092
2094
2096
2099
2101
2104
2107
2110
2113
2117
2121
2125
2128
2130
2132
2135
2138
2141
2143
2144
2145
2144
2143
2141
2139
2137
2134
2131
2127
2122
2115
2108
2102
2096
2091
2087
2083
2078
2074
2070
2067
2065
2063
2063
2062
2062
2062
2062
2063
2063
2063
2063
2063
2062
2062
2062
2062
2062
2062
2062
2062
2062
2062
2061
2061
2060
2060
2060
2060
2060
2060
2060
2059
2058
2057
2056
2056
2056
2056
2056
2056
2055
2054
2053
2052
2053
2053
2054
2053
2053
2053
2053
2053
2052
2052
2051
2051
2051
2051
2052
2052
2052
2052
2051
2050
2049
2049
2050
2050
2051
2051
2051
2050
2049
2049
2050
2051
2052
2053
2053
2053
2052
2050
2049
2048
2049
2049
2051
2052
2052
2052
2052
2051
2050
2051
2051
2051
2051
2051
2052
2052
2051
2051
2050
2050
2051
2051
2051
2050
2049
2050
2051
2052
2052
2052
2051
2052
2053
2054
2054
2053
2053
2054
2056
2059
2062
2064
2064
2063
2062
2060
2059
2059
2058
2056
2054
2051
2048
2047
2048
2049
2051
2053
2053
2050
2046
2041
2037
2034
2033
2040
2061
2104
2169
2252
2327
2368
2355
2283
2171
2051
1959
1908
1897
1915
1943
1970
1991
2010
2026
2039
2047
2050
2051
2049
2048
2048
2050
2053
2056
2057
2056
2055
2056
2059
2063
2068
2071
2070
2069
2068
2067
2069
2071
2073
2075
2078
2082
2087
2091
2095
2097
2099
2100
2102
2106
2110
2114
2118
2122
2126
2129
2132
2134
2136
2136
2137
2136
2135
2133
2129
2124
2116
2108
2098
2089
2080
2072
2064
2059
2054
2050
2048
2044
2039
2034
2030
2028
2027
2026
2025
2024
2023
2023
2023
2023
2023
2022
2022
2022
2022
2023
2024
2025
2026
2026
2026
2026
2024
2023
2022
2023
2024
2025
2026
2026
2025
2026
2026
2027
2028
2028
2028
2027
2026
2025
2026
2026
2027
2027
2028
2027
2026
2026
2025
2026
2026
2027
2027
2027
2026
2025
2025
2026
2027
2028
2029
2031
2033
2035
2037
2037
2037
2036
2037
2038
2040
2042
2043
2043
2043
2043
2042
2043
2044
2047
2050
2055
2058
2060
2060
2059
2057
2053
2050
2048
2047
2047
2047
2047
2048
2048
2048
2048
2050
2051
2052
2051
2047
2039
2029
2020
2025
2049
2099
2174
2267
2352
2398
2381
2298
2167
2032
1930
1883
1886
1920
1960
1992
2014
2032
2048
2058
2064
2068
2070
2072
2074
2076
2078
2079
2080
2081
2082
2083
2084
2085
2087
2089
2091
2094
2096
2099
2101
2104
2108
2111
2113
2115
2117
2120
2122
2125
2128
2132
2137
2142
2148
2153
2158
2162
2165
2168
2171
2173
2174
2175
2175
2175
2174
2172
2168
2162
2154
2145
2135
2125
2116
2108
2101
2094
2087
2081
2076
2071
2068
2066
2065
2064
2063
2062
2061
2060
2058
2056
2055
2055
2056
2057
2058
2058
2057
2057
2057
2057
2058
2058
2058
2058
2058
2057
2058
2057
2057
2056
2055
2054
2053
2052
2053
2053
2054
2055
2054
2053
2053
2052
2052
2049
2045
2037
2029
2024
2023
2024
2027
2027
2025
2022
2021
2022
2024
2026
2026
2025
2025
2026
2029
2031
2032
2032
2031
2032
2034
2037
2039
2041
2043
2044
2046
2048
2048
2049
2049
2049
2050
2050
2052
2052
2053
2053
2052
2052
2052
2052
2052
2051
2052
2053
2055
2057
2059
2062
2063
2064
2064
2063
2061
2058
2056
2053
2051
2049
2048
2047
2046
2045
2046
2047
2048
2048
2049
2048
2046
2041
2034
2027
2026
2040
2074
2132
2211
2297
2359
2372
2322
2217
2087
1973
1902
1880
1896
1930
1963
1989
2009
2029
2046
2056
2064
2068
2070
2071
2071
2073
2074
2076
2077
2079
2080
2082
2083
2085
2086
2087
2089
2090
2092
2094
2096
2097
2098
2098
2099
2101
2103
2106
2110
2114
2117
2120
2123
2126
2129
2132
2135
2138
2142
2144
2146
2147
2147
2147
2146
2146
2144
2142
2138
2133
2126
2118
2110
2101
2093
2085
2078
2071
2065
2059
2055
2050
2048
2045
2043
2042
2042
2042
2042
2042
2041
2041
2040
2040
2041
2042
2042
2043
2044
2044
2045
2045
2045
2044
2043
2042
2042
2043
2043
2044
2044
2044
2043
2042
2041
2041
2041
2041
2041
2041
2041
2041
2040
2040
2039
2038
2038
2037
2037
2038
2038
2038
2038
2038
2037
2036
2036
2036
2037
2038
2038
2039
2039
2039
2039
2039
2038
2038
2037
2037
2038
2039
2040
2040
2039
2039
2038
2038
2039
2040
2040
2040
2039
2039
2038
2038
2039
2039
2039
2039
2039
2039
2039
2039
2039
2039
2040
2039
2038
2038
2037
2038
2038
2038
2037
2036
2035
2035
2035
2036
2037
2038
2038
2038
2038
2037
2037
2036
2036
2036
2036
2036
2036
2036
2036
2036
2035
2035
2035
2036
2037
2039
2041
2043
2045
2047
2048
2048
2047
2044
2040
2037
2035
2034
2033
2032
2033
2033
2034
2035
2037
2038
2038
2037
2034
2027
2018
2008
2006
2020
2057
2119
2201
2289
2353
2366
2314
2205
2072
1957
1890
1878
1906
1948
1984
2007
2020
2031
2040
2046
2048
2049
2050
2051
2053
2055
2057
2058
2060
2062
2064
2066
2067
2067
2066
2067
2068
2070
2073
2075
2077
2078
2078
2079
2081
2082
2085
2087
2090
2094
2098
2101
2105
2108
2111
2114
2117
2121
2124
2128
2131
2133
2134
2134
2133
2131
2130
2129
2127
2124
2119
2113
2106
2098
2090
2082
2074
2068
2062
2057
2052
2048
2046
2043
2042
2040
2039
2037
2036
2036
2036
2037
2038
2038
2038
2038
2039
2039
2040
2040
2041
2041
2041
2041
2041
2041
2040
2040
2040
2040
2041
2041
2041
2041
2040
2038
2037
2036
2036
2036
2037
2037
2036
2036
2035
2035
2035
2034
2034
2034
2035
2035
2035
2034
2034
2033
2033
2033
2032
2033
2033
2034
2035
2035
2035
2035
2034
2034
2035
2036
2038
2038
2038
2039
2039
2039
2040
2040
2040
2040
2040
2039
2038
2038
2037
2037
2037
2038
2039
2040
2041
2041
2041
2041
2041
2041
2042
2042
2043
2043
2043
2042
2042
2042
2042
2042
2042
2042
2043
2044
2044
2045
2044
2044
2043
2043
2043
2043
2043
2043
2042
2042
2041
2041
2041
2041
2042
2043
2043
2044
2044
2044
2044
2044
2044
2043
2043
2043
2044
2044
2045
2046
2046
2046
2046
2046
2045
2045
2045
2046
2047
2048
2047
2047
2046
2046
2048
2049
2052
2053
2054
2056
2056
2056
2054
2051
2048
2046
2044
2043
2043
2042
2041
2041
2041
2041
2042
2043
2045
2045
2043
2039
2033
2026
2021
2026
2048
2091
2155
2235
2307
2347
2333
2263
2152
2038
1950
1907
1906
1932
1965
1993
2011
2026
2037
2044
2048
2049
2051
2052
2054
2055
2056
2056
2055
2055
2055
2056
2057
2058
2060
2061
2062
2062
2063
2063
2064
2066
2068
2070
2073
2075
2077
2079
2081
2083
2085
2087
2089
2092
2096
2099
2102
2104
2106
2107
2109
2110
2112
2112
2113
2112
2112
2111
2110
2109
2106
2103
2099
2095
2089
2084
2077
2071
2065
2060
2056
2053
2050
2048
2045
2043
2042
2041
2040
2039
2039
2039
2040
2041
2042
2042
2042
2041
2041
2041
2041
2042
2042
2042
2042
2042
2042
2042
2042
2042
2041
2041
2040
2040
2039
2039
2039
2038
2038
2038
2038
2038
2038
2037
2037
2037
2037
2036
2036
2036
2036
2036
2036
2037
2037
2037
2037
2037
2037
2037
2037
2037
2037
2038
2037
2037
2037
2036
2036
2037
2037
2037
2037
2037
2038
2038
2038
2038
2038
2037
2038
2038
2039
2040
2040
2040
2039
2039
2038
2038
2039
2039
2040
2041
2042
2042
2041
2041
2040
2040
2040
2040
2041
2042
2042
2042
2042
2042
2041
2041
2041
2041
2042
2043
2043
2044
2044
2043
2043
2043
2043
2043
2044
2044
2044
2044
2044
2044
2045
2046
2047
2048
2048
2048
2049
2050
2050
2050
2049
2049
2049
2050
2050
2050
2050
2051
2051
2052
2054
2054
2056
2057
2059
2061
2061
2060
2058
2054
2050
2048
2046
2045
2045
2046
2046
2046
2046
2046
2046
2046
2046
2044
2042
2037
2031
2026
2029
2047
2084
2144
2222
2298
2348
2347
2288
2183
2063
1966
1912
1902
1923
1957
1987
2008
2025
2038
2046
2050
2053
2054
2055
2057
2058
2061
2063
2064
2065
2066
2066
2066
2067
2068
2069
2070
2072
2073
2075
2076
2077
2079
2080
2082
2084
2086
2088
2090
2092
2094
2096
2098
2101
2103
2107
2109
2112
2114
2116
2117
2119
2120
2121
2122
2122
2122
2122
2121
2120
2117
2113
2108
2103
2097
2091
2085
2080
2074
2068
2063
2058
2054
2051
2049
2048
2046
2045
2044
2044
2043
2043
2043
2042
2042
2043
2044
2045
2045
2045
2045
2045
2044
2044
2044
2044
2044
2045
2045
2044
2043
2041
2040
2039
2039
2039
2039
2039
2038
2038
2037
2036
2035
2035
2035
2035
2036
2036
2036
2035
2034
2032
2032
2032
2032
2033
2033
2033
2033
2032
2033
2033
2034
2034
2034
2033
2033
2033
2034
2034
2035
2035
2034
2033
2033
2034
2036
2037
2037
2036
2035
2034
2035
2036
2037
2038
2038
2039
2039
2039
2039
2038
2038
2037
2038
2039
2040
2040
2040
2040
2039
2038
2037
2037
2038
2039
2039
2040
2041
2041
2042
2042
2042
2042
2041
2041
2040
2040
2040
2040
2041
2041
2040
2039
2039
2040
2041
2042
2042
2043
2042
2042
2042
2042
2042
2043
2043
2044
2045
2047
2049
2051
2053
2053
2050
2048
2045
2043
2041
2040
2039
2037
2035
2034
2034
2035
2036
2037
2038
2037
2035
2031
2027
2022
2025
2043
2080
2140
2219
2298
2349
2349
2290
2186
2066
1966
1906
1887
1898
1923
1950
1972
1993
2012
2026
2036
2043
2047
2048
2048
2048
2050
2052
2055
2058
2059
2061
2062
2063
2063
2064
2065
2066
2066
2067
2068
2071
2074
2078
2080
2081
2081
2082
2084
2087
2091
2095
2099
2102
2104
2107
2109
2112
2115
2118
2122
2125
2126
2128
2128
2129
2129
2129
2128
2126
2123
2118
2111
2104
2097
2089
2081
2073
2067
2061
2056
2051
2047
2042
2037
2034
2031
2029
2028
2027
2026
2026
2025
2025
2025
2025
2025
2025
2026
2027
2027
2028
2028
2028
2027
2027
2027
2026
2026
2025
2025
2025
2025
2026
2025
2025
2024
2024
2023
2023
2024
2023
2023
2022
2021
2021
2020
2021
2021
2021
2021
2021
2020
2020
2020
2020
2020
2020
2020
2020
2020
2021
2022
2023
2023
2023
2022
2023
2024
2025
2026
2027
2027
2027
2027
2027
2027
2027
2027
2028
2028
2028
2029
2029
2030
2031
2031
2030
2030
2030
2031
2032
2033
2033
2032
2031
2030
2030
2031
2033
2037
2040
2044
2045
2044
2041
2038
2035
2033
2031
2031
2031
2031
2031
2031
2031
2032
2033
2035
2035
2035
2031
2023
2014
2006
2011
2036
2084
2156
2246
2327
2370
2352
2270
2144
2014
1917
1873
1877
1908
1946
1975
1994
2011
2025
2035
2042
2046
2048
2048
2050
2053
2055
2057
2059
2059
2060
2060
2060
2061
2062
2063
2065
2067
2068
2070
2071
2073
2075
2077
2080
2082
2084
2086
2088
2091
2094
2098
2103
2107
2111
2115
2118
2120
2123
2125
2127
2128
2130
2131
2132
2131
2130
2127
2123
2118
2113
2107
2100
2092
2084
2076
2068
2060
2055
2051
2048
2045
2041
2037
2035
2034
2034
2034
2033
2032
2030
2029
2030
2032
2035
2037
2038
2038
2038
2039
2040
2041
2043
2044
2045
2046
2047
2048
2048
2048
2047
2047
2048
2048
2049
2049
2048
2048
2046
2046
2046
2046
2047
2048
2048
2048
2046
2045
2044
2044
2044
2045
2046
2046
2048
2048
2048
2048
2047
2046
2045
2044
2044
2044
2045
2047
2049
2051
2051
2051
2049
2048
2046
2045
2045
2046
2047
2047
2046
2045
2045
2045
2047
2048
2051
2054
2057
2058
2058
2057
2055
2054
2055
2057
2059
2059
2058
2055
2053
2053
2056
2060
2063
2065
2066
2068
2070
2073
2073
2071
2066
2062
2058
2055
2053
2050
2050
2051
2053
2057
2060
2063
2064
2062
2058
2053
2048
2044
2046
2061
2097
2156
2234
2317
2376
2386
2333
2229
2103
1995
1930
1913
1930
1963
1993
2013
2029
2044
2056
2066
2073
2076
2076
2076
2077
2079
2083
2086
2088
2087
2084
2083
2083
2084
2086
2088
2089
2089
2089
2090
2092
2094
2095
2097
2099
2100
2103
2105
2108
2110
2113
2116
2120
2123
2126
2129
2131
2133
2135
2138
2140
2141
2141
2140
2139
2138
2136
2133
2129
2124
2118
2112
2106
2099
2091
2082
2073
2066
2061
2058
2054
2051
2048
2045
2044
2042
2042
2041
2041
2040
2040
2040
2040
2040
2041
2042
2043
2045
2046
2046
2046
2045
2045
2044
2045
2046
2047
2047
2046
2044
2042
2041
2041
2041
2042
2041
2041
2042
2042
2043
2043
2041
2039
2038
2038
2038
2038
2039
2039
2038
2037
2037
2036
2035
2035
2035
2036
2036
2036
2036
2035
2035
2034
2034
2035
2036
2038
2040
2040
2040
2039
2038
2037
2036
2036
2036
2038
2039
2041
2042
2042
2042
2043
2043
2043
2044
2044
2045
2045
2045
2045
2044
2043
2043
2043
2043
2043
2044
2045
2045
2045
2045
2045
2046
2047
2048
2048
2048
2046
2045
2045
2046
2047
2048
2048
2047
2047
2047
2047
2047
2046
2046
2047
2047
2048
2048
2048
2049
2049
2049
2048
2048
2047
2048
2051
2055
2057
2059
2060
2061
2059
2057
2053
2050
2048
2048
2047
2047
2047
2046
2047
2047
2048
2048
2048
2049
2049
2048
2042
2033
2024
2019
2031
2062
2118
2195
2283
2354
2382
2350
2258
2133
2015
1934
1905
1918
1952
1987
2012
2028
2040
2048
2055
2058
2059
2059
2059
2059
2061
2064
2065
2066
2066
2066
2066
2068
2070
2071
2072
2074
2075
2077
2079
2081
2081
2081
2082
2082
2083
2085
2087
2089
2091
2094
2097
2101
2105
2108
2110
2111
2112
2115
2117
2118
2120
2121
2123
2124
2124
2124
2122
2119
2116
2112
2109
2104
2098
2092
2085
2080
2075
2071
2067
2063
2059
2055
2052
2049
2048
2047
2047
2047
2046
2046
2046
2047
2048
2049
2050
2050
2050
2051
2051
2051
2051
2051
2051
2051
2051
2050
2049
2049
2049
2048
2048
2048
2047
2047
2047
2047
2047
2045
2044
2043
2043
2044
2045
2045
2043
2043
2042
2042
2042
2043
2043
2043
2043
2043
2043
2042
2042
2041
2040
2040
2040
2040
2039
2039
2040
2040
2041
2041
2040
2039
2038
2038
2039
2040
2041
2042
2042
2040
2040
2039
2038
2038
2039
2040
2039
2039
2038
2037
2038
2039
2041
2042
2042
2043
2042
2042
2041
2041
2042
2042
2043
2044
2045
2046
2046
2045
2044
2042
2041
2040
2042
2044
2046
2048
2047
2046
2046
2046
2047
2048
2048
2048
2047
2046
2045
2045
2045
2046
2048
2048
2049
2049
2049
2048
2048
2048
2048
2048
2048
2048
2048
2048
2048
2048
2049
2050
2050
2050
2051
2054
2057
2061
2063
2063
2062
2059
2056
2054
2052
2050
2049
2048
2047
2046
2046
2047
2047
2047
2047
2047
2047
2047
2045
2041
2035
2029
2026
2036
2065
2117
2191
2275
2341
2365
2331
2243
2126
2016
1941
1911
1918
1946
1977
2001
2019
2035
2045
2050
2053
2054
2056
2058
2061
2063
2064
2063
2062
2062
2063
2065
2067
2068
2068
2069
2070
2072
2075
2076
2077
2077
2077
2077
2079
2082
2085
2088
2090
2092
2094
2097
2100
2103
2106
2109
2112
2114
2116
2118
2119
2120
2122
2123
2123
2123
2123
2122
2120
2117
2114
2109
2105
2099
2093
2087
2081
2075
2069
2064
2059
2055
2051
2048
2047
2046
2046
2046
2045
2044
2043
2042
2041
2041
2041
2041
2042
2043
2043
2044
2044
2044
2044
2044
2044
2043
2042
2042
2042
2043
2044
2044
2044
2043
2043
2043
2042
2041
2040
2039
2038
2038
2037
2037
2038
2039
2040
2040
2038
2037
2036
2036
2037
2037
2037
2035
2034
2034
2034
2034
2034
2033
2032
2031
2031
2032
2033
2034
2035
2036
2037
2038
2038
2038
2038
2038
2037
2037
2038
2038
2039
2039
2038
2037
2037
2038
2039
2039
2040
2039
2038
2036
2035
2034
2035
2037
2039
2040
2040
2040
2039
2038
2038
2038
2039
2038
2038
2038
2038
2039
2040
2041
2041
2041
2041
2041
2040
2040
2040
2040
2039
2040
2040
2041
2043
2044
2044
2044
2043
2042
2042
2042
2043
2042
2042
2042
2042
2043
2044
2043
2041
2041
2041
2042
2044
2045
2045
2045
2046
2046
2046
2045
2046
2047
2049
2052
2056
2058
2059
2059
2056
2052
2049
2047
2046
2045
2045
2044
2042
2041
2040
2041
2042
2043
2044
2045
2044
2041
2036
2030
2025
2021
2027
2048
2088
2150
2230
2309
2358
2356
2295
2188
2068
1969
1913
1899
1916
1946
1975
1997
2016
2031
2041
2047
2049
2051
2052
2054
2055
2056
2058
2060
2063
2065
2066
2067
2067
2066
2066
2065
2066
2067
2070
2074
2077
2079
2078
2077
2077
2079
2082
2086
2090
2092
2094
2095
2097
2099
2102
2104
2107
2111
2114
2117
2118
2120
2121
2122
2122
2122
2120
2118
2116
2114
2111
2106
2099
2092
2084
2077
2070
2065
2061
2055
2050
2046
2041
2038
2036
2033
2031
2029
2027
2026
2027
2029
2031
2033
2033
2033
2032
2032
2031
2032
2032
2033
2033
2034
2034
2034
2033
2032
2032
2033
2034
2034
2034
2032
2030
2029
2030
2030
2032
2033
2033
2033
2032
2032
2031
2030
2030
2029
2029
2029
2029
2029
2029
2028
2027
2027
2027
2028
2029
2029
2029
2028
2028
2028
2028
2029
2029
2029
2029
2029
2030
2031
2032
2033
2033
2032
2032
2033
2034
2035
2036
2036
2034
2032
2030
2030
2031
2033
2035
2035
2035
2035
2035
2035
2036
2036
2036
2036
2036
2037
2038
2038
2038
2038
2037
2038
2038
2039
2039
2039
2039
2040
2040
2040
2040
2039
2039
2039
2041
2043
2044
2044
2044
2043
2043
2043
2043
2043
2043
2045
2046
2047
2048
2047
2047
2048
2050
2054
2058
2061
2061
2058
2054
2050
2047
2045
2044
2044
2045
2045
2046
2045
2044
2043
2043
2043
2045
2045
2044
2040
2034
2028
2030
2045
2080
2140
2221
2307
2371
2387
2340
2239
2113
2001
1928
1900
1907
1932
1961
1984
2005
2024
2038
2048
2054
2057
2059
2061
2063
2066
2069
2072
2074
2075
2075
2075
2074
2074
2075
2076
2078
2080
2081
2082
2082
2083
2084
2086
2089
2093
2097
2100
2102
2105
2108
2111
2116
2120
2122
2125
2127
2129
2133
2136
2139
2140
2140
2140
2140
2139
2139
2136
2133
2129
2125
2120
2115
2109
2101
2094
2087
2080
2074
2068
2062
2057
2053
2049
2048
2046
2045
2043
2042
2041
2040
2041
2042
2044
2044
2043
2042
2041
2041
2042
2044
2044
2044
2044
2044
2044
2046
2047
2048
2048
2048
2046
2044
2043
2042
2042
2042
2043
2042
2040
2037
2035
2034
2033
2034
2034
2034
2034
2033
2033
2033
2033
2033
2033
2033
2033
2033
2033
2033
2033
2032
2032
2031
2031
2030
2030
2030
2031
2033
2035
2035
2035
2034
2032
2032
2032
2033
2033
2033
2033
2033
2034
2035
2036
2037
2037
2037
2036
2035
2035
2036
2037
2037
2037
2037
2037
2038
2039
2039
2039
2039
2038
2037
2038
2039
2040
2041
2042
2043
2043
2042
2041
2041
2043
2045
2047
2048
2048
2047
2046
2046
2046
2046
2046
2047
2048
2048
2049
2049
2048
2048
2048
2048
2049
2050
2050
2050
2049
2048
2049
2050
2054
2058
2063
2067
2068
2068
2065
2062
2058
2056
2054
2053
2052
2052
2051
2052
2053
2053
2054
2055
2055
2054
2051
2047
2040
2033
2027
2032
2054
2100
2169
2257
2341
2391
2384
2312
2193
2065
1966
1916
1912
1937
1971
1999
2018
2035
2048
2058
2063
2064
2063
2064
2066
2071
2075
2078
2078
2078
2077
2077
2078
2079
2081
2083
2084
2085
2086
2087
2089
2090
2092
2094
2096
2098
2100
2102
2104
2106
2108
2110
2113
2117
2121
2126
2130
2132
2135
2137
2140
2143
2146
2148
2149
2149
2146
2144
2141
2139
2136
2131
2125
2118
2109
2101
2095
2090
2085
2079
2072
2065
2060
2056
2055
2055
2055
2055
2053
2052
2050
2050
2050
2051
2051
2051
2051
2051
2052
2053
2053
2053
2053
2053
2054
2055
2056
2057
2056
2056
2055
2054
2053
2053
2054
2055
2056
2056
2054
2051
2049
2048
2049
2051
2052
2052
2050
2048
2046
2045
2045
2046
2047
2048
2047
2046
2045
2044
2043
2043
2043
2043
2042
2042
2042
2042
2043
2043
2042
2042
2042
2043
2043
2043
2042
2041
2041
2043
2044
2045
2044
2042
2041
2042
2045
2046
2044
2042
2039
2037
2038
2040
2041
2041
2042
2042
2042
2043
2043
2042
2041
2042
2042
2043
2043
2043
2043
2042
2041
2041
2040
2038
2038
2039
2041
2042
2043
2043
2042
2042
2042
2042
2041
2039
2038
2039
2041
2045
2047
2048
2046
2043
2040
2040
2040
2042
2044
2045
2046
2046
2047
2047
2048
2048
2048
2047
2047
2047
2047
2048
2048
2048
2047
2048
2050
2053
2054
2052
2049
2048
2049
2055
2061
2065
2064
2062
2059
2057
2055
2054
2052
2048
2047
2045
2045
2046
2048
2048
2049
2048
2047
2046
2046
2045
2044
2039
2031
2022
2019
2032
2067
2128
2211
2300
2367
2385
2340
2239
2113
2001
1930
1908
1922
1953
1985
2008
2025
2041
2050
2055
2056
2056
2056
2056
2059
2062
2065
2068
2069
2068
2066
2065
2066
2068
2071
2072
2073
2074
2075
2077
2078
2079
2079
2080
2082
2086
2090
2093
2095
2097
2098
2100
2103
2107
2110
2114
2116
2118
2120
2123
2129
2134
2138
2139
2137
2134
2132
2133
2133
2131
2125
2116
2106
2095
2085
2076
2068
2061
2055
2051
2047
2042
2037
2032
2028
2026
2026
2026
2027
2027
2026
2025
2024
2024
2025
2026
2027
2028
2029
2028
2028
2026
2026
2027
2029
2030
2031
2031
2030
2029
2028
2028
2027
2027
2027
2026
2026
2025
2024
2023
2023
2023
2021
2019
2017
2017
2017
2017
2017
2016
2015
2014
2015
2016
2017
2018
2017
2016
2014
2012
2012
2012
2013
2015
2015
2014
2014
2014
2014
2014
2013
2012
2012
2012
2012
2013
2014
2015
2015
2015
2014
2014
2014
2014
2013
2013
2012
2011
2011
2011
2011
2012
2012
2013
2012
2012
2012
2013
2012
2012
2011
2009
2009
2009
2009
2011
2012
2013
2014
2013
2013
2012
2011
2011
2011
2011
2012
2012
2011
2011
2010
2010
2009
2009
2009
2010
2011
2011
2011
2011
2011
2011
2010
2010
2010
2010
2011
2011
2011
2012
2011
2008
2007
2006
2005
2006
2008
2009
2010
2011
2012
2013
2016
2019
2020
2021
2021
2020
2017
2013
2009
2005
2002
2002
2002
2004
2005
2004
2003
2001
2001
2001
2002
2003
2002
1999
1993
1985
1978
1978
1994
2031
2091
2174
2264
2332
2351
2304
2201
2070
1953
1877
1852
1865
1898
1931
1954
1971
1986
1997
2005
2010
2013
2014
2016
2019
2022
2025
2026
2027
2027
2027
2027
2028
2028
2029
2031
2032
2034
2035
2037
2038
2041
2044
2047
2049
2051
2053
2055
2056
2059
2060
2063
2067
2072
2078
2082
2087
2090
2092
2094
2096
2098
2101
2104
2105
2105
2104
2102
2101
2098
2093
2087
2079
2071
2063
2056
2049
2044
2038
2031
2024
2018
2012
2008
2005
2004
2005
2006
2005
2004
2003
2002
2001
2001
2002
2002
2003
2005
2006
2008
2009
2009
2009
2009
2009
2009
2008
2009
2010
2011
2011
2010
2010
2010
2011
2012
2012
2012
2012
2013
2012
2011
2010
2009
2009
2011
2013
2013
2011
2008
2005
2004
2005
2007
2009
2009
2010
2010
2011
2011
2010
2010
2010
2010
2010
2011
2012
2013
2013
2014
2014
2014
2014
2014
2014
2015
2016
2016
2016
2015
2014
2014
2015
2016
2018
2019
2020
2021
2021
2021
2020
2020
2020
2020
2022
2023
2024
2025
2025
2024
2023
2023
2024
2024
2025
2025
2025
2025
2026
2026
2026
2026
2026
2027
2029
2031
2032
2032
2031
2031
2031
2031
2030
2030
2030
2030
2031
2032
2034
2035
2034
2034
2034
2035
2037
2038
2038
2038
2037
2036
2036
2036
2037
2037
2037
2037
2038
2039
2040
2041
2043
2044
2045
2047
2048
2050
2053
2056
2057
2056
2054
2051
2048
2045
2043
2042
2042
2043
2043
2043
2043
2042
2041
2040
2040
2041
2041
2042
2042
2041
2038
2034
2029
2022
2018
2022
2044
2089
2161
2253
2341
2395
2389
2316
2194
2062
1958
1901
1891
1912
1944
1972
1993
2012
2029
2041
2048
2051
2053
2054
2056
2058
2061
2063
2066
2068
2069
2069
2070
2070
2071
2073
2075
2077
2079
2082
2084
2087
2088
2090
2091
2092
2095
2097
2100
2103
2106
2110
2114
2118
2122
2126
2130
2134
2138
2142
2146
2150
2152
2153
2154
2154
2154
2153
2151
2147
2142
2135
2128
2120
2111
2101
2091
2082
2075
2068
2062
2057
2052
2048
2045
2043
2040
2038
2037
2036
2036
2037
2037
2038
2038
2038
2039
2039
2039
2039
2040
2041
2043
2043
2043
2042
2041
2041
2042
2043
2044
2045
2045
2045
2045
2044
2043
2043
2043
2044
2044
2044
2044
2042
2041
2040
2039
2039
2039
2039
2039
2038
2038
2039
2039
2039
2039
2037
2036
2036
2036
2037
2037
2038
2038
2039
2038
2038
2038
2038
2040
2041
2041
2041
2041
2040
2040
2041
2041
2041
2041
2041
2041
2042
2043
2043
2043
2043
2044
2045
2046
2047
2047
2047
2046
2047
2047
2047
2046
2046
2046
2047
2048
2048
2048
2048
2047
2047
2048
2048
2048
2047
2047
2048
2048
2048
2048
2048
2048
2048
2048
2048
2048
2048
2048
2049
2049
2050
2050
2051
2052
2052
2053
2053
2052
2052
2052
2053
2054
2055
2055
2056
2056
2057
2057
2058
2058
2058
2059
2060
2061
2061
2061
2060
2060
2060
2060
2060
2059
2059
2058
2059
2059
2060
2061
2063
2066
2070
2074
2077
2078
2076
2074
2070
2067
2064
2063
2061
2061
2061
2060
2059
2058
2056
2055
2054
2055
2056
2057
2059
2061
2061
2057
2050
2039
2028
2023
2034
2067
2128
2211
2305
2380
2409
2373
2275
2144
2021
1940
1915
1933
1973
2011
2037
2049
2058
2064
2067
2069
2070
2071
2073
2075
2076
2076
2076
2077
2078
2080
2081
2082
2083
2085
2087
2088
2089
2089
2090
2092
2094
2097
2098
2099
2100
2102
2104
2107
2111
2114
2117
2121
2126
2130
2134
2138
2142
2146
2149
2153
2155
2157
2158
2159
2159
2157
2155
2152
2149
2145
2139
2131
2121
2111
2102
2095
2089
2083
2076
2069
2064
2059
2055
2053
2050
2048
2047
2046
2046
2047
2047
2047
2047
2048
2048
2048
2048
2048
2049
2050
2051
2052
2053
2054
2054
2054
2053
2054
2054
2055
2056
2057
2057
2057
2058
2058
2058
2058
2057
2057
2057
2057
2056
2055
2055
2055
2057
2059
2060
2062
2063
2064
2065
2065
2065
2065
2065
2066
2066
2065
2065
2065
2066
2068
2069
2069
2069
2067
2066
2065
2066
2066
2066
2066
2065
2063
2063
2063
2065
2068
2071
2074
2076
2078
2081
2082
2083
2085
2087
2090
2093
2094
2094
2092
2091
2090
2091
2092
2094
2096
2097
2098
2098
2098
2096
2094
2093
2092
2092
2093
2095
2096
2095
2095
2094
2093
2092
2091
2090
2089
2089
2088
2088
2088
2088
2088
2087
2087
2086
2085
2083
2082
2081
2081
2081
2080
2080
2079
2079
2079
2079
2078
2078
2078
2078
2078
2077
2075
2074
2074
2075
2077
2077
2076
2074
2073
2073
2074
2074
2074
2073
2073
2073
2073
2074
2075
2076
2076
2077
2079
2081
2083
2084
2084
2082
2079
2076
2073
2071
2069
2068
2066
2065
2064
2063
2061
2060
2059
2059
2059
2061
2063
2064
2064
2061
2054
2047
2039
2035
2042
2067
2114
2184
2270
2347
2388
2372
2296
2180
2058
1968
1924
1923
1947
1979
2003
2019
2033
2045
2055
2063
2068
2070
2070
2069
2068
2069
2071
2073
2074
2074
2073
2073
2074
2075
2078
2081
2084
2086
2087
2087
2087
2087
2088
2089
2090
2092
2095
2098
2102
2106
2109
2112
2114
2116
2119
2123
2126
2130
2133
2136
2138
2139
2140
2139
2139
2138
2139
2138
2136
2132
2126
2119
2111
2104
2096
2090
2083
2077
2071
2065
2059
2054
2050
2047
2043
2040
2038
2036
2036
2035
2035
2036
2036
2037
2038
2038
2037
2037
2036
2036
2036
2036
2036
2036
2036
2037
2037
2037
2037
2037
2036
2036
2036
2035
2035
2034
2034
2034
2036
2038
2039
2039
2036
2033
2031
2030
2029
2029
2029
2028
2027
2026
2025
2024
2024
2025
2025
2025
2024
2022
2021
2020
2021
2022
2023
2023
2022
2021
2020
2020
2021
2022
2024
2025
2024
2023
2024
2024
2024
2024
2023
2023
2023
2025
2025
2025
2025
2024
2024
2025
2025
2026
2026
2026
2027
2027
2027
2026
2026
2027
2028
2029
2029
2029
2029
2029
2029
2029
2030
2032
2033
2034
2034
2034
2033
2032
2032
2033
2034
2034
2034
2033
2033
2034
2035
2037
2037
2036
2035
2035
2037
2038
2039
2039
2038
2037
2037
2038
2040
2041
2041
2040
2039
2038
2039
2041
2043
2047
2050
2054
2057
2059
2060
2057
2053
2048
2046
2045
2044
2044
2044
2043
2041
2040
2039
2038
2038
2038
2039
2040
2040
2042
2041
2039
2036
2030
2025
2022
2029
2051
2096
2164
2251
2334
2384
2379
2310
2193
2065
1963
1906
1893
1911
1942
1971
1994
2014
2031
2042
2048
2053
2057
2061
2063
2065
2065
2064
2065
2066
2068
2070
2072
2073
2073
2073
2074
2076
2078
2081
2083
2085
2086
2087
2088
2089
2090
2093
2097
2100
2103
2105
2107
2109
2113
2118
2123
2126
2129
2132
2135
2138
2140
2141
2141
2140
2139
2138
2137
2135
2133
2129
2126
2121
2115
2107
2099
2090
2083
2077
2072
2067
2063
2059
2056
2053
2052
2050
2050
2050
2051
2052
2052
2051
2049
2048
2047
2048
2050
2052
2054
2054
2053
2052
2052
2053
2054
2055
2056
2057
2057
2056
2054
2053
2052
2053
2054
2054
2054
2054
2053
2053
2054
2054
2054
2053
2053
2053
2052
2052
2052
2052
2052
2052
2052
2052
2053
2052
2052
2051
2051
2052
2054
2054
2055
2054
2052
2051
2051
2052
2053
2054
2055
2055
2054
2053
2052
2052
2052
2053
2055
2056
2056
2056
2055
2054
2055
2055
2056
2057
2057
2057
2057
2056
2055
2055
2054
2055
2056
2057
2057
2057
2057
2056
2056
2057
2058
2059
2059
2059
2059
2057
2056
2055
2055
2056
2058
2059
2059
2059
2059
2059
2059
2060
2060
2060
2060
2060
2060
2060
2060
2060
2060
2060
2059
2058
2057
2057
2058
2060
2062
2064
2063
2063
2062
2061
2060
2060
2060
2060
2061
2061
2060
2061
2063
2065
2067
2067
2068
2071
2075
2079
2081
2079
2074
2068
2064
2062
2062
2062
2061
2059
2058
2057
2056
2055
2054
2052
2052
2054
2057
2060
2061
2058
2052
2044
2035
2028
2033
2055
2101
2169
2255
2336
2384
2376
2306
2192
2068
1972
1924
1922
1948
1983
2011
2029
2042
2052
2059
2062
2064
2064
2065
2066
2067
2068
2069
2071
2074
2077
2078
2079
2080
2080
2080
2080
2080
2080
2081
2084
2086
2089
2091
2092
2092
2093
2095
2098
2102
2106
2109
2112
2114
2116
2118
2121
2124
2127
2131
2134
2136
2138
2139
2140
2140
2141
2140
2137
2133
2128
2123
2118
2113
2106
2099
2090
2081
2073
2068
2064
2060
2056
2051
2048
2046
2043
2042
2041
2039
2038
2038
2038
2038
2039
2040
2039
2037
2036
2035
2036
2038
2040
2041
2042
2041
2040
2039
2039
2039
2040
2040
2039
2037
2035
2033
2033
2034
2036
2037
2037
2036
2034
2033
2033
2033
2032
2032
2032
2031
2031
2030
2030
2029
2029
2029
2029
2029
2030
2031
2032
2031
2030
2029
2028
2027
2027
2027
2026
2026
2027
2029
2030
2030
2028
2026
2024
2025
2026
2027
2027
2027
2027
2027
2026
2025
2024
2023
2023
2023
2023
2025
2026
2027
2026
2025
2024
2024
2025
2026
2026
2025
2024
2023
2024
2025
2025
2024
2023
2022
2023
2024
2025
2025
2025
2024
2023
2023
2024
2024
2025
2025
2025
2023
2021
2021
2021
2023
2024
2024
2023
2022
2023
2024
2025
2026
2025
2024
2024
2023
2022
2022
2022
2023
2023
2024
2023
2023
2023
2023
2024
2024
2025
2025
2026
2028
2031
2033
2034
2035
2034
2033
2031
2027
2024
2022
2020
2020
2021
2020
2020
2019
2018
2018
2018
2018
2017
2016
2014
2011
2007
2001
1996
1998
2016
2054
2114
2196
2281
2341
2352
2299
2192
2063
1952
1885
1869
1889
1925
1958
1981
1997
2009
2017
2021
2023
2024
2025
2026
2027
2028
2030
2032
2034
2037
2038
2039
2039
2038
2039
2040
2042
2045
2047
2048
2049
2049
2050
2051
2053
2056
2059
2062
2064
2067
2069
2072
2075
2078
2082
2085
2088
2091
2093
2095
2097
2098
2099
2100
2100
2100
2100
2100
2098
2094
2088
2080
2071
2062
2054
2048
2041
2034
2028
2021
2015
2009
2005
2001
1999
1998
1998
1997
1995
1995
1995
1995
1996
1997
1998
1997
1996
1996
1997
1999
2001
2002
2002
2001
2000
2000
2000
2001
2002
2001
2001
2001
2001
2002
2002
2002
2002
2002
2002
2001
1999
1997
1995
1994
1993
1993
1993
1994
1994
1995
1997
1998
1997
1996
1995
1995
1995
1996
1998
1999
1999
1999
1998
1997
1997
1997
1998
1999
2000
2000
2000
2000
2001
2001
2002
2002
2001
2001
2002
2002
2002
2002
2001
2000
2000
2001
2003
2004
2004
2004
2004
2003
2003
2003
2003
2004
2004
2006
2007
2008
2008
2007
2006
2005
2005
2007
2008
2010
2010
2009
2007
2006
2005
2006
2008
2010
2012
2012
2011
2011
2011
2012
2013
2015
2015
2015
2015
2014
2014
2014
2015
2016
2018
2020
2023
2026
2028
2031
2032
2032
2031
2028
2024
2021
2017
2016
2015
2016
2018
2019
2019
2018
2018
2018
2020
2022
2024
2022
2017
2009
2002
1999
2010
2043
2098
2178
2271
2347
2377
2345
2251
2121
1997
1910
1872
1875
1901
1932
1957
1977
1997
2013
2024
2032
2037
2040
2043
2045
2047
2048
2048
2048
2049
2050
2052
2053
2055
2056
2058
2060
2062
2063
2063
2064
2066
2069
2073
2076
2078
2079
2079
2080
2082
2086
2091
2097
2102
2106
2109
2112
2114
2117
2120
2122
2124
2125
2126
2128
2129
2129
2130
2128
2125
2119
2112
2105
2096
2088
2080
2073
2065
2058
2052
2048
2043
2039
2036
2033
2030
2027
2025
2023
2022
2022
2022
2023
2024
2025
2027
2027
2028
2028
2028
2029
2028
2027
2026
2025
2026
2027
2028
2029
2028
2026
2025
2026
2027
2029
2030
2030
2030
2029
2029
2028
2027
2026
2026
2027
2027
2028
2028
2028
2029
2029
2028
2028
2029
2029
2029
2029
2028
2028
2027
2027
2028
2029
2030
2032
2032
2032
2031
2030
2030
2030
2030
2031
2031
2031
2031
2032
2033
2034
2034
2033
2032
2032
2033
2036
2038
2040
2039
2036
2034
2033
2034
2036
2037
2038
2037
2036
2035
2036
2037
2038
2040
2041
2042
2043
2044
2045
2045
2045
2045
2045
2046
2048
2048
2048
2048
2047
2046
2046
2048
2049
2049
2049
2048
2048
2047
2048
2048
2048
2048
2048
2047
2048
2049
2051
2051
2050
2049
2049
2051
2054
2058
2062
2064
2065
2063
2060
2058
2055
2053
2051
2050
2049
2049
2050
2050
2049
2049
2048
2048
2049
2050
2051
2048
2044
2038
2030
2026
2034
2062
2116
2192
2284
2363
2401
2378
2292
2166
2041
1950
1911
1916
1947
1982
2009
2027
2042
2053
2060
2064
2066
2067
2069
2071
2072
2073
2075
2076
2077
2078
2079
2079
2080
2082
2085
2087
2089
2089
2089
2089
2090
2092
2095
2098
2100
2101
2102
2103
2105
2108
2111
2115
2118
2122
2126
2129
2133
2137
2140
2143
2144
2145
2146
2146
2146
2145
2143
2141
2138
2134
2129
2123
2116
2109
2101
2093
2086
2080
2074
2068
2063
2058
2053
2049
2047
2046
2045
2045
2044
2043
2042
2040
2039
2039
2040
2042
2042
2041
2040
2039
2039
2039
2041
2042
2043
2044
2044
2044
2044
2044
2043
2043
2043
2042
2042
2042
2043
2043
2042
2042
2040
2040
2040
2041
2042
2042
2041
2040
2040
2040
2040
2040
2040
2040
2040
2040
2040
2039
2038
2038
2037
2038
2039
2039
2039
2039
2040
2041
2041
2041
2041
2040
2039
2039
2040
2041
2042
2042
2042
2042
2041
2040
2039
2040
2041
2042
2043
2043
2043
2042
2041
2042
2042
2043
2043
2044
2044
2045
2045
2045
2046
2046
2047
2047
2047
2046
2046
2047
2047
2047
2046
2046
2046
2046
2048
2048
2048
2048
2047
2046
2046
2046
2048
2048
2050
2050
2050
2049
2048
2048
2048
2048
2047
2047
2048
2049
2051
2052
2050
2048
2048
2048
2049
2052
2054
2054
2052
2050
2049
2050
2054
2058
2062
2064
2066
2065
2063
2060
2057
2053
2051
2050
2051
2051
2050
2049
2048
2048
2048
2049
2050
2051
2051
2050
2046
2039
2030
2024
2029
2051
2097
2166
2252
2333
2382
2375
2305
2189
2064
1967
1918
1917
1945
1981
2010
2027
2040
2048
2055
2058
2060
2060
2061
2062
2064
2066
2068
2070
2071
2071
2072
2072
2074
2075
2076
2076
2076
2077
2079
2082
2085
2086
2086
2086
2088
2091
2095
2098
2100
2101
2102
2104
2107
2111
2115
2118
2121
2124
2127
2130
2133
2136
2138
2138
2138
2137
2136
2134
2131
2128
2123
2119
2113
2107
2100
2092
2083
2076
2069
2064
2060
2056
2052
2049
2048
2047
2047
2046
2044
2042
2041
2041
2042
2043
2044
2045
2045
2044
2043
2043
2043
2044
2046
2047
2047
2046
2045
2044
2045
2045
2045
2045
2043
2042
2042
2042
2043
2043
2042
2041
2040
2040
2040
2041
2041
2041
2039
2038
2037
2037
2038
2038
2039
2039
2038
2038
2038
2038
2038
2038
2037
2037
2036
2036
2037
2037
2037
2037
2037
2038
2039
2041
2041
2040
2038
2035
2032
2032
2032
2033
2033
2033
2032
2031
2031
2031
2032
2032
2032
2031
2031
2031
2032
2032
2032
2032
2031
2030
2029
2029
2029
2030
2031
2033
2034
2034
2034
2033
2033
2033
2033
2034
2034
2034
2033
2033
2034
2035
2035
2036
2035
2034
2034
2035
2037
2039
2040
2040
2038
2036
2034
2035
2037
2040
2041
2040
2039
2037
2037
2039
2041
2043
2043
2042
2040
2038
2037
2037
2038
2040
2042
2043
2045
2045
2045
2045
2043
2041
2038
2035
2034
2033
2032
2032
2032
2032
2032
2032
2034
2035
2036
2034
2029
2022
2014
2010
2018
2047
2096
2169
2259
2339
2381
2364
2284
2161
2035
1939
1892
1889
1913
1945
1973
1993
2012
2028
2038
2044
2047
2048
2049
2051
2053
2054
2055
2056
2058
2061
2063
2063
2063
2063
2064
2066
2069
2070
2071
2071
2073
2075
2077
2079
2080
2080
2082
2086
2091
2095
2098
2100
2102
2106
2110
2115
2119
2122
2124
2126
2128
2131
2133
2134
2134
2134
2134
2133
2130
2125
2119
2112
2106
2100
2093
2085
2077
2069
2062
2056
2051
2046
2042
2038
2034
2032
2030
2029
2029
2029
2030
2031
2032
2032
2032
2031
2031
2031
2031
2031
2031
2032
2033
2034
2035
2035
2035
2035
2035
2035
2036
2036
2036
2035
2034
2033
2033
2033
2033
2033
2033
2032
2031
2030
2029
2029
2030
2032
2032
2032
2031
2030
2028
2028
2028
2030
2031
2031
2031
2030
2030
2030
2030
2031
2031
2032
2031
2031
2031
2031
2031
2032
2033
2033
2033
2032
2032
2032
2034
2035
2035
2035
2035
2034
2035
2035
2035
2035
2035
2035
2035
2035
2036
2037
2038
2038
2038
2037
2037
2037
2037
2037
2037
2037
2038
2038
2039
2039
2038
2038
2038
2038
2040
2040
2040
2040
2040
2041
2041
2042
2042
2042
2043
2043
2043
2043
2044
2045
2047
2048
2051
2053
2054
2054
2054
2052
2049
2048
2046
2043
2041
2040
2039
2040
2041
2042
2042
2041
2041
2041
2040
2037
2033
2027
2021
2021
2036
2071
2132
2218
2312
2382
2402
2354
2246
2110
1989
1911
1886
1900
1933
1967
1992
2010
2027
2040
2048
2052
2055
2056
2057
2059
2061
2063
2065
2066
2067
2067
2067
2068
2068
2069
2071
2073
2075
2076
2078
2080
2082
2084
2086
2087
2088
2090
2092
2096
2100
2104
2107
2110
2113
2116
2120
2123
2127
2131
2134
2137
2139
2140
2140
2139
2138
2137
2137
2135
2133
2127
2120
2111
2102
2094
2087
2081
2074
2066
2060
2055
2050
2047
2044
2041
2038
2036
2035
2034
2033
2033
2034
2035
2037
2037
2037
2036
2036
2036
2037
2038
2040
2041
2041
2040
2039
2039
2039
2039
2040
2040
2039
2039
2040
2040
2040
2039
2038
2037
2036
2036
2036
2036
2038
2040
2042
2042
2042
2041
2040
2040
2041
2042
2042
2041
2040
2039
2040
2041
2042
2043
2043
2043
2042
2041
2040
2040
2041
2041
2042
2042
2042
2041
2040
2040
2041
2042
2044
2045
2044
2043
2041
2040
2040
2041
2042
2043
2044
2045
2045
2044
2043
2042
2041
2041
2042
2043
2044
2043
2042
2042
2042
2043
2043
2043
2043
2043
2044
2045
2046
2045
2044
2044
2044
2044
2044
2044
2045
2045
2047
2047
2047
2047
2046
2046
2046
2047
2047
2047
2047
2047
2047
2048
2048
2049
2050
2051
2052
2053
2054
2055
2054
2053
2052
2051
2051
2052
2054
2055
2055
2054
2053
2054
2055
2056
2058
2059
2061
2063
2065
2066
2063
2059
2055
2052
2050
2050
2050
2050
2050
2049
2049
2049
2049
2049
2049
2050
2049
2046
2038
2028
2020
2021
2040
2081
2147
2231
2317
2376
2382
2326
2218
2091
1984
1922
1910
1932
1969
2001
2023
2036
2046
2050
2054
2056
2058
2059
2060
2061
2062
2064
2065
2067
2068
2069
2069
2068
2067
2068
2071
2074
2077
2078
2078
2078
2078
2080
2082
2085
2087
2089
2091
2093
2095
2097
2099
2101
2105
2109
2114
2118
2121
2124
2126
2127
2129
2130
2130
2129
2127
2126
2125
2124
2123
2121
2116
2110
2103
2096
2090
2084
2077
2070
2064
2059
2054
2051
2048
2046
2044
2043
2041
2040
2040
2040
2040
2041
2043
2043
2043
2043
2042
2042
2042
2042
2042
2042
2042
2044
2045
2046
2046
2044
2042
2041
2041
2041
2042
2042
2042
2041
2040
2039
2038
2038
2038
2038
2039
2039
2039
2038
2037
2036
2035
2035
2035
2035
2035
2035
2036
2037
2038
2038
2037
2035
2034
2033
2033
2035
2036
2037
2037
2036
2035
2035
2037
2038
2040
2040
2038
2037
2035
2035
2036
2037
2038
2038
2037
2037
2037
2038
2039
2040
2039
2038
2037
2037
2038
2039
2040
2040
2039
2038
2038
2038
2040
2040
2041
2041
2040
2040
2040
2040
2041
2041
2040
2040
2039
2039
2041
2042
2042
2042
2041
2040
2040
2041
2043
2044
2044
2044
2043
2043
2042
2042
2042
2043
2044
2045
2045
2046
2045
2045
2044
2044
2044
2044
2045
2046
2046
2046
2045
2045
2045
2045
2045
2045
2045
2045
2045
2046
2047
2047
2046
2045
2045
2045
2046
2047
2048
2048
2047
2045
2045
2046
2048
2051
2055
2057
2058
2059
2058
2056
2053
2048
2045
2043
2043
2044
2045
2044
2043
2041
2040
2039
2040
2041
2043
2044
2042
2035
2026
2016
2012
2021
2050
2101
2174
2260
2335
2372
2350
2267
2146
2025
1937
1899
1905
1935
1970
1997
2014
2027
2036
2042
2046
2048
2049
2050
2050
2050
2050
2048
2048
2046
2045
2044
2045
2046
2047
2048
2049
2049
2049
2049
2049
2050
2052
2055
2058
2061
2063
2064
2066
2068
2070
2072
2075
2079
2083
2087
2090
2093
2095
2098
2102
2105
2107
2108
2108
2108
2108
2108
2106
2103
2099
2095
2090
2084
2078
2071
2064
2057
2050
2045
2038
2032
2026
2022
2019
2018
2018
2017
2016
2014
2011
2010
2010
2012
2015
2016
2016
2015
2013
2011
2011
2012
2013
2015
2016
2016
2017
2016
2016
2015
2016
2017
2018
2018
2018
2016
2015
2014
2014
2014
2013
2012
2011
2011
2011
2012
2012
2013
2012
2012
2012
2012
2013
2014
2014
2013
2012
2011
2010
2009
2009
2010
2012
2013
2013
2013
2013
2014
2015
2016
2016
2016
2015
2015
2015
2014
2013
2013
2014
2016
2019
2020
2019
2019
2018
2019
2020
2021
2022
2021
2020
2020
2020
2020
2022
2022
2023
2024
2025
2026
2027
2027
2027
2026
2027
2027
2028
2028
2028
2028
2029
2030
2031
2031
2031
2031
2031
2032
2032
2030
2030
2029
2030
2031
2032
2032
2033
2033
2034
2035
2036
2035
2035
2034
2033
2034
2035
2036
2036
2035
2035
2035
2036
2037
2038
2038
2037
2036
2036
2037
2038
2040
2043
2045
2048
2050
2052
2053
2051
2048
2045
2041
2038
2037
2036
2037
2037
2037
2037
2036
2036
2036
2038
2040
2040
2039
2033
2026
2018
2015
2026
2058
2114
2193
2285
2359
2389
2356
2263
2135
2013
1928
1891
1894
1919
1949
1976
1996
2016
2032
2043
2048
2053
2055
2058
2059
2059
2061
2063
2065
2068
2070
2070
2071
2071
2073
2074
2074
2074
2075
2077
2079
2082
2084
2086
2088
2091
2095
2097
2100
2102
2104
2107
2111
2114
2117
2120
2123
2127
2131
2134
2136
2138
2140
2142
2143
2144
2143
2141
2138
2135
2131
2127
2121
2114
2105
2096
2088
2080
2073
2067
2061
2057
2053
2050
2048
2046
2044
2043
2043
2042
2041
2040
2039
2039
2041
2042
2041
2040
2039
2038
2039
2042
2044
2045
2045
2045
2045
2044
2044
2044
2043
2043
2043
2044
2044
2044
2045
2046
2047
2047
2046
2044
2043
2042
2043
2043
2045
2045
2045
2044
2042
2041
2041
2042
2043
2044
2044
2043
2043
2042
2042
2042
2042
2043
2043
2043
2043
2043
2043
2043
2043
2044
2045
2046
2046
2046
2045
2044
2043
2043
2043
2043
2043
2043
2044
2045
2046
2046
2046
2045
2045
2045
2045
2045
2045
2046
2046
2046
2046
2045
2046
2046
2047
2047
2048
2048
2048
2049
2049
2049
2048
2048
2048
2048
2049
2049
2048
2049
2049
2050
2051
2051
2050
2049
2050
2051
2052
2052
2052
2050
2049
2050
2052
2054
2055
2055
2054
2052
2052
2052
2052
2053
2053
2054
2055
2055
2055
2054
2053
2054
2056
2061
2066
2069
2069
2067
2064
2061
2058
2056
2054
2053
2052
2053
2053
2053
2052
2051
2051
2051
2052
2054
2056
2055
2050
2044
2036
2028
2027
2042
2077
2135
2214
2301
2367
2387
2346
2249
2123
2008
1934
1910
1927
1964
1999
2023
2037
2048
2054
2059
2062
2065
2067
2070
2072
2073
2074
2074
2074
2074
2074
2075
2077
2079
2081
2082
2082
2082
2082
2082
2083
2086
2089
2092
2094
2095
2096
2098
2100
2102
2105
2108
2111
2115
2119
2123
2127
2129
2131
2132
2134
2137
2139
2141
2141
2139
2138
2136
2135
2132
2129
2124
2118
2111
2104
2097
2090
2083
2076
2070
2065
2060
2056
2053
2051
2048
2046
2043
2041
2040
2043
2046
2049
2050
2050
2050
2048
2048
2047
2045
2043
2041
2042
2044
2048
2050
2051
2049
2048
2046
2047
2048
2050
2051
2051
2050
2050
2051
2052
2052
2052
2052
2052
2052
2051
2050
2050
2049
2049
2048
2048
2047
2046
2046
2047
2047
2048
2048
2048
2048
2048
2050
2051
2052
2052
2051
2051
2050
2049
2048
2048
2049
2051
2053
2055
2055
2053
2051
2051
2052
2055
2058
2061
2061
2059
2055
2051
2050
2051
2053
2056
2057
2057
2056
2056
2055
2055
2055
2055
2055
2055
2055
2056
2057
2056
2055
2054
2052
2052
2052
2053
2054
2054
2054
2053
2052
2053
2053
2052
2050
2048
2048
2048
2048
2048
2047
2045
2043
2042
2043
2045
2048
2048
2048
2048
2047
2047
2047
2047
2046
2045
2044
2043
2044
2045
2046
2047
2046
2046
2044
2044
2045
2048
2051
2055
2057
2057
2055
2053
2051
2048
2047
2046
2046
2048
2048
2049
2048
2046
2044
2044
2045
2047
2047
2047
2047
2045
2042
2037
2032
2028
2035
2058
2103
2168
2251
2329
2375
2369
2301
2188
2064
1965
1910
1901
1922
1953
1981
2002
2020
2036
2048
2055
2059
2061
2061
2061
2060
2061
2063
2066
2069
2072
2073
2074
2074
2074
2075
2076
2077
2078
2079
2080
2082
2084
2086
2088
2089
2091
2093
2096
2099
2102
2106
2109
2112
2115
2119
2122
2126
2129
2133
2136
2139
2140
2141
2141
2140
2140
2138
2136
2134
2131
2127
2122
2115
2106
2097
2089
2082
2076
2071
2066
2061
2057
2052
2048
2045
2042
2040
2038
2038
2038
2038
2038
2038
2037
2036
2036
2036
2037
2039
2040
2040
2040
2040
2040
2041
2042
2042
2041
2040
2039
2039
2040
2040
2041
2041
2040
2039
2039
2039
2039
2039
2038
2038
2037
2038
2039
2040
2040
2040
2038
2037
2036
2035
2035
2035
2035
2036
2036
2037
2038
2038
2037
2036
2036
2037
2038
2038
2037
2036
2036
2036
2038
2040
2041
2040
2040
2039
2039
2041
2042
2044
2044
2044
2044
2043
2042
2042
2043
2043
2044
2044
2044
2044
2043
2044
2044
2045
2046
2047
2048
2048
2048
2047
2046
2045
2044
2044
2045
2046
2046
2047
2047
2047
2047
2048
2048
2049
2050
2051
2052
2053
2054
2055
2055
2056
2056
2058
2060
2063
2065
2066
2067
2067
2065
2062
2058
2055
2052
2052
2052
2052
2052
2051
2049
2049
2049
2049
2051
2052
2052
2050
2047
2041
2034
2031
2038
2063
2111
2181
2267
2343
2382
2365
2286
2168
2045
1953
1908
1907
1933
1965
1992
2011
2027
2041
2051
2058
2062
2065
2066
2067
2068
2070
2071
2072
2073
2073
2075
2076
2077
2078
2079
2079
2080
2080
2081
2082
2083
2085
2086
2088
2091
2093
2095
2098
2100
2103
2106
2109
2112
2115
2117
2120
2123
2126
2128
2129
2130
2131
2132
2132
2133
2132
2130
2127
2123
2117
2112
2105
2098
2091
2083
2075
2068
2061
2054
2048
2044
2040
2036
2033
2031
2028
2026
2024
2023
2022
2022
2022
2023
2023
2023
2023
2022
2022
2021
2021
2020
2020
2020
2020
2020
2019
2019
2017
2016
2015
2014
2014
2014
2013
2013
2012
2011
2009
2008
2007
2006
2005
2005
2005
2004
2003
2002
2001
2000
1999
1999
1998
1998
1998
1997
1996
1996
1995
1994
1994
1993
1993
1993
1993
1993
1993
1992
1992
1991
1991
1991
1991
1991
1992
1992
1991
1991
1990
1990
1990
1990
1990
1990
1990
1989
1989
1989
1988
1988
1988
1988
1988
1989
1990
1990
1991
1991
1990
1989
1989
1989
1989
1989
1988
1988
1987
1987
1987
1987
1987
1988
1988
1989
1989
1989
1988
1988
1987
1987
1988
1989
1990
1991
1991
1990
1989
1988
1988
1988
1989
1989
1990
1990
1990
1990
1990
1990
1990
1991
1991
1992
1992
1992
1992
1992
1993
1994
1995
1995
1995
1996
1998
2001
2004
2007
2008
2007
2006
2004
2001
1999
1998
1997
1996
1997
1997
1997
1996
1996
1996
1996
1997
1998
2000
2000
1998
1993
1985
1977
1973
1980
2007
2055
2125
2209
2285
2325
2309
2235
2120
2001
1911
1869
1871
1899
1934
1961
1978
1992
2002
2010
2014
2018
2020
2022
2023
2025
2027
2029
2031
2033
2034
2036
2037
2038
2040
2041
2042
2043
2045
2047
2049
2052
2055
2058
2060
2062
2065
2068
2071
2074
2077
2080
2083
2085
2088
2091
2093
2095
2098
2100
2104
2107
2109
2111
2112
2112
2112
2110
2109
2106
2103
2099
2094
2088
2081
2072
2064
2056
2049
2044
2039
2034
2030
2026
2023
2020
2018
2017
2016
2017
2017
2018
2018
2018
2018
2017
2017
2017
2017
2017
2017
2017
2017
2017
2016
2016
2015
2015
2015
2015
2015
2015
2016
2015
2014
2013
2012
2010
2009
2008
2007
2006
2005
2005
2006
2006
2006
2006
2006
2006
2006
2006
2007
2007
2007
2006
2004
2004
2004
2004
2005
2006
2006
2006
2005
2005
2004
2004
2005
2006
2007
2008
2008
2008
2007
2006
2006
2006
2007
2008
2009
2010
2011
2012
2011
2010
2009
2009
2009
2009
2010
2010
2010
2011
2011
2011
2011
2011
2012
2014
2016
2015
2014
2013
2011
2009
2008
2008
2009
2010
2012
2013
2013
2013
2012
2012
2012
2013
2014
2015
2016
2017
2017
2018
2018
2019
2020
2021
2022
2021
2021
2020
2020
2019
2019
2019
2019
2019
2019
2019
2020
2021
2021
2022
2022
2023
2023
2023
2023
2024
2024
2025
2025
2025
2025
2025
2025
2026
2026
2027
2029
2031
2033
2035
2038
2040
2042
2045
2047
2048
2048
2046
2043
2040
2038
2037
2036
2035
2034
2033
2033
2034
2034
2034
2033
2033
2033
2034
2036
2037
2036
2034
2029
2022
2015
2014
2026
2057
2110
2183
2265
2330
2353
2320
2232
2115
2005
1931
1905
1916
1948
1982
2007
2023
2035
2042
2046
2048
2048
2049
2051
2053
2054
2056
2057
2058
2058
2059
2060
2060
2061
2062
2063
2065
2066
2068
2069
2069
2070
2072
2074
2076
2079
2081
2082
2084
2086
2089
2092
2097
2101
2105
2109
2112
2115
2117
2119
2122
2125
2128
2130
2131
2131
2131
2130
2128
2126
2123
2119
2113
2107
2100
2094
2087
2080
2074
2067
2062
2056
2051
2048
2047
2046
2045
2043
2042
2041
2039
2039
2039
2040
2041
2043
2044
2045
2045
2044
2044
2043
2042
2043
2043
2044
2045
2046
2047
2047
2047
2047
2046
2046
2045
2045
2045
2045
2045
2044
2043
2042
2040
2039
2039
2039
2040
2041
2042
2042
2042
2041
2041
2040
2041
2043
2044
2045
2045
2044
2043
2042
2043
2043
2044
2044
2043
2041
2041
2042
2043
2044
2045
2045
2045
2045
2045
2046
2047
2047
2047
2047
2047
2047
2047
2048
2048
2049
2048
2048
2048
2049
2049
2051
2051
2051
2052
2052
2053
2053
2052
2052
2051
2051
2052
2053
2053
2052
2052
2051
2051
2052
2054
2055
2055
2054
2053
2052
2052
2051
2051
2051
2052
2055
2057
2058
2057
2055
2053
2053
2054
2057
2061
2064
2067
2069
2071
2072
2072
2070
2066
2063
2060
2058
2058
2058
2058
2058
2057
2056
2054
2051
2050
2049
2050
2051
2053
2055
2056
2054
2050
2046
2042
2039
2044
2062
2101
2160
2240
2321
2374
2377
2319
2214
2092
1989
1927
1907
1917
1943
1970
1992
2012
2032
2046
2055
2062
2066
2068
2069
2070
2071
2072
2074
2076
2078
2080
2081
2082
2083
2084
2085
2087
2088
2089
2089
2090
2091
2092
2094
2097
2101
2104
2107
2109
2111
2113
2114
2117
2119
2122
2126
2131
2135
2139
2142
2144
2145
2146
2147
2147
2148
2147
2146
2144
2141
2136
2130
2123
2114
2107
2099
2092
2086
2079
2072
2066
2060
2056
2052
2049
2048
2046
2045
2044
2044
2044
2043
2042
2042
2042
2043
2045
2046
2047
2047
2046
2045
2043
2042
2042
2042
2042
2043
2043
2044
2045
2045
2045
2045
2045
2045
2044
2044
2044
2044
2044
2043
2043
2042
2040
2040
2039
2040
2042
2044
2046
2047
2046
2043
2041
2038
2038
2038
2039
2040
2041
2041
2042
2042
2042
2042
2042
2042
2043
2044
2044
2045
2046
2047
2047
2048
2047
2048
2048
2048
2049
2050
2050
2049
2049
2049
2050
2051
2051
2051
2050
2049
2048
2048
2048
2049
2049
2049
2049
2049
2050
2051
2051
2051
2051
2050
2050
2050
2051
2052
2052
2052
2052
2051
2052
2052
2053
2053
2054
2054
2054
2053
2052
2053
2054
2057
2060
2063
2065
2066
2065
2063
2061
2057
2054
2052
2051
2051
2051
2051
2050
2049
2049
2049
2049
2050
2052
2052
2050
2046
2038
2029
2024
2031
2057
2108
2182
2272
2353
2395
2378
2297
2171
2042
1945
1900
1903
1934
1971
2001
2019
2033
2045
2051
2056
2059
2061
2062
2063
2064
2065
2066
2068
2069
2071
2072
2072
2073
2073
2075
2076
2078
2079
2081
2083
2084
2086
2089
2091
2093
2095
2097
2099
2101
2104
2107
2110
2113
2117
2121
2125
2128
2131
2134
2136
2138
2139
2141
2141
2141
2141
2139
2137
2134
2129
2123
2116
2109
2101
2093
2084
2076
2069
2062
2056
2051
2048
2045
2042
2040
2038
2036
2034
2032
2031
2031
2030
2031
2032
2032
2033
2033
2033
2032
2033
2033
2033
2034
2034
2035
2035
2034
2034
2033
2033
2033
2033
2034
2034
2034
2034
2033
2033
2032
2032
2032
2032
2032
2032
2032
2032
2031
2030
2029
2029
2029
2029
2029
2029
2029
2029
2029
2030
2030
2030
2030
2030
2030
2030
2031
2031
2032
2032
2032
2032
2032
2032
2032
2033
2033
2034
2034
2033
2033
2032
2033
2033
2034
2034
2035
2034
2034
2033
2033
2033
2034
2035
2036
2036
2036
2035
2035
2034
2034
2034
2034
2035
2035
2036
2035
2035
2034
2034
2034
2034
2034
2034
2035
2036
2037
2037
2038
2037
2037
2037
2036
2036
2036
2037
2037
2038
2038
2038
2037
2037
2037
2037
2037
2038
2038
2039
2039
2039
2037
2037
2037
2039
2043
2046
2048
2049
2049
2048
2046
2044
2041
2039
2038
2038
2037
2036
2034
2033
2032
2032
2032
2033
2035
2036
2036
2033
2027
2020
2012
2009
2019
2048
2099
2172
2257
2328
2360
2334
2251
2132
2015
1932
1896
1902
1932
1966
1991
2006
2019
2028
2034
2037
2039
2040
2042
2043
2045
2046
2047
2047
2047
2047
2049
2052
2056
2059
2060
2060
2059
2058
2058
2059
2060
2063
2065
2069
2071
2072
2073
2072
2072
2071
2072
2074
2078
2082
2086
2089
2091
2094
2096
2098
2100
2102
2103
2104
2105
2104
2102
2100
2096
2092
2088
2083
2078
2072
2065
2059
2052
2046
2040
2034
2030
2030
2032
2035
2036
2033
2027
2019
2013
2011
2013
2017
2021
2024
2025
2025
2025
2025
2025
2026
2027
2028
2029
2030
2030
2030
2029
2029
2029
2029
2029
2029
2028
2028
2027
2026
2025
2025
2025
2025
2024
2023
2023
2023
2024
2025
2027
2027
2028
2028
2030
2031
2032
2033
2033
2033
2033
2034
2035
2035
2036
2037
2038
2039
2039
2039
2038
2037
2036
2037
2038
2040
2041
2041
2041
2041
2041
2039
2039
2038
2038
2039
2040
2040
2038
2036
2035
2034
2034
2035
2035
2035
2034
2034
2034
2034
2035
2035
2035
2034
2034
2033
2032
2031
2031
2031
2031
2031
2030
2030
2031
2031
2032
2033
2032
2029
2027
2026
2026
2026
2028
2029
2030
2030
2030
2029
2029
2028
2029
2029
2029
2029
2030
2030
2029
2028
2027
2027
2027
2028
2030
2032
2032
2032
2032
2033
2034
2037
2039
2041
2043
2042
2041
2038
2034
2031
2027
2026
2025
2025
2025
2025
2024
2023
2023
2023
2025
2026
2027
2025
2021
2016
2010
2005
2007
2024
2060
2119
2197
2277
2332
2341
2293
2196
2079
1978
1914
1893
1904
1930
1957
1977
1993
2008
2019
2027
2032
2035
2037
2039
2040
2041
2043
2044
2044
2045
2046
2047
2048
2048
2048
2048
2050
2051
2053
2054
2055
2056
2058
2060
2063
2066
2068
2070
2071
2073
2076
2078
2081
2084
2087
2090
2093
2096
2099
2102
2105
2106
2107
2108
2107
2107
2107
2106
2104
2103
2099
2095
2089
2083
2076
2068
2061
2054
2048
2045
2040
2036
2032
2026
2022
2019
2016
2015
2015
2014
2014
2014
2014
2013
2014
2014
2014
2015
2015
2015
2015
2015
2015
2015
2015
2015
2017
2017
2017
2016
2014
2013
2012
2013
2015
2016
2016
2015
2014
2013
2012
2012
2011
2011
2011
2011
2011
2011
2011
2010
2009
2009
2009
2010
2010
2010
2010
2009
2008
2008
2008
2008
2009
2009
2010
2010
2009
2009
2009
2010
2010
2010
2010
2009
2009
2009
2010
2011
2011
2012
2011
2011
2011
2011
2011
2012
2012
2013
2013
2014
2013
2013
2012
2012
2013
2014
2015
2016
2016
2016
2015
2014
2014
2015
2015
2016
2017
2018
2019
2020
2019
2019
2020
2020
2022
2023
2024
2024
2023
2022
2020
2018
2019
2021
2026
2031
2034
2036
2037
2036
2034
2031
2029
2026
2025
2024
2024
2023
2021
2020
2020
2020
2020
2021
2022
2023
2024
2022
2019
2013
2006
2002
2008
2031
2076
2145
2232
2312
2357
2345
2272
2155
2031
1934
1885
1878
1899
1930
1957
1977
1995
2011
2022
2029
2034
2036
2038
2039
2040
2041
2041
2042
2043
2045
2046
2048
2048
2049
2050
2051
2053
2054
2056
2057
2058
2059
2060
2062
2065
2068
2072
2074
2077
2079
2083
2087
2093
2098
2102
2105
2107
2109
2111
2114
2117
2120
2123
2124
2124
2123
2121
2119
2116
2113
2109
2103
2096
2089
2081
2073
2066
2059
2052
2048
2043
2040
2036
2033
2030
2028
2025
2024
2023
2023
2023
2024
2025
2026
2027
2027
2027
2027
2027
2027
2028
2030
2031
2033
2033
2033
2033
2033
2033
2033
2033
2033
2034
2034
2035
2035
2034
2034
2033
2033
2033
2033
2033
2032
2032
2031
2031
2031
2031
2031
2032
2032
2033
2033
2032
2031
2029
2028
2028
2029
2030
2031
2031
2031
2030
2030
2030
2031
2032
2033
2033
2034
2034
2034
2032
2031
2030
2030
2031
2032
2033
2034
2035
2036
2036
2036
2034
2033
2033
2033
2035
2037
2038
2037
2036
2036
2036
2036
2038
2039
2040
2041
2040
2040
2038
2038
2038
2039
2039
2039
2039
2039
2041
2043
2044
2044
2043
2041
2040
2040
2042
2043
2044
2044
2043
2042
2042
2044
2047
2050
2053
2054
2055
2054
2053
2051
2048
2046
2043
2041
2041
2041
2041
2040
2039
2038
2038
2039
2041
2043
2043
2041
2036
2029
2021
2017
2024
2048
2096
2167
2254
2335
2382
2372
2299
2181
2055
1959
1912
1911
1939
1976
2006
2025
2039
2048
2052
2056
2058
2061
2064
2066
2068
2068
2068
2068
2069
2071
2073
2074
2075
2076
2076
2077
2078
2079
2081
2083
2084
2086
2087
2089
2091
2094
2097
2100
2103
2106
2110
2113
2117
2120
2124
2127
2130
2133
2135
2136
2138
2140
2141
2143
2144
2144
2143
2141
2137
2132
2127
2122
2117
2110
2104
2096
2088
2081
2074
2068
2063
2060
2058
2057
2055
2053
2051
2050
2049
2050
2050
2050
2050
2049
2049
2050
2051
2051
2052
2051
2051
2052
2053
2053
2054
2055
2055
2055
2054
2053
2052
2051
2050
2049
2049
2049
2050
2051
2051
2051
2050
2049
2048
2048
2049
2050
2051
2051
2050
2049
2048
2048
2048
2049
2050
2050
2049
2049
2048
2048
2048
2048
2048
2049
2049
2050
2049
2049
2048
2049
2049
2050
2050
2050
2049
2049
2049
2050
2051
2052
2052
2052
2052
2051
2051
2051
2052
2052
2052
2051
2051
2051
2050
2051
2051
2052
2053
2053
2053
2052
2051
2050
2051
2053
2054
2055
2055
2055
2054
2054
2054
2054
2054
2054
2054
2054
2054
2054
2054
2054
2054
2054
2054
2055
2055
2055
2055
2055
2056
2056
2057
2057
2057
2057
2056
2056
2056
2055
2055
2055
2056
2056
2057
2057
2058
2057
2057
2057
2058
2060
2063
2066
2068
2069
2069
2067
2064
2061
2057
2055
2055
2055
2055
2054
2053
2052
2052
2052
2052
2053
2053
2053
2051
2048
2044
2037
2031
2031
2046
2081
2139
2217
2300
2361
2374
2328
2229
2108
2003
1938
1921
1938
1972
2003
2023
2037
2048
2054
2059
2062
2063
2063
2064
2065
2066
2068
2070
2071
2072
2072
2072
2072
2073
2075
2076
2078
2079
2080
2081
2083
2084
2086
2087
2089
2091
2093
2095
2097
2098
2100
2103
2106
2110
2115
2119
2122
2124
2125
2126
2128
2130
2131
2133
2135
2135
2135
2134
2131
2128
2123
2118
2113
2107
2100
2094
2088
2082
2075
2068
2062
2057
2053
2050
2048
2048
2048
2048
2048
2047
2045
2043
2042
2043
2044
2046
2047
2047
2047
2046
2046
2046
2046
2047
2047
2047
2046
2046
2046
2046
2046
2045
2044
2043
2043
2043
2043
2042
2040
2039
2038
2039
2040
2040
2040
2040
2039
2039
2039
2039
2038
2038
2038
2038
2038
2038
2037
2036
2036
2036
2036
2036
2037
2037
2038
2039
2039
2039
2039
2038
2037
2037
2038
2039
2041
2042
2042
2041
2039
2037
2037
2037
2038
2038
2039
2039
2039
2039
2039
2038
2038
2037
2037
2038
2039
2040
2042
2042
2041
2040
2039
2038
2038
2039
2040
2041
2041
2042
2042
2042
2042
2042
2042
2042
2043
2044
2045
2045
2045
2044
2044
2043
2043
2043
2044
2044
2044
2044
2044
2045
2046
2047
2047
2047
2046
2045
2045
2044
2043
2042
2042
2041
2041
2041
2042
2042
2042
2042
2042
2043
2043
2043
2043
2044
2044
2045
2045
2044
2043
2043
2044
2047
2049
2051
2053
2054
2054
2053
2051
2048
2045
2043
2042
2041
2040
2039
2038
2037
2037
2038
2038
2039
2041
2042
2041
2037
2031
2024
2020
2028
2053
2101
2171
2256
2333
2373
2355
2277
2158
2035
1942
1898
1896
1922
1954
1982
2001
2019
2033
2043
2049
2053
2055
2056
2057
2059
2060
2062
2063
2064
2065
2066
2067
2068
2069
2071
2071
2072
2074
2075
2077
2079
2080
2083
2085
2088
2091
2093
2094
2096
2098
2100
2104
2108
2112
2116
2120
2123
2126
2129
2131
2133
2135
2138
2139
2140
2139
2137
2134
2131
2127
2123
2117
2111
2104
2097
2089
2081
2074
2067
2061
2055
2050
2047
2045
2043
2040
2039
2037
2035
2034
2033
2033
2033
2033
2034
2035
2035
2035
2036
2036
2036
2037
2037
2039
2039
2039
2039
2039
2038
2038
2038
2037
2037
2038
2038
2039
2039
2038
2037
2036
2036
2035
2036
2037
2037
2037
2036
2035
2033
2033
2032
2033
2034
2035
2035
2035
2034
2033
2032
2032
2033
2033
2034
2034
2035
2036
2036
2036
2035
2034
2034
2034
2035
2035
2036
2036
2036
2037
2037
2037
2037
2037
2037
2037
2037
2038
2039
2040
2039
2039
2038
2037
2038
2039
2040
2041
2041
2041
2040
2040
2040
2041
2042
2042
2043
2043
2043
2043
2042
2042
2041
2041
2041
2042
2042
2043
2043
2043
2043
2043
2043
2043
2044
2044
2045
2045
2045
2045
2045
2045
2046
2047
2048
2048
2048
2048
2050
2052
2054
2056
2058
2058
2058
2057
2054
2051
2048
2046
2044
2044
2044
2043
2043
2043
2044
2044
2045
2045
2045
2044
2041
2036
2031
2025
2023
2032
2057
2107
2178
2265
2341
2379
2359
2278
2156
2033
1942
1900
1900
1926
1957
1983
2001
2018
2033
2044
2051
2054
2055
2056
2057
2058
2060
2061
2063
2064
2065
2067
2068
2069
2069
2069
2071
2074
2076
2078
2079
2080
2081
2083
2085
2087
2090
2091
2093
2095
2098
2101
2104
2107
2111
2115
2118
2122
2125
2129
2132
2134
2135
2135
2135
2135
2135
2135
2133
2130
2125
2119
2112
2104
2097
2089
2082
2075
2069
2063
2057
2052
2047
2042
2038
2035
2035
2035
2035
2035
2034
2032
2030
2029
2029
2030
2032
2033
2033
2033
2032
2033
2033
2034
2035
2036
2036
2036
2036
2036
2035
2035
2034
2034
2034
2034
2034
2034
2034
2033
2033
2033
2033
2032
2032
2031
2031
2031
2031
2031
2031
2031
2031
2030
2030
2029
2028
2027
2027
2028
2028
2029
2030
2030
2029
2029
2028
2028
2029
2029
2029
2028
2028
2027
2027
2027
2027
2028
2028
2028
2028
2029
2029
2030
2030
2030
2030
2030
2030
2030
2030
2031
2030
2029
2029
2028
2028
2028
2029
2030
2030
2030
2030
2029
2029
2028
2028
2028
2029
2029
2030
2030
2030
2030
2029
2029
2028
2028
2029
2029
2030
2029
2029
2028
2028
2028
2029
2030
2030
2031
2031
2032
2032
2031
2030
2029
2028
2028
2028
2028
2028
2028
2027
2027
2027
2027
2028
2029
2029
2029
2028
2027
2027
2029
2032
2036
2039
2041
2042
2041
2039
2035
2032
2028
2026
2026
2026
2027
2026
2025
2023
2021
2019
2020
2021
2022
2023
2021
2016
2010
2004
2003
2014
2045
2099
2177
2268
2341
2369
2335
2239
2109
1986
1902
1869
1877
1906
1937
1961
1977
1994
2008
2018
2025
2029
2031
2032
2033
2034
2036
2038
2040
2042
2043
2044
2044
2044
2045
2046
2047
2048
2048
2048
2049
2049
2050
2052
2054
2057
2060
2062
2063
2064
2065
2069
2073
2078
2082
2086
2090
2093
2097
2100
2104
2106
2108
2109
2110
2111
2111
2110
2109
2106
2101
2095
2088
2080
2070
2061
2053
2045
2038
2031
2024
2018
2013
2010
2007
2005
2003
2001
1999
1998
1997
1997
1997
1997
1998
1999
2000
2001
2002
2001
1999
1998
1997
1998
1999
2001
2003
2004
2004
2004
2003
2002
2002
2002
2003
2004
2005
2005
2005
2004
2002
2000
1999
1998
1998
1999
2000
2001
2002
2002
2001
1999
1998
1998
1999
2001
2003
2004
2004
2003
2001
2001
2002
2002
2002
2001
2000
1998
1997
1996
1996
1997
2000
2004
2008
2010
2010
2009
2007
2006
2006
2007
2007
2007
2006
2007
2007
2008
2008
2009
2009
2009
2009
2009
2008
2008
2009
2011
2013
2015
2016
2016
2014
2014
2014
2015
2016
2016
2015
2015
2014
2015
2015
2016
2016
2016
2016
2015
2016
2017
2018
2019
2020
2020
2020
2021
2022
2023
2024
2025
2025
2025
2024
2024
2024
2026
2027
2028
2028
2029
2029
2030
2030
2032
2035
2039
2044
2048
2051
2051
2048
2046
2044
2044
2045
2047
2048
2047
2045
2043
2041
2041
2041
2042
2043
2045
2046
2047
2047
2047
2045
2039
2030
2020
2012
2017
2041
2090
2162
2252
2339
2394
2391
2324
2205
2073
1969
1916
1914
1945
1985
2016
2034
2046
2055
2061
2064
2066
2067
2067
2069
2070
2071
2072
2073
2074
2075
2076
2077
2077
2079
2080
2082
2083
2085
2087
2089
2090
2091
2091
2092
2095
2098
2101
2104
2107
2110
2112
2115
2118
2122
2126
2130
2135
2139
2143
2146
2148
2149
2150
2150
2150
2150
2149
2147
2144
2139
2133
2125
2116
2106
2097
2089
2082
2076
2070
2064
2058
2053
2049
2047
2044
2042
2040
2039
2039
2040
2040
2040
2040
2039
2038
2038
2039
2041
2043
2044
2044
2043
2042
2042
2043
2044
2045
2045
2045
2044
2044
2044
2043
2042
2042
2042
2042
2043
2043
2043
2043
2042
2041
2041
2040
2039
2038
2037
2037
2037
2037
2037
2036
2035
2035
2035
2036
2036
2036
2036
2036
2036
2035
2034
2033
2033
2033
2033
2034
2035
2035
2034
2034
2033
2033
2033
2034
2034
2034
2034
2034
2034
2034
2034
2034
2034
2035
2036
2037
2038
2037
2037
2037
2037
2036
2036
2035
2035
2034
2034
2035
2035
2035
2035
2034
2034
2036
2038
2040
2041
2040
2039
2038
2038
2039
2042
2044
2046
2048
2048
2048
2048
2047
2048
2048
2050
2052
2054
2056
2058
2059
2060
2061
2062
2064
2064
2065
2065
2065
2065
2066
2067
2068
2070
2072
2074
2077
2079
2082
2085
2086
2086
2084
2080
2077
2074
2073
2072
2071
2070
2069
2068
2068
2067
2065
2063
2061
2060
2060
2061
2062
2062
2060
2055
2048
2038
2029
2029
2047
2090
2158
2247
2338
2399
2403
2341
2224
2091
1982
1924
1919
1949
1989
2022
2040
2050
2058
2062
2065
2066
2066
2067
2068
2069
2070
2071
2072
2073
2073
2074
2074
2075
2076
2076
2077
2078
2080
2081
2083
2084
2085
2087
2088
2089
2091
2092
2095
2098
2101
2105
2108
2111
2112
2114
2116
2119
2123
2126
2130
2132
2135
2136
2137
2137
2137
2136
2135
2133
2130
2125
2119
2112
2104
2096
2088
2080
2073
2065
2059
2053
2048
2046
2042
2039
2037
2035
2034
2034
2034
2033
2032
2032
2032
2032
2034
2035
2036
2036
2036
2036
2036
2036
2036
2035
2035
2035
2036
2036
2035
2035
2034
2034
2034
2034
2034
2034
2034
2034
2034
2034
2033
2033
2033
2032
2032
2032
2032
2032
2033
2032
2032
2031
2031
2031
2031
2031
2032
2033
2033
2033
2032
2032
2033
2033
2034
2035
2035
2035
2035
2035
2035
2035
2036
2036
2035
2035
2035
2036
2036
2036
2035
2035
2035
2034
2035
2035
2035
2036
2036
2037
2037
2037
2037
2036
2036
2037
2038
2039
2040
2041
2040
2039
2037
2037
2037
2037
2037
2037
2036
2036
2036
2036
2036
2036
2036
2036
2036
2036
2036
2036
2036
2036
2036
2036
2036
2037
2038
2039
2040
2040
2039
2037
2036
2035
2036
2036
2036
2037
2037
2039
2041
2043
2045
2047
2048
2050
2051
2051
2049
2047
2044
2041
2039
2038
2037
2036
2035
2035
2035
2035
2034
2034
2033
2033
2033
2035
2036
2036
2033
2027
2020
2012
2010
2023
2056
2113
2193
2282
2353
2378
2340
2242
2114
1994
1915
1885
1896
1926
1958
1981
1998
2014
2027
2035
2041
2044
2044
2044
2045
2046
2048
2050
2052
2053
2054
2054
2055
2056
2057
2058
2059
2059
2060
2061
2063
2065
2067
2070
2072
2074
2075
2077
2079
2082
2084
2087
2091
2095
2099
2104
2108
2112
2115
2117
2119
2120
2122
2124
2125
2126
2125
2124
2121
2119
2115
2109
2103
2095
2087
2079
2071
2063
2056
2050
2045
2040
2036
2032
2029
2026
2025
2024
2022
2021
2021
2021
2021
2022
2023
2024
2024
2024
2024
2025
2026
2026
2026
2027
2027
2027
2028
2028
2029
2029
2028
2028
2027
2028
2028
2029
2029
2028
2027
2027
2027
2027
2028
2028
2028
2028
2027
2027
2028
2028
2028
2028
2029
2029
2029
2029
2029
2029
2029
2029
2030
2031
2032
2032
2032
2032
2032
2033
2033
2034
2034
2034
2035
2035
2036
2037
2037
2037
2036
2036
2036
2036
2037
2038
2039
2039
2039
2039
2038
2038
2038
2038
2039
2040
2041
2041
2041
2041
2041
2040
2040
2041
2042
2042
2043
2044
2044
2044
2044
2044
2044
2045
2046
2047
2048
2048
2048
2048
2048
2048
2048
2048
2049
2050
2051
2051
2051
2051
2051
2051
2051
2051
2051
2051
2052
2052
2052
2052
2052
2052
2052
2052
2052
2053
2054
2054
2054
2054
2055
2057
2059
2062
2065
2067
2070
2071
2071
2069
2065
2061
2058
2056
2056
2056
2055
2054
2053
2052
2051
2051
2050
2050
2051
2052
2053
2054
2055
2053
2048
2042
2033
2026
2028
2048
2090
2156
2241
2326
2381
2382
2320
2207
2080
1976
1920
1911
1935
1970
2000
2019
2034
2047
2055
2060
2063
2065
2066
2066
2067
2069
2070
2071
2072
2073
2075
2075
2076
2077
2078
2079
2080
2081
2083
2084
2085
2087
2088
2090
2092
2094
2096
2097
2100
2102
2105
2108
2112
2115
2118
2122
2125
2128
2131
2134
2136
2138
2139
2140
2140
2139
2138
2137
2135
2132
2128
2122
2115
2107
2098
2090
2083
2076
2071
2065
2060
2056
2052
2049
2047
2044
2043
2042
2042
2042
2043
2043
2043
2044
2043
2043
2043
2043
2044
2045
2047
2048
2048
2047
2047
2046
2046
2046
2047
2048
2048
2048
2048
2048
2047
2046
2046
2046
2046
2047
2047
2047
2046
2045
2045
2044
2044
2044
2044
2044
2044
2044
2044
2044
2043
2043
2042
2042
2043
2043
2043
2043
2044
2044
2043
2043
2042
2042
2042
2043
2044
2044
2044
2043
2043
2043
2044
2044
2045
2045
2045
2045
2045
2045
2044
2044
2045
2045
2045
2046
2046
2046
2046
2047
2046
2046
2047
2047
2047
2047
2048
2048
2048
2048
2048
2048
2047
2047
2048
2048
2050
2050
2050
2049
2048
2048
2048
2048
2049
2049
2050
2050
2050
2049
2048
2048
2048
2049
2051
2053
2054
2055
2054
2052
2051
2049
2049
2050
2051
2052
2053
2053
2052
2052
2051
2051
2051
2052
2052
2052
2052
2051
2051
2051
2051
2051
2051
2052
2054
2058
2061
2063
2065
2066
2067
2069
2069
2067
2065
2062
2059
2058
2056
2055
2054
2053
2052
2051
2051
2050
2050
2050
2051
2052
2054
2055
2056
2053
2049
2043
2034
2026
2025
2042
2079
2141
2224
2311
2372
2383
2332
2227
2101
1993
1930
1917
1938
1974
2006
2026
2040
2049
2056
2060
2062
2063
2064
2066
2068
2070
2071
2071
2070
2070
2070
2072
2074
2075
2077
2078
2080
2081
2083
2084
2085
2086
2087
2089
2092
2095
2097
2100
2102
2104
2106
2108
2111
2114
2118
2122
2126
2129
2132
2134
2136
2138
2140
2142
2143
2143
2142
2141
2140
2137
2133
2128
2121
2114
2106
2099
2092
2085
2078
2072
2067
2062
2059
2056
2053
2050
2048
2048
2047
2047
2047
2046
2046
2046
2046
2047
2047
2048
2048
2049
2049
2049
2049
2049
2050
2051
2051
2051
2051
2050
2049
2049
2048
2048
2048
2048
2048
2048
2048
2048
2047
2046
2044
2043
2043
2044
2045
2045
2044
2043
2042
2041
2040
2040
2041
2042
2042
2043
2043
2042
2042
2042
2042
2042
2042
2042
2042
2043
2043
2043
2043
2043
2042
2042
2041
2041
2041
2042
2042
2042
2043
2043
2043
2042
2042
2041
2041
2042
2043
2043
2043
2043
2042
2042
2043
2043
2044
2044
2043
2042
2042
2041
2041
2042
2043
2044
2044
2045
2045
2044
2044
2043
2043
2043
2043
2043
2043
2042
2042
2041
2040
2040
2039
2039
2039
2040
2041
2043
2043
2043
2042
2041
2040
2040
2041
2042
2043
2043
2044
2043
2043
2043
2043
2042
2042
2043
2045
2048
2050
2052
2054
2056
2058
2059
2058
2056
2053
2051
2049
2048
2047
2045
2043
2042
2042
2041
2041
2041
2040
2038
2036
2035
2035
2037
2038
2037
2033
2027
2019
2015
2023
2050
2102
2178
2269
2347
2383
2358
2270
2145
2022
1933
1893
1895
1922
1954
1981
2000
2017
2030
2039
2046
2048
2051
2053
2055
2056
2057
2057
2059
2060
2062
2064
2065
2065
2066
2067
2068
2069
2070
2071
2072
2074
2075
2077
2078
2081
2083
2086
2089
2091
2094
2096
2099
2102
2105
2108
2112
2116
2120
2123
2125
2127
2129
2131
2133
2135
2135
2135
2134
2131
2127
2122
2115
2107
2099
2091
2083
2075
2069
2062
2056
2050
2046
2043
2039
2037
2035
2034
2033
2032
2031
2030
2030
2031
2031
2032
2032
2031
2031
2030
2031
2032
2033
2035
2035
2035
2035
2035
2035
2034
2034
2034
2034
2034
2035
2036
2036
2035
2033
2032
2032
2032
2033
2034
2033
2033
2032
2031
2032
2031
2031
2031
2031
2031
2031
2032
2032
2032
2031
2030
2029
2029
2029
2030
2031
2033
2033
2033
2033
2032
2031
2031
2030
2031
2031
2031
2032
2031
2032
2032
2032
2033
2033
2033
2033
2033
2034
2034
2033
2033
2032
2032
2033
2033
2033
2033
2033
2033
2034
2034
2034
2033
2033
2033
2034
2034
2034
2034
2034
2033
2033
2034
2034
2034
2035
2035
2035
2036
2035
2035
2034
2033
2033
2033
2034
2035
2036
2038
2038
2039
2039
2039
2040
2042
2046
2049
2053
2054
2054
2051
2048
2046
2044
2042
2042
2041
2040
2040
2039
2038
2037
2037
2038
2040
2041
2042
2042
2041
2039
2034
2028
2021
2017
2025
2050
2101
2175
2265
2346
2387
2367
2284
2160
2034
1940
1896
1895
1921
1954
1981
2000
2018
2032
2043
2048
2052
2054
2055
2056
2057
2059
2060
2061
2062
2064
2065
2066
2066
2067
2068
2069
2070
2072
2074
2075
2077
2078
2080
2081
2083
2085
2086
2088
2091
2094
2098
2103
2107
2110
2113
2116
2119
2122
2125
2128
2130
2132
2133
2133
2133
2132
2131
2130
2128
2124
2119
2112
2104
2095
2086
2078
2071
2063
2057
2051
2047
2043
2040
2037
2034
2032
2031
2030
2030
2031
2031
2031
2032
2032
2032
2032
2032
2032
2033
2034
2035
2036
2036
2036
2036
2035
2034
2034
2034
2034
2035
2035
2035
2034
2033
2033
2032
2032
2032
2032
2033
2033
2032
2032
2031
2031
2031
2031
2031
2031
2031
2031
2030
2030
2030
2029
2029
2029
2030
2030
2030
2030
2030
2030
2029
2029
2030
2030
2030
2031
2031
2031
2031
2031
2031
2031
2031
2031
2031
2031
2032
2032
2033
2033
2032
2032
2032
2032
2032
2033
2035
2035
2036
2035
2035
2034
2034
2033
2034
2035
2035
2036
2036
2036
2035
2034
2034
2035
2036
2036
2037
2037
2037
2037
2036
2036
2036
2037
2038
2038
2039
2039
2039
2039
2039
2040
2041
2042
2042
2041
2040
2040
2041
2042
2044
2046
2048
2049
2052
2054
2054
2053
2050
2047
2043
2041
2040
2040
2040
2041
2041
2042
2042
2042
2042
2042
2043
2041
2038
2032
2024
2016
2015
2031
2067
2130
2214
2304
2369
2383
2333
2227
2098
1986
1918
1902
1924
1962
1996
2018
2031
2042
2048
2052
2056
2058
2059
2060
2061
2062
2064
2064
2065
2066
2067
2068
2069
2070
2072
2074
2075
2076
2078
2078
2080
2082
2084
2086
2089
2091
2094
2096
2098
2101
2103
2107
2111
2114
2118
2122
2125
2128
2132
2135
2138
2140
2143
2144
2145
2146
2145
2143
2140
2135
2129
2122
2113
2104
2095
2085
2077
2069
2062
2056
2051
2047
2043
2039
2037
2035
2035
2034
2034
2034
2034
2034
2034
2035
2036
2036
2037
2037
2037
2038
2038
2039
2040
2040
2041
2041
2041
2042
2041
2042
2042
2042
2041
2039
2038
2037
2038
2038
2038
2038
2036
2035
2034
2034
2034
2034
2034
2033
2032
2032
2032
2033
2034
2035
2035
2035
2035
2035
2034
2033
2033
2033
2033
2034
2034
2034
2034
2033
2033
2033
2033
2033
2034
2035
2037
2038
2038
2038
2037
2036
2035
2036
2037
2038
2038
2038
2037
2037
2038
2039
2039
2040
2041
2041
2042
2043
2043
2042
2042
2042
2041
2041
2041
2041
2042
2042
2044
2044
2044
2044
2044
2044
2046
2047
2048
2048
2048
2047
2047
2047
2048
2048
2050
2051
2054
2057
2059
2059
2057
2052
2048
2046
2045
2045
2046
2047
2047
2048
2047
2047
2048
2048
2049
2048
2047
2041
2034
2027
2025
2039
2073
2133
2216
2309
2381
2403
2360
2257
2124
2003
1924
1894
1904
1934
1965
1990
2010
2029
2043
2053
2059
2062
2064
2066
2068
2070
2073
2074
2075
2075
2075
2076
2077
2078
2081
2083
2085
2086
2086
2087
2088
2090
2093
2096
2099
2101
2104
2107
2110
2114
2118
2122
2126
2129
2133
2136
2139
2143
2147
2151
2153
2156
2158
2160
2161
2161
2161
2161
2159
2158
2153
2146
2135
2121
2107
2095
2086
2080
2074
2068
2062
2057
2053
2051
2051
2051
2051
2050
2049
2049
2049
2049
2050
2051
2051
2052
2052
2053
2054
2055
2055
2055
2055
2055
2055
2057
2059
2061
2062
2062
2062
2060
2060
2060
2060
2061
2062
2063
2064
2064
2064
2062
2061
2060
2061
2063
2064
2064
2061
2059
2056
2054
2053
2053
2053
2054
2054
2055
2055
2055
2054
2054
2054
2053
2054
2055
2056
2056
2055
2054
2053
2052
2052
2052
2053
2054
2056
2058
2060
2059
2056
2053
2052
2055
2059
2061
2060
2057
2053
2051
2052
2054
2056
2057
2056
2055
2055
2055
2055
2056
2056
2057
2057
2058
2060
2061
2063
2065
2066
2066
2065
2063
2061
2061
2063
2066
2071
2075
2077
2077
2075
2074
2073
2073
2074
2076
2077
2077
2077
2076
2073
