2032
2028
2033
2041
2046
2047
2045
2043
2043
2047
2050
2054
2053
2050
2047
2044
2045
2047
2048
2048
2047
2047
2047
2048
2048
2048
2048
2048
2049
2049
2050
2051
2049
2051
2053
2052
2050
2048
2047
2048
2053
2060
2065
2065
2061
2057
2054
2053
2055
2056
2057
2058
2058
2058
2058
2057
2057
2057
2056
2055
2053
2053
2051
2051
2051
2050
2049
2046
2042
2041
2041
2046
2049
2052
2051
2048
2046
2043
2044
2043
2042
2044
2043
2045
2046
2045
2044
2043
2042
2043
2044
2046
2047
2047
2046
2047
2048
2048
2047
2041
2039
2038
2042
2048
2054
2056
2054
2048
2044
2041
2044
2044
2047
2046
2045
2044
2043
2044
2045
2047
2048
2048
2046
2045
2044
2043
2044
2046
2046
2045
2042
2040
2040
2043
2048
2051
2052
2049
2047
2043
2042
2043
2044
2045
2044
2044
2044
2045
2046
2046
2047
2047
2046
2045
2044
2043
2043
2043
2045
2046
2045
2044
2040
2039
2040
2045
2049
2051
2051
2048
2048
2049
2054
2062
2070
2077
2079
2075
2065
2050
2039
2031
2030
2035
2042
2048
2050
2050
2049
2047
2045
2045
2044
2043
2043
2044
2045
2047
2049
2050
2049
2048
2048
2047
2047
2048
2048
2049
2049
2049
2050
2051
2051
2051
2052
2052
2052
2053
2053
2054
2054
2055
2056
2056
2055
2053
2053
2055
2059
2062
2064
2063
2061
2058
2056
2057
2058
2058
2057
2057
2056
2055
2054
2053
2052
2051
2050
2048
2048
2048
2047
2046
2048
2048
2047
2044
2042
2042
2044
2045
2046
2046
2046
2047
2049
2050
2051
2048
2045
2042
2044
2045
2047
2047
2047
2046
2046
2046
2046
2047
2047
2048
2047
2048
2048
2047
2046
2044
2042
2043
2046
2048
2051
2051
2049
2047
2044
2045
2045
2046
2047
2046
2046
2046
2046
2046
2046
2045
2045
2045
2046
2046
2046
2046
2045
2047
2046
2046
2043
2041
2039
2041
2046
2049
2051
2050
2048
2045
2041
2043
2043
2046
2046
2047
2047
2047
2048
2048
2047
2047
2047
2047
2046
2045
2045
2045
2047
2046
2046
2043
2041
2040
2042
2046
2049
2050
2048
2047
2048
2050
2058
2067
2075
2080
2080
2072
2059
2045
2034
2030
2034
2041
2047
2049
2049
2048
2046
2048
2048
2048
2047
2045
2044
2045
2048
2052
2054
2054
2051
2048
2047
2048
2048
2049
2050
2049
2049
2049
2050
2050
2051
2052
2053
2053
2054
2054
2054
2053
2054
2055
2056
2056
2055
2054
2055
2057
2060
2062
2062
2059
2058
2056
2057
2058
2058
2058
2057
2056
2055
2054
2053
2052
2050
2049
2048
2048
2047
2046
2045
2046
2045
2045
2043
2042
2041
2042
2045
2047
2048
2047
2045
2043
2042
2043
2043
2044
2043
2043
2043
2044
2044
2044
2044
2044
2044
2044
2044
2044
2044
2044
2045
2045
2043
2043
2042
2041
2042
2044
2047
2048
2048
2046
2044
2043
2041
2043
2042
2042
2042
2042
2042
2042
2042
2042
2042
2042
2042
2041
2041
2041
2042
2041
2043
2043
2042
2040
2038
2037
2039
2042
2046
2048
2047
2044
2041
2039
2040
2040
2041
2042
2043
2043
2044
2044
2043
2042
2042
2041
2040
2040
2040
2040
2040
2041
2041
2041
2039
2037
2036
2038
2041
2044
2047
2049
2052
2057
2066
2075
2080
2078
2068
2052
2037
2026
2023
2027
2034
2039
2042
2043
2042
2042
2042
2042
2042
2045
2044
2042
2039
2037
2038
2042
2047
2050
2049
2047
2044
2042
2041
2045
2045
2046
2046
2046
2046
2047
2048
2048
2048
2048
2048
2049
2050
2050
2051
2050
2053
2052
2052
2051
2050
2050
2052
2056
2058
2059
2058
2055
2054
2051
2053
2052
2052
2052
2051
2048
2048
2046
2043
2041
2040
2040
2041
2042
2043
2042
2038
2039
2039
2039
2037
2034
2032
2033
2038
2043
2047
2046
2042
2038
2034
2037
2038
2040
2040
2040
2039
2039
2039
2040
2040
2041
2041
2041
2041
2041
2041
2040
2040
2042
2041
2041
2040
2039
2039
2041
2043
2045
2044
2043
2041
2040
2040
2041
2041
2041
2040
2040
2040
2040
2040
2040
2041
2041
2041
2041
2040
2040
2040
2041
2041
2042
2042
2042
2041
2042
2043
2045
2046
2045
2044
2042
2041
2041
2041
2042
2041
2041
2041
2042
2042
2042
2042
2042
2041
2042
2045
2050
2057
2068
2077
2084
2082
2073
2057
2040
2028
2024
2029
2037
2044
2047
2047
2046
2044
2045
2044
2045
2045
2046
2046
2047
2047
2047
2047
2047
2047
2047
2047
2047
2048
2048
2049
2049
2050
2048
2048
2047
2047
2049
2053
2056
2057
2056
2054
2051
2052
2052
2053
2054
2055
2056
2057
2057
2057
2057
2058
2058
2058
2058
2058
2058
2057
2059
2058
2057
2054
2050
2048
2047
2048
2051
2052
2051
2048
2044
2042
2042
2043
2043
2043
2043
2043
2042
2043
2043
2042
2042
2042
2042
2043
2043
2044
2043
2044
2046
2045
2043
2040
2038
2040
2045
2050
2053
2051
2048
2044
2042
2042
2045
2045
2046
2045
2045
2046
2046
2046
2046
2045
2045
2045
2046
2046
2046
2045
2044
2046
2045
2045
2043
2042
2042
2044
2047
2049
2049
2048
2046
2044
2042
2044
2044
2045
2045
2045
2045
2045
2045
2044
2044
2044
2044
2046
2047
2048
2048
2047
2048
2046
2044
2043
2040
2039
2040
2045
2049
2052
2051
2048
2045
2041
2043
2043
2043
2046
2048
2051
2054
2059
2067
2077
2084
2084
2073
2055
2039
2028
2026
2033
2043
2047
2048
2046
2044
2045
2048
2050
2052
2051
2048
2047
2045
2046
2048
2048
2048
2048
2048
2048
2048
2049
2049
2049
2049
2049
2049
2049
2050
2050
2052
2052
2052
2052
2051
2051
2051
2053
2056
2058
2058
2058
2057
2056
2057
2057
2058
2058
2058
2058
2058
2058
2058
2059
2058
2058
2057
2055
2053
2052
2051
2049
2049
2048
2047
2045
2044
2044
2045
2047
2048
2048
2047
2045
2045
2043
2045
2044
2045
2044
2044
2045
2045
2046
2046
2045
2045
2045
2045
2045
2045
2045
2045
2047
2047
2048
2046
2044
2042
2043
2045
2048
2051
2051
2049
2048
2044
2045
2045
2046
2046
2046
2046
2046
2046
2046
2045
2045
2045
2045
2045
2045
2045
2044
2045
2046
2046
2044
2042
2041
2041
2044
2048
2049
2049
2048
2045
2043
2043
2044
2044
2044
2044
2045
2045
2046
2046
2047
2047
2047
2046
2046
2046
2046
2045
2045
2047
2045
2043
2040
2038
2039
2043
2048
2051
2050
2047
2044
2044
2045
2051
2056
2064
2071
2078
2081
2076
2066
2050
2037
2030
2031
2037
2044
2048
2048
2047
2048
2047
2047
2046
2044
2044
2045
2048
2050
2052
2051
2049
2048
2045
2048
2048
2048
2049
2049
2049
2049
2050
2050
2051
2051
2050
2050
2050
2051
2053
2054
2057
2056
2055
2052
2050
2049
2052
2057
2062
2064
2064
2061
2058
2055
2058
2058
2059
2059
2058
2058
2057
2056
2055
2054
2053
2052
2051
2050
2049
2048
2047
2047
2048
2048
2047
2045
2043
2043
2045
2048
2049
2048
2047
2045
2044
2044
2045
2046
2046
2046
2046
2046
2046
2046
2046
2046
2047
2047
2047
2047
2047
2046
2048
2047
2047
2045
2043
2043
2044
2047
2050
2051
2050
2048
2046
2044
2046
2045
2046
2045
2045
2045
2046
2046
2046
2045
2045
2045
2045
2045
2045
2045
2045
2046
2046
2045
2044
2043
2042
2043
2045
2048
2048
2048
2047
2045
2044
2043
2045
2045
2046
2047
2047
2047
2047
2047
2047
2046
2046
2045
2044
2044
2044
2044
2044
2046
2046
2046
2044
2042
2040
2041
2045
2049
2054
2059
2062
2067
2072
2078
2079
2072
2059
2045
2034
2029
2032
2038
2044
2048
2048
2047
2046
2046
2047
2047
2048
2048
2048
2046
2045
2044
2046
2049
2053
2055
2055
2052
2049
2048
2048
2049
2050
2050
2050
2051
2052
2052
2052
2053
2053
2053
2053
2054
2054
2055
2056
2056
2059
2059
2057
2054
2052
2054
2058
2064
2067
2067
2063
2059
2058
2056
2059
2058
2058
2056
2054
2053
2051
2050
2049
2048
2048
2048
2048
2047
2047
2046
2046
2047
2045
2046
2044
2043
2043
2044
2047
2048
2048
2048
2046
2044
2043
2045
2045
2046
2046
2046
2046
2046
2046
2046
2046
2047
2046
2046
2045
2045
2046
2045
2048
2048
2048
2044
2040
2039
2040
2047
2051
2053
2051
2048
2045
2042
2044
2044
2045
2045
2044
2044
2044
2044
2044
2045
2045
2044
2044
2044
2044
2044
2044
2044
2045
2045
2044
2042
2040
2041
2043
2046
2048
2047
2045
2043
2041
2042
2043
2043
2044
2044
2045
2045
2045
2045
2044
2044
2043
2043
2042
2042
2042
2042
2043
2043
2043
2042
2041
2040
2041
2042
2045
2048
2050
2054
2060
2067
2075
2079
2077
2067
2053
2039
2029
2027
2031
2038
2044
2046
2046
2045
2044
2044
2044
2044
2046
2045
2045
2044
2043
2043
2044
2046
2048
2048
2048
2047
2046
2045
2047
2046
2047
2047
2047
2048
2048
2048
2048
2049
2049
2049
2049
2050
2051
2051
2051
2053
2053
2054
2053
2051
2050
2051
2054
2058
2061
2060
2058
2056
2053
2054
2053
2053
2052
2050
2049
2048
2047
2046
2044
2043
2042
2042
2041
2041
2041
2039
2041
2041
2041
2038
2037
2035
2036
2036
2037
2039
2041
2042
2044
2043
2042
2039
2037
2036
2037
2038
2039
2039
2039
2038
2038
2039
2039
2039
2039
2039
2039
2039
2041
2040
2039
2036
2034
2034
2037
2042
2044
2044
2042
2040
2038
2036
2038
2038
2039
2039
2039
2039
2038
2038
2037
2037
2038
2038
2039
2039
2039
2038
2038
2038
2038
2037
2036
2035
2036
2039
2044
2047
2047
2045
2041
2038
2036
2037
2037
2038
2038
2038
2037
2037
2037
2037
2037
2037
2038
2038
2037
2036
2035
2036
2043
2050
2059
2068
2075
2078
2076
2067
2053
2039
2027
2022
2024
2029
2037
2040
2040
2040
2040
2039
2039
2040
2041
2041
2042
2042
2042
2042
2042
2042
2042
2044
2045
2043
2042
2039
2039
2041
2046
2050
2052
2051
2048
2047
2045
2046
2048
2048
2049
2049
2050
2051
2051
2052
2052
2053
2054
2054
2055
2055
2055
2055
2056
2056
2057
2056
2055
2054
2053
2052
2053
2054
2053
2051
2048
2046
2044
2043
2043
2043
2042
2042
2041
2041
2041
2041
2042
2042
2041
2041
2041
2042
2042
2042
2043
2043
2042
2040
2039
2039
2041
2044
2047
2048
2047
2045
2044
2042
2043
2043
2044
2044
2044
2044
2045
2045
2045
2046
2046
2045
2045
2044
2044
2045
2044
2046
2046
2045
2043
2041
2041
2043
2046
2048
2048
2047
2045
2044
2042
2045
2045
2044
2044
2044
2045
2045
2045
2044
2044
2044
2045
2046
2046
2047
2047
2047
2047
2048
2047
2045
2042
2040
2040
2042
2047
2049
2049
2048
2045
2043
2042
2043
2043
2043
2044
2047
2050
2057
2064
2072
2079
2082
2078
2068
2053
2039
2031
2029
2036
2042
2046
2046
2042
2040
2042
2047
2051
2054
2053
2050
2048
2045
2048
2047
2049
2049
2048
2048
2048
2048
2049
2049
2049
2049
2050
2051
2051
2052
2052
2055
2054
2054
2052
2050
2050
2052
2057
2062
2063
2062
2059
2057
2055
2058
2059
2060
2060
2060
2060
2060
2060
2060
2060
2060
2060
2058
2058
2056
2054
2050
2050
2049
2049
2048
2046
2044
2044
2046
2049
2051
2051
2048
2045
2042
2044
2045
2045
2045
2045
2045
2045
2045
2045
2045
2046
2046
2047
2047
2046
2046
2045
2046
2047
2047
2047
2045
2044
2044
2047
2049
2051
2051
2048
2047
2045
2046
2047
2047
2047
2046
2046
2046
2046
2046
2047
2047
2047
2047
2047
2046
2046
2046
2047
2046
2046
2046
2044
2044
2044
2046
2048
2049
2050
2049
2048
2046
2045
2045
2045
2045
2045
2045
2046
2047
2048
2048
2048
2048
2048
2047
2046
2046
2045
2046
2046
2046
2044
2042
2040
2041
2044
2048
2051
2051
2048
2046
2046
2048
2054
2061
2069
2076
2080
2078
2070
2056
2043
2033
2030
2034
2040
2046
2048
2048
2047
2048
2048
2047
2045
2044
2045
2048
2051
2054
2054
2052
2049
2048
2047
2048
2048
2049
2049
2049
2050
2050
2051
2051
2051
2051
2051
2051
2052
2052
2053
2053
2055
2057
2055
2055
2051
2048
2048
2054
2062
2068
2069
2065
2060
2055
2055
2058
2058
2060
2059
2058
2057
2056
2055
2053
2052
2051
2050
2049
2048
2048
2047
2046
2048
2046
2044
2041
2039
2040
2044
2049
2052
2051
2048
2045
2043
2042
2045
2045
2046
2046
2046
2046
2046
2046
2045
2045
2046
2046
2047
2047
2047
2047
2046
2047
2047
2046
2045
2045
2045
2046
2048
2048
2048
2048
2046
2045
2045
2045
2046
2046
2045
2045
2045
2044
2044
2044
2045
2045
2045
2045
2045
2045
2045
2043
2045
2044
2044
2042
2041
2042
2043
2046
2048
2048
2046
2043
2044
2043
2045
2046
2047
2047
2046
2046
2045
2045
2045
2044
2044
2044
2044
2044
2043
2043
2042
2044
2044
2044
2043
2042
2042
2044
2048
2055
2062
2070
2076
2079
2076
2067
2054
2041
2032
2028
2029
2034
2039
2045
2049
2052
2052
2050
2047
2045
2044
2045
2047
2047
2048
2048
2047
2046
2046
2047
2048
2050
2051
2050
2049
2048
2048
2048
2049
2049
2049
2050
2050
2051
2051
2052
2052
2053
2053
2053
2054
2055
2055
2056
2057
2057
2057
2056
2054
2054
2056
2059
2062
2063
2061
2059
2056
2054
2053
2053
2053
2051
2049
2047
2044
2044
2045
2046
2046
2047
2046
2046
2046
2045
2044
2044
2044
2043
2041
2040
2038
2040
2044
2049
2051
2050
2048
2044
2041
2043
2044
2045
2045
2044
2045
2045
2046
2045
2045
2045
2045
2045
2045
2045
2045
2044
2045
2047
2047
2045
2040
2037
2037
2043
2050
2055
2055
2050
2045
2042
2040
2043
2043
2044
2044
2044
2044
2043
2043
2043
2044
2044
2045
2045
2045
2044
2043
2043
2046
2044
2043
2038
2035
2036
2041
2049
2056
2057
2053
2048
2043
2041
2044
2043
2044
2043
2043
2043
2043
2043
2042
2042
2042
2043
2044
2044
2044
2043
2043
2046
2048
2053
2057
2062
2069
2076
2080
2075
2061
2045
2030
2024
2028
2037
2045
2048
2047
2045
2043
2043
2044
2044
2045
2045
2046
2045
2046
2047
2048
2048
2048
2046
2044
2043
2042
2042
2046
2049
2054
2055
2054
2051
2048
2047
2048
2049
2050
2050
2050
2050
2050
2051
2052
2053
2054
2054
2054
2054
2054
2054
2053
2054
2056
2057
2057
2055
2052
2051
2052
2056
2058
2059
2055
2050
2046
2044
2043
2044
2043
2043
2041
2040
2040
2040
2041
2041
2041
2040
2039
2040
2040
2040
2040
2040
2038
2037
2037
2036
2038
2040
2043
2044
2043
2041
2039
2038
2037
2039
2039
2040
2041
2041
2040
2039
2039
2039
2041
2040
2040
2039
2038
2039
2038
2039
2040
2041
2041
2038
2036
2034
2036
2040
2044
2046
2044
2041
2038
2037
2038
2040
2040
2038
2036
2035
2036
2037
2040
2042
2040
2039
2038
2039
2039
2041
2040
2041
2040
2039
2037
2033
2032
2033
2037
2041
2044
2043
2040
2037
2034
2035
2036
2037
2036
2037
2040
2044
2051
2060
2072
2080
2081
2074
2059
2042
2028
2019
2022
2028
2035
2039
2036
2033
2033
2037
2043
2048
2051
2048
2044
2039
2037
2038
2039
2042
2042
2042
2042
2042
2041
2041
2042
2042
2043
2043
2044
2044
2045
2045
2048
2048
2047
2044
2041
2041
2046
2052
2057
2060
2057
2053
2048
2047
2048
2049
2052
2054
2056
2056
2056
2055
2052
2052
2052
2053
2053
2050
2048
2047
2043
2045
2043
2044
2039
2033
2029
2031
2039
2048
2054
2052
2044
2036
2028
2030
2031
2035
2036
2035
2035
2036
2036
2036
2037
2036
2037
2037
2037
2037
2037
2037
2038
2039
2039
2037
2035
2035
2037
2041
2044
2045
2044
2041
2038
2036
2038
2039
2039
2039
2039
2039
2039
2038
2038
2038
2038
2039
2039
2039
2039
2038
2038
2039
2039
2038
2038
2037
2037
2039
2042
2044
2044
2043
2041
2039
2038
2038
2039
2038
2038
2038
2038
2038
2038
2039
2039
2040
2039
2039
2038
2038
2040
2046
2053
2063
2074
2083
2084
2076
2061
2045
2032
2027
2028
2033
2039
2041
2042
2041
2041
2042
2041
2042
2043
2043
2044
2044
2044
2044
2044
2044
2045
2045
2046
2045
2048
2047
2046
2044
2043
2044
2047
2049
2052
2052
2050
2048
2048
2048
2050
2050
2050
2051
2052
2053
2054
2055
2055
2055
2055
2056
2056
2057
2058
2058
2057
2058
2058
2057
2056
2054
2052
2051
2052
2052
2052
2050
2048
2046
2043
2043
2043
2042
2042
2042
2042
2042
2042
2042
2042
2042
2042
2041
2041
2041
2042
2042
2044
2044
2043
2042
2038
2036
2037
2042
2048
2052
2053
2049
2046
2041
2042
2044
2045
2046
2046
2046
2046
2046
2046
2045
2045
2044
2044
2045
2045
2045
2046
2047
2046
2044
2042
2041
2042
2046
2048
2050
2048
2046
2043
2041
2041
2043
2044
2044
2046
2047
2047
2047
2047
2046
2045
2044
2044
2044
2044
2044
2044
2044
2044
2045
2043
2043
2041
2039
2040
2042
2047
2051
2056
2061
2066
2073
2078
2082
2076
2064
2048
2036
2029
2030
2035
2041
2045
2047
2047
2047
2047
2047
2046
2045
2047
2048
2047
2047
2043
2041
2042
2046
2051
2055
2055
2053
2049
2046
2047
2048
2048
2049
2049
2049
2050
2050
2050
2051
2051
2052
2052
2053
2053
2053
2053
2055
2056
2057
2056
2054
2053
2053
2056
2060
2063
2063
2060
2058
2056
2055
2055
2054
2053
2051
2049
2048
2047
2046
2045
2044
2044
2043
2043
2043
2042
2042
2042
2042
2043
2041
2039
2037
2037
2040
2045
2048
2048
2046
2044
2042
2041
2042
2043
2042
2042
2042
2043
2043
2043
2044
2044
2044
2044
2044
2044
2044
2044
2044
2045
2044
2044
2043
2042
2042
2043
2044
2045
2046
2044
2043
2042
2041
2042
2042
2042
2042
2042
2042
2042
2042
2042
2043
2043
2042
2042
2042
2042
2042
2042
2044
2044
2044
2043
2042
2042
2043
2045
2046
2046
2044
2042
2041
2040
2042
2042
2042
2041
2042
2042
2043
2042
2042
2042
2042
2045
2048
2054
2061
2070
2076
2079
2076
2064
2048
2032
2023
2024
2033
2045
2052
2054
2050
2046
2043
2042
2043
2044
2045
2045
2046
2046
2046
2046
2045
2046
2046
2046
2047
2047
2047
2047
2048
2048
2048
2047
2045
2044
2045
2048
2054
2056
2055
2052
2050
2048
2049
2051
2052
2053
2053
2054
2054
2055
2055
2055
2055
2056
2056
2057
2057
2057
2057
2055
2057
2054
2051
2048
2045
2043
2043
2046
2048
2049
2048
2045
2042
2038
2040
2039
2039
2041
2041
2040
2040
2039
2039
2039
2040
2040
2040
2040
2040
2040
2039
2042
2041
2041
2038
2036
2035
2037
2042
2046
2047
2046
2043
2040
2038
2039
2040
2039
2040
2040
2039
2039
2039
2039
2039
2039
2039
2039
2039
2039
2039
2038
2040
2040
2039
2037
2033
2031
2032
2036
2040
2043
2042
2040
2037
2034
2035
2035
2035
2035
2035
2035
2035
2036
2037
2037
2037
2037
2037
2036
2035
2035
2034
2034
2034
2034
2034
2032
2031
2031
2032
2034
2036
2037
2036
2033
2031
2031
2034
2040
2047
2055
2064
2071
2072
2065
2052
2036
2023
2016
2018
2023
2030
2033
2034
2034
2034
2032
2031
2029
2029
2031
2033
2036
2037
2036
2034
2032
2031
2032
2033
2033
2033
2032
2033
2033
2034
2034
2034
2034
2034
2034
2035
2036
2037
2036
2038
2037
2037
2036
2036
2036
2039
2042
2045
2046
2045
2044
2043
2042
2044
2044
2044
2043
2043
2043
2043
2042
2041
2039
2038
2036
2034
2032
2031
2030
2029
2030
2029
2027
2027
2022
2019
2019
2022
2028
2034
2035
2033
2028
2024
2022
2023
2023
2026
2025
2024
2024
2024
2024
2024
2024
2023
2024
2024
2024
2024
2024
2025
2025
2024
2024
2022
2021
2021
2024
2027
2029
2029
2028
2026
2024
2024
2024
2024
2025
2025
2026
2026
2025
2025
2024
2024
2025
2025
2026
2026
2026
2027
2027
2029
2027
2026
2024
2022
2023
2024
2027
2029
2030
2029
2026
2025
2022
2025
2025
2026
2026
2026
2026
2027
2031
2037
2045
2055
2065
2070
2069
2058
2042
2023
2013
2010
2013
2016
2021
2022
2023
2028
2032
2035
2035
2033
2030
2028
2028
2029
2029
2028
2029
2030
2030
2031
2031
2031
2032
2032
2032
2032
2033
2033
2033
2035
2036
2036
2036
2034
2033
2034
2038
2042
2045
2045
2043
2041
2040
2042
2044
2044
2045
2045
2046
2046
2047
2048
2048
2048
2048
2047
2046
2044
2043
2041
2039
2038
2036
2034
2031
2029
2028
2030
2032
2034
2035
2034
2032
2029
2029
2030
2031
2030
2027
2025
2025
2028
2032
2036
2037
2034
2030
2027
2027
2028
2030
2031
2032
2032
2033
2032
2031
2031
2032
2034
2035
2037
2037
2036
2034
2033
2033
2032
2033
2033
2034
2034
2034
2035
2034
2034
2034
2033
2033
2033
2034
2034
2033
2033
2032
2033
2033
2033
2032
2033
2035
2038
2040
2040
2038
2035
2032
2031
2030
2031
2032
2032
2032
2033
2033
2033
2033
2033
2032
2033
2034
2038
2043
2048
2055
2065
2072
2075
2069
2054
2039
2027
2024
2029
2037
2042
2042
2039
2036
2036
2036
2037
2038
2038
2038
2038
2038
2038
2038
2038
2038
2039
2039
2039
2039
2040
2040
2040
2040
2038
2038
2038
2041
2045
2047
2046
2044
2042
2041
2041
2043
2044
2045
2046
2046
2046
2046
2047
2047
2048
2048
2048
2049
2049
2049
2050
2048
2051
2050
2048
2046
2042
2040
2041
2044
2048
2048
2046
2041
2036
2033
2034
2034
2035
2035
2035
2034
2035
2035
2035
2035
2036
2036
2036
2036
2036
2035
2034
2037
2036
2035
2034
2032
2031
2036
2039
2041
2041
2038
2036
2036
2036
2040
2040
2038
2037
2036
2035
2037
2037
2037
2038
2037
2037
2037
2037
2037
2037
2037
2038
2039
2037
2036
2033
2031
2032
2036
2040
2043
2043
2041
2038
2037
2037
2039
2039
2040
2040
2039
2039
2038
2038
2037
2037
2037
2037
2037
2037
2037
2037
2037
2037
2039
2039
2037
2036
2036
2038
2044
2050
2058
2066
2072
2076
2074
2066
2053
2038
2027
2023
2027
2034
2040
2043
2043
2042
2041
2040
2041
2041
2042
2041
2043
2043
2042
2041
2041
2041
2042
2045
2047
2047
2046
2045
2044
2043
2044
2045
2045
2045
2045
2046
2046
2047
2047
2048
2048
2048
2048
2048
2049
2049
2049
2052
2052
2052
2051
2050
2050
2052
2055
2058
2059
2057
2055
2053
2051
2051
2050
2049
2048
2046
2045
2044
2043
2042
2041
2040
2039
2039
2039
2039
2039
2039
2039
2039
2039
2038
2035
2031
2030
2033
2039
2046
2048
2047
2041
2036
2034
2035
2036
2039
2038
2038
2038
2038
2038
2038
2038
2038
2038
2039
2039
2039
2038
2039
2040
2039
2036
2033
2031
2032
2036
2042
2045
2044
2040
2036
2034
2033
2035
2035
2035
2035
2035
2036
2036
2037
2037
2037
2038
2038
2038
2038
2037
2036
2035
2037
2035
2034
2033
2031
2031
2032
2035
2038
2039
2039
2037
2035
2031
2034
2036
2040
2049
2059
2070
2079
2081
2075
2061
2044
2028
2020
2020
2025
2031
2036
2039
2039
2038
2036
2034
2034
2036
2040
2043
2044
2042
2038
2037
2037
2040
2041
2042
2040
2039
2039
2040
2040
2041
2041
2042
2042
2043
2043
2043
2043
2043
2044
2045
2045
2046
2045
2044
2045
2047
2049
2052
2053
2052
2051
2049
2049
2050
2049
2051
2051
2050
2050
2050
2049
2048
2048
2046
2044
2042
2041
2040
2039
2038
2037
2037
2037
2036
2035
2036
2037
2038
2039
2039
2038
2036
2035
2035
2035
2037
2036
2036
2036
2037
2037
2038
2039
2039
2039
2039
2039
2039
2039
2039
2038
2041
2040
2039
2037
2036
2037
2040
2043
2044
2043
2040
2039
2038
2037
2040
2039
2038
2038
2039
2039
2039
2039
2038
2038
2038
2038
2038
2038
2040
2041
2041
2042
2041
2040
2038
2036
2035
2035
2038
2042
2045
2045
2044
2041
2039
2038
2038
2039
2039
2040
2042
2046
2051
2058
2066
2074
2079
2077
2067
2052
2038
2027
2025
2030
2037
2042
2042
2040
2040
2043
2047
2049
2050
2048
2045
2043
2043
2044
2045
2045
2045
2046
2046
2046
2046
2046
2046
2047
2047
2048
2048
2048
2049
2049
2051
2051
2050
2048
2047
2048
2051
2057
2060
2060
2057
2054
2052
2052
2055
2056
2057
2056
2057
2057
2057
2057
2057
2056
2056
2055
2056
2054
2051
2048
2044
2045
2046
2048
2049
2048
2045
2043
2043
2043
2045
2045
2043
2041
2039
2041
2040
2041
2041
2041
2041
2042
2042
2041
2041
2042
2042
2042
2043
2043
2043
2041
2044
2043
2043
2040
2038
2038
2041
2047
2050
2051
2048
2044
2041
2040
2042
2044
2045
2044
2043
2043
2041
2042
2041
2041
2041
2042
2042
2042
2041
2041
2040
2040
2040
2040
2040
2040
2041
2042
2044
2046
2047
2046
2044
2043
2042
2043
2043
2043
2043
2043
2043
2042
2042
2043
2043
2044
2043
2043
2042
2043
2044
2048
2052
2058
2066
2073
2077
2075
2066
2052
2040
2032
2030
2034
2039
2044
2045
2044
2044
2044
2044
2044
2045
2046
2047
2047
2047
2048
2048
2048
2048
2048
2048
2048
2050
2051
2051
2050
2049
2048
2050
2053
2056
2058
2057
2055
2053
2052
2053
2054
2055
2055
2056
2056
2057
2057
2058
2058
2058
2059
2059
2059
2059
2059
2059
2061
2060
2059
2058
2056
2056
2056
2057
2057
2055
2052
2050
2048
2047
2048
2048
2048
2048
2048
2048
2047
2047
2047
2047
2048
2048
2048
2048
2048
2048
2048
2049
2049
2048
2047
2045
2045
2047
2050
2054
2057
2056
2054
2051
2049
2048
2049
2050
2051
2051
2051
2051
2051
2050
2050
2050
2050
2050
2050
2050
2050
2050
2049
2050
2050
2050
2048
2047
2047
2048
2051
2054
2056
2055
2052
2049
2048
2048
2048
2049
2049
2049
2049
2050
2051
2051
2052
2052
2051
2051
2051
2050
2050
2049
2050
2049
2049
2048
2047
2047
2048
2050
2052
2052
2050
2048
2048
2048
2055
2062
2070
2079
2085
2086
2080
2066
2050
2038
2032
2033
2040
2046
2050
2051
2048
2050
2049
2048
2047
2044
2043
2045
2049
2056
2059
2057
2053
2048
2047
2048
2050
2052
2052
2051
2050
2050
2050
2051
2052
2052
2053
2053
2054
2054
2054
2054
2055
2057
2057
2056
2054
2053
2054
2057
2061
2064
2064
2062
2060
2058
2058
2060
2060
2060
2059
2058
2058
2057
2056
2055
2054
2052
2050
2048
2048
2047
2045
2044
2045
2045
2043
2039
2037
2036
2040
2045
2048
2048
2045
2041
2038
2037
2040
2041
2041
2040
2040
2040
2040
2040
2041
2041
2041
2040
2040
2040
2040
2040
2040
2041
2041
2041
2040
2039
2039
2040
2041
2042
2043
2042
2041
2040
2039
2040
2040
2040
2040
2039
2039
2039
2040
2040
2040
2040
2040
2041
2042
2043
2043
2042
2042
2041
2040
2039
2039
2039
2039
2041
2042
2043
2042
2041
2039
2039
2038
2038
2038
2039
2042
2048
2056
2066
2077
2084
2084
2076
2060
2043
2029
2022
2024
2030
2037
2041
2040
2038
2037
2038
2041
2045
2048
2047
2045
2041
2039
2039
2040
2041
2042
2042
2042
2042
2042
2041
2041
2041
2042
2042
2043
2044
2044
2044
2045
2046
2045
2045
2043
2043
2044
2047
2051
2054
2054
2052
2049
2048
2049
2051
2052
2053
2052
2052
2052
2051
2052
2052
2051
2050
2048
2047
2046
2044
2042
2040
2041
2039
2038
2035
2032
2032
2033
2037
2040
2040
2038
2035
2033
2030
2033
2033
2034
2034
2034
2034
2033
2033
2034
2034
2034
2035
2035
2035
2035
2035
2034
2036
2035
2036
2032
2028
2026
2028
2035
2043
2048
2047
2041
2034
2030
2031
2033
2036
2036
2036
2035
2034
2033
2033
2033
2034
2034
2034
2035
2036
2037
2036
2034
2033
2032
2031
2030
2030
2033
2036
2040
2040
2039
2036
2033
2032
2033
2033
2034
2032
2031
2032
2036
2043
2050
2061
2071
2075
2073
2062
2047
2029
2018
2015
2019
2027
2031
2032
2030
2030
2033
2037
2041
2041
2038
2034
2031
2032
2033
2035
2035
2035
2034
2034
2034
2035
2036
2037
2037
2037
2036
2035
2036
2035
2037
2039
2040
2040
2037
2036
2035
2038
2043
2046
2049
2048
2046
2041
2037
2037
2039
2046
2052
2056
2055
2050
2045
2041
2042
2042
2044
2042
2041
2040
2039
2037
2037
2035
2031
2029
2027
2027
2030
2033
2034
2033
2030
2028
2026
2025
2029
2029
2029
2028
2029
2029
2028
2029
2028
2028
2028
2027
2028
2029
2031
2032
2032
2031
2030
2030
2028
2026
2024
2025
2029
2035
2039
2039
2035
2031
2028
2028
2028
2029
2029
2029
2029
2029
2029
2029
2028
2028
2028
2028
2027
2028
2029
2029
2030
2032
2032
2031
2028
2025
2023
2026
2031
2035
2036
2034
2030
2027
2026
2028
2028
2029
2028
2027
2027
2028
2030
2034
2039
2046
2053
2061
2066
2066
2058
2044
2031
2018
2014
2014
2019
2024
2029
2034
2038
2040
2037
2033
2029
2027
2030
2031
2033
2032
2032
2032
2032
2033
2034
2034
2034
2035
2035
2035
2035
2035
2034
2037
2038
2038
2035
2032
2030
2033
2039
2047
2050
2049
2046
2042
2038
2039
2040
2042
2042
2044
2046
2046
2046
2046
2046
2046
2046
2046
2045
2045
2043
2041
2040
2041
2039
2036
2031
2028
2027
2031
2037
2041
2041
2036
2031
2028
2026
2029
2029
2030
2030
2029
2029
2030
2030
2030
2031
2031
2031
2031
2031
2031
2032
2032
2033
2034
2033
2031
2029
2029
2031
2034
2037
2039
2036
2033
2030
2029
2030
2032
2033
2031
2031
2031
2032
2033
2033
2032
2031
2032
2032
2033
2034
2033
2031
2032
2032
2033
2032
2031
2031
2032
2036
2040
2041
2039
2034
2031
2029
2030
2031
2032
2031
2031
2032
2034
2034
2035
2035
2034
2036
2038
2043
2047
2053
2062
2070
2074
2071
2059
2042
2026
2020
2023
2033
2043
2046
2044
2039
2037
2036
2036
2039
2039
2039
2040
2040
2041
2041
2043
2044
2043
2042
2039
2038
2038
2039
2041
2041
2041
2040
2037
2036
2038
2042
2048
2051
2051
2048
2046
2043
2043
2044
2045
2047
2047
2048
2048
2048
2048
2048
2049
2049
2049
2050
2050
2050
2050
2050
2050
2050
2048
2044
2040
2038
2041
2045
2048
2048
2044
2039
2034
2034
2034
2037
2036
2036
2036
2035
2035
2035
2035
2034
2035
2035
2036
2036
2036
2035
2036
2038
2038
2036
2033
2030
2030
2034
2041
2047
2048
2044
2039
2035
2032
2035
2037
2038
2037
2037
2037
2037
2036
2036
2036
2036
2036
2036
2036
2036
2036
2034
2035
2036
2036
2035
2033
2031
2032
2036
2040
2042
2041
2038
2035
2035
2036
2038
2039
2038
2038
2038
2038
2038
2037
2037
2037
2037
2037
2038
2038
2038
2038
2038
2039
2039
2039
2038
2039
2043
2048
2056
2064
2072
2076
2076
2068
2055
2041
2029
2025
2028
2034
2041
2044
2044
2043
2043
2043
2043
2043
2044
2044
2044
2044
2044
2044
2044
2043
2043
2044
2045
2047
2048
2048
2048
2047
2046
2046
2047
2048
2048
2048
2048
2048
2049
2049
2050
2050
2051
2051
2051
2052
2052
2054
2054
2056
2056
2056
2056
2057
2057
2059
2060
2061
2061
2060
2058
2056
2054
2054
2052
2051
2050
2049
2048
2048
2048
2047
2046
2046
2045
2045
2045
2045
2045
2044
2046
2045
2045
2044
2044
2044
2046
2048
2049
2048
2048
2047
2046
2046
2047
2047
2047
2047
2048
2048
2048
2048
2048
2048
2048
2048
2048
2048
2048
2048
2048
2048
2048
2048
2047
2044
2043
2043
2046
2049
2053
2053
2051
2048
2045
2045
2045
2046
2047
2047
2047
2047
2046
2046
2046
2046
2046
2047
2048
2048
2048
2048
2048
2048
2048
2047
2044
2041
2040
2042
2047
2051
2053
2050
2047
2045
2043
2043
2046
2045
2045
2047
2049
2054
2061
2069
2077
2083
2084
2077
2064
2048
2036
2030
2035
2042
2047
2048
2047
2045
2047
2051
2056
2058
2056
2052
2049
2048
2049
2052
2053
2053
2054
2054
2054
2055
2055
2055
2056
2058
2058
2056
2054
2052
2053
2058
2062
2065
2062
2058
2055
2054
2059
2064
2067
2066
2063
2060
2060
2061
2061
2062
2061
2061
2061
2062
2063
2063
2063
2062
2061
2060
2060
2058
2056
2055
2054
2054
2052
2050
2048
2046
2046
2048
2050
2051
2050
2048
2046
2044
2045
2045
2046
2046
2045
2045
2045
2046
2047
2047
2047
2047
2048
2047
2048
2048
2048
2048
2048
2048
2047
2045
2045
2046
2048
2051
2053
2052
2050
2048
2046
2047
2047
2048
2048
2048
2048
2048
2048
2048
2048
2048
2048
2048
2048
2048
2048
2048
2048
2049
2048
2046
2045
2044
2045
2048
2050
2051
2049
2047
2046
2046
2046
2048
2047
2046
2046
2046
2046
2046
2047
2047
2047
2047
2047
2047
2047
2047
2048
2048
2048
2048
2049
2050
2053
2058
2065
2076
2086
2091
2089
2077
2060
2045
2035
2035
2041
2048
2053
2055
2055
2054
2053
2053
2054
2054
2055
2055
2055
2056
2056
2057
2057
2058
2056
2054
2053
2054
2057
2062
2064
2064
2061
2058
2056
2056
2058
2060
2061
2062
2062
2062
2062
2062
2063
2063
2063
2064
2064
2065
2065
2065
2065
2065
2065
2065
2063
2061
2061
2062
2066
2068
2069
2066
2061
2057
2053
2053
2053
2053
2052
2051
2049
2048
2048
2048
2048
2048
2047
2047
2046
2046
2046
2045
2047
2045
2045
2043
2042
2043
2045
2047
2048
2049
2048
2046
2044
2042
2044
2044
2045
2045
2045
2045
2045
2045
2045
2045
2046
2045
2045
2045
2045
2045
2043
2045
2045
2044
2042
2041
2041
2043
2048
2051
2052
2049
2046
2043
2041
2043
2044
2045
2044
2043
2043
2043
2044
2045
2046
2046
2046
2046
2046
2046
2045
2044
2043
2043
2042
2042
2040
2039
2039
2041
2044
2047
2046
2044
2041
2039
2039
2041
2044
2049
2057
2068
2079
2085
2084
2074
2057
2039
2027
2022
2025
2032
2039
2042
2044
2044
2042
2040
2039
2041
2045
2048
2049
2048
2046
2044
2043
2043
2045
2045
2044
2044
2044
2045
2045
2046
2047
2046
2046
2046
2046
2047
2048
2048
2048
2049
2049
2050
2050
2050
2050
2051
2053
2054
2055
2055
2055
2055
2055
2056
2056
2056
2055
2054
2054
2054
2054
2054
2053
2051
2049
2048
2046
2045
2043
2042
2042
2041
2040
2038
2036
2035
2036
2038
2041
2043
2042
2040
2037
2035
2035
2035
2037
2038
2038
2038
2038
2038
2038
2038
2038
2038
2038
2038
2038
2039
2038
2039
2039
2039
2037
2034
2033
2035
2039
2044
2047
2047
2044
2040
2036
2037
2038
2039
2039
2039
2038
2039
2039
2039
2039
2039
2039
2040
2041
2041
2041
2040
2040
2039
2038
2038
2036
2034
2035
2037
2041
2044
2045
2043
2040
2037
2036
2036
2036
2039
2043
2050
2059
2071
2081
2085
2079
2066
2048
2032
2022
2020
2024
2032
2039
2041
2041
2039
2038
2038
2041
2044
2046
2046
2044
2042
2041
2040
2042
2041
2042
2043
2043
2043
2043
2043
2044
2044
2045
2045
2046
2046
2047
2047
2046
2047
2048
2049
2048
2046
2044
2046
2050
2057
2061
2061
2058
2053
2051
2051
2053
2054
2055
2054
2054
2053
2052
2052
2053
2053
2052
2050
2048
2045
2044
2041
2043
2042
2042
2040
2038
2037
2037
2039
2042
2044
2044
2042
2039
2037
2036
2037
2038
2039
2039
2039
2039
2039
2040
2040
2041
2041
2042
2042
2042
2042
2042
2041
2043
2044
2043
2041
2039
2040
2043
2048
2050
2049
2048
2044
2042
2040
2042
2043
2043
2043
2043
2043
2043
2043
2043
2043
2044
2044
2044
2044
2045
2045
2045
2045
2044
2043
2042
2041
2041
2042
2043
2044
2044
2044
2043
2043
2042
2042
2041
2041
2043
2047
2053
2061
2071
2080
2083
2080
2068
2052
2037
2028
2026
2031
2038
2044
2047
2045
2044
2043
2044
2046
2049
2051
2051
2048
2043
2041
2042
2047
2052
2055
2054
2051
2049
2047
2047
2048
2048
2048
2048
2049
2050
2050
2051
2052
2052
2052
2051
2050
2049
2050
2053
2058
2062
2063
2060
2058
2055
2055
2056
2058
2058
2059
2059
2058
2058
2058
2057
2057
2056
2055
2053
2052
2050
2048
2048
2047
2046
2046
2044
2042
2041
2043
2047
2049
2050
2048
2046
2044
2042
2043
2044
2045
2045
2045
2045
2045
2045
2045
2046
2046
2046
2046
2046
2047
2047
2047
2048
2047
2047
2045
2045
2046
2047
2048
2048
2048
2048
2046
2045
2043
2045
2045
2045
2046
2045
2045
2045
2045
2045
2044
2044
2045
2045
2046
2048
2048
2047
2048
2046
2046
2043
2040
2038
2040
2045
2051
2056
2055
2051
2046
2042
2041
2042
2045
2045
2045
2047
2049
2054
2060
2068
2076
2083
2083
2076
2061
2046
2035
2031
2033
2042
2046
2048
2047
2047
2048
2050
2052
2051
2049
2048
2046
2047
2048
2048
2048
2048
2048
2048
2048
2049
2049
2050
2050
2051
2051
2051
2052
2051
2053
2053
2054
2052
2051
2051
2053
2056
2059
2061
2060
2059
2058
2057
2059
2059
2060
2060
2060
2060
2060
2061
2061
2061
2061
2061
2061
2060
2058
2057
2055
2053
2052
2050
2049
2048
2047
2047
2048
2049
2050
2049
2048
2047
2046
2045
2046
2045
2046
2046
2045
2046
2046
2046
2047
2047
2047
2047
2046
2046
2047
2048
2048
2049
2048
2048
2047
2047
2048
2048
2050
2050
2049
2048
2047
2047
2047
2047
2047
2046
2046
2046
2046
2046
2045
2045
2044
2044
2044
2045
2045
2046
2046
2046
2046
2046
2046
2043
2041
2039
2040
2043
2047
2048
2048
2045
2042
2040
2040
2041
2042
2042
2042
2042
2043
2046
2050
2056
2064
2072
2079
2079
2072
2058
2044
2032
2027
2029
2034
2038
2041
2043
2045
2048
2049
2048
2045
2043
2042
2041
2043
2043
2044
2043
2044
2044
2043
2044
2043
2043
2043
2044
2045
2045
2045
2046
2045
2046
2046
2046
2045
2045
2045
2047
2049
2051
2052
2051
2049
2048
2047
2048
2049
2050
2051
2051
2051
2051
2050
2050
2050
2050
2050
2049
2048
2048
2046
2043
2043
2041
2039
2036
2033
2032
2033
2038
2042
2044
2042
2038
2034
2031
2031
2032
2032
2033
2031
2032
2032
2032
2031
2031
2031
2032
2033
2033
2033
2032
2031
2032
2032
2033
2031
2030
2029
2029
2031
2034
2036
2036
2034
2031
2029
2029
2029
2029
2029
2029
2028
2028
2029
2029
2030
2030
2031
2031
2032
2031
2031
2031
2029
2030
2029
2028
2027
2027
2028
2030
2033
2034
2033
2031
2029
2028
2026
2028
2028
2029
2033
2038
2045
2053
2061
2065
2062
2051
2036
2020
2011
2010
2016
2022
2029
2030
2030
2028
2027
2027
2027
2029
2029
2029
2029
2029
2029
2028
2029
2028
2028
2028
2028
2028
2028
2029
2029
2029
2029
2029
2029
2029
2030
2031
2031
2033
2033
2033
2032
2031
2030
2032
2036
2039
2041
2041
2039
2037
2036
2037
2037
2038
2038
2038
2038
2038
2038
2037
2036
2034
2033
2031
2030
2029
2028
2026
2027
2026
2025
2022
2019
2017
2018
2022
2027
2030
2029
2026
2022
2017
2018
2018
2019
2019
2019
2019
2018
2018
2018
2017
2017
2017
2017
2017
2018
2018
2018
2019
2018
2017
2017
2015
2015
2016
2019
2022
2024
2024
2022
2018
2016
2015
2016
2016
2018
2017
2017
2017
2017
2017
2017
2016
2016
2015
2016
2017
2017
2017
2018
2020
2018
2017
2015
2013
2014
2016
2019
2021
2020
2018
2015
2013
2012
2014
2015
2016
2016
2016
2015
2016
2020
2024
2031
2039
2048
2052
2052
2046
2032
2016
2006
2002
2005
2009
2014
2017
2020
2024
2028
2029
2027
2023
2020
2019
2020
2022
2023
2024
2023
2024
2022
2024
2023
2024
2025
2025
2024
2024
2024
2025
2028
2032
2035
2034
2031
2028
2025
2026
2030
2035
2037
2037
2035
2034
2033
2033
2035
2036
2037
2037
2037
2037
2038
2038
2038
2038
2038
2038
2037
2036
2035
2034
2032
2032
2031
2029
2025
2023
2023
2026
2030
2032
2032
2029
2025
2022
2021
2023
2024
2024
2024
2024
2024
2025
2025
2025
2025
2025
2025
2025
2025
2025
2026
2025
2026
2026
2027
2026
2026
2026
2027
2028
2030
2030
2030
2028
2027
2026
2027
2027
2028
2028
2028
2028
2029
2029
2029
2029
2029
2028
2028
2028
2029
2030
2031
2031
2032
2033
2032
2030
2029
2029
2030
2032
2034
2034
2032
2030
2028
2027
2027
2028
2028
2028
2028
2028
2028
2029
2032
2037
2044
2052
2061
2067
2066
2058
2044
2028
2017
2012
2013
2018
2025
2031
2035
2038
2037
2035
2032
2030
2029
2031
2033
2033
2033
2033
2033
2033
2033
2033
2033
2033
2034
2034
2034
2035
2035
2035
2036
2036
2037
2035
2034
2033
2035
2039
2042
2043
2043
2041
2039
2037
2038
2040
2041
2041
2042
2042
2042
2043
2042
2042
2041
2041
2042
2041
2040
2039
2037
2037
2036
2034
2029
2025
2023
2024
2028
2033
2035
2033
2029
2025
2022
2023
2024
2025
2024
2024
2024
2025
2025
2025
2025
2025
2025
2025
2025
2025
2025
2025
2026
2026
2026
2024
2022
2022
2024
2028
2032
2033
2031
2028
2025
2025
2025
2026
2026
2026
2025
2025
2025
2023
2025
2024
2024
2024
2024
2024
2025
2027
2028
2030
2030
2028
2026
2022
2021
2022
2026
2030
2032
2031
2027
2025
2022
2023
2026
2026
2026
2025
2025
2025
2026
2030
2036
2045
2054
2064
2069
2066
2055
2039
2023
2012
2009
2012
2018
2023
2027
2030
2032
2034
2032
2030
2029
2027
2028
2029
2031
2031
2031
2031
2031
2032
2032
2032
2033
2033
2033
2033
2033
2033
2035
2035
2037
2036
2036
2035
2035
2036
2039
2043
2045
2045
2044
2042
2041
2041
2043
2043
2044
2045
2045
2045
2045
2046
2046
2046
2045
2045
2044
2043
2042
2041
2039
2037
2036
2035
2033
2031
2029
2029
2030
2033
2035
2035
2032
2027
2022
2018
2015
2015
2014
2014
2014
2014
2013
2013
2013
2013
2013
2013
2013
2013
2014
2015
2016
2015
2014
2012
2011
2012
2014
2018
2020
2020
2017
2015
2014
2014
2014
2015
2015
2015
2016
2016
2015
2015
2015
2015
2016
2016
2017
2018
2018
2019
2020
2020
2019
2019
2017
2016
2016
2017
2019
2022
2022
2021
2021
2020
2019
2017
2017
2016
2017
2020
2026
2033
2038
2046
2053
2060
2063
2059
2048
2032
2018
2010
2009
2018
2024
2029
2028
2025
2024
2025
2029
2034
2036
2035
2032
2030
2027
2029
2030
2031
2031
2031
2031
2031
2032
2033
2034
2034
2035
2035
2035
2035
2036
2035
2037
2038
2038
2037
2035
2035
2037
2041
2046
2048
2048
2046
2043
2041
2043
2043
2044
2045
2045
2045
2045
2044
2043
2044
2043
2043
2041
2038
2037
2036
2036
2036
2037
2035
2032
2028
2025
2025
2029
2035
2040
2041
2038
2034
2031
2028
2030
2031
2032
2032
2033
2033
2034
2034
2034
2034
2034
2034
2034
2034
2035
2035
2035
2037
2038
2037
2035
2032
2032
2035
2039
2044
2045
2043
2038
2035
2034
2036
2037
2038
2037
2037
2037
2037
2038
2039
2041
2042
2042
2042
2041
2041
2040
2039
2040
2040
2039
2036
2034
2034
2036
2041
2046
2048
2048
2044
2039
2036
2039
2043
2048
2054
2063
2073
2080
2082
2075
2061
2045
2032
2027
2030
2036
2042
2045
2046
2045
2044
2041
2039
2039
2041
2045
2048
2052
2050
2047
2044
2042
2043
2044
2045
2045
2044
2045
2046
2047
2047
2048
2048
2048
2048
2048
2048
2048
2049
2051
2051
2050
2048
2047
2046
2047
2054
2060
2064
2060
2054
2049
2048
2053
2060
2064
2063
2059
2055
2051
2052
2051
2051
2049
2048
2048
2047
2046
2045
2043
2044
2044
2044
2043
2041
2039
2039
2042
2046
2049
2049
2047
2044
2040
2039
2040
2042
2044
2043
2043
2043
2043
2044
2044
2044
2045
2045
2046
2046
2046
2045
2044
2047
2046
2045
2042
2039
2039
2042
2048
2052
2053
2051
2047
2044
2042
2044
2044
2044
2044
2045
2046
2047
2048
2047
2046
2045
2045
2045
2045
2044
2044
2043
2044
2045
2044
2042
2040
2038
2040
2044
2048
2050
2049
2048
2049
2052
2061
2070
2078
2081
2075
2063
2048
2035
2029
2030
2036
2042
2046
2046
2044
2044
2044
2044
2047
2048
2047
2043
2039
2039
2044
2050
2055
2056
2052
2048
2045
2043
2046
2048
2048
2048
2048
2048
2048
2049
2049
2050
2051
2051
2051
2051
2051
2052
2052
2054
2054
2054
2054
2053
2055
2059
2063
2065
2063
2059
2055
2053
2052
2055
2055
2055
2054
2053
2051
2050
2049
2048
2048
2048
2047
2046
2046
2045
2045
2044
2046
2046
2046
2044
2041
2040
2042
2046
2050
2053
2052
2048
2046
2043
2044
2045
2046
2046
2047
2048
2048
2048
2048
2048
2048
2048
2048
2048
2048
2048
2048
2048
2048
2049
2048
2048
2047
2046
2048
2049
2051
2052
2050
2048
2047
2046
2046
2047
2047
2048
2048
2049
2049
2050
2050
2050
2050
2050
2049
2049
2049
2048
2048
2048
2048
2047
2045
2045
2045
2048
2050
2052
2051
2049
2048
2048
2051
2057
2065
2073
2081
2085
2082
2072
2057
2043
2034
2033
2038
2045
2049
2051
2051
2050
2049
2049
2050
2049
2048
2048
2050
2053
2055
2056
2054
2052
2051
2049
2051
2052
2054
2054
2054
2053
2053
2054
2054
2054
2055
2056
2057
2057
2057
2057
2056
2059
2059
2059
2058
2056
2057
2059
2063
2067
2068
2067
2063
2061
2059
2062
2063
2063
2063
2062
2061
2060
2059
2058
2056
2055
2054
2053
2051
2050
2050
2049
2050
2049
2048
2047
2046
2046
2048
2051
2053
2052
2050
2048
2047
2047
2048
2048
2048
2048
2048
2048
2048
2048
2048
2048
2048
2049
2049
2049
2048
2048
2048
2048
2049
2049
2049
2047
2044
2044
2046
2051
2053
2052
2049
2047
2044
2043
2045
2045
2046
2045
2045
2045
2045
2045
2045
2046
2047
2048
2048
2047
2047
2046
2046
2045
2045
2045
2043
2042
2042
2044
2048
2049
2049
2048
2045
2041
2040
2041
2043
2048
2053
2062
2073
2083
2088
2085
2073
2056
2040
2028
2026
2030
2037
2042
2048
2048
2046
2042
2039
2039
2043
2048
2053
2054
2051
2048
2046
2044
2047
2048
2048
2048
2048
2048
2048
2048
2049
2049
2049
2049
2050
2050
2050
2051
2051
2052
2053
2053
2053
2052
2052
2054
2056
2059
2060
2059
2058
2056
2056
2056
2057
2057
2057
2057
2057
2057
2057
2056
2055
2054
2052
2050
2049
2048
2048
2047
2046
2045
2045
2043
2041
2040
2041
2043
2046
2048
2048
2046
2043
2041
2041
2041
2043
2043
2043
2044
2044
2044
2044
2044
2044
2044
2044
2045
2045
2045
2045
2046
2046
2045
2045
2044
2043
2044
2047
2048
2049
2048
2047
2045
2044
2043
2044
2045
2045
2045
2045
2045
2046
2047
2047
2047
2047
2047
2047
2046
2046
2045
2044
2046
2045
2045
2044
2043
2043
2044
2047
2048
2048
2048
2045
2046
2047
2054
2062
2073
2081
2085
2081
2069
2052
2037
2029
2028
2033
2041
2047
2048
2048
2048
2048
2048
2048
2048
2047
2047
2048
2050
2053
2056
2055
2053
2051
2049
2050
2051
2052
2052
2052
2053
2053
2053
2054
2055
2055
2056
2057
2057
2056
2056
2056
2055
2058
2060
2060
2058
2056
2056
2059
2063
2068
2068
2064
2061
2059
2058
2060
2060
2060
2059
2058
2057
2055
2054
2053
2053
2050
2048
2045
2044
2046
2049
2051
2052
2049
2046
2042
2040
2041
2045
2048
2050
2050
2048
2046
2045
2043
2045
2045
2046
2046
2046
2046
2046
2046
2046
2047
2047
2047
2047
2047
2047
2047
2046
2048
2048
2048
2048
2047
2046
2046
2047
2048
2048
2048
2047
2046
2045
2046
2045
2045
2045
2045
2046
2047
2047
2048
2048
2048
2047
2046
2046
2046
2046
2045
2046
2045
2046
2044
2043
2042
2043
2045
2048
2049
2049
2047
2045
2044
2048
2053
2061
2070
2078
2082
2081
2071
2056
2041
2030
2027
2032
2039
2046
2048
2048
2048
2048
2047
2046
2044
2044
2045
2048
2051
2053
2052
2050
2048
2046
2046
2047
2048
2048
2048
2049
2049
2049
2049
2049
2049
2049
2050
2051
2051
2052
2052
2053
2053
2053
2054
2053
2052
2052
2053
2057
2060
2062
2061
2059
2056
2054
2055
2056
2057
2057
2056
2055
2054
2052
2051
2049
2048
2048
2047
2046
2045
2044
2042
2044
2044
2044
2041
2038
2036
2037
2042
2048
2050
2048
2045
2041
2039
2040
2042
2043
2043
2043
2043
2043
2043
2043
2043
2043
2044
2044
2044
2044
2044
2043
2044
2044
2044
2042
2041
2040
2042
2045
2047
2048
2046
2044
2042
2041
2042
2043
2043
2042
2041
2040
2040
2040
2040
2040
2041
2042
2043
2043
2044
2043
2043
2042
2043
2042
2041
2039
2037
2037
2039
2043
2047
2047
2045
2042
2039
2037
2038
2039
2041
2043
2047
2052
2059
2068
2075
2077
2073
2061
2047
2033
2026
2027
2033
2040
2046
2047
2045
2042
2041
2042
2044
2047
2048
2048
2047
2045
2043
2043
2045
2045
2045
2046
2046
2047
2047
2048
2048
2048
2048
2048
2048
2049
2049
2049
2050
2051
2050
2049
2048
2048
2050
2054
2057
2059
2058
2056
2054
2052
2054
2055
2055
2055
2055
2055
2055
2056
2055
2055
2054
2053
2052
2050
2049
2048
2047
2046
2046
2044
2043
2041
2041
2042
2044
2046
2046
2045
2043
2041
2040
2041
2042
2042
2042
2043
2043
2043
2043
2043
2043
2043
2043
2043
2043
2043
2044
2044
2044
2044
2043
2041
2041
2041
2043
2046
2048
2048
2046
2044
2042
2042
2042
2043
2043
2043
2043
2042
2042
2042
2042
2042
2042
2042
2042
2042
2042
2042
2042
2042
2042
2042
2042
2041
2041
2043
2045
2048
2048
2047
2044
2041
2040
2039
2041
2041
2041
2041
2041
2041
2041
2041
2041
2041
2040
2041
2043
2047
2051
2058
2064
2073
2077
2076
2064
2048
2033
2024
2026
2035
2044
2048
2048
2044
2041
2041
2042
2044
2044
2043
2043
2044
2044
2044
2044
2044
2045
2045
2045
2046
2046
2045
2047
2047
2047
2046
2044
2045
2047
2051
2054
2055
2053
2050
2048
2047
2049
2050
2051
2051
2051
2052
2053
2053
2054
2055
2055
2056
2056
2056
2056
2055
2055
2056
2057
2056
2054
2049
2047
2046
2048
2051
2053
2052
2048
2045
2041
2041
2042
2042
2043
2042
2041
2041
2041
2041
2042
2042
2042
2042
2041
2040
2040
2040
2041
2041
2042
2041
2039
2038
2039
2042
2045
2046
2045
2043
2040
2039
2039
2039
2041
2040
2040
2039
2040
2040
2040
2040
2040
2040
2040
2040
2040
2040
2040
2040
2040
2039
2040
2039
2039
2038
2038
2039
2040
2042
2042
2043
2042
2040
2041
2040
2041
2041
2040
2040
2039
2039
2039
2039
2038
2038
2038
2038
2038
2038
2038
2038
2038
2038
2038
2039
2042
2048
2059
2072
2082
2085
2078
2062
2044
2029
2021
2023
2028
2035
2041
2043
2042
2042
2041
2041
2041
2041
2042
2042
2043
2043
2043
2044
2043
2042
2041
2041
2043
2046
2048
2048
2048
2046
2045
2045
2045
2047
2047
2047
2048
2048
2048
2049
2049
2050
2050
2050
2050
2050
2051
2052
2053
2054
2054
2055
2054
2052
2050
2052
2055
2058
2057
2053
2049
2048
2048
2050
2052
2050
2047
2043
2040
2040
2040
2040
2039
2039
2039
2039
2039
2039
2038
2038
2037
2039
2038
2038
2037
2036
2037
2038
2040
2041
2042
2042
2041
2040
2039
2040
2040
2040
2041
2041
2041
2041
2041
2041
2041
2041
2041
2041
2041
2041
2041
2041
2042
2042
2041
2040
2038
2038
2040
2043
2045
2045
2043
2041
2040
2041
2043
2044
2044
2044
2043
2043
2042
2042
2041
2041
2041
2041
2041
2041
2041
2041
2041
2043
2043
2041
2041
2039
2040
2044
2050
2061
2073
2082
2085
2079
2064
2048
2032
2023
2024
2030
2037
2043
2046
2046
2046
2045
2045
2045
2045
2045
2045
2046
2045
2047
2048
2047
2046
2043
2042
2044
2048
2053
2057
2056
2053
2050
2047
2048
2049
2049
2050
2050
2051
2052
2052
2053
2054
2054
2054
2055
2055
2056
2057
2056
2059
2059
2058
2056
2054
2054
2057
2061
2064
2064
2061
2057
2053
2050
2051
2050
2049
2048
2047
2046
2046
2046
2046
2045
2045
2044
2044
2044
2044
2045
2044
2045
2045
2044
2042
2040
2040
2042
2046
2048
2050
2050
2048
2047
2045
2045
2045
2045
2046
2046
2046
2046
2046
2046
2045
2046
2046
2046
2046
2046
2046
2045
2047
2047
2047
2045
2043
2042
2043
2046
2049
2051
2049
2047
2044
2042
2043
2043
2045
2046
2047
2048
2048
2047
2046
2045
2045
2044
2045
2045
2045
2045
2044
2044
2044
2044
2044
2043
2041
2041
2043
2047
2051
2057
2061
2067
2074
2077
2077
2069
2055
2041
2031
2028
2032
2039
2045
2048
2048
2047
2047
2047
2047
2047
2046
2048
2047
2047
2046
2045
2045
2046
2048
2050
2051
2051
2049
2048
2047
2048
2048
2049
2049
2049
2050
2051
2051
2051
2052
2052
2053
2053
2054
2054
2054
2054
2055
2056
2056
2055
2054
2054
2055
2058
2061
2063
2062
2059
2057
2055
2055
2055
2054
2052
2050
2048
2048
2047
2046
2046
2045
2045
2045
2044
2044
2043
2043
2042
2045
2045
2044
2040
2037
2036
2039
2045
2049
2051
2048
2046
2043
2041
2043
2044
2045
2044
2044
2044
2044
2044
2044
2045
2044
2044
2044
2044
2044
2044
2044
2045
2045
2044
2043
2042
2042
2044
2046
2047
2047
2046
2044
2043
2042
2042
2043
2042
2042
2042
2042
2042
2042
2043
2044
2045
2045
2046
2046
2045
2045
2043
2045
2043
2043
2041
2039
2038
2039
2043
2048
2049
2049
2046
2043
2039
2041
2043
2048
2053
2060
2068
2075
2078
2074
2063
2048
2035
2027
2027
2033
2041
2046
2048
2047
2047
2045
2045
2044
2044
2046
2048
2050
2050
2049
2048
2046
2046
2047
2048
2048
2048
2048
2049
2049
2049
2049
2048
2049
2049
2049
2050
2051
2052
2052
2053
2053
2052
2051
2050
2051
2054
2058
2061
2061
2059
2057
2055
2055
2056
2057
2058
2058
2058
2057
2057
2056
2055
2053
2052
2051
2049
2048
2048
2047
2046
2045
2045
2044
2042
2040
2040
2043
2047
2048
2048
2047
2043
2041
2040
2041
2042
2043
2043
2043
2044
2044
2044
2044
2044
2044
2044
2045
2045
2045
2045
2043
2046
2045
2044
2043
2041
2040
2041
2045
2048
2049
2048
2046
2044
2040
2042
2043
2043
2044
2044
2043
2043
2043
2042
2042
2041
2042
2041
2042
2042
2042
2042
2044
2045
2045
2044
2042
2041
2042
2046
2048
2049
2047
2043
2040
2038
2040
2041
2042
2042
2042
2041
2040
2040
2040
2043
2047
2053
2061
2070
2077
2080
2076
2064
2052
2037
2027
2023
2025
2032
2039
2045
2048
2048
2047
2045
2043
2042
2044
2043
2044
2044
2043
2044
2044
2044
2045
2045
2046
2046
2045
2045
2045
2045
2045
2047
2048
2048
2046
2044
2044
2047
2050
2053
2054
2052
2049
2048
2048
2050
2051
2051
2051
2051
2051
2053
2053
2053
2051
2049
2048
2050
2054
2057
2059
2054
2051
2047
2042
2041
2040
2039
2039
2041
2042
2042
2041
2039
2037
2034
2035
2035
2035
2035
2035
2035
2035
2035
2035
2035
2035
2035
2034
2034
2034
2035
2035
2035
2036
2036
2035
2034
2033
2033
2035
2037
2039
2040
2038
2036
2034
2034
2034
2035
2035
2035
2035
2035
2035
2035
2034
2034
2033
2033
2033
2033
2033
2034
2034
2035
2036
2034
2033
2032
2033
2035
2038
2039
2038
2036
2033
2031
2031
2031
2032
2033
2032
2032
2033
2033
2032
2032
2033
2036
2042
2050
2060
2070
2075
2072
2060
2044
2026
2014
2011
2016
2026
2035
2040
2041
2038
2035
2033
2032
2034
2035
2036
2036
2036
2036
2036
2036
2036
2036
2037
2037
2038
2038
2038
2039
2038
2040
2039
2040
2039
2038
2038
2039
2042
2045
2046
2046
2045
2045
2043
2045
2045
2046
2046
2046
2046
2046
2046
2047
2047
2047
2047
2046
2046
2046
2046
2044
2045
2043
2041
2038
2035
2033
2033
2035
2037
2038
2037
2034
2032
2030
2030
2031
2031
2031
2030
2030
2030
2030
2031
2031
2031
2031
2031
2031
2031
2031
2031
2030
2034
2033
2032
2029
2026
2027
2030
2034
2037
2037
2034
2032
2031
2031
2034
2033
2032
2030
2030
2031
2031
2031
2031
2031
2031
2031
2031
2031
2031
2030
2031
2032
2032
2032
2030
2029
2030
2033
2036
2037
2036
2032
2029
2027
2027
2029
2029
2029
2029
2029
2029
2030
2030
2030
2029
2030
2032
2036
2041
2048
2057
2062
2067
2061
2048
2033
2017
2009
2011
2020
2031
2039
2040
2038
2034
2030
2031
2031
2031
2032
2032
2032
2033
2033
2033
2033
2033
2034
2034
2033
2033
2032
2030
2033
2036
2038
2037
2035
2033
2034
2038
2043
2046
2044
2041
2038
2035
2037
2039
2040
2040
2041
2043
2044
2045
2043
2043
2043
2043
2045
2045
2044
2044
2042
2042
2041
2041
2039
2036
2032
2030
2031
2035
2038
2039
2037
2033
2030
2028
2028
2029
2030
2030
2030
2030
2029
2029
2029
2028
2029
2029
2030
2030
2030
2030
2030
2030
2030
2031
2029
2028
2027
2029
2033
2037
2039
2038
2034
2030
2027
2028
2029
2032
2031
2031
2032
2031
2032
2032
2031
2030
2031
2032
2033
2032
2031
2028
2030
2031
2032
2032
2029
2028
2029
2034
2039
2041
2040
2035
2031
2027
2030
2031
2032
2032
2031
2030
2031
2031
2031
2032
2031
2031
2031
2032
2035
2040
2045
2054
2063
2068
2067
2057
2044
2030
2022
2022
2028
2034
2037
2036
2034
2034
2035
2036
2036
2036
2037
2037
2037
2037
2038
2038
2038
2039
2039
2039
2039
2039
2039
2042
2042
2042
2039
2036
2035
2039
2046
2050
2051
2048
2045
2042
2041
2045
2046
2048
2047
2046
2046
2047
2048
2048
2048
2049
2049
2049
2049
2049
2049
2049
2050
2049
2048
2046
2042
2041
2043
2046
2048
2048
2044
2040
2037
2034
2035
2036
2036
2035
2036
2036
2037
2036
2035
2036
2035
2036
2037
2037
2037
2036
2035
2038
2039
2039
2037
2034
2031
2034
2040
2046
2049
2048
2044
2039
2035
2037
2039
2039
2039
2039
2039
2039
2039
2039
2040
2040
2040
2039
2039
2039
2039
2039
2040
2041
2040
2038
2036
2034
2036
2039
2043
2047
2047
2045
2042
2039
2039
2039
2041
2041
2041
2039
2039
2038
2037
2038
2039
2039
2040
2041
2041
2041
2040
2040
2041
2043
2046
2048
2054
2063
2073
2079
2077
2064
2048
2032
2024
2024
2030
2039
2043
2044
2044
2043
2043
2042
2042
2043
2043
2044
2044
2044
2044
2044
2045
2046
2045
2045
2043
2040
2040
2044
2049
2052
2054
2051
2048
2046
2045
2048
2048
2049
2048
2048
2048
2050
2052
2053
2054
2053
2051
2051
2051
2054
2055
2055
2057
2056
2055
2052
2051
2050
2051
2053
2054
2055
2053
2053
2053
2052
2052
2048
2043
2039
2038
2040
2044
2045
2044
2041
2038
2037
2037
2038
2039
2039
2038
2039
2039
2039
2039
2038
2036
2037
2039
2043
2046
2047
2045
2043
2040
2040
2040
2041
2042
2042
2042
2042
2041
2042
2042
2043
2043
2043
2043
2042
2042
2041
2041
2044
2043
2042
2039
2035
2035
2038
2043
2047
2048
2045
2042
2039
2038
2042
2042
2044
2044
2043
2042
2042
2041
2041
2041
2041
2041
2040
2040
2040
2039
2040
2041
2041
2041
2040
2038
2038
2040
2046
2053
2061
2069
2076
2079
2074
2064
2049
2034
2025
2024
2029
2036
2042
2044
2044
2043
2042
2042
2042
2043
2043
2042
2045
2044
2044
2042
2040
2040
2042
2045
2048
2050
2049
2048
2045
2043
2045
2045
2046
2046
2047
2048
2048
2049
2049
2049
2049
2049
2049
2050
2051
2052
2052
2052
2053
2054
2053
2052
2051
2051
2052
2055
2057
2058
2056
2053
2051
2049
2048
2048
2047
2046
2045
2044
2043
2043
2042
2041
2040
2040
2039
2040
2040
2040
2040
2040
2039
2038
2037
2036
2037
2040
2043
2046
2046
2044
2041
2040
2039
2040
2042
2042
2042
2042
2042
2042
2042
2042
2042
2042
2043
2043
2042
2042
2043
2043
2044
2043
2042
2040
2039
2039
2041
2044
2046
2046
2044
2042
2041
2039
2041
2042
2043
2044
2044
2045
2045
2045
2045
2044
2044
2043
2043
2043
2043
2044
2043
2044
2043
2043
2042
2041
2041
2042
2044
2046
2048
2051
2054
2060
2067
2078
2083
2081
2072
2056
2041
2030
2027
2031
2038
2046
2049
2050
2049
2048
2048
2047
2048
2049
2048
2048
2047
2047
2048
2051
2053
2054
2052
2050
2048
2048
2050
2051
2051
2051
2051
2052
2052
2053
2053
2053
2053
2054
2054
2054
2054
2055
2056
2056
2059
2058
2057
2055
2054
2054
2058
2062
2065
2064
2064
2061
2059
2057
2059
2057
2057
2056
2055
2054
2052
2050
2049
2048
2048
2047
2046
2046
2045
2045
2045
2046
2046
2046
2043
2041
2041
2043
2047
2049
2050
2049
2047
2044
2043
2044
2045
2046
2046
2046
2046
2047
2047
2047
2047
2047
2047
2047
2047
2047
2047
2046
2048
2048
2046
2045
2042
2041
2042
2047
2050
2052
2051
2048
2047
2043
2045
2046
2046
2047
2047
2047
2047
2047
2047
2046
2046
2046
2046
2046
2047
2048
2048
2049
2049
2048
2046
2044
2043
2045
2048
2049
2050
2048
2046
2044
2042
2044
2045
2045
2045
2045
2046
2047
2050
2055
2061
2069
2077
2081
2080
2071
2057
2043
2032
2029
2032
2039
2043
2045
2045
2047
2049
2052
2053
2052
2050
2048
2047
2047
2047
2048
2048
2049
2049
2049
2049
2049
2049
2049
2050
2050
2051
2051
2052
2052
2053
2052
2052
2051
2050
2051
2053
2057
2059
2060
2058
2056
2055
2054
2056
2057
2058
2058
2059
2059
2059
2059
2059
2059
2058
2058
2058
2057
2056
2055
2053
2052
2050
2048
2047
2045
2045
2045
2047
2048
2049
2049
2048
2046
2043
2044
2044
2045
2045
2045
2045
2045
2044
2044
2045
2045
2046
2046
2046
2046
2046
2046
2047
2047
2048
2046
2044
2043
2044
2046
2049
2051
2050
2048
2046
2045
2045
2046
2047
2047
2046
2046
2046
2046
2046
2046
2046
2046
2045
2045
2045
2045
2045
2044
2048
2047
2046
2042
2039
2039
2042
2047
2050
2051
2048
2047
2045
2044
2047
2046
2047
2047
2047
2046
2045
2044
2043
2044
2044
2045
2045
2045
2045
2044
2044
2045
2045
2045
2044
2045
2048
2056
2065
2075
2082
2082
2076
2063
2048
2036
2030
2030
2035
2042
2047
2048
2048
2048
2048
2048
2048
2048
2048
2048
2048
2048
2050
2050
2049
2048
2045
2044
2046
2050
2055
2057
2056
2054
2051
2049
2051
2052
2052
2053
2052
2053
2055
2056
2055
2053
2051
2052
2054
2059
2063
2063
2060
2058
2057
2058
2058
2059
2057
2056
2058
2061
2063
2063
2061
2057
2054
2053
2052
2052
2051
2050
2049
2048
2048
2047
2047
2046
2046
2046
2045
2045
2045
2046
2046
2046
2046
2045
2043
2041
2042
2044
2048
2050
2051
2049
2047
2045
2045
2045
2047
2047
2047
2047
2047
2047
2047
2047
2047
2047
2047
2047
2047
2048
2047
2047
2047
2047
2047
2045
2044
2044
2045
2048
2051
2051
2050
2047
2044
2042
2043
2044
2045
2046
2045
2045
2045
2045
2045
2045
2045
2045
2046
2046
2046
2046
2045
2047
2047
2047
2045
2044
2044
2047
2050
2052
2052
2049
2046
2044
2042
2045
2046
2046
2046
2045
2045
2045
2045
2045
2044
2045
2047
2050
2056
2063
2071
2077
2081
2077
2067
2050
2036
2028
2029
2038
2047
2052
2051
2048
2046
2044
2046
2047
2048
2047
2048
2048
2048
2048
2048
2048
2048
2048
2049
2049
2049
2049
2049
2050
2052
2051
2051
2048
2048
2048
2051
2056
2060
2060
2058
2055
2053
2052
2055
2054
2055
2056
2057
2058
2058
2059
2059
2059
2058
2060
2060
2060
2060
2060
2059
2059
2059
2058
2054
2051
2049
2049
2050
2052
2052
2050
2048
2046
2044
2045
2045
2045
2045
2044
2044
2044
2044
2044
2044
2044
2044
2044
2045
2045
2045
2044
2047
2047
2046
2044
2041
2040
2042
2047
2050
2052
2050
2048
2045
2043
2045
2046
2046
2045
2045
2045
2044
2045
2045
2045
2045
2045
2044
2044
2044
2044
2044
2045
2045
2045
2044
2043
2042
2043
2045
2047
2047
2046
2045
2043
2043
2043
2044
2044
2043
2043
2043
2043
2043
2043
2044
2044
2044
2044
2045
2045
2046
2046
2046
2045
2044
2042
2040
2039
2040
2043
2047
2048
2048
2047
2044
2042
2042
2042
2043
2044
2046
2049
2056
2063
2071
2077
2077
2071
2059
2045
2033
2027
2028
2034
2042
2046
2047
2044
2042
2041
2043
2046
2048
2048
2048
2046
2045
2044
2045
2046
2047
2047
2047
2047
2047
2047
2047
2047
2048
2048
2048
2049
2049
2049
2048
2050
2049
2050
2049
2049
2049
2050
2053
2055
2057
2057
2056
2056
2054
2055
2055
2055
2055
2056
2056
2057
2057
2056
2056
2055
2054
2053
2052
2051
2048
2047
2046
2045
2045
2043
2041
2039
2040
2042
2045
2047
2046
2044
2041
2039
2040
2041
2041
2041
2041
2041
2041
2041
2041
2041
2041
2042
2042
2042
2041
2041
2041
2041
2044
2043
2042
2039
2036
2036
2039
2044
2048
2048
2045
2042
2040
2038
2041
2040
2040
2039
2039
2040
2040
2041
2041
2040
2040
2040
2040
2039
2039
2038
2039
2040
2040
2039
2038
2037
2037
2039
2041
2043
2042
2041
2040
2039
2039
2040
2040
2040
2040
2040
2040
2039
2039
2039
2039
2039
2038
2038
2038
2038
2038
2037
2039
2038
2037
2035
2033
2033
2039
2048
2059
2070
2078
2081
2076
2063
2049
2033
2022
2019
2023
2030
2037
2040
2041
2040
2039
2039
2039
2039
2040
2040
2040
2041
2041
2041
2040
2038
2038
2039
2042
2045
2047
2047
2045
2043
2042
2042
2042
2044
2044
2044
2045
2045
2046
2046
2046
2046
2046
2047
2047
2048
2049
2049
2050
2051
2051
2050
2048
2048
2048
2051
2055
2058
2058
2055
2051
2048
2047
2047
2046
2045
2043
2041
2040
2040
2039
2038
2037
2036
2036
2035
2036
2035
2035
2035
2036
2036
2036
2034
2032
2030
2031
2035
2038
2041
2040
2038
2036
2033
2034
2035
2037
2037
2037
2037
2037
2037
2037
2037
2037
2037
2037
2037
2037
2037
2035
2038
2037
2038
2037
2035
2034
2035
2038
2041
2042
2041
2038
2036
2035
2037
2038
2037
2037
2037
2037
2038
2039
2040
2040
2040
2040
2039
2039
2038
2038
2037
2037
2040
2038
2036
2034
2033
2034
2037
2040
2041
2040
2040
2043
2047
2050
2057
2064
2072
2079
2079
2071
2055
2039
2026
2020
2023
2029
2036
2040
2042
2042
2042
2044
2043
2042
2040
2037
2037
2041
2046
2049
2050
2048
2046
2043
2042
2045
2044
2045
2045
2045
2047
2048
2049
2050
2049
2049
2048
2048
2050
2050
2050
2051
2052
2053
2053
2053
2052
2051
2053
2055
2058
2060
2060
2058
2057
2056
2055
2056
2056
2056
2055
2054
2054
2052
2051
2049
2048
2046
2044
2043
2043
2043
2042
2042
2042
2042
2040
2039
2038
2039
2042
2045
2046
2045
2043
2040
2038
2039
2041
2042
2042
2042
2042
2042
2043
2043
2043
2043
2043
2043
2043
2043
2043
2043
2044
2045
2044
2043
2042
2042
2043
2046
2048
2048
2047
2046
2044
2043
2044
2044
2044
2044
2044
2045
2045
2045
2044
2044
2043
2043
2044
2044
2045
2046
2047
2048
2048
2046
2044
2043
2042
2043
2046
2048
2048
2047
2045
2043
2043
2043
2044
2044
2043
2043
2043
2045
2048
2053
2061
2070
2078
2083
2080
2070
2055
2039
2030
2028
2032
2038
2041
2043
2043
2045
2048
2051
2052
2050
2048
2046
2044
2046
2047
2048
2048
2048
2048
2048
2048
2048
2048
2048
2049
2050
2050
2050
2050
2051
2052
2051
2051
2050
2050
2051
2053
2056
2058
2058
2057
2056
2055
2054
2056
2057
2059
2059
2059
2059
2058
2059
2059
2059
2059
2059
2058
2057
2056
2054
2052
2051
2050
2048
2046
2043
2042
2043
2047
2050
2051
2050
2047
2044
2042
2043
2043
2044
2044
2044
2044
2044
2044
2044
2044
2045
2045
2045
2045
2045
2045
2045
2045
2048
2048
2046
2042
2040
2040
2045
2050
2054
2053
2049
2046
2042
2042
2045
2046
2046
2045
2044
2043
2044
2045
2046
2047
2047
2046
2045
2045
2043
2045
2044
2046
2047
2045
2043
2039
2038
2041
2046
2050
2052
2051
2048
2046
2043
2044
2045
2045
2044
2044
2044
2044
2043
2043
2043
2043
2044
2044
2044
2043
2043
2042
2046
2049
2054
2059
2065
2072
2077
2079
2073
2061
2047
2035
2029
2030
2038
2044
2048
2048
2047
2046
2046
2047
2047
2048
2048
2047
2047
2047
2048
2048
2048
2048
2048
2048
2048
2048
2047
2048
2049
2051
2054
2054
2053
2051
2050
2050
2051
2052
2052
2053
2053
2054
2054
2055
2055
2056
2056
2057
2058
2058
2059
2059
2059
2060
2060
2059
2057
2056
2055
2056
2059
2060
2060
2056
2052
2048
2047
2047
2047
2047
2046
2046
2045
2044
2043
2043
2043
2043
2043
2044
2044
2043
2043
2044
2045
2045
2044
2042
2040
2040
2042
2045
2048
2048
2048
2045
2044
2042
2044
2045
2045
2046
2046
2046
2045
2045
2045
2045
2045
2045
2045
2045
2045
2045
2045
2045
2044
2044
2043
2043
2043
2044
2045
2046
2047
2047
2045
2044
2043
2044
2044
2044
2044
2044
2044
2043
2044
2044
2044
2045
2046
2047
2047
2047
2046
2044
2045
2045
2044
2042
2040
2040
2041
2045
2048
2048
2047
2044
2042
2041
2042
2043
2045
2048
2052
2058
2066
2073
2078
2078
2071
2058
2045
2033
2028
2031
2037
2043
2048
2048
2047
2045
2043
2043
2045
2048
2050
2051
2050
2048
2048
2046
2048
2048
2049
2048
2048
2048
2048
2048
2050
2052
2052
2052
2051
2051
2050
2051
2052
2053
2053
2053
2052
2051
2052
2054
2058
2060
2061
2059
2057
2056
2056
2057
2058
2059
2059
2059
2059
2059
2059
2059
2058
2057
2056
2054
2052
2050
2049
2048
2049
2048
2047
2044
2041
2040
2042
2046
2049
2051
2049
2047
2045
2042
2043
2044
2044
2044
2044
2044
2044
2045
2045
2046
2046
2046
2046
2046
2046
2046
2045
2046
2047
2047
2045
2043
2041
2041
2045
2048
2050
2050
2048
2046
2044
2044
2044
2045
2045
2045
2046
2046
2045
2042
2040
2041
2044
2048
2051
2051
2048
2046
2043
2043
2042
2044
2041
2039
2039
2042
2047
2050
2051
2048
2046
2043
2042
2046
2046
2047
2046
2046
2045
2045
2044
2044
2044
2044
2044
2044
2044
2044
2044
2044
2045
2045
2044
2042
2042
2044
2050
2059
2069
2078
2082
2079
2070
2054
2042
2031
2028
2031
2037
2044
2047
2048
2047
2046
2045
2046
2047
2047
2047
2047
2047
2048
2047
2048
2048
2047
2047
2048
2049
2050
2051
2051
2050
2049
2048
2049
2050
2051
2051
2051
2051
2051
2052
2053
2054
2055
2055
2056
2056
2056
2056
2056
2057
2059
2060
2059
2057
2055
2056
2058
2062
2065
2065
2062
2058
2055
2054
2053
2053
2051
2049
2048
2047
2046
2045
2045
2045
2045
2045
2044
2044
2044
2043
2043
2045
2045
2044
2042
2039
2039
2041
2046
2049
2049
2046
2042
2039
2038
2043
2046
2048
2048
2047
2045
2043
2043
2045
2046
2048
2048
2047
2046
2045
2045
2044
2047
2046
2046
2043
2040
2039
2040
2045
2048
2051
2049
2047
2043
2039
2040
2040
2043
2043
2045
2044
2044
2043
2042
2042
2042
2043
2043
2042
2043
2043
2042
2045
2046
2047
2043
2039
2036
2037
2043
2048
2053
2051
2047
2042
2037
2038
2039
2040
2041
2041
2041
2042
2042
2042
2042
2044
2048
2054
2062
2072
2078
2079
2074
2061
2046
2031
2022
2022
2028
2038
2048
2052
2052
2048
2044
2041
2042
2043
2044
2045
2044
2043
2043
2044
2045
2046
2046
2045
2045
2045
2046
2048
2048
2048
2048
2047
2048
2045
2043
2042
2045
2050
2056
2059
2057
2053
2050
2048
2051
2052
2054
2054
2054
2055
2055
2055
2056
2056
2056
2056
2056
2057
2056
2055
2055
2054
2053
2051
2048
2044
2041
2042
2046
2049
2050
2048
2044
2039
2036
2037
2037
2039
2039
2039
2039
2038
2038
2038
2038
2038
2038
2039
2038
2038
2039
2039
2040
2039
2039
2037
2035
2035
2038
2042
2045
2046
2044
2040
2038
2037
2038
2039
2039
2038
2038
2038
2039
2039
2039
2038
2038
2038
2039
2039
2040
2040
2038
2038
2038
2038
2037
2034
2033
2034
2039
2044
2047
2045
2042
2038
2038
2039
2041
2041
2039
2038
2037
2037
2037
2037
2036
2036
2036
2036
2036
2036
2037
2037
2037
2038
2037
2036
2035
2037
2044
2057
2074
2087
2090
2081
2063
2043
2027
2021
2020
2027
2034
2040
2043
2043
2042
2041
2042
2044
2045
2046
2045
2044
2044
2043
2046
2047
2048
2047
2045
2044
2046
2049
2054
2057
2056
2053
2050
2048
2051
2053
2055
2056
2056
2056
2057
2058
2060
2062
2064
2064
2064
2064
2065
2066
2066
2070
2071
2072
2069
2066
2064
2066
2072
2078
2081
2079
2075
2069
2064
2064
2064
2062
2061
2059
2059
2058
2058
2057
2057
2057
2057
2057
2057
2057
2057
2056
2057
2058
2058
2056
2054
2051
2051
2054
2059
2063
2064
2062
2058
2055
2054
2054
2055
2056
2057
2058
2057
2057
2056
2057
2057
2058
2058
2058
2058
2058
2057
2057
2060
2059
2059
2056
2053
2052
2054
2059
2062
2063
2060
2056
2052
2050
2053
2054
2057
2058
2059
2059
2058
2057
2056
2056
2055
2055
2055
2056
2056
2057
2057
2057
2058
2059
2058
2057
2056
2057
2060
2064
2070
2077
2083
2091
2098
2100
2095
2083
2066
2050
2043
2043
2050
2059
2065
2069
2068
2068
2068
2068
2068
2068
2069
2069
2070
2070
2070
2071
2071
2073
2075
2076
2077
2077
2076
2075
2076
2076
2076
2076
2076
2077
2078
2078
2078
2079
2079
2079
2079
2079
2080
2081
2081
2083
2083
2084
2082
2080
2079
2080
2084
2087
2089
2089
2086
2082
2080
2080
2080
2079
2077
2074
2071
2070
2069
2069
2069
2068
2066
2064
2062
2060
2060
2061
2062
2065
2065
2064
2061
2059
2060
2062
2066
2071
2076
2081
2085
2088
2085
2083
2077
2073
2071
2071
2074
2074
2075
2075
2075
2075
2075
2076
2076
2075
2073
2073
2072
2071
2068
2063
2058
2057
2060
2066
2072
2075
2074
2071
2068
2066
2068
2070
2071
2071
2070
2069
2069
2070
2071
2072
2073
2072
2070
2069
2068
2067
2066
2069
2069
2068
2065
2062
2061
2063
2068
2073
2074
2071
2067
2064
2063
2066
2071
2078
2086
2097
2108
2115
2113
2102
2083
2062
2048
2044
2048
2054
2062
2066
2068
2068
2067
2065
2063
2063
2065
2068
2071
2071
2069
2067
2066
2066
2067
2067
2067
2067
2067
2068
2070
2071
2072
2071
2070
2070
2070
2072
2074
2075
2076
2076
2076
2075
2074
2072
2072
2075
2079
2085
2088
2088
2086
2084
2081
2080
2082
2082
2083
2083
2084
2084
2082
2080
2076
2073
2071
2069
2067
2066
2064
2063
2063
2064
2065
2065
2064
2062
2062
2064
2069
2074
2078
2078
2075
2073
2073
2076
2080
2085
2088
2090
2091
2091
2093
2096
2099
2102
2104
2105
2106
2108
2111
2115
2120
2122
2125
2126
2127
2129
2134
2141
2150
2157
2163
2167
2170
2172
2177
2182
2186
2190
2193
2196
2199
2203
2206
2208
2210
2210
2210
2209
2209
2209
2208
2210
2210
2209
2205
2201
2198
2198
2201
2204
2204
2201
2196
2192
2190
2194
2201
2212
2224
2234
2236
2227
2208
2183
2162
2148
2145
2148
2153
2156
2155
2153
2149
2149
2145
2142
2138
2133
2132
2133
2136
2137
2135
2131
2126
2122
2118
2118
2115
2114
2112
2110
2108
2107
2105
2103
2101
2099
2097
2095
2095
2095
2096
2095
2098
2099
2097
2098
2095
2095
2097
2101
2105
2107
2105
2102
2100
2098
2100
2100
2101
2100
2098
2096
2094
2091
2087
2082
2078
2074
2072
2071
2069
2068
2065
2066
2066
2066
2063
2059
2055
2055
2058
2065
2069
2069
2064
2059
2054
2054
2056
2056
2056
2054
2054
2055
2055
2056
2056
2054
2053
2052
2052
2052
2052
2052
2053
2054
2053
2051
2048
2047
2048
2050
2053
2054
2053
2051
2049
2049
2050
2053
2053
2053
2053
2052
2053
2053
2055
2056
2055
2054
2052
2051
2051
2052
2053
2052
2053
2051
2049
2046
2045
2047
2050
2057
2061
2061
2058
2054
2054
2058
2070
2082
2095
2103
2104
2093
2072
2050
2034
2028
2033
2041
2048
2050
2049
2048
2047
2048
2048
2048
2046
2044
2044
2046
2049
2052
2053
2051
2048
2046
2044
2046
2046
2047
2046
2046
2046
2046
2046
2047
2047
2047
2048
2048
2048
2048
2048
2046
2048
2048
2048
2045
2043
2042
2044
2048
2052
2055
2053
2050
2047
2045
2045
2046
2045
2044
2042
2040
2037
2034
2031
2028
2026
2025
2023
2021
2020
2018
2016
2017
2017
2017
2014
2011
2009
2010
2014
2018
2019
2017
2014
2011
2008
2010
2011
2012
2013
2013
2014
2015
2015
2016
2016
2016
2017
2018
2018
2018
2018
2017
2017
2019
2019
2018
2016
2014
2014
2018
2022
2025
2025
2023
2021
2018
2018
2020
2019
2019
2018
2017
2017
2016
2018
2018
2019
2019
2018
2018
2017
2017
2017
2017
2017
2017
2017
2016
2016
2015
2016
2018
2020
2022
2021
2018
2016
2014
2017
2022
2028
2036
2046
2057
2065
2066
2057
2040
2020
2005
1999
2003
2010
2017
2019
2022
2021
2019
2016
2013
2012
2013
2018
2023
2025
2023
2019
2017
2015
2016
2017
2017
2017
2017
2018
2018
2019
2020
2020
2020
2020
2020
2020
2021
2021
2022
2023
2024
2024
2022
2020
2019
2021
2025
2030
2032
2032
2030
2027
2025
2026
2027
2027
2028
2028
2028
2027
2026
2025
2023
2020
2018
2016
2015
2013
2013
2012
2011
2010
2010
2008
2005
2003
2003
2006
2011
2015
2015
2012
2009
2006
2004
2005
2006
2008
2009
2010
2008
2005
2003
2003
2007
2011
2015
2014
2012
2009
2007
2006
2008
2010
2009
2007
2006
2006
2007
2010
2013
2014
2013
2010
2008
2006
2009
2010
2011
2011
2011
2010
2010
2010
2010
2009
2009
2009
2010
2010
2011
2012
2012
2013
2012
2011
2010
2008
2008
2008
2010
2012
2013
2013
2011
2008
2007
2008
2009
2010
2009
2009
2009
2010
2014
2020
2027
2038
2049
2058
2060
2053
2038
2018
2003
1996
1997
2002
2008
2012
2014
2017
2020
2022
2020
2018
2016
2015
2016
2018
2019
2019
2019
2019
2019
2020
2020
2021
2021
2022
2023
2024
2024
2025
2025
2025
2027
2027
2027
2025
2024
2025
2028
2031
2034
2036
2035
2034
2034
2033
2035
2035
2037
2038
2039
2039
2039
2039
2039
2040
2040
2040
2039
2038
2036
2034
2034
2034
2031
2027
2022
2019
2018
2021
2024
2026
2026
2023
2020
2018
2018
2019
2020
2020
2020
2020
2020
2021
2021
2021
2021
2021
2021
2021
2021
2022
2022
2021
2024
2024
2023
2021
2018
2017
2021
2027
2032
2033
2030
2026
2023
2021
2023
2024
2024
2024
2024
2024
2025
2025
2025
2024
2024
2023
2023
2023
2024
2025
2025
2026
2027
2026
2024
2022
2022
2024
2029
2033
2034
2032
2030
2028
2028
2029
2030
2030
2030
2030
2030
2030
2030
2032
2037
2044
2052
2064
2076
2083
2082
2070
2053
2036
2021
2014
2013
2017
2025
2034
2042
2047
2046
2041
2035
2031
2030
2033
2034
2036
2036
2036
2036
2036
2036
2036
2036
2037
2037
2037
2038
2039
2039
2039
2040
2040
2040
2039
2039
2040
2041
2044
2046
2048
2047
2046
2045
2044
2045
2047
2048
2049
2049
2050
2050
2050
2050
2050
2050
2051
2051
2050
2049
2048
2045
2043
2040
2039
2035
2033
2031
2031
2032
2034
2034
2033
2030
2028
2026
2027
2028
2028
2028
2027
2027
2028
2029
2029
2030
2030
2030
2030
2030
2030
2030
2030
2032
2032
2032
2031
2028
2027
2028
2032
2036
2038
2037
2035
2032
2030
2031
2032
2033
2033
2032
2032
2032
2032
2032
2032
2032
2033
2033
2033
2033
2033
2034
2033
2036
2034
2033
2030
2028
2027
2030
2034
2036
2037
2034
2031
2030
2029
2032
2031
2031
2030
2030
2032
2036
2043
2050
2059
2069
2077
2076
2068
2052
2035
2021
2017
2022
2028
2033
2035
2033
2033
2036
2039
2040
2040
2038
2036
2034
2035
2036
2036
2036
2036
2037
2038
2038
2038
2038
2038
2039
2039
2039
2039
2039
2038
2041
2041
2041
2039
2036
2035
2037
2042
2048
2050
2049
2047
2044
2041
2042
2044
2045
2045
2046
2047
2048
2048
2048
2048
2047
2046
2045
2043
2041
2039
2037
2035
2034
2032
2030
2028
2026
2027
2028
2030
2031
2031
2029
2028
2027
2027
2027
2027
2028
2028
2028
2028
2029
2029
2029
2029
2029
2029
2029
2030
2031
2031
2030
2032
2031
2031
2028
2026
2026
2029
2034
2039
2041
2039
2034
2031
2028
2029
2030
2032
2032
2032
2032
2032
2032
2032
2031
2031
2031
2031
2031
2031
2030
2032
2033
2034
2034
2033
2031
2031
2032
2035
2037
2037
2036
2033
2031
2030
2031
2031
2033
2033
2033
2033
2032
2032
2033
2036
2041
2047
2053
2061
2070
2075
2073
2065
2048
2032
2019
2016
2021
2030
2039
2043
2043
2040
2037
2035
2034
2036
2037
2038
2038
2039
2038
2038
2038
2037
2038
2038
2039
2040
2040
2040
2041
2040
2042
2042
2042
2041
2039
2039
2041
2046
2049
2052
2050
2048
2046
2043
2046
2047
2048
2049
2049
2050
2050
2050
2051
2052
2052
2052
2052
2052
2051
2050
2048
2048
2048
2045
2043
2039
2036
2035
2036
2039
2041
2040
2038
2035
2032
2031
2033
2032
2033
2033
2033
2033
2033
2034
2034
2035
2035
2035
2036
2035
2035
2035
2035
2037
2039
2039
2038
2036
2035
2034
2035
2035
2038
2040
2042
2043
2042
2040
2037
2035
2035
2036
2038
2039
2038
2038
2038
2038
2037
2037
2037
2037
2037
2036
2039
2039
2038
2036
2034
2034
2035
2039
2043
2044
2042
2040
2038
2036
2038
2040
2040
2039
2039
2039
2039
2039
2039
2039
2039
2038
2038
2038
2038
2038
2037
2038
2039
2038
2037
2035
2035
2037
2043
2050
2058
2066
2072
2076
2076
2069
2055
2040
2028
2023
2027
2034
2040
2044
2043
2042
2041
2041
2041
2042
2042
2042
2042
2044
2043
2042
2040
2038
2039
2044
2048
2052
2052
2049
2046
2043
2041
2045
2046
2047
2047
2047
2047
2048
2048
2048
2048
2049
2049
2049
2050
2051
2052
2052
2053
2053
2054
2053
2053
2053
2054
2056
2058
2059
2059
2056
2054
2052
2051
2050
2050
2048
2047
2046
2044
2043
2042
2041
2041
2041
2041
2040
2040
2040
2039
2040
2039
2039
2038
2038
2038
2039
2041
2044
2045
2045
2043
2041
2039
2040
2041
2042
2042
2042
2041
2041
2042
2042
2042
2042
2042
2042
2042
2042
2042
2041
2041
2041
2041
2040
2039
2039
2039
2041
2043
2045
2044
2042
2040
2039
2039
2040
2041
2041
2040
2040
2040
2040
2040
2040
2040
2041
2041
2041
2041
2040
2040
2040
2042
2042
2041
2040
2038
2039
2042
2046
2048
2048
2046
2043
2041
2039
2041
2040
2040
2039
2040
2040
2040
2041
2041
2041
2041
2040
2040
2039
2042
2043
2048
2056
2064
2071
2075
2074
2068
2059
2048
2040
2034
2033
2035
2038
2041
2043
2045
2044
2044
2043
2044
2044
2044
2045
2045
2045
2045
2045
2045
2045
2045
2045
2048
2047
2047
2045
2043
2042
2044
2048
2052
2054
2053
2051
2049
2048
2049
2049
2049
2050
2051
2052
2053
2053
2054
2054
2055
2055
2055
2055
2056
2057
2057
2059
2059
2058
2056
2053
2052
2053
2056
2059
2058
2055
2050
2047
2043
2043
2044
2043
2042
2042
2042
2042
2041
2041
2041
2041
2041
2041
2041
2041
2041
2041
2041
2042
2042
2040
2038
2037
2038
2041
2044
2047
2047
2045
2042
2039
2040
2041
2042
2042
2042
2042
2042
2042
2042
2041
2041
2041
2041
2041
2041
2041
2041
2040
2040
2041
2041
2039
2038
2036
2037
2040
2043
2045
2044
2042
2039
2037
2038
2038
2039
2038
2038
2039
2039
2039
2039
2039
2038
2038
2039
2039
2039
2039
2040
2041
2042
2042
2041
2039
2038
2037
2039
2040
2042
2041
2039
2038
2037
2037
2038
2039
2039
2038
2037
2037
2037
2040
2045
2050
2058
2067
2074
2077
2073
2062
2048
2033
2024
2021
2024
2030
2036
2042
2046
2047
2046
2043
2041
2039
2040
2041
2042
2041
2041
2042
2042
2043
2043
2043
2043
2044
2044
2044
2044
2044
2044
2045
2046
2047
2047
2045
2044
2044
2047
2050
2053
2053
2052
2050
2049
2048
2051
2052
2052
2052
2052
2052
2053
2053
2054
2054
2055
2055
2054
2054
2052
2053
2051
2051
2049
2046
2042
2039
2037
2039
2043
2046
2046
2044
2038
2036
2033
2034
2036
2037
2036
2036
2036
2036
2037
2037
2037
2037
2037
2037
2037
2037
2037
2036
2038
2039
2039
2036
2034
2033
2035
2040
2044
2046
2044
2040
2037
2035
2036
2037
2037
2037
2037
2037
2037
2038
2037
2037
2037
2037
2037
2037
2037
2037
2037
2037
2037
2037
2036
2035
2035
2035
2036
2038
2038
2038
2037
2037
2037
2037
2038
2038
2038
2038
2037
2037
2036
2036
2036
2036
2035
2035
2035
2035
2036
2037
2037
2037
2036
2034
2033
2036
2042
2052
2066
2079
2086
2084
2073
2055
2036
2022
2017
2019
2026
2034
2039
2040
2040
2039
2038
2038
2039
2040
2040
2040
2040
2040
2042
2041
2041
2039
2038
2039
2042
2046
2048
2048
2046
2043
2042
2041
2043
2044
2046
2047
2046
2044
2042
2042
2046
2050
2053
2052
2050
2047
2046
2048
2051
2056
2056
2056
2053
2050
2050
2052
2056
2060
2061
2059
2055
2051
2048
2047
2046
2044
2043
2041
2040
2039
2038
2037
2036
2036
2036
2036
2035
2035
2035
2034
2035
2035
2035
2034
2032
2031
2032
2036
2041
2043
2042
2039
2036
2034
2036
2036
2038
2037
2036
2036
2036
2036
2036
2036
2037
2038
2038
2038
2037
2037
2035
2037
2037
2037
2037
2034
2033
2032
2036
2041
2044
2045
2041
2037
2034
2033
2036
2036
2036
2036
2036
2037
2039
2040
2040
2040
2039
2038
2037
2036
2036
2037
2036
2038
2037
2036
2034
2031
2032
2034
2039
2042
2044
2042
2042
2045
2048
2058
2068
2077
2078
2073
2059
2042
2027
2019
2020
2026
2034
2040
2042
2041
2041
2040
2042
2042
2041
2038
2035
2034
2037
2043
2049
2052
2050
2047
2043
2040
2040
2042
2043
2044
2044
2044
2045
2046
2046
2047
2047
2047
2047
2048
2048
2048
2049
2050
2051
2051
2050
2048
2048
2048
2052
2058
2062
2062
2058
2053
2050
2050
2051
2054
2056
2054
2053
2050
2048
2047
2046
2046
2044
2041
2039
2038
2039
2040
2041
2043
2042
2038
2034
2031
2031
2035
2042
2048
2048
2046
2041
2037
2035
2038
2039
2040
2040
2039
2040
2040
2040
2040
2041
2041
2041
2041
2041
2041
2041
2040
2041
2042
2041
2040
2038
2037
2039
2042
2046
2047
2045
2042
2039
2037
2038
2039
2041
2041
2041
2040
2040
2040
2039
2039
2039
2040
2040
2039
2039
2039
2040
2042
2042
2044
2041
2038
2037
2037
2041
2045
2047
2046
2042
2038
2035
2035
2036
2039
2040
2041
2040
2039
2037
2037
2041
2047
2055
2061
2069
2075
2077
2073
2063
2048
2033
2022
2019
2023
2032
2041
2048
2049
2048
2046
2042
2040
2040
2041
2043
2043
2044
2044
2044
2044
2043
2043
2043
2043
2044
2045
2045
2046
2045
2047
2048
2048
2048
2046
2044
2043
2046
2050
2055
2056
2055
2053
2051
2049
2051
2051
2052
2053
2053
2054
2054
2055
2055
2055
2056
2055
2055
2054
2054
2053
2053
2054
2052
2048
2044
2040
2039
2042
2046
2049
2048
2045
2041
2037
2035
2037
2037
2039
2040
2042
2042
2041
2038
2036
2036
2035
2038
2038
2038
2038
2038
2038
2040
2041
2040
2037
2035
2035
2038
2043
2048
2048
2046
2042
2039
2037
2038
2040
2040
2040
2040
2040
2040
2040
2040
2040
2040
2039
2039
2039
2039
2039
2039
2041
2041
2040
2038
2036
2035
2037
2040
2044
2044
2042
2039
2037
2035
2037
2038
2038
2039
2040
2041
2041
2041
2041
2040
2039
2038
2038
2038
2038
2039
2037
2038
2040
2039
2037
2035
2033
2034
2039
2046
2050
2053
2054
2056
2060
2067
2074
2074
2067
2052
2037
2026
2022
2025
2032
2039
2042
2043
2042
2042
2042
2042
2042
2043
2044
2044
2042
2042
2042
2043
2045
2047
2047
2046
2044
2043
2043
2044
2046
2047
2047
2046
2046
2046
2046
2047
2047
2048
2048
2048
2049
2049
2049
2049
2051
2051
2051
2051
2051
2051
2053
2055
2058
2059
2058
2056
2054
2053
2053
2054
2054
2053
2051
2049
2048
2047
2046
2045
2044
2043
2042
2041
2040
2040
2039
2040
2039
2040
2039
2037
2036
2036
2039
2042
2044
2044
2042
2039
2037
2037
2039
2040
2040
2040
2040
2040
2040
2040
2040
2040
2040
2041
2040
2040
2040
2040
2040
2041
2040
2040
2038
2036
2036
2038
2041
2044
2044
2042
2040
2038
2037
2039
2038
2038
2037
2037
2037
2038
2038
2038
2038
2038
2038
2038
2038
2038
2037
2039
2039
2039
2038
2035
2034
2034
2037
2041
2045
2046
2044
2042
2040
2039
2040
2040
2040
2039
2038
2038
2038
2038
2038
2038
2038
2039
2039
2039
2039
2038
2038
2038
2039
2040
2042
2046
2052
2063
2075
2082
2079
2067
2048
2031
2020
2019
2026
2034
2039
2042
2041
2041
2040
2040
2041
2041
2041
2042
2042
2042
2043
2043
2043
2044
2043
2042
2041
2041
2043
2046
2049
2051
2050
2048
2047
2046
2046
2047
2048
2048
2048
2049
2049
2050
2050
2050
2050
2051
2051
2052
2053
2054
2054
2054
2056
2056
2055
2052
2048
2048
2051
2058
2065
2067
2063
2056
2049
2044
2044
2045
2045
2044
2042
2042
2041
2040
2040
2039
2039
2039
2040
2040
2040
2040
2039
2040
2040
2039
2038
2036
2037
2040
2044
2047
2047
2044
2041
2038
2036
2039
2039
2040
2041
2040
2040
2040
2040
2040
2040
2040
2039
2040
2039
2039
2039
2038
2040
2039
2038
2038
2037
2036
2037
2039
2042
2043
2043
2041
2039
2037
2038
2038
2039
2040
2039
2038
2038
2037
2037
2037
2037
2037
2038
2038
2038
2038
2037
2038
2038
2038
2037
2035
2035
2037
2041
2045
2046
2044
2040
2036
2034
2034
2035
2037
2036
2036
2036
2036
2036
2036
2036
2036
2036
2036
2036
2037
2040
2046
2053
2065
2074
2080
2076
2065
2048
2033
2023
2021
2025
2031
2035
2037
2036
2037
2036
2038
2037
2038
2038
2038
2038
2038
2039
2039
2039
2039
2039
2039
2039
2039
2041
2041
2040
2038
2037
2038
2041
2045
2048
2048
2045
2043
2042
2041
2044
2044
2045
2044
2045
2045
2046
2048
2048
2049
2050
2050
2049
2049
2049
2049
2048
2051
2051
2050
2048
2047
2045
2046
2047
2048
2048
2045
2040
2037
2034
2034
2034
2033
2033
2032
2032
2032
2033
2032
2032
2032
2032
2032
2032
2032
2032
2033
2032
2034
2033
2031
2029
2029
2031
2036
2040
2042
2040
2037
2035
2034
2033
2035
2035
2035
2036
2036
2036
2036
2036
2036
2035
2035
2035
2036
2036
2036
2036
2037
2037
2037
2036
2034
2033
2033
2036
2041
2044
2045
2042
2038
2035
2034
2035
2036
2038
2038
2039
2040
2040
2040
2040
2039
2038
2038
2038
2037
2037
2037
2036
2039
2038
2036
2034
2032
2033
2036
2041
2043
2044
2042
2042
2047
2051
2064
2074
2080
2078
2068
2051
2035
2023
2019
2023
2031
2038
2042
2043
2042
2042
2042
2043
2043
2043
2043
2043
2043
2044
2046
2047
2048
2048
2046
2045
2045
2046
2046
2047
2048
2048
2048
2048
2048
2048
2049
2050
2051
2052
2052
2052
2052
2052
2053
2054
2055
2054
2054
2053
2055
2058
2061
2063
2063
2061
2058
2057
2057
2058
2060
2059
2058
2057
2055
2053
2051
2049
2048
2048
2048
2046
2045
2045
2044
2043
2045
2044
2043
2041
2040
2040
2042
2045
2047
2047
2046
2044
2042
2041
2043
2043
2044
2044
2044
2044
2044
2045
2045
2046
2046
2046
2046
2045
2045
2045
2044
2046
2046
2045
2044
2042
2042
2043
2047
2048
2049
2048
2046
2045
2043
2044
2043
2042
2043
2043
2043
2043
2043
2043
2043
2043
2043
2044
2043
2043
2043
2042
2045
2045
2044
2042
2039
2039
2041
2046
2049
2050
2049
2046
2044
2042
2044
2044
2044
2043
2043
2042
2042
2042
2042
2042
2042
2042
2042
2042
2043
2042
2042
2042
2044
2045
2048
2051
2057
2067
2078
2084
2082
2071
2053
2037
2026
2024
2032
2038
2045
2047
2047
2046
2045
2045
2045
2045
2046
2046
2046
2046
2047
2046
2047
2048
2048
2046
2044
2043
2045
2048
2053
2056
2056
2053
2050
2048
2048
2049
2050
2051
2052
2052
2052
2052
2053
2053
2053
2054
2055
2055
2056
2057
2057
2057
2060
2060
2059
2056
2055
2055
2058
2062
2064
2063
2059
2054
2050
2048
2048
2048
2048
2047
2046
2045
2044
2044
2043
2042
2042
2042
2042
2042
2042
2042
2042
2042
2041
2042
2041
2041
2042
2042
2043
2045
2045
2045
2044
2043
2042
2043
2044
2044
2042
2040
2039
2040
2043
2047
2048
2048
2045
2043
2041
2041
2043
2043
2044
2043
2042
2041
2040
2040
2041
2044
2046
2046
2044
2042
2040
2040
2041
2042
2042
2042
2041
2041
2041
2041
2041
2041
2042
2042
2042
2042
2041
2041
2041
2042
2043
2042
2043
2041
2040
2041
2043
2046
2047
2046
2044
2042
2041
2039
2040
2039
2040
2039
2039
2040
2040
2040
2040
2040
2040
2041
2044
2048
2053
2061
2069
2076
2079
2074
2061
2045
2029
2022
2024
2034
2044
2049
2048
2046
2042
2041
2042
2043
2044
2043
2044
2044
2045
2045
2045
2046
2045
2045
2045
2045
2046
2045
2048
2048
2048
2046
2044
2043
2045
2049
2054
2057
2055
2052
2049
2048
2048
2050
2051
2051
2052
2052
2053
2053
2054
2054
2055
2055
2056
2056
2056
2056
2057
2057
2057
2056
2054
2052
2051
2050
2051
2052
2052
2049
2046
2043
2041
2041
2041
2041
2041
2041
2041
2041
2041
2041
2041
2040
2040
2040
2040
2040
2041
2042
2041
2043
2041
2041
2038
2036
2037
2041
2047
2051
2052
2049
2045
2042
2038
2040
2040
2042
2042
2042
2042
2042
2042
2042
2041
2041
2041
2041
2041
2041
2042
2041
2041
2041
2041
2039
2038
2039
2040
2043
2045
2045
2043
2041
2039
2037
2038
2039
2040
2040
2041
2041
2041
2040
2040
2039
2039
2039
2039
2039
2039
2040
2039
2040
2040
2041
2040
2040
2040
2040
2042
2044
2045
2044
2042
2039
2037
2037
2037
2038
2038
2038
2037
2037
2037
2037
2037
2039
2042
2048
2053
2061
2070
2075
2076
2068
2054
2039
2024
2017
2019
2028
2037
2044
2046
2044
2041
2039
2038
2038
2038
2040
2040
2039
2039
2040
2040
2040
2041
2041
2042
2042
2042
2042
2042
2041
2044
2043
2043
2042
2041
2042
2046
2048
2049
2048
2046
2044
2044
2044
2048
2048
2048
2048
2048
2048
2049
2050
2050
2050
2050
2050
2050
2049
2049
2049
2048
2049
2048
2047
2044
2042
2040
2039
2040
2040
2040
2039
2036
2035
2031
2031
2030
2029
2029
2030
2030
2030
2031
2031
2031
2031
2031
2031
2031
2031
2031
2030
2033
2032
2032
2031
2030
2029
2029
2031
2034
2036
2037
2036
2034
2032
2032
2031
2031
2032
2032
2033
2033
2033
2033
2033
2032
2031
2032
2032
2032
2033
2033
2034
2033
2033
2032
2031
2030
2031
2033
2035
2036
2035
2033
2031
2031
2031
2032
2033
2034
2034
2034
2034
2034
2033
2032
2032
2032
2032
2031
2031
2031
2032
2032
2033
2034
2032
2029
2026
2025
2030
2039
2049
2058
2064
2070
2074
2074
2069
2057
2039
2023
2014
2015
2021
2029
2034
2036
2035
2035
2035
2035
2036
2036
2035
2037
2037
2037
2036
2035
2035
2037
2040
2042
2043
2042
2039
2038
2037
2038
2040
2041
2041
2041
2041
2042
2042
2043
2043
2044
2044
2045
2046
2046
2047
2046
2048
2048
2048
2046
2044
2044
2047
2051
2056
2058
2056
2051
2048
2047
2047
2048
2047
2045
2042
2040
2038
2036
2035
2035
2034
2034
2033
2032
2032
2031
2030
2030
2030
2031
2030
2029
2029
2029
2031
2034
2035
2035
2034
2032
2031
2031
2031
2033
2033
2033
2033
2033
2032
2033
2033
2034
2035
2035
2035
2035
2034
2034
2034
2036
2036
2035
2033
2031
2031
2033
2036
2038
2039
2036
2034
2032
2032
2033
2033
2033
2032
2032
2032
2032
2032
2033
2034
2035
2036
2036
2036
2035
2034
2033
2034
2033
2033
2032
2031
2030
2032
2034
2035
2036
2036
2035
2034
2032
2033
2034
2037
2042
2048
2055
2065
2072
2072
2065
2050
2034
2021
2016
2018
2025
2031
2038
2038
2037
2035
2032
2032
2034
2038
2041
2043
2042
2039
2038
2035
2037
2038
2038
2039
2039
2040
2040
2041
2041
2041
2042
2041
2043
2043
2045
2044
2042
2041
2042
2044
2049
2051
2051
2049
2048
2048
2050
2052
2054
2052
2051
2050
2050
2050
2051
2052
2052
2052
2052
2052
2051
2049
2048
2047
2045
2043
2042
2041
2039
2040
2039
2037
2035
2033
2033
2035
2040
2044
2045
2043
2040
2037
2033
2035
2035
2035
2036
2036
2037
2037
2037
2037
2037
2037
2038
2038
2038
2039
2039
2038
2039
2039
2038
2037
2035
2036
2038
2041
2044
2045
2043
2040
2037
2035
2037
2038
2039
2040
2039
2039
2038
2038
2038
2038
2038
2039
2039
2039
2040
2039
2038
2039
2040
2039
2036
2034
2033
2035
2041
2046
2048
2048
2044
2040
2038
2037
2040
2039
2038
2038
2038
2038
2038
2038
2038
2038
2039
2039
2039
2039
2039
2040
2043
2048
2054
2060
2066
2072
2074
2072
2064
2050
2037
2028
2026
2030
2037
2042
2044
2044
2043
2042
2042
2043
2043
2043
2043
2043
2044
2044
2043
2043
2043
2044
2046
2046
2045
2044
2043
2043
2045
2048
2050
2050
2048
2048
2047
2046
2048
2048
2048
2048
2048
2049
2049
2050
2051
2052
2052
2053
2053
2053
2053
2053
2054
2055
2056
2055
2054
2052
2052
2053
2054
2055
2053
2050
2047
2043
2041
2042
2042
2042
2041
2040
2039
2039
2038
2040
2040
2039
2039
2038
2038
2038
2038
2038
2040
2039
2040
2039
2037
2037
2038
2040
2043
2044
2044
2043
2042
2040
2041
2040
2040
2040
2040
2040
2041
2041
2041
2042
2042
2041
2041
2040
2040
2040
2041
2041
2042
2041
2040
2039
2038
2040
2042
2044
2045
2043
2041
2039
2038
2038
2039
2039
2039
2039
2039
2039
2039
2039
2039
2038
2038
2038
2038
2039
2040
2041
2041
2043
2042
2040
2037
2034
2035
2038
2043
2046
2046
2043
2039
2037
2035
2038
2038
2039
2039
2039
2039
2039
2040
2044
2048
2055
2062
2070
2075
2074
2066
2051
2038
2026
2022
2024
2030
2037
2043
2047
2048
2048
2045
2042
2040
2038
2040
2041
2042
2043
2043
2044
2043
2043
2043
2043
2043
2044
2045
2045
2045
2046
2045
2048
2048
2047
2046
2044
2043
2045
2049
2054
2056
2056
2053
2050
2048
2049
2052
2052
2054
2053
2053
2054
2054
2054
2054
2055
2055
2055
2055
2054
2053
2051
2051
2050
2048
2046
2043
2041
2041
2044
2046
2047
2045
2042
2039
2037
2038
2038
2039
2039
2039
2039
2039
2038
2038
2039
2039
2040
2040
2040
2040
2039
2040
2040
2041
2040
2042
2040
2039
2038
2039
2042
2044
2046
2044
2043
2040
2038
2039
2039
2040
2040
2039
2039
2040
2040
2040
2040
2040
2041
2040
2040
2040
2040
2040
2040
2040
2039
2038
2038
2039
2040
2043
2044
2044
2042
2040
2039
2037
2038
2038
2039
2040
2041
2041
2040
2039
2039
2039
2040
2039
2039
2040
2040
2041
2041
2044
2043
2042
2041
2038
2037
2037
2039
2042
2044
2043
2042
2040
2039
2039
2039
2038
2039
2038
2039
2040
2043
2048
2053
2061
2069
2074
2074
2067
2054
2040
2029
2023
2024
2030
2034
2041
2044
2045
2046
2044
2041
2041
2041
2043
2046
2046
2045
2044
2042
2044
2045
2046
2047
2047
2046
2046
2046
2046
2047
2048
2048
2048
2050
2049
2048
2045
2042
2042
2047
2054
2060
2062
2059
2054
2051
2048
2051
2053
2054
2054
2054
2055
2055
2056
2056
2055
2055
2055
2055
2054
2054
2053
2050
2050
2049
2048
2045
2042
2040
2040
2043
2047
2048
2047
2042
2038
2036
2037
2038
2039
2037
2037
2037
2037
2039
2038
2038
2038
2037
2038
2038
2039
2039
2039
2041
2041
2040
2038
2035
2033
2034
2038
2044
2048
2047
2043
2039
2036
2036
2038
2038
2039
2038
2038
2038
2037
2038
2037
2038
2038
2038
2038
2038
2037
2037
2037
2038
2038
2037
2035
2033
2034
2037
2041
2043
2044
2042
2039
2034
2031
2030
2033
2038
2043
2046
2044
2040
2036
2034
2036
2038
2041
2040
2039
2039
2039
2038
2038
2038
2037
2036
2034
2035
2038
2042
2044
2045
2042
2039
2036
2034
2037
2040
2045
2050
2056
2066
2073
2076
2073
2062
2047
2032
2023
2022
2028
2036
2040
2045
2045
2044
2043
2039
2038
2040
2044
2048
2051
2050
2049
2047
2043
2043
2042
2043
2045
2047
2048
2048
2048
2047
2047
2046
2047
2048
2048
2048
2048
2049
2052
2052
2052
2049
2046
2045
2047
2052
2059
2063
2062
2059
2056
2052
2053
2054
2054
2055
2056
2056
2056
2056
2056
2055
2054
2053
2051
2049
2048
2047
2045
2046
2045
2044
2042
2039
2037
2038
2041
2046
2049
2049
2046
2042
2038
2037
2038
2039
2041
2042
2043
2044
2044
2043
2042
2042
2042
2043
2043
2043
2043
2043
2042
2045
2045
2044
2041
2038
2037
2040
2046
2050
2053
2051
2048
2044
2040
2042
2042
2042
2043
2043
2044
2044
2044
2043
2043
2042
2043
2043
2043
2042
2042
2041
2044
2044
2044
2041
2037
2035
2037
2043
2048
2051
2049
2045
2039
2036
2037
2040
2042
2043
2043
2043
2043
2043
2042
2042
2041
2041
2041
2041
2041
2040
2039
2040
2040
2041
2040
2038
2037
2038
2041
2046
2048
2050
2053
2056
2063
2071
2076
2074
2063
2048
2034
2025
2023
2029
2036
2042
2045
2045
2044
2043
2043
2044
2046
2048
2048
2045
2041
2039
2039
2042
2047
2050
2050
2048
2045
2043
2044
2045
2046
2047
2047
2047
2048
2048
2048
2049
2049
2049
2050
2050
2050
2050
2051
2051
2053
2053
2053
2052
2052
2052
2054
2057
2059
2059
2058
2056
2055
2055
2056
2056
2055
2054
2052
2051
2049
2048
2047
2046
2045
2044
2043
2042
2042
2042
2041
2042
2042
2040
2039
2038
2038
2039
2041
2043
2044
2043
2041
2041
2039
2040
2040
2039
2040
2041
2042
2043
2042
2041
2041
2040
2040
2041
2041
2041
2041
2040
2041
2043
2041
2039
2036
2033
2035
2040
2045
2048
2047
2043
2039
2037
2036
2039
2038
2038
2039
2039
2040
2040
2040
2039
2039
2039
2038
2038
2038
2038
2037
2037
2040
2038
2037
2035
2034
2036
2041
2046
2048
2046
2041
2037
2035
2034
2037
2036
2036
2036
2037
2037
2037
2037
2037
2037
2036
2036
2036
2039
2044
2049
2059
2068
2076
2077
2069
2055
2040
2028
2023
2025
2030
2035
2038
2038
2037
2038
2038
2039
2039
2039
2040
2040
2040
2039
2040
2040
2040
2040
2040
2041
2041
2042
2043
2042
2041
2039
2040
2042
2045
2048
2048
2048
2046
2044
2043
2043
2045
2046
2047
2048
2048
2048
2048
2048
2049
2050
2050
2051
2052
2052
2052
2052
2052
2053
2052
2051
2050
2048
2048
2048
2048
2047
2046
2044
2041
2038
2036
2036
2035
2035
2034
2034
2034
2034
2034
2034
2033
2033
2033
2033
2033
2033
2034
2034
2034
2034
2034
2033
2032
2032
2033
2035
2037
2039
2038
2037
2035
2033
2034
2034
2035
2035
2035
2034
2034
2034
2035
2035
2035
2035
2035
2034
2034
2034
2034
2034
2035
2035
2035
2033
2032
2032
2033
2036
2038
2038
2036
2034
2033
2033
2035
2036
2037
2036
2036
2035
2034
2034
2034
2034
2033
2033
2033
2032
2033
2033
2033
2035
2035
2034
2032
2030
2031
2036
2044
2053
2063
2072
2077
2077
2068
2055
2038
2022
2014
2015
2022
2031
2037
2039
2039
2038
2037
2035
2037
2037
2037
2037
2039
2040
2040
2039
2038
2037
2039
2042
2045
2047
2046
2044
2041
2040
2042
2043
2043
2044
2044
2045
2045
2046
2046
2047
2048
2048
2048
2048
2049
2050
2050
2050
2053
2052
2051
2050
2049
2050
2053
2057
2059
2058
2055
2052
2050
2048
2048
2047
2046
2044
2043
2041
2039
2038
2038
2037
2037
2038
2037
2035
2033
2032
2034
2037
2041
2042
2039
2035
2032
2033
2037
2042
2044
2041
2038
2035
2033
2035
2036
2037
2038
2038
2038
2038
2038
2038
2038
2038
2038
2038
2039
2039
2039
2038
2041
2040
2039
2037
2035
2034
2036
2040
2044
2045
2043
2040
2037
2035
2038
2038
2038
2038
2038
2038
2038
2038
2038
2039
2040
2040
2041
2041
2041
2040
2038
2039
2038
2038
2038
2037
2037
2038
2039
2040
2041
2041
2039
2038
2036
2037
2040
2045
2050
2057
2066
2072
2075
2071
2060
2046
2031
2023
2022
2027
2035
2041
2044
2043
2042
2040
2039
2040
2043
2047
2048
2048
2047
2045
2043
2043
2044
2045
2046
2045
2046
2046
2046
2046
2047
2048
2048
2048
2048
2048
2048
2048
2048
2050
2051
2051
2051
2050
2050
2051
2054
2056
2058
2058
2056
2055
2053
2054
2055
2055
2056
2055
2055
2055
2055
2055
2054
2052
2051
2049
2048
2046
2045
2044
2042
2043
2042
2042
2039
2037
2036
2037
2040
2043
2045
2044
2042
2040
2038
2039
2039
2039
2039
2039
2039
2040
2041
2042
2043
2043
2042
2041
2041
2041
2041
2041
2042
2044
2043
2041
2038
2037
2038
2042
2047
2049
2048
2045
2041
2039
2038
2041
2040
2041
2042
2042
2042
2042
2042
2042
2041
2041
2041
2041
2041
2041
2041
2042
2043
2044
2043
2042
2041
2041
2043
2046
2048
2048
2045
2042
2039
2038
2039
2040
2041
2041
2041
2041
2041
2041
2041
2040
2041
2044
2049
2054
2061
2069
2074
2078
2072
2059
2042
2027
2021
2025
2037
2048
2054
2052
2048
2043
2040
2042
2043
2044
2044
2044
2045
2045
2045
2045
2045
2045
2045
2046
2046
2046
2047
2046
2047
2048
2048
2048
2047
2047
2048
2050
2052
2054
2053
2051
2049
2048
2049
2051
2053
2054
2054
2054
2054
2055
2055
2055
2056
2056
2057
2056
2056
2056
2055
2056
2055
2054
2052
2049
2048
2048
2048
2049
2049
2048
2045
2042
2041
2041
2042
2042
2042
2041
2041
2041
2042
2042
2042
2042
2042
2042
2042
2042
2042
2042
2042
2043
2044
2043
2040
2039
2038
2042
2046
2049
2049
2047
2044
2042
2042
2042
2044
2043
2043
2043
2043
2043
2043
2044
2044
2044
2044
2043
2043
2042
2042
2043
2044
2043
2043
2041
2040
2040
2042
2046
2048
2047
2045
2042
2040
2038
2041
2041
2043
2043
2044
2043
2043
2042
2041
2041
2040
2040
2040
2040
2040
2040
2039
2040
2040
2040
2039
2038
2037
2039
2043
2047
2052
2056
2062
2069
2074
2077
2072
2059
2043
2030
2023
2025
2032
2039
2045
2046
2046
2044
2043
2043
2043
2042
2045
2046
2045
2044
2042
2042
2043
2047
2049
2051
2050
2048
2045
2044
2045
2046
2047
2047
2047
2048
2048
2048
2049
2049
2050
2050
2050
2050
2051
2052
2053
2053
2055
2054
2052
2050
2049
2051
2056
2061
2064
2062
2058
2055
2053
2053
2055
2054
2053
2051
2049
2048
2048
2046
2045
2044
2043
2042
2042
2042
2042
2041
2042
2042
2041
2040
2037
2036
2037
2040
2045
2048
2047
2045
2041
2038
2037
2039
2040
2042
2042
2042
2042
2042
2041
2041
2042
2042
2043
2043
2042
2042
2042
2041
2044
2043
2041
2039
2036
2037
2040
2044
2048
2048
2045
2041
2039
2038
2040
2040
2041
2041
2040
2040
2040
2040
2040
2040
2040
2040
2041
2041
2041
2041
2040
2041
2040
2040
2038
2038
2039
2042
2045
2047
2048
2047
2043
2041
2039
2039
2039
2040
2040
2040
2040
2040
2040
2040
2040
2040
2040
2040
2039
2040
2042
2045
2050
2057
2065
2071
2074
2072
2064
2051
2038
2028
2025
2027
2034
2040
2043
2044
2043
2043
2042
2042
2042
2042
2043
2043
2044
2045
2045
2045
2045
2045
2045
2045
2046
2046
2046
2045
2044
2045
2047
2048
2050
2051
2050
2048
2045
2043
2046
2049
2056
2058
2057
2054
2050
2048
2049
2051
2054
2054
2054
2054
2054
2055
2054
2055
2055
2054
2054
2054
2054
2054
2054
2053
2051
2048
2046
2045
2043
2043
2043
2042
2041
2041
2041
2040
2040
2039
2039
2040
2041
2042
2042
2041
2040
2038
2040
2041
2041
2039
2037
2037
2039
2043
2046
2047
2046
2044
2042
2041
2042
2043
2043
2042
2042
2042
2042
2042
2042
2042
2042
2042
2041
2041
2041
2042
2042
2042
2043
2042
2040
2039
2038
2038
2041
2044
2045
2044
2042
2040
2039
2038
2040
2039
2039
2039
2039
2040
2040
2040
2040
2039
2038
2038
2039
2040
2041
2042
2042
2043
2042
2041
2039
2037
2037
2039
2042
2045
2045
2043
2040
2038
2036
2038
2038
2040
2039
2039
2039
2040
2042
2047
2052
2060
2069
2075
2075
2068
2054
2038
2027
2022
2025
2029
2033
2035
2037
2041
2046
2048
2048
2047
2043
2039
2039
2041
2041
2043
2043
2043
2043
2043
2042
2042
2043
2043
2044
2044
2045
2045
2044
2046
2047
2047
2046
2044
2043
2044
2048
2051
2053
2053
2051
2049
2048
2048
2051
2051
2052
2052
2052
2052
2052
2052
2052
2053
2053
2053
2053
2052
2051
2050
2049
2048
2045
2043
2039
2037
2037
2039
2042
2044
2043
2040
2037
2035
2035
2035
2035
2036
2035
2035
2035
2035
2035
2035
2036
2036
2036
2036
2036
2036
2035
2036
2037
2036
2036
2035
2035
2035
2037
2039
2041
2040
2039
2037
2036
2035
2036
2035
2036
2036
2036
2036
2036
2036
2036
2036
2036
2036
2036
2035
2035
2035
2035
2035
2036
2036
2034
2033
2033
2035
2038
2040
2041
2040
2037
2034
2033
2033
2034
2035
2035
2036
2037
2037
2037
2036
2035
2035
2036
2036
2036
2036
2035
2033
2034
2034
2034
2031
2030
2030
2032
2035
2038
2039
2039
2041
2046
2053
2065
2074
2078
2073
2060
2044
2028
2018
2016
2021
2028
2034
2037
2038
2038
2038
2038
2038
2039
2038
2037
2036
2035
2036
2039
2042
2044
2044
2043
2041
2040
2040
2041
2041
2041
2042
2042
2043
2043
2043
2043
2044
2044
2045
2045
2046
2047
2048
2048
2048
2048
2048
2048
2047
2047
2049
2053
2057
2058
2056
2053
2051
2049
2051
2052
2052
2052
2050
2049
2047
2045
2043
2041
2039
2039
2038
2037
2037
2036
2035
2035
2037
2036
2033
2030
2028
2029
2034
2040
2043
2041
2036
2033
2030
2032
2035
2035
2035
2035
2035
2035
2036
2036
2036
2036
2036
2036
2036
2037
2037
2037
2038
2039
2038
2036
2034
2033
2034
2037
2040
2043
2043
2040
2038
2036
2036
2038
2037
2037
2037
2037
2037
2037
2037
2037
2037
2037
2037
2037
2037
2038
2038
2039
2040
2040
2040
2037
2034
2033
2035
2040
2045
2046
2043
2039
2035
2034
2035
2036
2038
2038
2038
2038
2037
2037
2038
2041
2047
2053
2062
2071
2077
2077
2070
2056
2041
2027
2019
2019
2025
2034
2042
2046
2046
2044
2042
2040
2039
2041
2041
2043
2043
2043
2043
2044
2044
2044
2044
2044
2044
2044
2044
2044
2045
2045
2046
2047
2047
2046
2045
2046
2048
2050
2053
2054
2053
2051
2050
2049
2050
2052
2052
2053
2053
2054
2055
2055
2055
2054
2054
2055
2056
2058
2058
2057
2054
2053
2051
2049
2048
2046
2043
2042
2043
2044
2045
2045
2043
2041
2039
2039
2039
2039
2039
2039
2039
2039
2039
2040
2040
2040
2039
2039
2039
2039
2040
2040
2041
2042
2041
2040
2038
2036
2037
2039
2043
2047
2048
2047
2045
2041
2040
2040
2040
2041
2042
2042
2042
2042
2042
2041
2041
2041
2041
2041
2041
2042
2041
2042
2042
2041
2040
2037
2036
2036
2039
2044
2048
2048
2046
2042
2039
2038
2039
2040
2041
2041
2041
2041
2041
2041
2041
2043
2044
2045
2043
2041
2039
2038
2041
2046
2048
2046
2041
2036
2034
2038
2043
2047
2047
2044
2041
2039
2038
2041
2045
2049
2055
2061
2069
2074
2076
2071
2060
2047
2033
2027
2027
2033
2040
2044
2047
2046
2045
2043
2042
2042
2044
2047
2049
2050
2049
2048
2046
2045
2046
2046
2047
2048
2048
2048
2048
2048
2048
2048
2048
2048
2049
2049
2050
2050
2050
2049
2052
2051
2051
2049
2048
2048
2052
2058
2062
2062
2059
2056
2054
2052
2056
2056
2058
2057
2057
2056
2056
2056
2055
2055
2053
2052
2050
2048
2047
2046
2045
2044
2044
2044
2042
2040
2040
2040
2043
2045
2046
2044
2042
2040
2038
2040
2040
2041
2041
2041
2041
2042
2042
2042
2042
2042
2042
2042
2042
2042
2042
2042
2042
2043
2042
2041
2040
2041
2042
2044
2046
2046
2044
2042
2041
2040
2041
2042
2042
2042
2042
2041
2043
2042
2042
2041
2041
2041
2042
2043
2043
2043
2041
2042
2041
2041
2041
2039
2039
2039
2040
2042
2044
2043
2042
2041
2040
2041
2041
2042
2043
2043
2043
2042
2042
2041
2041
2040
2040
2040
2039
2040
2040
2040
2041
2042
2041
2041
2038
2035
2035
2039
2047
2055
2063
2070
2075
2075
2070
2060
2046
2033
2025
2024
2029
2036
2042
2043
2043
2042
2042
2042
2042
2043
2043
2043
2044
2044
2044
2042
2039
2039
2041
2045
2048
2050
2049
2046
2044
2041
2043
2044
2046
2047
2047
2047
2047
2047
2048
2048
2048
2049
2049
2049
2050
2050
2050
2052
2052
2051
2050
2049
2049
2052
2056
2059
2060
2058
2055
2053
2050
2051
2050
2049
2048
2046
2044
2043
2041
2040
2039
2038
2037
2037
2036
2036
2035
2035
2036
2035
2036
2034
2033
2032
2032
2035
2038
2040
2040
2038
2035
2034
2034
2035
2036
2036
2036
2036
2036
2036
2036
2036
2036
2036
2036
2036
2037
2037
2036
2036
2038
2037
2035
2032
2030
2032
2037
2042
2045
2044
2040
2036
2033
2033
2035
2035
2035
2035
2035
2035
2035
2035
2036
2036
2036
2036
2036
2036
2036
2035
2037
2039
2039
2039
2037
2035
2034
2036
2039
2041
2040
2038
2035
2033
2033
2035
2035
2036
2036
2036
2035
2035
2036
2038
2041
2048
2057
2069
2080
2083
2075
2060
2042
2027
2020
2018
2022
2029
2037
2043
2047
2048
2045
2041
2038
2037
2038
2040
2041
2041
2041
2040
2041
2041
2043
2043
2041
2041
2040
2041
2043
2045
2046
2047
2046
2044
2042
2040
2040
2042
2047
2052
2055
2054
2051
2048
2047
2048
2049
2051
2052
2052
2052
2053
2053
2054
2054
2055
2055
2054
2054
2053
2053
2052
2051
2051
2048
2047
2042
2037
2035
2035
2039
2044
2047
2045
2041
2036
2032
2033
2034
2036
2036
2036
2036
2036
2036
2035
2035
2035
2036
2036
2037
2037
2037
2036
2038
2038
2038
2034
2031
2030
2034
2041
2047
2048
2047
2042
2038
2034
2036
2038
2039
2039
2039
2039
2038
2038
2038
2038
2039
2039
2039
2039
2039
2039
2037
2040
2041
2040
2037
2033
2031
2032
2038
2045
2048
2048
2044
2041
2037
2039
2041
2041
2040
2039
2039
2039
2039
2039
2039
2039
2039
2039
2039
2039
2039
2038
2039
2039
2041
2041
2043
2047
2052
2064
2075
2083
2081
2069
2051
2034
2023
2022
2027
2034
2039
2043
2043
2042
2043
2043
2043
2044
2043
2044
2043
2043
2044
2043
2045
2046
2045
2042
2039
2039
2042
2048
2052
2055
2053
2049
2047
2046
2047
2048
2049
2049
2049
2049
2050
2050
2051
2052
2052
2053
2054
2053
2053
2053
2054
2055
2057
2057
2055
2053
2051
2053
2056
2060
2062
2060
2056
2052
2048
2047
2045
2045
2044
2043
2043
2042
2041
2041
2040
2040
2039
2039
2039
2039
2039
2037
2038
2038
2038
2037
2035
2035
2036
2041
2046
2048
2043
2037
2033
2033
2040
2048
2051
2048
2044
2039
2036
2038
2040
2043
2042
2040
2039
2039
2040
2042
2044
2046
2045
2044
2040
2037
2035
2037
2041
2046
2048
2048
2046
2043
2040
2040
2041
2042
2042
2041
2041
2042
2042
2042
2041
2041
2040
2040
2041
2042
2042
2044
2045
2046
2044
2043
2038
2035
2035
2037
2043
2048
2049
2048
2044
2039
2038
2039
2039
2041
2041
2041
2043
2046
2051
2057
2065
2072
2077
2076
2068
2054
2040
2030
2028
2030
2036
2039
2040
2040
2043
2048
2052
2053
2050
2047
2044
2043
2047
2048
2048
2047
2044
2043
2043
2044
2045
2045
2046
2047
2048
2048
2048
2048
2048
2050
2050
2049
2048
2046
2047
2050
2055
2058
2059
2056
2054
2053
2052
2054
2056
2057
2058
2058
2058
2057
2057
2057
2057
2058
2058
2058
2058
2056
2055
2053
2052
2049
2048
2046
2044
2043
2044
2046
2048
2048
2047
2044
2042
2040
2041
2040
2041
2042
2041
2041
2041
2041
2041
2042
2042
2042
2043
2043
2043
2043
2043
2043
2045
2044
2042
2040
2038
2039
2043
2048
2051
2050
2047
2043
2040
2040
2042
2043
2044
2044
2043
2043
2042
2042
2042
2042
2043
2043
2042
2042
2042
2042
2042
2042
2042
2042
2041
2040
2040
2040
2041
2042
2043
2043
2042
2041
2041
2042
2042
2043
2042
2042
2041
2041
2041
2040
2041
2040
2040
2040
2039
2039
2040
2040
2040
2040
2040
2038
2038
2040
2045
2053
2064
2074
2080
2080
2073
2059
2045
2031
2024
2023
2029
2036
2041
2043
2043
2042
2042
2042
2041
2041
2041
2042
2042
2045
2046
2045
2042
2040
2039
2040
2043
2046
2048
2047
2046
2044
2042
2043
2045
2045
2045
2045
2046
2046
2047
2047
2047
2047
2048
2048
2048
2049
2050
2051
2052
2053
2052
2051
2050
2049
2050
2053
2056
2057
2056
2054
2052
2050
2048
2048
2046
2045
2044
2043
2041
2040
2038
2037
2036
2036
2036
2036
2035
2035
2035
2034
2035
2035
2034
2032
2030
2030
2032
2036
2040
2041
2040
2037
2034
2032
2034
2035
2036
2036
2036
2036
2037
2037
2036
2036
2036
2036
2036
2036
2036
2036
2036
2036
2038
2036
2033
2030
2028
2031
2037
2042
2044
2042
2038
2034
2032
2032
2035
2035
2035
2034
2035
2035
2036
2037
2037
2036
2036
2036
2036
2035
2035
2034
2035
2035
2035
2034
2032
2031
2031
2034
2037
2039
2039
2037
2036
2038
2044
2053
2064
2076
2081
2078
2066
2048
2031
2019
2017
2021
2029
2035
2039
2039
2038
2038
2038
2038
2037
2035
2034
2034
2038
2042
2046
2046
2044
2041
2039
2038
2041
2041
2042
2042
2042
2042
2042
2043
2044
2044
2045
2046
2046
2046
2046
2046
2047
2048
2049
2050
2050
2049
2048
2050
2052
2055
2057
2056
2054
2053
2052
2052
2053
2054
2052
2052
2050
2049
2048
2047
2045
2043
2041
2039
2038
2037
2036
2036
2036
2036
2035
2033
2032
2032
2033
2035
2037
2038
2037
2035
2034
2033
2034
2035
2035
2035
2035
2035
2035
2036
2036
2036
2035
2037
2036
2035
2035
2035
2036
2039
2039
2040
2038
2036
2035
2035
2037
2040
2041
2040
2039
2038
2036
2036
2036
2036
2036
2036
2036
2036
2037
2038
2038
2039
2039
2039
2038
2038
