2006
2001
1996
1991
1987
1985
1983
1981
1980
1979
1979
1980
1980
1980
1980
1979
1979
1979
1979
1979
1979
1980
1980
1979
1979
1979
1978
1979
1979
1980
1980
1980
1979
1978
1979
1979
1980
1981
1981
1981
1981
1981
1981
1980
1980
1979
1979
1980
1981
1982
1981
1981
1980
1980
1980
1981
1981
1981
1980
1980
1981
1981
1981
1981
1981
1981
1981
1982
1982
1983
1984
1984
1983
1982
1981
1981
1981
1982
1984
1984
1984
1984
1983
1982
1982
1982
1982
1983
1983
1983
1983
1983
1983
1983
1983
1983
1983
1983
1983
1983
1983
1983
1983
1982
1982
1982
1982
1983
1984
1984
1984
1983
1982
1981
1981
1982
1982
1983
1983
1982
1982
1981
1982
1982
1983
1984
1986
1987
1988
1988
1988
1988
1987
1986
1985
1984
1984
1984
1984
1984
1984
1984
1984
1984
1984
1984
1985
1985
1983
1978
1971
1967
1972
1991
2023
2062
2103
2136
2151
2140
2101
2043
1978
1927
1902
1904
1923
1945
1962
1972
1976
1979
1980
1980
1980
1980
1981
1983
1984
1986
1987
1987
1987
1987
1987
1988
1988
1989
1990
1991
1992
1994
1995
1996
1997
1997
1998
2000
2001
2003
2005
2007
2008
2010
2012
2014
2017
2020
2023
2025
2027
2028
2029
2029
2030
2030
2030
2028
2026
2022
2016
2009
2002
1996
1990
1986
1983
1981
1979
1977
1976
1975
1974
1973
1973
1973
1972
1973
1973
1974
1974
1974
1974
1973
1972
1972
1972
1973
1973
1974
1974
1974
1975
1975
1975
1974
1974
1973
1973
1974
1975
1975
1975
1975
1975
1975
1975
1975
1975
1975
1975
1975
1975
1975
1975
1975
1975
1975
1975
1975
1975
1975
1975
1974
1974
1974
1974
1975
1975
1975
1975
1975
1975
1975
1975
1975
1975
1975
1976
1976
1976
1977
1977
1976
1976
1975
1975
1975
1975
1975
1976
1977
1977
1976
1975
1975
1975
1976
1977
1978
1978
1978
1976
1975
1975
1975
1976
1978
1980
1981
1982
1982
1981
1981
1981
1981
1982
1982
1982
1982
1981
1981
1980
1979
1978
1977
1977
1977
1978
1980
1981
1981
1979
1973
1965
1961
1966
1987
2021
2062
2105
2137
2148
2131
2087
2024
1960
1912
1892
1898
1919
1943
1959
1968
1971
1973
1975
1976
1977
1978
1978
1979
1980
1980
1981
1982
1983
1984
1984
1985
1986
1986
1987
1987
1988
1989
1991
1992
1993
1994
1995
1996
1997
1998
2000
2003
2005
2008
2011
2014
2017
2020
2022
2023
2024
2026
2027
2029
2030
2031
2030
2028
2023
2017
2010
2003
1997
1992
1987
1984
1980
1977
1975
1973
1971
1970
1969
1969
1969
1970
1970
1970
1970
1969
1969
1969
1969
1970
1970
1971
1971
1970
1970
1970
1969
1970
1970
1970
1970
1971
1971
1972
1972
1971
1971
1971
1971
1971
1972
1972
1972
1972
1972
1971
1971
1971
1971
1971
1971
1971
1971
1971
1971
1971
1971
1971
1971
1972
1972
1973
1973
1973
1973
1973
1972
1971
1971
1972
1973
1974
1974
1975
1975
1974
1973
1973
1973
1973
1973
1974
1974
1974
1973
1973
1973
1974
1975
1977
1978
1978
1979
1979
1980
1980
1980
1979
1978
1978
1978
1978
1977
1976
1975
1974
1974
1974
1974
1975
1977
1977
1975
1969
1962
1958
1964
1985
2021
2065
2109
2142
2149
2127
2075
2007
1941
1896
1881
1891
1915
1939
1956
1965
1969
1972
1974
1975
1977
1978
1979
1980
1981
1982
1982
1983
1983
1983
1984
1985
1986
1988
1989
1990
1991
1991
1991
1992
1993
1994
1996
1998
2000
2001
2003
2004
2006
2009
2013
2017
2020
2023
2025
2027
2028
2030
2031
2032
2032
2031
2030
2027
2023
2017
2010
2003
1995
1989
1984
1981
1978
1976
1974
1973
1971
1971
1971
1971
1971
1971
1971
1971
1971
1970
1970
1969
1969
1969
1970
1971
1972
1972
1972
1972
1972
1972
1972
1973
1973
1973
1973
1973
1973
1973
1973
1973
1973
1973
1973
1974
1974
1975
1975
1975
1974
1973
1973
1973
1973
1974
1975
1975
1975
1975
1975
1975
1974
1974
1975
1976
1977
1978
1978
1978
1977
1976
1975
1975
1975
1976
1976
1976
1976
1975
1975
1975
1977
1978
1979
1980
1980
1981
1981
1981
1981
1980
1980
1979
1979
1978
1978
1977
1977
1976
1976
1976
1976
1976
1977
1978
1977
1974
1967
1962
1964
1979
2011
2054
2101
2140
2157
2143
2097
2031
1959
1904
1878
1882
1904
1930
1951
1964
1970
1974
1977
1979
1980
1980
1980
1981
1983
1984
1985
1986
1987
1987
1988
1988
1990
1991
1992
1993
1994
1995
1996
1997
1998
1999
2000
2001
2003
2006
2008
2011
2013
2016
2018
2021
2024
2027
2030
2032
2034
2035
2036
2036
2036
2035
2034
2031
2027
2022
2016
2009
2002
1995
1990
1985
1982
1980
1979
1978
1976
1975
1974
1973
1973
1973
1973
1973
1972
1972
1973
1973
1974
1974
1975
1975
1974
1975
1975
1975
1975
1976
1976
1976
1977
1977
1977
1977
1978
1979
1979
1980
1980
1979
1978
1978
1978
1978
1979
1979
1979
1979
1979
1978
1978
1979
1979
1980
1980
1981
1980
1980
1980
1979
1980
1980
1981
1982
1982
1982
1982
1981
1981
1981
1981
1982
1984
1985
1985
1986
1987
1987
1987
1987
1987
1987
1986
1987
1987
1987
1987
1986
1985
1984
1984
1984
1984
1985
1987
1986
1983
1977
1970
1969
1981
2009
2050
2096
2138
2163
2159
2123
2062
1991
1929
1892
1887
1904
1931
1955
1970
1978
1981
1983
1984
1985
1986
1987
1989
1990
1991
1992
1992
1992
1992
1992
1993
1994
1996
1997
1999
1999
1999
1999
2000
2001
2003
2005
2007
2009
2011
2012
2014
2016
2018
2020
2023
2026
2029
2032
2034
2035
2037
2038
2038
2038
2038
2037
2035
2031
2025
2019
2011
2003
1996
1991
1987
1985
1984
1982
1980
1978
1976
1975
1975
1975
1975
1976
1976
1976
1976
1976
1975
1975
1974
1974
1974
1975
1976
1977
1978
1978
1978
1978
1977
1977
1977
1977
1978
1978
1979
1979
1979
1978
1978
1977
1977
1978
1979
1979
1979
1979
1978
1978
1977
1977
1977
1977
1977
1978
1978
1978
1978
1978
1978
1977
1977
1977
1977
1977
1977
1978
1979
1980
1981
1981
1981
1982
1983
1984
1984
1984
1983
1982
1981
1980
1980
1980
1980
1980
1980
1980
1980
1980
1979
1979
1979
1978
1974
1968
1963
1967
1984
2016
2058
2103
2140
2155
2142
2098
2034
1965
1911
1884
1886
1907
1934
1955
1968
1974
1977
1978
1978
1978
1978
1979
1980
1982
1983
1984
1985
1986
1986
1986
1986
1987
1988
1989
1991
1992
1993
1994
1995
1996
1997
1998
1999
2001
2004
2006
2009
2010
2012
2015
2017
2020
2022
2023
2025
2027
2029
2032
2034
2035
2034
2031
2026
2021
2016
2009
2003
1997
1991
1986
1981
1978
1975
1974
1973
1972
1972
1971
1970
1969
1968
1968
1968
1969
1970
1970
1970
1969
1969
1969
1969
1970
1970
1970
1970
1971
1971
1971
1970
1970
1969
1969
1969
1969
1969
1970
1970
1969
1969
1969
1969
1969
1969
1969
1969
1969
1969
1969
1970
1969
1969
1969
1968
1968
1968
1968
1969
1969
1969
1968
1968
1968
1969
1971
1973
1974
1975
1974
1974
1974
1974
1973
1973
1973
1972
1973
1973
1972
1971
1969
1969
1969
1969
1970
1971
1973
1974
1972
1967
1959
1953
1954
1970
2001
2044
2090
2129
2148
2138
2097
2034
1965
1910
1882
1882
1902
1926
1946
1957
1962
1964
1966
1967
1968
1970
1971
1972
1973
1973
1973
1973
1974
1975
1976
1977
1978
1978
1979
1980
1981
1982
1983
1984
1986
1987
1988
1990
1992
1994
1995
1997
1999
2002
2004
2007
2009
2011
2014
2016
2018
2020
2021
2022
2022
2021
2020
2016
2011
2005
1998
1990
1984
1979
1974
1972
1969
1968
1966
1965
1963
1961
1960
1959
1960
1960
1961
1961
1962
1962
1961
1961
1960
1960
1960
1961
1962
1963
1963
1963
1962
1961
1961
1961
1961
1961
1962
1962
1963
1963
1963
1962
1961
1959
1959
1959
1960
1961
1961
1960
1959
1957
1957
1958
1960
1962
1964
1963
1962
1960
1959
1958
1957
1958
1959
1961
1962
1964
1964
1964
1964
1964
1964
1964
1964
1964
1964
1964
1963
1963
1962
1962
1961
1962
1962
1961
1961
1961
1962
1963
1960
1955
1947
1943
1949
1970
2006
2050
2095
2128
2137
2115
2065
1998
1933
1887
1871
1880
1903
1927
1944
1952
1955
1957
1959
1960
1962
1963
1963
1964
1963
1964
1964
1965
1967
1968
1970
1971
1972
1972
1971
1971
1971
1972
1973
1976
1978
1980
1981
1981
1982
1984
1987
1989
1993
1996
1998
2001
2003
2005
2008
2010
2012
2014
2015
2015
2015
2014
2011
2007
2001
1993
1986
1979
1973
1968
1965
1962
1960
1958
1956
1954
1953
1952
1953
1954
1955
1955
1954
1953
1952
1952
1952
1953
1953
1954
1954
1955
1955
1955
1956
1956
1956
1956
1956
1956
1956
1956
1956
1957
1957
1957
1957
1958
1959
1960
1960
1959
1958
1956
1955
1954
1955
1955
1956
1956
1956
1956
1956
1956
1956
1955
1954
1954
1955
1957
1959
1960
1960
1959
1959
1960
1961
1961
1961
1960
1960
1960
1959
1959
1958
1957
1956
1956
1956
1957
1958
1958
1959
1959
1957
1952
1945
1939
1941
1957
1988
2032
2077
2116
2133
2120
2077
2014
1946
1893
1868
1872
1893
1917
1936
1946
1951
1954
1956
1958
1959
1960
1961
1962
1962
1963
1964
1966
1967
1968
1969
1968
1968
1967
1967
1967
1969
1972
1975
1977
1978
1979
1979
1981
1982
1985
1987
1989
1990
1992
1995
2000
2005
2009
2011
2012
2011
2012
2014
2017
2020
2020
2017
2011
2005
1999
1994
1989
1983
1977
1972
1968
1966
1964
1962
1960
1958
1957
1957
1959
1960
1961
1960
1959
1959
1959
1960
1961
1962
1962
1961
1960
1960
1959
1960
1960
1960
1960
1960
1960
1961
1962
1963
1963
1962
1960
1959
1958
1960
1961
1963
1964
1963
1962
1961
1961
1962
1962
1963
1963
1963
1964
1963
1962
1962
1961
1962
1964
1966
1968
1970
1971
1971
1971
1970
1970
1970
1970
1971
1973
1973
1972
1970
1968
1967
1966
1966
1967
1968
1969
1971
1972
1972
1969
1962
1954
1951
1957
1979
2015
2059
2104
2137
2146
2125
2074
2008
1943
1899
1882
1891
1913
1935
1951
1959
1964
1968
1970
1971
1972
1972
1973
1974
1975
1975
1975
1976
1978
1980
1981
1981
1981
1980
1980
1981
1983
1985
1987
1988
1988
1989
1991
1994
1996
1998
1999
2001
2003
2007
2011
2016
2019
2020
2021
2022
2024
2026
2028
2029
2029
2027
2023
2018
2013
2006
1999
1993
1986
1981
1977
1974
1972
1970
1968
1967
1965
1965
1965
1965
1966
1967
1966
1965
1964
1964
1965
1966
1967
1967
1966
1966
1965
1966
1967
1968
1968
1967
1966
1966
1965
1966
1967
1968
1968
1968
1966
1965
1965
1966
1968
1969
1970
1970
1970
1969
1969
1968
1968
1968
1968
1968
1969
1969
1969
1968
1967
1967
1968
1969
1971
1972
1973
1973
1974
1974
1973
1972
1972
1973
1974
1974
1973
1972
1970
1968
1968
1969
1969
1969
1969
1969
1970
1971
1968
1961
1954
1952
1961
1986
2025
2071
2115
2144
2146
2117
2061
1992
1930
1890
1881
1895
1920
1943
1959
1965
1968
1969
1970
1971
1972
1973
1973
1974
1975
1976
1976
1976
1977
1978
1980
1982
1983
1984
1984
1984
1985
1985
1987
1989
1991
1992
1993
1995
1998
2001
2004
2006
2008
2009
2012
2014
2017
2020
2022
2024
2025
2026
2028
2029
2029
2028
2025
2019
2012
2005
1998
1991
1985
1981
1978
1976
1974
1973
1971
1970
1968
1968
1968
1968
1969
1970
1970
1970
1969
1968
1967
1968
1970
1971
1971
1970
1969
1968
1968
1968
1968
1968
1968
1969
1970
1970
1971
1971
1971
1971
1970
1969
1969
1970
1970
1971
1972
1972
1972
1971
1970
1970
1970
1972
1974
1974
1974
1972
1971
1971
1972
1973
1972
1972
1971
1972
1974
1976
1978
1978
1978
1978
1978
1978
1978
1979
1979
1980
1980
1980
1980
1979
1978
1977
1977
1977
1977
1977
1976
1976
1976
1976
1974
1970
1965
1960
1963
1978
2008
2048
2094
2134
2155
2146
2106
2044
1976
1921
1893
1893
1910
1933
1950
1961
1967
1971
1975
1978
1980
1980
1980
1981
1981
1981
1982
1982
1982
1983
1983
1984
1985
1987
1989
1991
1992
1993
1994
1994
1995
1996
1996
1997
1999
2001
2004
2007
2010
2013
2016
2018
2021
2024
2027
2029
2031
2033
2035
2036
2036
2034
2031
2027
2022
2016
2009
2002
1996
1992
1988
1985
1981
1977
1974
1972
1972
1972
1973
1973
1972
1971
1969
1969
1968
1969
1969
1970
1970
1971
1971
1970
1970
1971
1972
1974
1975
1975
1975
1974
1974
1973
1973
1973
1973
1973
1973
1973
1973
1974
1975
1975
1975
1975
1974
1974
1974
1975
1975
1975
1975
1974
1974
1974
1975
1975
1975
1975
1975
1976
1976
1976
1975
1974
1973
1974
1975
1976
1977
1977
1976
1975
1975
1977
1978
1979
1979
1979
1979
1979
1979
1979
1978
1977
1976
1975
1975
1975
1975
1976
1976
1976
1975
1975
1976
1978
1978
1976
1970
1963
1959
1965
1985
2019
2061
2105
2140
2153
2136
2088
2022
1956
1908
1889
1896
1918
1942
1959
1968
1972
1974
1975
1975
1977
1978
1979
1979
1980
1980
1981
1982
1983
1984
1984
1984
1985
1985
1987
1988
1989
1990
1991
1992
1993
1995
1997
1999
2002
2004
2006
2008
2009
2011
2014
2017
2022
2025
2028
2030
2031
2032
2034
2035
2036
2035
2032
2028
2023
2017
2009
2002
1994
1988
1983
1980
1979
1977
1976
1974
1972
1971
1971
1971
1971
1972
1972
1972
1972
1971
1971
1971
1972
1972
1973
1973
1972
1972
1972
1972
1973
1973
1973
1973
1973
1974
1974
1975
1975
1975
1975
1975
1975
1975
1975
1975
1975
1975
1975
1976
1976
1976
1975
1975
1975
1976
1976
1977
1976
1976
1976
1976
1976
1977
1978
1978
1978
1977
1977
1977
1977
1978
1978
1978
1978
1977
1977
1977
1978
1978
1978
1979
1978
1978
1977
1977
1977
1978
1979
1980
1981
1982
1982
1981
1981
1981
1982
1984
1984
1984
1983
1982
1982
1982
1982
1982
1981
1981
1982
1982
1983
1983
1983
1982
1980
1975
1968
1964
1967
1983
2012
2051
2096
2134
2155
2148
2111
2049
1982
1928
1899
1899
1917
1941
1959
1970
1975
1978
1980
1981
1982
1982
1983
1984
1985
1986
1987
1987
1987
1987
1989
1990
1991
1991
1991
1991
1992
1994
1995
1997
1998
1999
2001
2002
2003
2005
2007
2009
2012
2016
2019
2021
2024
2027
2029
2032
2034
2037
2039
2041
2042
2042
2040
2036
2030
2024
2018
2012
2006
2000
1995
1990
1985
1982
1979
1978
1978
1978
1978
1977
1976
1976
1976
1976
1977
1977
1977
1977
1977
1978
1978
1976
1975
1974
1974
1976
1978
1979
1979
1978
1977
1977
1978
1980
1980
1980
1979
1979
1979
1979
1980
1981
1980
1979
1978
1977
1978
1980
1983
1984
1983
1982
1980
1979
1979
1979
1980
1981
1982
1982
1982
1982
1981
1980
1980
1979
1980
1981
1981
1982
1981
1981
1981
1981
1981
1981
1982
1982
1982
1983
1983
1983
1983
1983
1982
1981
1981
1981
1982
1984
1985
1985
1984
1983
1982
1983
1984
1985
1985
1986
1986
1985
1985
1984
1983
1984
1985
1987
1988
1989
1989
1988
1988
1988
1988
1988
1989
1990
1991
1991
1990
1988
1986
1985
1984
1984
1984
1985
1986
1987
1988
1987
1984
1978
1972
1970
1979
2001
2035
2075
2117
2149
2160
2142
2095
2032
1967
1922
1904
1912
1934
1956
1971
1978
1980
1982
1983
1983
1984
1984
1985
1986
1987
1988
1989
1989
1989
1990
1990
1991
1992
1992
1993
1994
1995
1996
1997
1999
2000
2002
2003
2004
2005
2005
2007
2008
2011
2015
2019
2023
2025
2027
2029
2031
2033
2036
2038
2040
2040
2040
2038
2035
2031
2026
2018
2010
2003
1998
1994
1991
1988
1985
1982
1979
1977
1976
1977
1977
1978
1978
1977
1976
1976
1977
1978
1978
1978
1978
1977
1977
1977
1978
1978
1978
1977
1977
1977
1977
1978
1979
1978
1978
1977
1977
1977
1978
1979
1980
1981
1981
1981
1980
1980
1980
1980
1980
1980
1979
1979
1979
1979
1979
1979
1979
1978
1977
1977
1977
1978
1978
1979
1980
1980
1980
1980
1979
1979
1979
1979
1980
1980
1980
1980
1980
1979
1979
1979
1980
1981
1982
1982
1981
1981
1981
1981
1981
1982
1982
1983
1983
1983
1983
1982
1983
1984
1985
1985
1985
1985
1985
1985
1985
1985
1985
1985
1985
1984
1984
1984
1984
1984
1984
1985
1984
1984
1985
1985
1986
1985
1984
1982
1981
1982
1983
1985
1987
1988
1990
1990
1991
1992
1994
1996
1998
1997
1995
1991
1987
1984
1982
1982
1983
1984
1986
1988
1990
1992
1991
1988
1981
1974
1971
1978
2000
2036
2078
2120
2153
2165
2151
2108
2046
1981
1932
1911
1916
1935
1958
1973
1981
1984
1986
1986
1985
1985
1984
1984
1984
1986
1987
1989
1989
1989
1989
1989
1990
1992
1993
1994
1994
1994
1995
1995
1996
1996
1997
1997
1998
2000
2002
2005
2008
2009
2010
2012
2014
2017
2020
2024
2026
2028
2029
2029
2029
2031
2033
2036
2036
2034
2029
2021
2014
2006
2000
1995
1992
1989
1987
1985
1983
1981
1980
1979
1979
1978
1978
1978
1979
1980
1981
1982
1981
1980
1980
1979
1980
1980
1981
1982
1983
1983
1984
1984
1984
1984
1984
1983
1982
1981
1981
1982
1983
1984
1985
1986
1986
1987
1987
1987
1986
1986
1986
1985
1984
1982
1981
1982
1983
1985
1987
1987
1986
1985
1983
1983
1983
1983
1984
1984
1984
1983
1982
1981
1980
1981
1982
1983
1984
1984
1983
1982
1981
1981
1982
1983
1982
1981
1981
1981
1983
1983
1982
1977
1973
1971
1972
1975
1978
1977
1974
1970
1967
1967
1969
1972
1973
1973
1972
1971
1970
1968
1967
1965
1964
1964
1964
1965
1965
1965
1964
1962
1962
1963
1965
1968
1970
1972
1972
1972
1971
1969
1967
1965
1964
1962
1960
1958
1958
1960
1962
1965
1966
1967
1965
1961
1954
1948
1946
1955
1977
2013
2057
2102
2138
2150
2131
2082
2016
1950
1902
1883
1888
1906
1926
1940
1949
1955
1959
1961
1962
1963
1963
1964
1964
1964
1965
1967
1969
1970
1971
1970
1969
1969
1969
1969
1970
1972
1973
1975
1977
1978
1979
1979
1980
1981
1984
1988
1991
1994
1995
1997
1999
2003
2006
2010
2013
2016
2019
2020
2021
2021
2020
2019
2016
2013
2008
2002
1996
1990
1984
1979
1974
1970
1966
1964
1961
1960
1959
1959
1959
1959
1959
1960
1960
1959
1959
1959
1960
1962
1962
1962
1960
1958
1957
1958
1959
1962
1964
1966
1966
1966
1965
1964
1964
1964
1964
1965
1966
1966
1966
1966
1966
1966
1965
1965
1966
1966
1967
1968
1968
1968
1968
1968
1968
1967
1966
1966
1967
1967
1967
1967
1968
1969
1971
1971
1971
1970
1970
1969
1969
1970
1971
1971
1971
1971
1971
1971
1971
1971
1971
1970
1970
1969
1969
1970
1970
1971
1972
1972
1972
1971
1971
1971
1971
1972
1973
1973
1974
1976
1977
1977
1977
1977
1975
1974
1974
1975
1976
1976
1975
1974
1973
1973
1974
1974
1973
1972
1972
1972
1973
1971
1966
1961
1963
1980
2013
2058
2107
2146
2163
2148
2103
2037
1968
1913
1886
1887
1906
1929
1948
1959
1965
1970
1972
1974
1975
1976
1977
1978
1979
1980
1980
1979
1979
1979
1980
1982
1983
1985
1986
1987
1988
1989
1991
1992
1993
1993
1992
1992
1992
1995
1998
2003
2007
2011
2014
2017
2020
2024
2027
2029
2030
2031
2033
2035
2038
2041
2042
2040
2034
2025
2015
2006
1999
1994
1990
1986
1982
1978
1975
1973
1972
1970
1969
1968
1969
1969
1969
1969
1968
1967
1967
1968
1970
1972
1973
1973
1973
1973
1973
1973
1973
1973
1973
1973
1974
1974
1974
1975
1975
1976
1976
1977
1978
1979
1979
1980
1980
1980
1979
1980
1980
1980
1980
1980
1980
1980
1981
1982
1983
1983
1983
1982
1982
1982
1982
1983
1983
1984
1984
1984
1984
1984
1984
1987
1990
1991
1990
1987
1985
1983
1985
1988
1991
1992
1992
1991
1990
1990
1990
1990
1990
1988
1987
1986
1987
1989
1991
1992
1991
1988
1983
1976
1971
1972
1986
2016
2062
2118
2170
2201
2196
2152
2078
1997
1930
1894
1890
1908
1934
1955
1968
1974
1977
1979
1982
1985
1989
1993
1996
1999
2002
2003
2004
2004
2004
2005
2006
2007
2006
2004
2002
2001
2002
2004
2008
2012
2015
2017
2019
2020
2022
2025
2028
2031
2034
2038
2041
2044
2048
2052
2055
2058
2059
2060
2061
2061
2062
2060
2057
2053
2048
2040
2032
2024
2016
2010
2006
2002
2000
1997
1993
1990
1988
1986
1985
1986
1987
1987
1987
1986
1985
1983
1981
1979
1979
1980
1982
1985
1988
1989
1987
1984
1981
1979
1981
1985
1991
1996
1997
1996
1993
1991
1991
1993
1995
1995
1993
1990
1987
1985
1986
1989
1992
1994
1995
1995
1993
1991
1989
1988
1988
1990
1993
1995
1997
1997
1995
1994
1994
1995
1996
1997
1998
1999
1999
1999
2000
2000
1998
1997
1995
1995
1995
1997
1997
1997
1996
1996
1995
1995
1996
1998
2000
2003
2004
2004
2003
2000
1996
1990
1984
1985
1998
2027
2069
2120
2167
2195
2190
2149
2080
2004
1940
1907
1905
1924
1950
1971
1984
1991
1996
2001
2004
2004
2001
1995
1990
1991
1997
2004
2007
2003
1995
1992
1997
2008
2019
2025
2024
2021
2018
2019
2020
2022
2022
2022
2022
2022
2023
2024
2027
2032
2037
2042
2045
2046
2046
2046
2047
2049
2052
2055
2058
2060
2062
2063
2061
2055
2047
2038
2030
2024
2020
2015
2009
2002
1996
1993
1991
1990
1988
1985
1983
1983
1987
1992
1994
1992
1986
1980
1977
1977
1979
1983
1987
1990
1992
1994
1995
1995
1994
1991
1989
1988
1988
1991
1994
1996
1997
1997
1994
1991
1988
1986
1986
1988
1991
1994
1995
1994
1991
1988
1985
1984
1987
1990
1994
1996
1995
1992
1989
1987
1987
1989
1993
1995
1996
1994
1993
1992
1994
1995
1995
1993
1990
1989
1989
1991
1992
1992
1990
1989
1988
1989
1991
1992
1993
1993
1992
1989
1985
1978
1972
1969
1975
1996
2033
2081
2134
2178
2198
2181
2129
2054
1979
1923
1896
1899
1919
1943
1963
1975
1981
1984
1986
1989
1993
1997
1999
1998
1994
1990
1987
1988
1994
2001
2007
2009
2008
2004
2000
1999
2000
2003
2005
2005
2006
2008
2012
2017
2021
2024
2024
2024
2024
2026
2029
2034
2038
2042
2046
2048
2048
2048
2048
2049
2052
2056
2058
2057
2050
2042
2031
2021
2012
2004
1998
1994
1991
1991
1990
1988
1984
1979
1975
1975
1977
1983
1987
1989
1988
1986
1983
1981
1980
1978
1978
1979
1982
1986
1988
1987
1985
1982
1980
1980
1981
1982
1984
1985
1985
1985
1984
1984
1986
1988
1990
1992
1991
1989
1987
1985
1984
1985
1987
1988
1988
1986
1984
1983
1984
1987
1991
1992
1991
1990
1988
1987
1987
1987
1989
1990
1992
1993
1993
1993
1994
1995
1996
1997
1996
1992
1988
1983
1981
1981
1984
1987
1989
1988
1988
1990
1993
1995
1993
1985
1976
1970
1977
2000
2042
2092
2143
2178
2184
2155
2096
2024
1959
1918
1906
1918
1938
1957
1967
1971
1973
1977
1982
1988
1993
1995
1995
1993
1991
1991
1992
1994
1995
1997
1999
1999
1997
1994
1992
1991
1994
2000
2007
2012
2015
2016
2013
2008
2004
2002
2006
2014
2019
2021
2021
2021
2025
2033
2041
2046
2046
2043
2042
2045
2049
2053
2053
2047
2034
2019
2005
1995
1993
1996
2002
2007
2008
2001
1991
1981
1977
1978
1981
1980
1977
1973
1973
1977
1985
1990
1990
1987
1982
1981
1984
1987
1990
1989
1987
1985
1984
1986
1990
1993
1992
1989
1984
1982
1984
1991
1997
2000
1995
1986
1979
1977
1983
1994
2004
2010
2008
2001
1990
1982
1978
1980
1989
1999
2004
2000
1990
1980
1976
1981
1991
2000
2005
2004
1999
1995
1992
1991
1992
1994
1997
2000
2002
2003
2002
2000
1997
1993
1991
1990
1991
1993
1994
1994
1991
1988
1986
1985
1987
1991
1997
2002
2004
1999
1990
1979
1974
1983
2008
2049
2098
2146
2180
2189
2166
2114
2047
1982
1935
1916
1922
1942
1964
1982
1992
1996
1998
1999
2001
2003
2006
2007
2006
2004
2002
2002
2004
2007
2010
2012
2014
2014
2014
2014
2014
2013
2013
2013
2013
2013
2015
2017
2019
2021
2022
2023
2023
2025
2027
2030
2033
2034
2036
2039
2042
2047
2050
2051
2051
2049
2047
2045
2042
2036
2029
2020
2012
2006
2002
2000
1997
1994
1989
1983
1977
1972
1967
1963
1962
1962
1965
1967
1969
1970
1969
1968
1967
1966
1965
1966
1967
1968
1969
1968
1966
1964
1963
1963
1965
1967
1969
1970
1970
1970
1969
1970
1972
1973
1974
1973
1972
1970
1969
1968
1969
1969
1969
1969
1969
1968
1966
1964
1962
1960
1960
1960
1961
1962
1963
1963
1964
1966
1968
1970
1972
1974
1976
1978
1980
1982
1984
1985
1985
1984
1982
1980
1979
1979
1980
1980
1982
1983
1984
1984
1985
1985
1985
1983
1978
1971
1965
1967
1982
2014
2056
2105
2148
2172
2166
2128
2064
1992
1931
1896
1893
1911
1937
1959
1972
1975
1975
1972
1971
1972
1973
1973
1972
1970
1968
1968
1970
1972
1974
1974
1974
1974
1974
1974
1975
1975
1974
1973
1971
1969
1968
1970
1975
1981
1985
1986
1984
1981
1981
1985
1993
2001
2008
2012
2014
2016
2018
2021
2023
2023
2020
2015
2008
2001
1994
1985
1977
1971
1966
1961
1956
1951
1949
1951
1957
1963
1964
1960
1953
1946
1943
1944
1947
1950
1953
1955
1957
1955
1952
1947
1943
1944
1948
1953
1956
1956
1954
1951
1950
1949
1949
1949
1950
1952
1955
1958
1959
1958
1956
1953
1951
1948
1946
1947
1949
1952
1956
1958
1958
1956
1954
1951
1949
1949
1950
1952
1953
1955
1955
1954
1954
1955
1957
1958
1958
1957
1954
1952
1951
1952
1952
1952
1950
1947
1945
1945
1945
1943
1941
1939
1939
1940
1943
1944
1942
1934
1924
1919
1926
1948
1988
2037
2086
2123
2135
2113
2059
1988
1918
1869
1853
1865
1891
1916
1931
1934
1932
1930
1927
1927
1927
1929
1933
1939
1944
1949
1950
1948
1945
1943
1943
1943
1945
1948
1950
1951
1951
1950
1947
1946
1946
1948
1952
1958
1965
1971
1975
1978
1979
1981
1985
1989
1993
1997
2000
2002
2004
2005
2007
2008
2009
2009
2007
2003
1997
1989
1980
1972
1965
1960
1956
1952
1946
1942
1939
1940
1942
1945
1946
1945
1943
1941
1939
1938
1938
1939
1941
1943
1943
1943
1942
1941
1942
1943
1943
1943
1942
1941
1941
1941
1942
1941
1941
1941
1942
1943
1945
1945
1944
1943
1943
1943
1943
1943
1942
1942
1942
1942
1942
1942
1942
1943
1944
1947
1950
1952
1953
1952
1951
1950
1950
1951
1952
1954
1956
1957
1958
1958
1957
1957
1958
1959
1960
1962
1964
1965
1963
1961
1958
1957
1957
1960
1962
1963
1963
1963
1962
1962
1962
1963
1963
1961
1957
1951
1947
1949
1964
1994
2036
2084
2128
2154
2150
2112
2048
1977
1917
1885
1882
1898
1920
1938
1948
1954
1958
1963
1966
1969
1970
1970
1971
1971
1973
1975
1977
1979
1980
1982
1983
1983
1983
1984
1984
1986
1987
1989
1991
1992
1992
1994
1997
2000
2003
2006
2007
2009
2011
2015
2019
2024
2028
2031
2034
2037
2040
2043
2045
2047
2048
2046
2042
2036
2029
2022
2015
2009
2003
1997
1990
1985
1981
1978
1976
1975
1974
1973
1972
1971
1971
1972
1971
1970
1969
1967
1967
1968
1970
1973
1975
1976
1975
1973
1972
1972
1972
1973
1973
1972
1971
1969
1969
1969
1971
1974
1978
1982
1982
1981
1979
1977
1976
1975
1975
1975
1975
1976
1977
1977
1976
1974
1973
1973
1974
1975
1977
1978
1979
1979
1978
1977
1976
1975
1974
1975
1975
1976
1974
1973
1972
1974
1977
1980
1982
1983
1983
1982
1981
1980
1978
1977
1975
1974
1974
1973
1974
1975
1976
1975
1973
1970
1967
1968
1972
1978
1982
1980
1972
1961
1954
1958
1978
2017
2068
2123
2168
2186
2167
2112
2035
1957
1901
1878
1884
1907
1930
1947
1956
1962
1968
1971
1973
1973
1974
1976
1979
1981
1980
1978
1976
1976
1977
1980
1983
1987
1991
1994
1996
1996
1993
1992
1992
1993
1993
1989
1982
1978
1982
1994
2011
2025
2029
2026
2020
2016
2020
2027
2035
2039
2037
2034
2031
2032
2036
2038
2037
2031
2023
2013
2005
1999
1993
1987
1982
1977
1974
1971
1968
1964
1959
1955
1954
1955
1960
1967
1971
1971
1967
1960
1954
1953
1957
1966
1976
1981
1979
1971
1959
1952
1951
1955
1962
1967
1970
1971
1971
1971
1969
1967
1964
1966
1971
1977
1980
1979
1977
1975
1978
1982
1983
1981
1975
1970
1969
1975
1983
1988
1988
1985
1981
1981
1984
1989
1992
1993
1991
1989
1986
1987
1989
1994
1999
2004
2007
2007
2005
2002
2001
2002
2004
2007
2008
2007
2005
2005
2007
2013
2017
2017
2013
2008
2005
2006
2010
2016
2020
2021
2020
2018
2018
2019
2020
2018
2013
2007
2004
2011
2033
2069
2119
2175
2226
2253
2245
2195
2116
2033
1968
1938
1941
1962
1988
2007
2018
2024
2030
2034
2037
2039
2040
2040
2040
2039
2039
2040
2042
2044
2047
2048
2050
2050
2049
2048
2048
2048
2050
2054
2057
2059
2059
2058
2058
2061
2065
2070
2074
2077
2080
2082
2085
2089
2092
2095
2097
2099
2101
2102
2103
2103
2102
2101
2098
2095
2089
2082
2073
2065
2057
2049
2043
2036
2030
2027
2028
2031
2034
2035
2032
2027
2023
2023
2025
2029
2032
2034
2032
2029
2026
2023
2021
2021
2023
2024
2026
2027
2026
2024
2022
2021
2022
2024
2028
2030
2029
2025
2020
2019
2021
2025
2029
2029
2025
2020
2016
2016
2016
2018
2019
2019
2021
2024
2026
2027
2026
2024
2020
2016
2015
2016
2020
2024
2026
2027
2026
2023
2019
2014
2011
2013
2018
2023
2024
2019
2011
2007
2010
2018
2026
2030
2028
2023
2018
2015
2017
2020
2023
2025
2024
2020
2015
2011
2010
2012
2018
2023
2026
2024
2019
2015
2014
2017
2023
2029
2031
2028
2022
2016
2010
2008
2010
2015
2020
2023
2021
2016
2011
2009
2012
2015
2015
2010
2002
1996
2001
2022
2058
2106
2158
2205
2232
2227
2184
2112
2032
1965
1927
1920
1935
1959
1983
2000
2011
2016
2014
2009
2006
2006
2011
2016
2021
2024
2025
2025
2024
2024
2024
2026
2028
2028
2028
2029
2031
2035
2038
2042
2044
2045
2045
2044
2043
2046
2049
2055
2062
2067
2069
2070
2070
2070
2072
2073
2075
2078
2083
2090
2097
2101
2101
2096
2089
2079
2070
2061
2051
2045
2040
2037
2034
2029
2024
2017
2011
2008
2007
2008
2011
2014
2016
2015
2014
2012
2009
2007
2005
2003
2004
2005
2007
2008
2006
2002
2000
2001
2006
2011
2015
2014
2010
2004
2000
1998
1999
2003
2007
2009
2009
2007
2003
2001
2000
1999
1998
1998
1998
1999
2001
2002
2002
2001
2000
1999
1999
2000
2000
2000
1999
2000
2001
2002
2004
2003
2002
2001
2000
2000
2001
2002
2002
2001
1999
1997
1996
1997
1999
2002
2004
2006
2006
2004
2002
1999
1996
1994
1993
1995
1999
2003
2005
2004
2002
2001
2001
2002
2003
2002
2000
1999
1999
1999
2000
2000
1999
2000
2002
2006
2009
2010
2010
2009
2007
2007
2006
2004
2002
2001
2001
2000
2000
1999
1999
1998
1998
1999
1999
1998
1994
1987
1981
1981
1991
2017
2055
2101
2148
2187
2204
2190
2140
2064
1986
1926
1900
1906
1931
1957
1976
1985
1989
1991
1991
1990
1987
1986
1986
1988
1992
1996
2000
2003
2003
2001
1997
1994
1993
1995
1999
2003
2004
2003
2001
2002
2004
2008
2011
2012
2011
2011
2012
2016
2020
2024
2027
2030
2032
2036
2039
2041
2041
2040
2040
2042
2047
2051
2054
2052
2047
2039
2030
2023
2015
2008
2002
1997
1994
1990
1987
1983
1980
1978
1978
1981
1984
1986
1984
1979
1975
1973
1974
1977
1981
1983
1983
1981
1979
1978
1978
1979
1979
1979
1979
1979
1978
1977
1977
1977
1979
1981
1983
1983
1982
1979
1977
1977
1978
1979
1980
1981
1980
1978
1976
1975
1975
1977
1979
1980
1979
1977
1976
1977
1979
1981
1981
1980
1979
1978
1979
1980
1980
1980
1978
1977
1977
1979
1980
1982
1982
1982
1981
1980
1978
1978
1978
1981
1983
1986
1986
1985
1983
1981
1980
1979
1979
1979
1981
1984
1986
1987
1987
1986
1985
1984
1985
1986
1987
1988
1988
1987
1987
1986
1985
1986
1986
1988
1988
1989
1988
1987
1987
1988
1988
1989
1990
1991
1992
1994
1995
1995
1995
1994
1993
1993
1992
1992
1992
1991
1991
1991
1990
1990
1989
1990
1991
1991
1989
1984
1977
1973
1979
1998
2031
2072
2118
2161
2188
2188
2153
2088
2010
1941
1903
1898
1918
1945
1966
1976
1979
1981
1981
1983
1984
1984
1985
1985
1986
1986
1987
1988
1987
1986
1985
1985
1986
1988
1990
1991
1991
1989
1988
1988
1989
1990
1990
1989
1988
1989
1994
2000
2006
2009
2009
2009
2012
2019
2026
2032
2034
2034
2033
2032
2032
2032
2031
2029
2026
2023
2018
2012
2005
1998
1990
1985
1980
1978
1976
1975
1974
1973
1971
1969
1967
1966
1966
1966
1965
1965
1965
1964
1963
1962
1962
1963
1965
1967
1968
1968
1966
1964
1962
1963
1964
1965
1966
1965
1965
1966
1967
1966
1962
1955
1950
1949
1952
1959
1966
1972
1975
1977
1978
1977
1976
1974
1972
1970
1970
1968
1966
1965
1964
1964
1966
1968
1971
1972
1973
1974
1974
1974
1973
1971
1970
1969
1970
1970
1970
1970
1969
1969
1971
1973
1973
1973
1972
1972
1973
1975
1976
1975
1975
1974
1975
1976
1977
1978
1978
1977
1976
1974
1973
1972
1973
1974
1976
1978
1979
1980
1980
1979
1978
1976
1975
1975
1976
1978
1980
1981
1982
1983
1984
1984
1983
1982
1980
1980
1980
1979
1978
1976
1974
1972
1972
1973
1974
1975
1977
1978
1976
1971
1964
1959
1961
1976
2006
2047
2092
2134
2160
2159
2126
2065
1994
1932
1896
1890
1906
1930
1950
1961
1965
1968
1969
1971
1974
1976
1979
1980
1979
1978
1977
1976
1975
1976
1977
1979
1980
1981
1981
1981
1981
1981
1982
1983
1984
1985
1987
1989
1992
1995
1996
1997
1997
1998
2000
2003
2007
2010
2012
2013
2014
2016
2019
2021
2024
2025
2026
2026
2024
2021
2015
2007
1999
1992
1986
1982
1979
1977
1974
1971
1967
1963
1960
1957
1957
1958
1962
1966
1969
1969
1967
1964
1960
1958
1959
1960
1962
1964
1964
1964
1963
1962
1960
1959
1959
1960
1961
1962
1962
1962
1962
1962
1962
1962
1963
1962
1960
1957
1956
1956
1959
1961
1961
1960
1959
1958
1958
1957
1957
1956
1956
1958
1960
1960
1959
1956
1954
1954
1956
1959
1960
1960
1960
1959
1960
1960
1961
1962
1962
1962
1960
1958
1956
1955
1956
1958
1961
1963
1964
1964
1962
1960
1958
1958
1959
1962
1965
1967
1967
1966
1965
1964
1965
1966
1968
1968
1968
1969
1970
1971
1971
1970
1969
1967
1966
1966
1965
1964
1963
1963
1964
1964
1964
1961
1958
1956
1955
1956
1956
1955
1954
1960
1979
2013
2058
2108
2148
2163
2145
2093
2024
1954
1906
1888
1896
1918
1941
1956
1964
1968
1971
1972
1972
1971
1970
1971
1973
1976
1978
1978
1977
1975
1973
1974
1976
1980
1982
1982
1981
1979
1978
1980
1983
1988
1992
1996
1998
1998
1996
1995
1996
2001
2009
2017
2023
2024
2024
2025
2027
2031
2035
2038
2039
2039
2039
2038
2038
2036
2033
2028
2021
2015
2008
2003
1999
1995
1993
1991
1989
1986
1983
1980
1978
1978
1979
1981
1982
1983
1984
1984
1985
1985
1984
1983
1983
1983
1983
1983
1983
1981
1980
1981
1982
1983
1983
1982
1980
1979
1979
1979
1980
1980
1981
1982
1981
1979
1977
1976
1978
1981
1984
1986
1986
1984
1982
1979
1977
1976
1976
1979
1981
1981
1979
1975
1972
1972
1975
1979
1983
1985
1985
1983
1981
1979
1977
1977
1977
1977
1977
1978
1978
1978
1977
1977
1977
1979
1981
1982
1981
1979
1977
1977
1979
1983
1986
1988
1988
1986
1983
1981
1979
1978
1978
1978
1979
1979
1980
1980
1980
1980
1977
1971
1963
1958
1964
1985
2023
2072
2124
2163
2175
2152
2096
2024
1956
1910
1895
1905
1927
1949
1963
1970
1973
1974
1973
1973
1973
1974
1975
1976
1978
1980
1982
1983
1984
1985
1985
1986
1987
1988
1988
1987
1987
1987
1988
1990
1992
1994
1995
1996
1997
1998
1999
2001
2003
2007
2010
2013
2015
2016
2018
2022
2026
2030
2032
2034
2034
2034
2034
2033
2029
2024
2016
2008
2000
1994
1989
1984
1980
1976
1972
1968
1965
1963
1962
1963
1965
1967
1969
1968
1966
1964
1963
1963
1964
1965
1966
1967
1967
1966
1965
1964
1965
1965
1966
1966
1966
1966
1966
1966
1964
1962
1960
1960
1963
1967
1970
1970
1968
1965
1964
1963
1963
1963
1961
1960
1959
1958
1957
1957
1957
1957
1957
1957
1957
1956
1956
1956
1956
1955
1954
1952
1950
1950
1952
1955
1957
1957
1956
1956
1956
1957
1958
1960
1960
1960
1959
1958
1958
1957
1957
1956
1955
1955
1955
1954
1955
1955
1956
1955
1954
1949
1943
1937
1937
1951
1981
2025
2077
2125
2153
2146
2104
2034
1956
1893
1861
1860
1880
1906
1926
1938
1944
1948
1953
1957
1960
1963
1964
1965
1964
1964
1964
1966
1968
1971
1972
1972
1971
1970
1971
1972
1974
1975
1976
1978
1978
1979
1980
1981
1983
1984
1986
1988
1991
1994
1996
1998
2000
2003
2007
2012
2017
2021
2023
2023
2023
2021
2017
2012
2004
1995
1985
1975
1965
1955
1945
1935
1928
1921
1916
1911
1906
1901
1897
1894
1892
1890
1889
1887
1886
1884
1882
1881
1880
1880
1880
1879
1878
1877
1876
1875
1874
1874
1873
1871
1870
1869
1869
1869
1869
1867
1864
1860
1856
1854
1852
1852
1852
1852
1853
1853
1853
1853
1852
1852
1852
1853
1853
1852
1852
1851
1851
1851
1851
1852
1854
1858
1863
1868
1872
1874
1876
1877
1879
1882
1886
1889
1890
1890
1889
1888
1887
1885
1882
1880
1879
1879
1880
1881
1881
1880
1879
1878
1878
1875
1869
1863
1861
1871
1895
1934
1980
2027
2059
2067
2042
1985
1911
1841
1795
1781
1793
1818
1842
1858
1866
1871
1874
1877
1879
1880
1880
1879
1879
1879
1881
1884
1886
1888
1890
1891
1891
1892
1892
1893
1893
1893
1892
1891
1889
1886
1884
1884
1885
1887
1891
1895
1899
1903
1907
1911
1914
1918
1922
1926
1931
1936
1940
1942
1943
1942
1939
1934
1929
1924
1918
1912
1906
1900
1896
1892
1889
1885
1882
1879
1878
1877
1877
1877
1877
1877
1877
1877
1876
1876
1877
1878
1879
1880
1881
1880
1879
1878
1877
1876
1877
1877
1878
1878
1878
1878
1879
1880
1882
1882
1882
1882
1882
1882
1882
1883
1883
1882
1882
1882
1882
1883
1884
1884
1883
1882
1881
1881
1882
1883
1884
1884
1885
1885
1886
1886
1885
1885
1886
1888
1889
1890
1890
1888
1887
1885
1885
1884
1884
1884
1885
1885
1885
1886
1887
1888
1887
1883
1876
1869
1867
1878
1903
1944
1992
2039
2071
2078
2053
1998
1925
1856
1810
1795
1806
1830
1854
1871
1879
1884
1887
1889
1890
1891
1891
1892
1893
1893
1894
1896
1898
1900
1901
1902
1902
1902
1902
1903
1905
1907
1909
1911
1912
1913
1914
1915
1917
1919
1922
1925
1928
1931
1934
1936
1939
1941
1943
1945
1948
1952
1955
1957
1958
1958
1957
1954
1950
1945
1939
1934
1929
1925
1920
1916
1912
1908
1905
1901
1898
1897
1897
1899
1901
1902
1903
1902
1902
1901
1901
1901
1902
1903
1903
1903
1902
1902
1902
1903
1904
1904
1905
1905
1906
1907
1908
1907
1907
1906
1906
1908
1910
1911
1912
1911
1910
1909
1909
1910
1911
1913
1913
1913
1913
1913
1914
1915
1916
1917
1917
1918
1919
1921
1922
1922
1921
1920
1920
1920
1921
1922
1922
1922
1921
1920
1919
1918
1918
1917
1918
1920
1921
1919
1915
1907
1903
1909
1929
1966
2013
2062
2102
2120
2105
2057
1987
1913
1857
1832
1837
1860
1886
1905
1915
1919
1921
1922
1923
1924
1924
1925
1927
1930
1932
1934
1935
1936
1936
1937
1938
1939
1940
1941
1942
1943
1944
1944
1945
1947
1949
1951
1954
1957
1959
1961
1963
1965
1967
1970
1973
1976
1980
1983
1986
1988
1988
1988
1987
1987
1987
1986
1984
1979
1973
1966
1960
1955
1950
1946
1943
1939
1937
1935
1933
1932
1931
1930
1930
1930
1930
1931
1931
1932
1932
1932
1932
1931
1931
1932
1932
1933
1934
1934
1934
1932
1931
1931
1931
1932
1934
1936
1938
1938
1939
1939
1938
1938
1937
1937
1938
1938
1939
1939
1940
1940
1939
1938
1938
1938
1938
1939
1940
1942
1942
1943
1944
1945
1945
1945
1945
1945
1946
1948
1949
1950
1949
1949
1948
1947
1947
1946
1946
1945
1945
1945
1946
1946
1946
1946
1946
1946
1944
1938
1932
1930
1939
1963
2002
2048
2095
2128
2135
2109
2054
1984
1918
1874
1859
1868
1891
1913
1929
1938
1943
1945
1946
1947
1947
1947
1948
1949
1950
1951
1953
1954
1955
1955
1955
1956
1956
1957
1958
1959
1960
1961
1962
1963
1964
1966
1968
1970
1972
1974
1976
1978
1980
1982
1984
1987
1989
1991
1994
1997
2000
2003
2005
2006
2006
2005
2003
2001
1997
1992
1986
1979
1972
1966
1960
1956
1954
1952
1951
1950
1949
1948
1947
1946
1946
1946
1946
1947
1947
1948
1948
1948
1947
1947
1947
1947
1948
1949
1949
1949
1949
1948
1948
1948
1949
1950
1951
1952
1952
1952
1952
1951
1950
1949
1949
1949
1948
1948
1948
1949
1951
1952
1953
1953
1951
1950
1950
1951
1953
1955
1956
1957
1957
1957
1957
1957
1958
1958
1958
1957
1957
1956
1955
1954
1954
1953
1953
1954
1955
1956
1956
1957
1956
1955
1951
1944
1938
1937
1948
1976
2019
2069
2116
2145
2144
2109
2048
1975
1913
1875
1867
1881
1904
1925
1939
1946
1951
1954
1956
1958
1958
1958
1959
1959
1959
1960
1960
1961
1963
1965
1966
1967
1968
1969
1970
1971
1971
1973
1974
1976
1977
1979
1981
1982
1983
1984
1987
1990
1993
1996
1999
2002
2004
2007
2009
2011
2013
2015
2016
2017
2017
2016
2014
2010
2004
1998
1992
1985
1980
1975
1971
1968
1965
1963
1962
1961
1960
1960
1960
1960
1960
1959
1958
1958
1957
1957
1958
1959
1960
1961
1961
1960
1959
1958
1958
1958
1958
1958
1959
1959
1960
1960
1961
1961
1961
1961
1961
1961
1961
1962
1962
1963
1963
1963
1962
1961
1961
1962
1963
1964
1964
1963
1963
1963
1965
1966
1967
1968
1968
1969
1971
1973
1975
1976
1975
1973
1971
1969
1968
1967
1966
1965
1964
1963
1962
1962
1963
1965
1967
1968
1966
1961
1954
1947
1948
1963
1996
2042
2094
2140
2163
2153
2108
2039
1963
1904
1873
1873
1892
1916
1936
1948
1955
1959
1963
1967
1969
1970
1971
1972
1974
1975
1976
1976
1975
1975
1976
1978
1980
1982
1983
1983
1983
1983
1983
1984
1986
1989
1991
1993
1995
1996
1998
2000
2003
2006
2009
2012
2015
2018
2021
2023
2025
2026
2028
2029
2029
2028
2027
2024
2021
2016
2010
2003
1996
1989
1984
1980
1977
1974
1972
1970
1968
1966
1964
1963
1964
1965
1966
1967
1967
1966
1966
1966
1966
1966
1966
1965
1965
1966
1968
1969
1970
1969
1969
1969
1969
1971
1972
1973
1973
1973
1972
1971
1971
1971
1972
1973
1974
1975
1974
1973
1973
1972
1972
1972
1973
1974
1974
1974
1974
1974
1974
1975
1976
1977
1978
1978
1979
1979
1979
1980
1980
1980
1979
1979
1979
1978
1978
1978
1977
1976
1975
1975
1975
1975
1975
1976
1978
1977
1974
1967
1961
1963
1979
2012
2058
2109
2153
2174
2163
2118
2048
1974
1914
1884
1884
1904
1930
1951
1964
1970
1974
1976
1978
1979
1981
1982
1984
1985
1986
1987
1987
1987
1987
1987
1988
1989
1991
1993
1995
1996
1996
1996
1996
1998
2000
2003
2005
2006
2008
2009
2011
2014
2016
2019
2022
2025
2028
2030
2032
2034
2035
2037
2039
2039
2038
2036
2032
2027
2022
2017
2011
2005
1998
1992
1988
1985
1983
1982
1981
1980
1978
1976
1974
1973
1974
1975
1976
1978
1979
1978
1977
1976
1975
1975
1976
1976
1977
1978
1978
1978
1977
1977
1976
1976
1978
1979
1981
1981
1980
1979
1979
1979
1979
1979
1978
1978
1978
1979
1981
1981
1981
1980
1979
1978
1978
1980
1981
1982
1982
1981
1981
1980
1980
1980
1980
1981
1982
1983
1984
1984
1984
1983
1983
1984
1985
1986
1986
1987
1987
1987
1986
1985
1983
1982
1981
1981
1981
1982
1983
1984
1984
1985
1983
1979
1972
1966
1965
1977
2005
2046
2094
2141
2171
2173
2142
2081
2006
1939
1896
1884
1898
1924
1947
1963
1970
1974
1975
1976
1978
1980
1982
1982
1983
1983
1984
1985
1987
1988
1989
1989
1989
1989
1989
1989
1990
1991
1993
1994
1996
1998
1999
2000
2001
2003
2005
2007
2009
2012
2015
2018
2021
2023
2026
2028
2030
2033
2035
2037
2037
2037
2035
2032
2029
2025
2020
2014
2008
2002
1996
1992
1988
1984
1981
1979
1978
1977
1978
1978
1977
1977
1976
1977
1977
1977
1976
1976
1976
1977
1978
1978
1978
1977
1977
1977
1978
1978
1978
1977
1977
1978
1978
1978
1978
1977
1977
1977
1978
1979
1980
1980
1979
1978
1978
1978
1978
1979
1980
1980
1981
1981
1981
1980
1980
1980
1980
1981
1982
1982
1982
1981
1981
1981
1981
1982
1982
1982
1983
1983
1983
1983
1982
1982
1982
1982
1982
1984
1985
1987
1988
1989
1990
1990
1989
1988
1987
1987
1986
1986
1986
1985
1985
1984
1984
1984
1985
1986
1987
1985
1980
1972
1966
1970
1987
2021
2065
2114
2156
2177
2166
2122
2054
1982
1925
1896
1897
1917
1942
1962
1973
1978
1980
1981
1982
1983
1983
1984
1985
1988
1989
1991
1991
1991
1991
1991
1991
1992
1994
1995
1996
1996
1996
1997
1998
2000
2001
2002
2003
2004
2006
2009
2012
2015
2017
2020
2022
2025
2028
2031
2033
2036
2038
2039
2040
2040
2040
2039
2037
2034
2030
2024
2018
2011
2004
1999
1994
1991
1989
1987
1985
1984
1983
1982
1982
1981
1981
1982
1982
1983
1983
1982
1982
1981
1981
1981
1982
1982
1982
1983
1983
1983
1982
1982
1982
1982
1983
1984
1984
1984
1984
1984
1983
1983
1982
1981
1981
1982
1983
1985
1986
1986
1985
1984
1983
1983
1984
1984
1985
1985
1984
1983
1983
1982
1983
1983
1984
1985
1987
1987
1988
1987
1986
1985
1984
1983
1983
1984
1984
1985
1986
1986
1986
1985
1985
1984
1985
1985
1986
1986
1985
1984
1984
1984
1984
1984
1984
1985
1986
1987
1988
1988
1988
1987
1987
1988
1989
1991
1993
1994
1995
1995
1993
1991
1988
1986
1985
1985
1986
1987
1987
1986
1986
1986
1987
1987
1984
1978
1972
1971
1981
2006
2045
2090
2135
2166
2173
2147
2092
2023
1957
1913
1898
1908
1930
1953
1969
1977
1981
1983
1984
1984
1984
1984
1984
1986
1988
1989
1990
1991
1991
1991
1991
1992
1992
1992
1993
1994
1996
1997
1998
1999
1999
2000
2000
2001
2003
2005
2008
2011
2014
2016
2018
2019
2021
2024
2027
2030
2033
2034
2035
2036
2037
2038
2038
2036
2032
2027
2021
2015
2009
2004
1998
1993
1989
1986
1984
1983
1982
1980
1979
1978
1977
1977
1977
1977
1978
1979
1980
1980
1979
1979
1978
1978
1978
1978
1979
1979
1979
1979
1979
1979
1979
1979
1979
1979
1979
1979
1979
1979
1979
1979
1980
1979
1979
1978
1978
1978
1979
1979
1980
1980
1979
1979
1978
1978
1979
1979
1980
1980
1979
1979
1978
1978
1978
1979
1979
1980
1980
1980
1979
1979
1979
1979
1979
1979
1979
1979
1979
1979
1980
1980
1980
1979
1979
1979
1979
1980
1981
1981
1982
1982
1981
1981
1980
1979
1979
1979
1980
1981
1982
1982
1981
1981
1980
1980
1981
1981
1980
1980
1980
1981
1982
1983
1983
1983
1984
1985
1987
1989
1991
1991
1990
1988
1986
1984
1984
1985
1986
1987
1987
1987
1986
1985
1985
1986
1985
1982
1975
1968
1965
1974
1998
2038
2084
2131
2164
2170
2142
2085
2014
1948
1905
1891
1902
1925
1947
1962
1971
1976
1979
1982
1983
1983
1983
1983
1983
1984
1986
1988
1989
1990
1991
1991
1991
1991
1992
1993
1994
1995
1996
1997
1998
1998
1999
2001
2002
2004
2007
2009
2012
2014
2016
2018
2020
2023
2026
2029
2031
2033
2035
2037
2038
2039
2039
2038
2037
2035
2032
2027
2021
2014
2007
2001
1996
1993
1990
1989
1988
1986
1985
1984
1982
1981
1980
1979
1979
1980
1981
1981
1981
1981
1981
1981
1981
1982
1982
1982
1982
1982
1982
1982
1983
1984
1985
1987
1988
1989
1989
1989
1988
1987
1986
1985
1985
1984
1984
1984
1983
1983
1982
1982
1982
1981
1981
1981
1981
1982
1983
1983
1983
1982
1981
1981
1981
1981
1982
1983
1983
1983
1984
1984
1983
1983
1983
1983
1983
1983
1983
1983
1983
1984
1985
1985
1985
1985
1984
1984
1984
1985
1985
1986
1986
1986
1986
1985
1985
1985
1985
1985
1986
1986
1987
1988
1988
1988
1989
1990
1991
1993
1994
1994
1993
1992
1990
1990
1989
1988
1987
1987
1986
1987
1987
1988
1989
1988
1986
1982
1977
1972
1974
1989
2019
2062
2111
2155
2181
2177
2140
2075
2001
1938
1901
1895
1911
1935
1956
1969
1976
1981
1985
1988
1990
1991
1991
1991
1992
1993
1995
1996
1998
1998
1998
1998
1997
1997
1999
2000
2002
2004
2004
2004
2005
2005
2007
2009
2011
2014
2016
2017
2018
2019
2022
2024
2028
2031
2035
2038
2041
2043
2045
2047
2047
2047
2046
2045
2043
2040
2036
2030
2024
2017
2011
2005
2000
1995
1993
1991
1991
1990
1990
1988
1987
1986
1985
1985
1985
1985
1985
1985
1985
1986
1986
1987
1986
1986
1985
1985
1986
1987
1988
1988
1988
1987
1987
1986
1987
1987
1988
1989
1990
1990
1989
1989
1988
1988
1988
1989
1991
1992
1992
1991
1990
1989
1989
1989
1989
1989
1990
1990
1990
1990
1990
1989
1987
1987
1988
1990
1993
1996
1996
1995
1993
1991
1990
1990
1991
1991
1992
1992
1992
1991
1991
1991
1991
1991
1991
1992
1993
1993
1993
1993
1992
1992
1991
1991
1991
1991
1991
1992
1993
1994
1995
1995
1994
1994
1995
1996
1997
1998
1999
1999
1998
1997
1996
1995
1994
1994
1993
1993
1993
1992
1992
1992
1993
1994
1994
1991
1985
1979
1979
1992
2019
2057
2103
2147
2176
2180
2153
2096
2025
1959
1915
1902
1914
1938
1961
1977
1985
1990
1993
1993
1993
1993
1992
1993
1994
1995
1997
1999
2000
2000
2000
2000
2000
2001
2002
2003
2004
2005
2005
2006
2007
2008
2010
2011
2013
2014
2016
2018
2019
2021
2024
2026
2028
2030
2033
2036
2039
2042
2045
2046
2047
2046
2046
2045
2043
2041
2037
2032
2025
2018
2011
2005
2000
1997
1994
1992
1991
1989
1987
1986
1986
1986
1986
1986
1986
1985
1985
1986
1986
1986
1986
1985
1985
1985
1985
1985
1986
1986
1986
1986
1986
1986
1985
1985
1985
1986
1987
1988
1988
1988
1987
1987
1986
1986
1987
1987
1987
1988
1988
1989
1989
1989
1988
1987
1987
1987
1988
1988
1988
1988
1987
1987
1988
1989
1990
1990
1991
1991
1991
1991
1990
1990
1989
1989
1989
1989
1990
1990
1990
1990
1990
1990
1990
1991
1991
1991
1992
1992
1992
1992
1992
1991
1990
1989
1988
1989
1990
1992
1993
1994
1993
1993
1992
1993
1994
1995
1996
1997
1997
1997
1996
1994
1993
1991
1991
1991
1992
1993
1994
1994
1994
1993
1992
1988
1981
1975
1975
1987
2013
2052
2097
2141
2172
2179
2156
2103
2033
1965
1918
1900
1909
1932
1956
1973
1982
1986
1989
1990
1991
1992
1992
1993
1993
1994
1994
1995
1996
1997
1998
1998
1998
1999
1999
2000
2000
2002
2003
2005
2007
2008
2009
2010
2010
2010
2011
2013
2015
2018
2021
2024
2027
2029
2031
2033
2035
2037
2039
2041
2043
2044
2045
2044
2042
2039
2035
2029
2023
2016
2009
2004
1999
1995
1992
1989
1987
1986
1985
1985
1985
1985
1984
1983
1983
1983
1984
1984
1984
1984
1984
1984
1984
1984
1984
1984
1983
1983
1984
1985
1985
1985
1985
1984
1983
1983
1983
1984
1985
1986
1986
1986
1985
1984
1984
1984
1985
1986
1986
1987
1987
1987
1986
1986
1985
1985
1985
1986
1987
1988
1988
1987
1987
1986
1985
1986
1986
1987
1988
1988
1988
1988
1987
1986
1986
1986
1987
1988
1988
1988
1988
1988
1988
1988
1988
1988
1988
1988
1988
1989
1989
1989
1988
1988
1987
1987
1986
1986
1986
1987
1987
1987
1988
1988
1989
1990
1990
1991
1992
1992
1992
1992
1992
1992
1991
1991
1992
1992
1992
1991
1989
1988
1987
1987
1988
1989
1991
1992
1991
1986
1979
1973
1975
1990
2020
2061
2108
2150
2174
2170
2133
2070
1998
1936
1901
1896
1913
1937
1958
1971
1978
1982
1984
1986
1988
1989
1989
1990
1990
1991
1991
1991
1991
1991
1991
1991
1992
1994
1995
1997
1998
1999
1999
1999
1998
1999
2000
2002
2004
2007
2009
2010
2012
2013
2015
2018
2020
2023
2026
2029
2032
2034
2035
2036
2037
2038
2039
2039
2037
2034
2030
2024
2017
2011
2004
1999
1995
1991
1989
1986
1984
1982
1980
1979
1978
1978
1978
1978
1978
1978
1978
1979
1978
1978
1977
1976
1975
1975
1976
1976
1977
1977
1977
1976
1976
1976
1976
1976
1977
1977
1977
1978
1978
1978
1978
1979
1979
1980
1980
1980
1980
1979
1979
1979
1979
1979
1980
1980
1980
1981
1981
1982
1981
1981
1981
1981
1982
1982
1982
1982
1983
1983
1983
1982
1982
1982
1982
1983
1983
1984
1984
1984
1984
1984
1983
1982
1982
1983
1983
1984
1985
1985
1984
1984
1983
1983
1984
1984
1985
1985
1986
1987
1988
1988
1988
1988
1989
1990
1991
1992
1993
1992
1990
1988
1986
1986
1985
1985
1986
1986
1987
1987
1988
1989
1989
1988
1984
1977
1971
1972
1986
2016
2058
2107
2151
2176
2169
2129
2064
1991
1931
1897
1894
1911
1934
1955
1968
1976
1981
1985
1987
1988
1988
1988
1988
1989
1990
1992
1992
1992
1992
1993
1994
1995
1996
1996
1995
1995
1996
1997
1998
1999
2001
2002
2005
2008
2010
2013
2015
2017
2019
2020
2021
2023
2025
2027
2030
2032
2034
2035
2036
2037
2037
2036
2035
2033
2029
2025
2020
2014
2007
2000
1994
1988
1983
1981
1979
1978
1977
1977
1976
1975
1975
1974
1974
1974
1974
1974
1974
1973
1973
1973
1974
1975
1976
1976
1976
1975
1975
1976
1976
1977
1977
1977
1976
1975
1975
1976
1977
1978
1978
1978
1978
1977
1977
1977
1978
1978
1979
1979
1979
1979
1979
1979
1978
1979
1979
1981
1982
1982
1981
1980
1979
1979
1979
1979
1979
1980
1980
1981
1981
1982
1982
1982
1981
1981
1981
1981
1982
1982
1981
1981
1980
1980
1980
1981
1983
1985
1987
1988
1989
1988
1987
1987
1987
1988
1988
1988
1988
1988
1988
1987
1986
1985
1983
1982
1982
1982
1984
1986
1988
1989
1987
1983
1975
1967
1966
1979
2008
2052
2103
2150
2178
2176
2138
2072
1996
1930
1891
1884
1901
1926
1949
1963
1971
1976
1980
1983
1985
1987
1988
1989
1989
1990
1990
1990
1991
1992
1994
1996
1997
1997
1997
1998
1998
1999
2000
2002
2003
2004
2005
2006
2007
2008
2010
2012
2015
2018
2021
2024
2027
2030
2032
2034
2036
2039
2041
2043
2045
2046
2045
2044
2041
2037
2031
2024
2017
2011
2005
2000
1996
1992
1989
1986
1984
1982
1981
1981
1981
1981
1982
1982
1982
1982
1981
1981
1981
1981
1981
1981
1981
1981
1981
1981
1981
1982
1982
1982
1983
1983
1983
1984
1984
1983
1982
1982
1981
1982
1983
1984
1985
1986
1986
1985
1985
1984
1984
1984
1984
1985
1985
1984
1983
1983
1983
1984
1985
1986
1986
1985
1985
1984
1984
1984
1984
1984
1985
1985
1986
1986
1986
1986
1985
1984
1983
1983
1984
1985
1986
1987
1987
1986
1985
1985
1985
1986
1987
1986
1986
1985
1984
1985
1985
1986
1986
1987
1987
1988
1989
1990
1991
1992
1992
1991
1990
1990
1989
1988
1987
1987
1987
1987
1987
1987
1987
1988
1989
1989
1986
1979
1973
1972
1984
2011
2050
2097
2142
2174
2179
2151
2092
2018
1949
1903
1889
1902
1927
1952
1969
1978
1982
1984
1985
1985
1985
1986
1988
1990
1992
1993
1993
1993
1992
1992
1992
1993
1994
1996
1997
1998
1998
1998
1998
1999
2000
2001
2003
2004
2006
2008
2010
2012
2014
2016
2017
2019
2022
2026
2030
2034
2038
2039
2040
2039
2038
2038
2037
2036
2034
2030
2025
2018
2011
2005
1999
1994
1990
1987
1985
1984
1983
1982
1981
1980
1979
1979
1979
1979
1980
1980
1981
1982
1981
1980
1979
1978
1978
1979
1980
1981
1981
1981
1980
1980
1979
1979
1979
1980
1980
1980
1981
1981
1980
1980
1979
1979
1980
1980
1981
1982
1982
1982
1981
1980
1979
1979
1980
1981
1982
1983
1984
1983
1982
1981
1981
1981
1982
1983
1983
1983
1983
1983
1983
1983
1983
1983
1983
1983
1983
1983
1983
1984
1985
1986
1987
1987
1987
1986
1986
1986
1986
1986
1986
1986
1985
1985
1984
1983
1983
1983
1984
1986
1987
1988
1988
1988
1988
1989
1990
1992
1993
1993
1993
1992
1991
1990
1990
1989
1988
1987
1987
1986
1986
1986
1987
1987
1988
1987
1983
1976
1971
1974
1990
2021
2063
2110
2152
2175
2170
2133
2068
1996
1934
1900
1896
1915
1940
1962
1975
1981
1984
1985
1986
1987
1987
1987
1988
1989
1990
1991
1992
1992
1992
1992
1993
1993
1994
1995
1997
1998
1999
2000
2000
1999
2000
2002
2004
2007
2009
2011
2013
2014
2015
2017
2019
2021
2024
2028
2031
2034
2036
2038
2039
2039
2040
2040
2039
2038
2035
2030
2024
2017
2010
2004
1999
1996
1993
1992
1990
1988
1986
1984
1983
1982
1982
1982
1982
1983
1982
1982
1981
1981
1981
1982
1982
1982
1981
1981
1982
1983
1984
1984
1984
1983
1983
1982
1982
1983
1984
1985
1986
1985
1984
1983
1982
1982
1983
1984
1984
1985
1984
1984
1983
1983
1982
1982
1983
1984
1985
1985
1985
1985
1984
1983
1983
1982
1983
1984
1985
1987
1988
1988
1987
1986
1984
1984
1984
1984
1985
1985
1986
1986
1986
1985
1984
1984
1984
1985
1986
1986
1987
1987
1986
1985
1984
1984
1984
1984
1985
1984
1984
1983
1983
1983
1984
1985
1986
1987
1987
1987
1988
1989
1989
1989
1989
1989
1988
1988
1988
1987
1986
1984
1983
1982
1982
1982
1982
1983
1984
1984
1982
1977
1970
1966
1971
1989
2023
2066
2113
2152
2170
2158
2113
2045
1973
1917
1889
1892
1912
1937
1957
1968
1973
1977
1978
1979
1980
1981
1981
1982
1982
1982
1983
1983
1985
1986
1987
1988
1988
1988
1989
1989
1990
1990
1991
1991
1993
1994
1996
1998
1999
2000
2002
2003
2004
2006
2008
2011
2014
2017
2020
2022
2024
2026
2028
2029
2031
2032
2032
2031
2028
2024
2019
2013
2006
2000
1995
1990
1986
1983
1980
1978
1976
1974
1972
1971
1971
1971
1972
1973
1972
1972
1971
1970
1970
1971
1971
1972
1973
1972
1972
1972
1972
1971
1971
1971
1972
1972
1973
1973
1974
1973
1973
1972
1971
1971
1971
1972
1973
1973
1973
1973
1973
1972
1972
1971
1971
1972
1973
1974
1974
1974
1972
1971
1970
1971
1972
1973
1974
1974
1974
1974
1973
1973
1972
1971
1971
1971
1972
1973
1974
1974
1974
1973
1972
1971
1972
1972
1973
1974
1975
1974
1973
1972
1971
1971
1972
1973
1974
1974
1974
1973
1972
1971
1970
1969
1969
1970
1971
1973
1974
1975
1975
1975
1975
1975
1975
1976
1977
1978
1979
1979
1978
1976
1973
1971
1971
1971
1973
1973
1974
1974
1974
1974
1972
1967
1961
1956
1958
1974
2004
2046
2093
2135
2160
2155
2117
2053
1981
1918
1883
1877
1894
1920
1941
1955
1962
1966
1969
1971
1972
1972
1972
1972
1972
1973
1975
1976
1977
1978
1978
1979
1979
1979
1979
1979
1979
1980
1982
1983
1985
1986
1986
1987
1988
1989
1991
1992
1995
1998
2000
2003
2005
2007
2010
2014
2017
2019
2021
2023
2024
2025
2025
2023
2020
2016
2012
2007
2002
1996
1991
1985
1980
1975
1972
1969
1967
1966
1965
1964
1964
1964
1964
1964
1963
1961
1960
1960
1960
1961
1963
1963
1963
1962
1961
1960
1960
1960
1961
1962
1963
1963
1962
1962
1961
1962
1963
1963
1964
1964
1964
1964
1963
1963
1962
1962
1963
1963
1964
1964
1964
1964
1964
1964
1964
1963
1962
1963
1963
1964
1965
1965
1965
1965
1964
1964
1965
1965
1966
1966
1965
1965
1964
1964
1964
1964
1964
1964
1964
1964
1965
1965
1965
1966
1966
1965
1965
1965
1965
1965
1965
1965
1965
1964
1964
1964
1966
1968
1970
1971
1971
1970
1970
1969
1970
1971
1971
1970
1970
1969
1968
1966
1965
1964
1964
1964
1964
1965
1967
1968
1968
1963
1955
1948
1947
1960
1990
2036
2088
2136
2163
2158
2117
2048
1972
1907
1870
1865
1881
1906
1928
1943
1951
1956
1959
1962
1964
1966
1967
1968
1969
1970
1970
1970
1970
1970
1970
1971
1973
1975
1976
1977
1978
1979
1979
1979
1980
1981
1983
1986
1988
1990
1991
1992
1994
1996
1999
2002
2006
2009
2011
2013
2015
2017
2020
2022
2024
2025
2026
2025
2023
2019
2014
2008
2001
1994
1987
1982
1978
1974
1971
1968
1966
1963
1962
1961
1961
1961
1961
1962
1962
1961
1960
1960
1960
1960
1960
1959
1959
1960
1961
1962
1963
1964
1963
1963
1963
1963
1963
1964
1965
1965
1965
1964
1964
1964
1965
1965
1965
1965
1966
1966
1966
1965
1965
1964
1964
1965
1966
1968
1969
1970
1970
1969
1968
1968
1968
1968
1969
1970
1970
1970
1970
1970
1970
1969
1969
1969
1969
1970
1970
1971
1970
1970
1970
1970
1969
1970
1970
1971
1972
1972
1972
1971
1970
1969
1969
1970
1971
1973
1975
1976
1975
1975
1974
1974
1975
1977
1978
1979
1979
1978
1977
1975
1973
1972
1971
1971
1972
1973
1973
1974
1974
1974
1972
1967
1960
1954
1956
1970
1998
2040
2087
2132
2162
2163
2131
2069
1994
1925
1883
1872
1887
1913
1937
1953
1961
1966
1968
1970
1972
1973
1973
1973
1973
1974
1975
1976
1977
1978
1979
1979
1980
1980
1981
1981
1982
1983
1984
1986
1987
1988
1988
1989
1990
1992
1993
1996
1999
2002
2005
2007
2010
2012
2014
2016
2019
2022
2024
2026
2027
2027
2027
2025
2023
2020
2016
2012
2006
1999
1993
1987
1982
1977
1974
1971
1969
1968
1969
1969
1969
1969
1968
1967
1966
1965
1966
1966
1965
1965
1965
1965
1966
1967
1968
1967
1967
1967
1967
1968
1968
1968
1967
1966
1965
1965
1966
1968
1969
1971
1971
1971
1970
1969
1968
1968
1968
1968
1969
1969
1969
1969
1969
1969
1969
1968
1969
1969
1971
1972
1972
1972
1971
1970
1970
1969
1969
1969
1970
1971
1971
1971
1970
1970
1970
1970
1971
1971
1972
1973
1973
1972
1971
1970
1970
1971
1972
1973
1973
1973
1973
1972
1972
1971
1972
1972
1973
1975
1976
1978
1978
1978
1978
1978
1978
1977
1977
1977
1977
1977
1976
1975
1974
1973
1972
1972
1973
1974
1976
1978
1977
1973
1966
1958
1958
1971
1999
2041
2089
2135
2165
2168
2136
2075
2001
1932
1889
1877
1891
1916
1939
1955
1963
1968
1971
1972
1973
1974
1974
1975
1976
1977
1978
1978
1979
1980
1981
1981
1982
1983
1983
1984
1984
1985
1985
1986
1988
1989
1991
1993
1995
1996
1997
1998
2000
2002
2004
2008
2011
2014
2017
2020
2022
2025
2027
2029
2030
2031
2032
2031
2029
2025
2020
2014
2007
2001
1995
1989
1985
1982
1979
1976
1974
1972
1970
1969
1969
1969
1969
1970
1970
1969
1969
1968
1968
1968
1968
1969
1969
1969
1970
1970
1970
1970
1969
1969
1970
1971
1972
1973
1973
1972
1971
1970
1969
1970
1970
1971
1973
1974
1974
1974
1973
1971
1971
1971
1972
1973
1974
1975
1974
1973
1972
1971
1971
1971
1972
1973
1974
1975
1975
1975
1975
1974
1973
1973
1972
1973
1973
1973
1974
1974
1974
1973
1973
1973
1973
1973
1974
1974
1974
1974
1973
1973
1973
1973
1973
1974
1974
1974
1974
1973
1973
1973
1973
1974
1975
1976
1977
1978
1978
1979
1979
1979
1979
1979
1979
1979
1979
1978
1976
1975
1974
1973
1973
1974
1975
1976
1978
1978
1976
1971
1963
1957
1961
1979
2013
2057
2106
2147
2168
2158
2115
2047
1973
1913
1882
1881
1901
1927
1948
1961
1967
1970
1972
1973
1974
1975
1977
1978
1979
1980
1980
1979
1979
1979
1980
1980
1982
1983
1984
1985
1986
1986
1987
1988
1990
1991
1993
1994
1996
1997
1998
2000
2002
2004
2007
2010
2013
2016
2020
2023
2025
2026
2027
2028
2030
2031
2032
2032
2030
2026
2021
2015
2008
2002
1996
1990
1986
1982
1979
1976
1974
1973
1972
1971
1971
1971
1971
1971
1971
1972
1972
1971
1971
1970
1970
1970
1971
1972
1973
1973
1973
1973
1973
1972
1972
1972
1973
1973
1973
1973
1972
1972
1972
1972
1973
1974
1974
1974
1974
1974
1973
1973
1973
1973
1973
1973
1973
1973
1973
1974
1974
1973
1973
1973
1973
1973
1973
1973
1973
1973
1973
1973
1973
1974
1974
1974
1974
1974
1974
1974
1974
1974
1974
1973
1973
1974
1974
1975
1975
1975
1974
1973
1971
1969
1968
1969
1971
1973
1975
1975
1975
1975
1975
1976
1977
1978
1979
1979
1978
1977
1976
1975
1974
1974
1973
1973
1974
1975
1975
1974
1974
1974
1974
1974
1972
1966
1959
1956
1963
1986
2024
2070
2118
2154
2165
2144
2092
2021
1949
1897
1875
1881
1903
1928
1947
1959
1965
1969
1971
1971
1971
1971
1971
1972
1973
1975
1977
1978
1978
1978
1978
1978
1979
1980
1981
1982
1984
1985
1986
1987
1987
1988
1988
1990
1991
1994
1996
1999
2001
2003
2005
2007
2009
2012
2015
2019
2023
2026
2027
2028
2027
2026
2026
2024
2023
2019
2015
2009
2002
1996
1989
1983
1978
1974
1971
1969
1969
1969
1968
1967
1966
1965
1964
1964
1964
1964
1964
1965
1965
1965
1964
1964
1963
1964
1964
1964
1965
1966
1966
1966
1965
1965
1964
1964
1965
1966
1966
1967
1968
1967
1967
1966
1965
1965
1965
1967
1968
1969
1969
1969
1969
1968
1968
1967
1966
1966
1967
1968
1969
1969
1969
1968
1967
1967
1966
1967
1969
1970
1971
1972
1971
1969
1967
1966
1965
1965
1965
1965
1965
1965
1965
1965
1964
1963
1963
1964
1965
1966
1966
1967
1967
1967
1967
1968
1970
1971
1972
1973
1973
1973
1972
1971
1970
1968
1967
1967
1967
1968
1969
1970
1970
1970
1970
1970
1969
1966
1960
1954
1953
1965
1993
2036
2087
2135
2164
2163
2126
2060
1985
1919
1879
1870
1884
1909
1932
1948
1957
1963
1968
1971
1973
1975
1975
1976
1976
1977
1978
1979
1980
1981
1982
1983
1983
1983
1984
1985
1987
1988
1989
1989
1990
1991
1992
1993
1995
1997
1999
2002
2006
2008
2011
2013
2015
2018
2022
2025
2028
2030
2032
2034
2035
2035
2035
2034
2032
2029
2026
2020
2014
2007
1999
1992
1986
1982
1979
1977
1976
1975
1974
1973
1972
1972
1972
1972
1973
1973
1973
1973
1973
1973
1973
1974
1974
1974
1973
1974
1974
1974
1975
1976
1976
1976
1975
1975
1976
1977
1978
1978
1978
1978
1978
1978
1977
1977
1977
1977
1978
1978
1978
1977
1977
1976
1976
1976
1977
1978
1979
1979
1979
1979
1978
1978
1978
1977
1977
1978
1978
1979
1980
1980
1980
1979
1979
1979
1979
1980
1981
1981
1982
1981
1980
1978
1977
1977
1978
1979
1981
1982
1983
1983
1983
1983
1983
1983
1984
1984
1984
1984
1983
1982
1981
1980
1978
1978
1978
1979
1979
1980
1981
1982
1981
1976
1969
1962
1960
1970
1995
2036
2083
2131
2166
2173
2147
2090
2016
1945
1896
1879
1888
1912
1937
1955
1965
1972
1976
1979
1980
1981
1981
1982
1982
1982
1982
1983
1984
1985
1987
1988
1989
1989
1989
1990
1990
1992
1992
1993
1994
1995
1996
1998
2001
2003
2004
2005
2007
2009
2012
2016
2019
2022
2024
2027
2029
2031
2033
2034
2036
2037
2038
2038
2036
2033
2028
2022
2016
2010
2004
1998
1993
1989
1985
1983
1981
1979
1978
1978
1978
1978
1978
1977
1977
1976
1975
1975
1975
1976
1977
1977
1978
1978
1977
1976
1976
1976
1977
1978
1979
1980
1980
1979
1979
1978
1978
1978
1978
1979
1979
1979
1979
1979
1978
1978
1978
1979
1979
1980
1980
1979
1979
1979
1979
1980
1980
1980
1980
1981
1982
1982
1982
1981
1980
1979
1979
1980
1981
1982
1982
1982
1982
1981
1981
1980
1979
1979
1979
1980
1981
1983
1984
1985
1985
1984
1984
1984
1985
1986
1988
1989
1988
1987
1986
1984
1982
1981
1980
1980
1980
1981
1982
1983
1983
1984
1983
1980
1975
1968
1964
1970
1991
2026
2071
2119
2157
2172
2155
2106
2037
1966
1912
1887
1890
1910
1934
1953
1965
1972
1976
1979
1980
1982
1983
1983
1983
1983
1983
1984
1986
1988
1990
1991
1990
1990
1989
1989
1990
1992
1994
1996
1998
1999
2000
2001
2002
2003
2005
2008
2010
2013
2016
2018
2021
2023
2026
2029
2031
2034
2036
2039
2041
2042
2042
2040
2037
2034
2030
2025
2020
2013
2007
2000
1995
1990
1987
1984
1982
1980
1979
1978
1978
1978
1977
1977
1976
1976
1976
1977
1977
1977
1977
1977
1976
1976
1976
1976
1976
1976
1977
1977
1977
1977
1977
1976
1977
1977
1978
1979
1980
1980
1979
1979
1978
1977
1977
1977
1977
1978
1979
1979
1979
1978
1978
1977
1976
1976
1977
1977
1978
1979
1979
1979
1978
1978
1977
1977
1977
1978
1978
1979
1980
1981
1980
1980
1979
1978
1978
1978
1978
1979
1979
1980
1980
1981
1981
1981
1981
1982
1983
1984
1985
1985
1984
1983
1981
1979
1978
1977
1977
1977
1977
1977
1977
1977
1977
1977
1977
1975
1970
1964
1961
1967
1987
2023
2069
2118
2157
2172
2153
2102
2031
1958
1903
1877
1880
1900
1926
1946
1959
1967
1971
1973
1974
1974
1975
1975
1976
1978
1979
1980
1981
1981
1982
1982
1982
1982
1983
1984
1985
1986
1987
1988
1988
1989
1989
1991
1992
1994
1996
1999
2002
2005
2007
2010
2012
2015
2018
2021
2024
2027
2029
2031
2032
2032
2032
2031
2029
2027
2023
2018
2011
2004
1997
1990
1985
1980
1977
1974
1972
1970
1969
1968
1967
1967
1966
1966
1966
1966
1966
1966
1966
1966
1965
1965
1965
1965
1965
1965
1965
1965
1965
1965
1964
1964
1964
1964
1965
1966
1967
1967
1967
1967
1967
1966
1966
1966
1966
1967
1967
1967
1967
1966
1966
1967
1967
1967
1967
1967
1967
1967
1968
1968
1968
1967
1966
1965
1965
1966
1967
1967
1968
1968
1968
1967
1966
1966
1966
1967
1969
1971
1972
1972
1971
1971
1970
1970
1971
1972
1973
1973
1972
1971
1970
1969
1968
1967
1966
1966
1967
1968
1968
1968
1969
1969
1969
1965
1959
1953
1952
1964
1991
2033
2084
2133
2165
2166
2130
2064
1987
1919
1877
1866
1880
1903
1925
1941
1951
1956
1961
1964
1967
1969
1970
1971
1971
1971
1971
1971
1973
1974
1976
1978
1978
1978
1977
1977
1978
1980
1982
1984
1985
1987
1989
1990
1991
1992
1994
1995
1997
1999
2002
2004
2007
2009
2013
2017
2020
2022
2025
2027
2028
2029
2028
2026
2023
2019
2014
2009
2003
1996
1990
1984
1978
1973
1970
1967
1965
1964
1963
1962
1960
1959
1958
1957
1956
1956
1956
1956
1956
1957
1957
1957
1957
1957
1957
1957
1957
1957
1958
1959
1959
1960
1960
1959
1959
1959
1960
1961
1962
1962
1962
1962
1961
1961
1961
1961
1962
1963
1963
1964
1964
1964
1964
1963
1962
1961
1961
1961
1962
1963
1964
1964
1964
1963
1962
1961
1961
1962
1963
1964
1965
1966
1967
1967
1967
1967
1967
1968
1970
1972
1973
1972
1971
1970
1968
1967
1967
1966
1966
1966
1966
1966
1966
1967
1968
1969
1969
1968
1963
1957
1953
1958
1977
2012
2058
2110
2152
2170
2154
2103
2030
1953
1895
1868
1869
1890
1916
1937
1951
1958
1963
1966
1968
1970
1971
1971
1972
1973
1975
1977
1978
1979
1978
1978
1978
1978
1979
1980
1982
1983
1985
1986
1987
1987
1988
1989
1990
1992
1995
1998
2001
2003
2005
2007
2010
2013
2017
2021
2024
2027
2029
2031
2032
2033
2032
2030
2027
2024
2019
2014
2008
2000
1993
1987
1982
1979
1976
1974
1972
1971
1970
1969
1968
1967
1966
1966
1965
1966
1967
1968
1968
1968
1968
1967
1966
1966
1967
1967
1968
1968
1968
1968
1969
1970
1970
1971
1971
1970
1970
1970
1970
1971
1971
1971
1971
1971
1972
1972
1973
1973
1973
1972
1972
1971
1971
1971
1972
1972
1973
1973
1973
1972
1971
1971
1971
1971
1971
1971
1972
1972
1973
1974
1974
1973
1971
1970
1969
1970
1972
1973
1975
1976
1976
1976
1976
1976
1977
1977
1978
1978
1977
1976
1975
1974
1973
1972
1971
1971
1972
1973
1974
1974
1975
1975
1973
1970
1963
1957
1957
1969
1996
2037
2084
2131
2163
2169
2141
2082
2008
1937
1890
1873
1884
1909
1933
1951
1961
1967
1971
1973
1973
1974
1974
1974
1975
1976
1977
1979
1980
1982
1982
1983
1983
1983
1983
1984
1985
1986
1987
1988
1990
1992
1993
1994
1995
1996
1998
2001
2004
2007
2010
2012
2014
2016
2019
2021
2024
2028
2031
2034
2035
2036
2034
2032
2029
2026
2021
2015
2009
2002
1996
1990
1985
1981
1978
1975
1974
1974
1973
1973
1972
1971
1971
1970
1969
1969
1969
1970
1971
1971
1972
1972
1972
1972
1971
1971
1971
1971
1972
1973
1974
1974
1974
1973
1972
1972
1972
1972
1974
1975
1975
1975
1975
1974
1973
1973
1973
1974
1975
1975
1976
1976
1976
1975
1974
1974
1974
1975
1975
1976
1976
1976
1976
1975
1974
1974
1974
1975
1976
1977
1977
1977
1976
1975
1975
1974
1975
1976
1977
1979
1980
1980
1980
1979
1979
1980
1981
1982
1983
1984
1983
1982
1981
1979
1977
1976
1976
1976
1977
1978
1978
1978
1979
1979
1978
1975
1969
1962
1960
1969
1993
2031
2077
2125
2160
2170
2147
2094
2024
1953
1903
1883
1889
1910
1934
1952
1963
1969
1972
1975
1976
1977
1977
1977
1977
1978
1979
1981
1982
1983
1984
1985
1986
1986
1986
1987
1987
1988
1990
1991
1992
1993
1994
1995
1996
1997
1999
2000
2003
2006
2009
2011
2014
2016
2018
2021
2024
2027
2030
2032
2034
2035
2035
2033
2030
2026
2021
2016
2009
2003
1997
1991
1987
1982
1979
1976
1973
1972
1972
1972
1971
1971
1970
1969
1969
1969
1969
1970
1970
1971
1972
1972
1972
1972
1971
1970
1970
1970
1971
1971
1971
1972
1972
1972
1972
1972
1973
1973
1973
1973
1973
1973
1973
1972
1971
1971
1971
1971
1972
1973
1973
1974
1973
1973
1972
1971
1971
1971
1972
1973
1974
1974
1973
1973
1972
1972
1972
1973
1973
1974
1974
1974
1974
1973
1972
1972
1973
1973
1974
1974
1974
1973
1973
1973
1974
1975
1976
1976
1977
1978
1979
1979
1979
1979
1979
1978
1978
1978
1977
1977
1976
1975
1974
1973
1972
1972
1972
1974
1976
1977
1976
1971
1963
1957
1958
1973
2003
2047
2095
2139
2164
2159
2121
2057
1983
1919
1883
1876
1893
1918
1940
1955
1963
1967
1969
1970
1971
1972
1973
1974
1976
1977
1977
1977
1977
1978
1979
1980
1981
1983
1984
1984
1984
1984
1984
1986
1987
1989
1991
1993
1994
1996
1997
1998
1999
2001
2003
2006
2009
2013
2016
2019
2022
2024
2026
2027
2028
2029
2029
2028
2026
2022
2017
2010
2002
1995
1989
1985
1981
1978
1975
1972
1970
1968
1966
1966
1966
1966
1967
1967
1967
1967
1966
1965
1964
1964
1965
1966
1967
1967
1968
1967
1967
1966
1966
1965
1966
1966
1967
1967
1968
1968
1968
1967
1967
1968
1968
1968
1969
1969
1968
1968
1967
1967
1967
1967
1968
1968
1969
1969
1969
1969
1968
1968
1968
1968
1969
1970
1971
1971
1971
1971
1970
1969
1969
1969
1970
1970
1971
1971
1971
1971
1970
1970
1971
1971
1971
1971
1970
1970
1970
1970
1971
1971
1972
1973
1974
1975
1976
1976
1977
1977
1977
1976
1976
1975
1973
1973
1972
1972
1971
1971
1970
1969
1969
1969
1970
1971
1973
1973
1970
1965
1957
1954
1961
1983
2020
2068
2118
2156
2167
2143
2086
2012
1940
1890
1871
1878
1901
1925
1943
1953
1958
1961
1964
1966
1968
1970
1972
1973
1974
1975
1976
1976
1977
1977
1978
1978
1979
1981
1982
1983
1983
1984
1984
1984
1985
1987
1989
1990
1992
1993
1994
1996
1998
2001
2003
2006
2010
2013
2016
2019
2022
2024
2026
2027
2028
2029
2029
2027
2024
2019
2012
2005
1998
1992
1986
1981
1977
1975
1973
1971
1969
1967
1965
1963
1963
1963
1964
1965
1966
1966
1965
1965
1964
1964
1964
1964
1964
1964
1965
1965
1965
1965
1965
1965
1965
1965
1965
1967
1968
1970
1971
1972
1971
1970
1968
1967
1967
1967
1967
1967
1967
1966
1966
1966
1966
1967
1968
1968
1968
1968
1967
1966
1966
1967
1968
1969
1969
1969
1970
1970
1970
1969
1969
1968
1968
1969
1970
1970
1971
1971
1971
1970
1970
1970
1969
1969
1970
1970
1971
1972
1973
1974
1974
1974
1975
1975
1976
1976
1977
1977
1976
1975
1974
1973
1972
1972
1971
1972
1972
1972
1972
1972
1973
1973
1973
1971
1965
1958
1956
1963
1986
2023
2069
2118
2156
2170
2150
2098
2025
1951
1897
1874
1880
1903
1929
1949
1961
1967
1971
1972
1972
1972
1973
1973
1975
1977
1978
1980
1981
1981
1981
1981
1981
1981
1982
1984
1985
1987
1988
1989
1989
1989
1990
1991
1993
1995
1998
2001
2003
2005
2006
2009
2011
2014
2018
2021
2024
2027
2029
2031
2032
2033
2033
2032
2030
2028
2023
2017
2011
2004
1997
1991
1986
1982
1979
1976
1974
1973
1972
1971
1970
1969
1968
1968
1968
1969
1970
1971
1971
1971
1970
1970
1969
1969
1970
1970
1971
1972
1972
1972
1972
1971
1970
1970
1970
1971
1971
1972
1972
1973
1973
1972
1972
1972
1972
1973
1974
1975
1975
1975
1974
1973
1972
1972
1972
1972
1973
1973
1974
1974
1974
1975
1975
1975
1975
1975
1975
1976
1976
1975
1975
1975
1974
1973
1973
1973
1974
1975
1976
1976
1976
1974
1973
1972
1972
1973
1975
1977
1978
1979
1978
1978
1977
1978
1979
1980
1980
1981
1980
1980
1979
1978
1977
1975
1975
1974
1975
1975
1976
1976
1976
1977
1976
1974
1968
1961
1958
1964
1984
2020
2064
2112
2152
2169
2155
2107
2038
1965
1908
1880
1882
1902
1927
1946
1959
1966
1970
1973
1974
1975
1975
1975
1975
1976
1977
1978
1979
1980
1981
1981
1981
1981
1981
1982
1983
1985
1988
1990
1991
1992
1992
1992
1993
1994
1996
1999
2001
2004
2006
2008
2010
2012
2015
2017
2020
2023
2025
2028
2030
2031
2031
2030
2027
2024
2020
2015
2010
2004
1997
1991
1986
1981
1978
1975
1973
1972
1971
1970
1970
1969
1969
1968
1968
1969
1969
1969
1970
1970
1970
1970
1970
1970
1970
1970
1970
1970
1971
1971
1972
1972
1973
1973
1972
1972
1972
1972
1972
1973
1973
1973
1973
1973
1972
1972
1972
1973
1973
1973
1973
1973
1973
1972
1972
1972
1972
1973
1974
1975
1975
1974
1973
1973
1972
1973
1973
1974
1974
1974
1974
1974
1974
1973
1972
1972
1972
1973
1975
1976
1976
1975
1974
1973
1973
1973
1974
1975
1977
1978
1979
1979
1979
1979
1979
1979
1980
1980
1980
1980
1980
1979
1977
1975
1974
1974
1975
1975
1976
1977
1977
1978
1977
1973
1966
1959
1959
1971
1998
2040
2086
2132
2161
2164
2134
2075
2004
1938
1895
1882
1893
1916
1939
1955
1964
1969
1971
1973
1975
1976
1977
1978
1978
1978
1979
1980
1981
1983
1984
1985
1985
1985
1986
1986
1986
1987
1987
1989
1990
1992
1993
1994
1995
1996
1998
1999
2001
2003
2006
2009
2012
2015
2018
2021
2023
2025
2027
2029
2031
2033
2033
2032
2029
2025
2020
2014
2008
2002
1996
1991
1986
1982
1978
1976
1974
1973
1972
1972
1972
1971
1971
1970
1969
1969
1969
1969
1969
1969
1970
1971
1972
1972
1972
1970
1969
1969
1969
1970
1972
1973
1974
1973
1973
1971
1971
1971
1971
1972
1973
1973
1973
1973
1973
1972
1972
1972
1971
1972
1972
1973
1973
1974
1974
1973
1972
1971
1971
1971
1972
1973
1974
1974
1974
1973
1972
1971
1972
1972
1973
1973
1973
1973
1973
1972
1972
1972
1971
1971
1972
1972
1973
1974
1975
1975
1975
1976
1976
1976
1977
1978
1979
1979
1979
1978
1977
1975
1974
1974
1974
1974
1973
1973
1972
1972
1971
1972
1974
1974
1973
1968
1962
1956
1959
1976
2008
2051
2100
2142
2163
2152
2108
2041
1968
1909
1879
1877
1896
1921
1942
1956
1964
1968
1970
1971
1971
1971
1972
1974
1975
1977
1978
1978
1978
1978
1978
1979
1980
1982
1983
1984
1985
1985
1984
1985
1985
1987
1989
1991
1993
1995
1997
1998
2000
2002
2004
2006
2009
2013
2016
2020
2022
2024
2025
2026
2027
2028
2028
2028
2025
2021
2015
2008
2001
1994
1989
1984
1980
1976
1973
1971
1969
1968
1967
1967
1966
1965
1964
1964
1964
1965
1966
1966
1965
1965
1964
1964
1964
1964
1965
1966
1966
1966
1966
1966
1966
1965
1965
1965
1966
1966
1967
1967
1967
1966
1966
1965
1965
1965
1966
1967
1968
1968
1968
1967
1967
1967
1967
1967
1968
1968
1968
1967
1967
1966
1966
1966
1966
1967
1967
1968
1968
1968
1968
1968
1967
1967
1967
1967
1969
1971
1972
1973
1973
1973
1972
1972
1973
1974
1975
1975
1975
1973
1972
1971
1969
1968
1968
1968
1968
1968
1968
1968
1968
1968
1969
1968
1965
1958
1953
1955
1970
2001
2047
2098
2142
2165
2154
2110
2041
1966
1906
1874
1871
1888
1912
1933
1947
1956
1962
1966
1969
1970
1971
1972
1972
1973
1974
1975
1977
1978
1979
1980
1981
1981
1981
1982
1983
1984
1986
1987
1988
1989
1989
1990
1991
1993
1995
1997
2000
2002
2005
2008
2010
2012
2015
2018
2021
2025
2028
2031
2032
2033
2032
2030
2028
2025
2021
2016
2010
2004
1998
1992
1986
1981
1976
1973
1971
1970
1970
1969
1969
1969
1968
1967
1966
1966
1967
1968
1969
1970
1970
1970
1969
1968
1967
1967
1968
1969
1970
1971
1971
1971
1970
1969
1969
1969
1970
1970
1971
1972
1972
1971
1971
1970
1970
1970
1970
1970
1971
1972
1973
1973
1972
1971
1971
1970
1971
1971
1972
1972
1972
1972
1972
1971
1971
1971
1971
1971
1971
1972
1973
1973
1973
1972
1971
1971
1972
1973
1975
1976
1977
1977
1977
1977
1977
1977
1976
1976
1976
1976
1976
1976
1975
1973
1972
1972
1972
1972
1973
1974
1975
1975
1974
1971
1965
1957
1955
1964
1989
2029
2077
2124
2158
2166
2140
2084
2011
1940
1891
1873
1883
1907
1932
1950
1960
1965
1969
1971
1973
1974
1975
1976
1976
1976
1976
1977
1978
1979
1981
1982
1982
1983
1983
1984
1985
1986
1986
1987
1989
1990
1991
1992
1993
1995
1996
1998
2001
2004
2006
2009
2011
2014
2017
2019
2022
2024
2026
2028
2030
2031
2031
2030
2028
2023
2018
2012
2005
1999
1994
1989
1985
1981
1978
1975
1972
1970
1969
1968
1969
1969
1970
1970
1969
1968
1967
1967
1967
1968
1968
1968
1968
1968
1968
1967
1967
1966
1966
1966
1967
1968
1968
1967
1966
1966
1965
1966
1966
1967
1967
1968
1968
1968
1968
1967
1966
1966
1966
1966
1967
1968
1968
1967
1966
1966
1965
1966
1967
1968
1969
1969
1969
1969
1968
1967
1967
1968
1968
1969
1969
1968
1968
1968
1968
1969
1970
1971
1972
1972
1973
1974
1975
1975
1976
1975
1975
1974
1973
1972
1971
1971
1971
1970
1970
1969
1968
1968
1969
1971
1972
1970
1964
1957
1953
1960
1981
2018
2065
2113
2151
2163
2143
2090
2018
1946
1894
1872
1879
1902
1927
1947
1958
1964
1968
1969
1970
1970
1971
1972
1974
1976
1977
1978
1978
1978
1978
1979
1980
1982
1983
1984
1985
1985
1986
1986
1987
1988
1988
1990
1992
1994
1996
1998
2000
2001
2003
2005
2008
2011
2015
2018
2021
2023
2025
2026
2027
2028
2028
2028
2027
2024
2020
2014
2007
1999
1993
1987
1982
1979
1976
1974
1973
1971
1970
1969
1967
1967
1966
1967
1968
1969
1969
1969
1969
1968
1968
1968
1968
1968
1969
1969
1969
1969
1969
1969
1969
1969
1969
1970
1970
1970
1971
1970
1970
1969
1969
1969
1969
1970
1970
1971
1971
1970
1970
1969
1969
1969
1969
1970
1971
1971
1971
1971
1971
1970
1969
1969
1969
1969
1970
1971
1972
1972
1971
1969
1968
1967
1968
1970
1972
1974
1975
1975
1975
1975
1975
1976
1977
1977
1977
1976
1975
1974
1973
1971
1969
1968
1969
1969
1970
1971
1971
1971
1971
1970
1967
1960
1954
1953
1964
1991
2032
2080
2127
2157
2159
2127
2065
1992
1925
1883
1871
1883
1907
1930
1946
1955
1961
1965
1968
1970
1971
1971
1972
1972
1973
1973
1974
1975
1977
1978
1979
1978
1978
1977
1978
1979
1981
1984
1986
1987
1989
1990
1990
1990
1990
1992
1994
1997
2000
2003
2006
2008
2010
2012
2014
2016
2019
2022
2025
2027
2028
2028
2026
2022
2017
2012
2006
2000
1994
1989
1983
1978
1974
1971
1968
1966
1965
1965
1965
1965
1965
1965
1964
1963
1962
1962
1962
1962
1963
1964
1964
1964
1964
1963
1962
1961
1961
1961
1963
1964
1965
1965
1965
1965
1965
1965
1965
1965
1965
1965
1966
1966
1966
1966
1965
1965
1965
1965
1966
1967
1967
1967
1967
1965
1964
1964
1964
1965
1966
1967
1967
1968
1967
1967
1966
1966
1966
1966
1967
1967
1969
1970
1970
1971
1971
1971
1971
1971
1972
1973
1973
1972
1971
1969
1967
1965
1964
1964
1964
1964
1964
1964
1964
1964
1965
1967
1967
1965
1960
1953
1949
1955
1976
2014
2062
2115
2154
2167
2143
2085
2010
1937
1886
1865
1872
1893
1917
1935
1947
1954
1959
1964
1967
1969
1970
1970
1970
1971
1973
1974
1976
1977
1977
1977
1978
1978
1979
1981
1982
1983
1984
1986
1987
1988
1989
1990
1991
1993
1995
1997
2000
2002
2004
2007
2010
2013
2016
2019
2022
2025
2028
2030
2032
2032
2031
2030
2027
2024
2019
2013
2007
1999
1992
1986
1981
1977
1974
1972
1971
1969
1968
1967
1966
1966
1966
1966
1967
1967
1968
1968
1968
1968
1968
1967
1967
1966
1967
1967
1968
1969
1969
1969
1970
1970
1970
1970
1970
1970
1970
1971
1971
1971
1971
1971
1970
1970
1970
1971
1971
1972
1972
1972
1972
1971
1971
1971
1971
1971
1972
1972
1973
1973
1973
1972
1971
1971
1971
1972
1973
1974
1974
1973
1972
1972
1971
1972
1974
1975
1976
1977
1977
1978
1978
1978
1978
1978
1978
1978
1977
1977
1975
1973
1972
1971
1972
1972
1973
1974
1975
1977
1977
1973
1966
1959
1956
1965
1991
2031
2079
2127
2162
2169
2143
2086
2011
1939
1890
1872
1882
1907
1933
1952
1962
1967
1970
1972
1973
1975
1976
1978
1979
1979
1979
1979
1980
1981
1982
1984
1985
1986
1986
1986
1986
1987
1988
1989
1991
1993
1995
1996
1998
2000
2001
2003
2004
2006
2009
2012
2015
2018
2022
2024
2027
2029
2030
2031
2032
2033
2033
2033
2032
2028
2022
2015
2007
2000
1994
1990
1986
1983
1980
1977
1975
1973
1972
1972
1972
1972
1973
1973
1973
1972
1972
1971
1970
1970
1971
1971
1971
1971
1972
1972
1972
1972
1971
1971
1971
1972
1973
1973
1974
1974
1973
1973
1973
1973
1973
1974
1974
1975
1975
1975
1974
1974
1973
1973
1973
1973
1973
1974
1975
1976
1975
1975
1974
1973
1974
1975
1976
1977
1977
1977
1976
1976
1976
1975
1975
1975
1975
1976
1976
1977
1977
1977
1978
1978
1979
1980
1981
1981
1982
1982
1982
1982
1980
1979
1978
1978
1977
1977
1977
1977
1977
1977
1976
1976
1977
1978
1978
1976
1969
1962
1960
1969
1994
2034
2082
2131
2165
2172
2146
2088
2014
1943
1895
1878
1888
1913
1938
1956
1966
1971
1974
1976
1977
1978
1979
1980
1981
1982
1983
1984
1984
1985
1985
1985
1986
1987
1989
1990
1991
1992
1992
1991
1991
1991
1993
1995
1998
2001
2003
2004
2006
2007
2010
2012
2014
2017
2020
2023
2025
2028
2030
2031
2032
2033
2033
2032
2030
2027
2022
2016
2009
2002
1995
1989
1984
1981
1978
1976
1974
1973
1972
1971
1971
1971
1971
1971
1972
1972
1972
1973
1972
1971
1970
1970
1969
1970
1971
1972
1972
1972
1972
1971
1971
1971
1971
1972
1972
1973
1974
1974
1974
1973
1972
1971
1971
1972
1973
1974
1974
1974
1974
1973
1972
1972
1973
1973
1974
1975
1976
1975
1974
1973
1972
1972
1971
1971
1971
1972
1973
1973
1974
1974
1973
1973
1973
1974
1974
1975
1975
1974
1974
1974
1973
1973
1972
1973
1974
1975
1976
1977
1978
1978
1978
1978
1979
1980
1980
1981
1980
1979
1977
1975
1973
1973
1973
1973
1974
1975
1975
1975
1976
1976
1974
1970
1963
1957
1959
1973
2002
2043
2090
2135
2162
2161
2127
2064
1990
1926
1887
1878
1894
1919
1941
1957
1964
1969
1972
1973
1975
1976
1977
1977
1978
1978
1979
1980
1981
1982
1983
1984
1985
1985
1985
1986
1987
1988
1989
1990
1991
1992
1993
1994
1995
1996
1998
2001
2004
2007
2010
2012
2014
2016
2018
2020
2023
2026
2029
2031
2032
2032
2031
2029
2026
2022
2017
2011
2005
1999
1993
1987
1982
1978
1974
1971
1970
1970
1970
1970
1970
1970
1969
1968
1967
1966
1966
1967
1968
1969
1969
1969
1969
1968
1967
1967
1968
1969
1969
1970
1970
1970
1969
1969
1969
1969
1969
1970
1970
1970
1971
1971
1971
1971
1971
1970
1970
1970
1970
1970
1970
1969
1969
1968
1967
1968
1968
1969
1970
1970
1971
1971
1970
1969
1969
1968
1968
1968
1969
1971
1972
1972
1971
1970
1969
1968
1969
1970
1971
1971
1971
1970
1969
1969
1969
1970
1971
1973
1973
1974
1975
1975
1976
1976
1977
1977
1976
1976
1975
1974
1974
1973
1972
1971
1970
1970
1970
1971
1971
1972
1972
1972
1970
1964
1958
1955
1962
1984
2021
2069
2118
2155
2166
2143
2088
2014
1942
1891
1872
1880
1903
1928
1945
1955
1960
1964
1967
1970
1972
1973
1974
1975
1976
1976
1977
1977
1978
1979
1979
1980
1981
1983
1984
1984
1984
1984
1984
1985
1987
1989
1990
1992
1992
1993
1994
1996
1999
2002
2005
2009
2012
2014
2017
2019
2021
2023
2025
2027
2029
2029
2028
2026
2022
2017
2011
2004
1997
1991
1986
1982
1978
1975
1971
1968
1965
1964
1963
1964
1964
1965
1965
1964
1964
1964
1963
1962
1962
1963
1963
1964
1965
1965
1965
1964
1964
1964
1964
1964
1965
1965
1966
1966
1966
1965
1965
1965
1965
1966
1966
1967
1967
1968
1967
1967
1966
1966
1966
1967
1967
1968
1968
1968
1968
1967
1967
1967
1967
1968
1968
1968
1968
1968
1967
1967
1967
1967
1967
1967
1968
1969
1970
1971
1971
1970
1969
1968
1968
1968
1970
1971
1972
1972
1973
1972
1972
1972
1973
1974
1975
1975
1975
1974
1973
1971
1970
1970
1969
1970
1970
1971
1972
1972
1972
1972
1972
1971
1967
1960
1955
1958
1975
2008
2053
2104
2148
2170
2159
2114
2044
1968
1907
1875
1873
1891
1915
1936
1950
1959
1966
1970
1973
1975
1975
1975
1976
1976
1977
1979
1980
1981
1981
1982
1982
1983
1983
1984
1985
1987
1988
1990
1991
1992
1993
1993
1994
1995
1997
1999
2002
2005
2008
2010
2013
2015
2017
2020
2023
2026
2029
2031
2033
2034
2034
2033
2030
2027
2022
2016
2010
2004
1998
1991
1986
1981
1977
1974
1972
1970
1969
1969
1969
1968
1968
1967
1966
1966
1966
1966
1967
1967
1967
1967
1967
1966
1965
1965
1965
1965
1966
1967
1967
1967
1967
1967
1967
1967
1967
1968
1968
1969
1969
1969
1969
1969
1968
1968
1969
1969
1970
1970
1971
1971
1970
1970
1970
1970
1970
1970
1970
1970
1971
1971
1970
1970
1969
1970
1970
1971
1972
1972
1973
1972
1972
1972
1971
1971
1971
1972
1973
1974
1974
1973
1972
1971
1971
1971
1973
1974
1976
1977
1977
1977
1977
1976
1976
1976
1977
1977
1978
1978
1976
1975
1973
1972
1972
1972
1972
1972
1973
1974
1975
1975
1972
1966
1958
1955
1963
1986
2025
2071
2119
2157
2171
2152
2100
2028
1954
1900
1876
1882
1905
1931
1950
1961
1967
1970
1971
1973
1974
1976
1977
1978
1979
1979
1979
1979
1981
1982
1984
1985
1985
1985
1986
1986
1986
1987
1988
1989
1991
1992
1994
1995
1996
1998
1999
2001
2003
2006
2010
2013
2016
2018
2020
2022
2024
2026
2028
2030
2031
2032
2031
2029
2025
2020
2014
2008
2001
1996
1991
1986
1983
1980
1976
1973
1971
1969
1969
1969
1970
1971
1971
1971
1970
1969
1969
1969
1969
1970
1970
1970
1970
1970
1970
1970
1970
1970
1970
1971
1971
1971
1972
1972
1972
1972
1971
1970
1970
1971
1971
1972
1972
1972
1972
1971
1971
1971
1972
1972
1972
1973
1973
1973
1973
1972
1972
1972
1973
1973
1974
1975
1975
1974
1974
1973
1972
1972
1972
1972
1973
1973
1974
1974
1974
1974
1974
1973
1973
1973
1973
1973
1973
1974
1974
1975
1976
1976
1976
1977
1978
1979
1980
1980
1978
1977
1976
1974
1973
1972
1971
1971
1971
1972
1973
1973
1973
1974
1974
1973
1970
1964
1958
1958
1969
1996
2037
2084
2131
2162
2166
2137
2077
2004
1935
1890
1876
1888
1912
1936
1953
1963
1969
1972
1973
1974
1974
1974
1974
1976
1977
1979
1980
1981
1981
1981
1981
1981
1982
1984
1986
1987
1988
1989
1989
1989
1990
1991
1992
1994
1996
1998
2000
2002
2004
2006
2008
2011
2015
2019
2023
2026
2028
2029
2030
2031
2031
2031
2031
2029
2026
2021
2015
2009
2001
1995
1989
1984
1980
1978
1976
1975
1973
1972
1971
1970
1969
1969
1969
1970
1970
1970
1970
1970
1969
1969
1969
1969
1969
1970
1970
1970
1970
1970
1970
1970
1971
1971
1971
1971
1971
1972
1972
1972
1972
1972
1971
1971
1972
1972
1973
1973
1974
1973
1973
1973
1973
1973
1973
1974
1974
1974
1974
1973
1972
1972
1972
1972
1972
1972
1973
1973
1973
1974
1973
1972
1971
1970
1971
1972
1973
1975
1975
1975
1974
1973
1972
1972
1973
1975
1977
1978
1978
1978
1978
1978
1978
1978
1979
1979
1979
1978
1977
1976
1974
1972
1972
1972
1973
1974
1975
1976
1976
1977
1975
1970
1962
1956
1959
1975
2007
2050
2100
2144
2168
2160
2119
2051
1976
1914
1880
1877
1895
1920
1941
1955
1963
1967
1969
1970
1971
1973
1974
1976
1977
1978
1978
1979
1979
1980
1981
1983
1984
1985
1985
1985
1985
1985
1986
1987
1989
1991
1993
1994
1995
1997
1998
2000
2002
2005
2008
2011
2014
2017
2020
2022
2024
2026
2028
2031
2033
2034
2034
2032
2028
2023
2017
2010
2003
1997
1992
1987
1983
1979
1976
1973
1971
1969
1968
1968
1968
1969
1969
1968
1968
1968
1968
1968
1968
1968
1969
1968
1968
1967
1967
1967
1968
1969
1970
1970
1970
1970
1969
1969
1970
1970
1970
1970
1970
1971
1971
1971
1971
1971
1971
1971
1970
1970
1971
1971
1971
1971
1972
1972
1972
1971
1971
1971
1971
1971
1972
1972
1973
1973
1973
1972
1972
1972
1972
1972
1972
1973
1972
1972
1971
1971
1971
1971
1972
1974
1975
1977
1977
1978
1978
1978
1978
1978
1978
1977
1977
1976
1975
1973
1972
1971
1971
1972
1972
1973
1974
1975
1974
1971
1964
1957
1955
1964
1989
2030
2081
2132
2167
2173
2142
2079
2002
1931
1884
1870
1880
1903
1926
1943
1953
1960
1964
1968
1970
1972
1973
1974
1975
1977
1978
1978
1977
1977
1978
1979
1981
1983
1984
1984
1984
1984
1984
1985
1987
1988
1990
1991
1992
1993
1994
1995
1997
2000
2003
2006
2010
2013
2016
2019
2021
2022
2024
2026
2027
2028
2029
2029
2027
2022
2016
2009
2001
1994
1988
1983
1978
1974
1970
1967
1965
1963
1961
1960
1960
1961
1961
1962
1962
1962
1961
1961
1961
1961
1961
1961
1961
1962
1962
1962
1962
1961
1961
1961
1962
1963
1964
1964
1965
1964
1964
1964
1964
1965
1965
1966
1966
1966
1966
1966
1966
1965
1965
1965
1965
1965
1966
1967
1967
1967
1967
1966
1965
1965
1965
1966
1966
1967
1967
1968
1968
1968
1967
1967
1968
1970
1972
1973
1974
1974
1973
1973
1973
1973
1973
1973
1973
1973
1973
1973
1972
1970
1968
1968
1967
1968
1969
1971
1972
1973
1972
1969
1964
1957
1953
1958
1976
2011
2058
2110
2154
2174
2160
2111
2038
1960
1900
1870
1870
1890
1915
1936
1950
1958
1964
1968
1971
1974
1975
1976
1977
1977
1978
1979
1980
1981
1982
1983
1984
1985
1986
1986
1986
1987
1988
1990
1992
1994
1995
1996
1997
1998
2000
2002
2005
2008
2011
2015
2018
2021
2024
2026
2028
2031
2033
2036
2038
2039
2039
2038
2035
2030
2025
2018
2011
2004
1998
1993
1988
1984
1980
1976
1973
1971
1971
1971
1972
1972
1972
1972
1972
1971
1971
1971
1971
1971
1971
1972
1972
1972
1972
1971
1971
1971
1972
1972
1974
1974
1975
1974
1974
1973
1973
1973
1974
1974
1975
1975
1975
1975
1975
1975
1975
1974
1974
1974
1974
1975
1975
1975
1975
1975
1975
1974
1974
1975
1975
1976
1976
1975
1975
1975
1975
1974
1974
1974
1974
1975
1975
1976
1977
1978
1978
1978
1978
1979
1980
1981
1982
1982
1981
1980
1979
1978
1977
1976
1976
1976
1976
1976
1976
1975
1975
1975
1976
1977
1976
1971
1964
1960
1964
1982
2017
2063
2113
2156
2178
2166
2120
2047
1968
1905
1873
1873
1895
1924
1947
1961
1968
1972
1974
1975
1976
1976
1977
1978
1980
1981
1982
1983
1983
1983
1984
1985
1986
1987
1989
1990
1991
1992
1992
1993
1993
1994
1995
1997
1999
2002
2004
2006
2008
2010
2013
2016
2019
2023
2027
2030
2032
2034
2035
2036
2037
2036
2035
2033
2029
2024
2018
2011
2003
1996
1990
1985
1982
1979
1977
1976
1975
1973
1972
1971
1970
1970
1970
1970
1970
1970
1971
1970
1970
1970
1969
1969
1970
1971
1971
1972
1972
1972
1971
1971
1971
1971
1971
1972
1972
1972
1972
1972
1972
1972
1972
1972
1972
1972
1972
1973
1974
1974
1974
1973
1972
1972
1972
1973
1974
1974
1974
1974
1974
1973
1973
1973
1973
1974
1974
1975
1975
1975
1974
1974
1973
1973
1973
1974
1974
1975
1975
1975
1975
1975
1975
1976
1976
1977
1978
1979
1980
1980
1980
1980
1979
1978
1977
1976
1975
1975
1974
1974
1974
1974
1973
1974
1975
1976
1975
1972
1965
1958
1959
1972
2001
2044
2092
2139
2168
2170
2136
2073
1995
1925
1882
1871
1886
1913
1939
1957
1966
1971
1973
1973
1974
1974
1976
1977
1979
1981
1981
1982
1982
1982
1982
1982
1982
1983
1985
1987
1989
1991
1991
1992
1991
1992
1993
1995
1997
2000
2002
2004
2006
2008
2009
2012
2015
2019
2023
2026
2029
2031
2033
2034
2035
2035
2034
2033
2030
2026
2020
2013
2006
1999
1993
1988
1984
1981
1978
1977
1976
1974
1973
1971
1970
1970
1970
1971
1971
1971
1971
1971
1971
1970
1970
1970
1970
1971
1972
1972
1973
1973
1972
1972
1971
1971
1972
1973
1973
1973
1973
1973
1972
1972
1972
1972
1972
1972
1972
1973
1973
1974
1974
1974
1973
1973
1972
1973
1973
1974
1974
1975
1974
1974
1974
1973
1973
1973
1974
1975
1975
1975
1974
1974
1973
1973
1973
1974
1974
1975
1976
1976
1975
1974
1972
1972
1973
1975
1977
1979
1979
1978
1978
1978
1979
1979
1980
1981
1981
1981
1980
1978
1976
1975
1974
1973
1973
1974
1975
1975
1976
1977
1977
1976
1973
1966
1959
1958
1969
1996
2037
2084
2132
2164
2169
2140
2081
2007
1938
1892
1877
1888
1912
1936
1953
1962
1968
1971
1973
1974
1975
1976
1976
1977
1978
1980
1981
1982
1984
1984
1984
1984
1984
1984
1984
1985
1986
1987
1989
1991
1993
1994
1995
1996
1997
1999
2001
2003
2006
2009
2012
2015
2018
2020
2022
2024
2027
2030
2033
2034
2035
2035
2033
2030
2025
2019
2013
2006
2000
1995
1990
1985
1981
1978
1975
1973
1971
1970
1970
1971
1971
1971
1971
1971
1970
1970
1969
1969
1969
1969
1970
1970
1970
1970
1970
1970
1969
1969
1970
1971
1971
1971
1971
1970
1970
1970
1970
1971
1971
1971
1972
1972
1972
1972
1972
1972
1972
1972
1972
1973
1973
1972
1972
1972
1972
1972
1972
1972
1973
1973
1974
1974
1973
1973
1973
1972
1973
1973
1974
1975
1975
1975
1974
1973
1972
1972
1973
1974
1975
1976
1975
1975
1974
1973
1973
1973
1973
1975
1976
1977
1978
1978
1978
1978
1979
1979
1980
1980
1980
1980
1979
1978
1977
1976
1975
1974
1973
1974
1974
1975
1976
1976
1976
1975
1970
1962
1957
1959
1975
2007
2051
2101
2145
2169
2161
2119
2052
1978
1916
1882
1878
1896
1921
1942
1956
1963
1968
1971
1973
1975
1977
1977
1978
1978
1978
1978
1979
1980
1981
1982
1983
1984
1985
1985
1986
1986
1987
1988
1989
1990
1992
1993
1995
1996
1997
1998
2000
2003
2006
2009
2012
2015
2018
2020
2023
2025
2027
2029
2031
2033
2033
2033
2031
2028
2023
2017
2010
2004
1998
1993
1988
1984
1980
1976
1973
1972
1971
1970
1970
1970
1970
1970
1970
1970
1969
1968
1968
1968
1969
1970
1970
1970
1970
1969
1968
1967
1967
1968
1969
1970
1970
1971
1971
1970
1969
1969
1969
1970
1971
1971
1971
1971
1971
1970
1970
1970
1971
1971
1972
1972
1972
1972
1972
1971
1970
1969
1970
1971
1972
1973
1973
1973
1972
1972
1972
1972
1972
1973
1973
1973
1972
1972
1972
1972
1972
1972
1972
1973
1973
1974
1973
1973
1972
1971
1971
1972
1973
1975
1976
1977
1977
1977
1977
1977
1977
1977
1977
1977
1976
1976
1975
1974
1973
1971
1971
1971
1972
1972
1973
1974
1974
1974
1971
1966
1958
1954
1960
1981
2018
2065
2115
2155
2168
2148
2094
2022
1949
1896
1873
1879
1901
1925
1944
1954
1960
1965
1967
1970
1973
1974
1976
1976
1977
1977
1976
1977
1977
1979
1980
1981
1982
1983
1983
1984
1985
1986
1986
1987
1988
1990
1991
1993
1995
1996
1997
1999
2001
2005
2008
2012
2015
2017
2020
2022
2024
2026
2028
2030
2032
2033
2033
2031
2027
2022
2015
2008
2001
1995
1990
1985
1981
1977
1974
1972
1970
1968
1967
1967
1966
1967
1967
1968
1968
1967
1966
1966
1966
1966
1967
1967
1967
1967
1967
1966
1966
1966
1967
1968
1969
1970
1970
1970
1969
1969
1969
1969
1970
1970
1970
1971
1971
1971
1971
1971
1970
1970
1970
1971
1971
1972
1973
1973
1972
1972
1971
1971
1970
1971
1972
1973
1974
1975
1975
1974
1973
1972
1972
1973
1974
1975
1976
1975
1974
1973
1972
1971
1972
1974
1976
1978
1979
1979
1979
1978
1978
1978
1979
1980
1980
1980
1980
1979
1978
1976
1975
1974
1974
1975
1976
1976
1977
1978
1978
1977
1972
1965
1958
1958
1970
1999
2042
2091
2139
2170
2171
2138
2075
1999
1930
1886
1873
1886
1911
1935
1952
1962
1968
1972
1974
1976
1978
1978
1979
1979
1980
1980
1982
1983
1985
1986
1987
1988
1988
1989
1989
1989
1990
1991
1993
1995
1997
1998
1999
2000
2001
2003
2005
2008
2011
2014
2017
2020
2023
2026
2028
2030
2032
2035
2038
2040
2041
2040
2038
2035
2030
2024
2017
2010
2003
1997
1992
1988
1984
1980
1978
1976
1975
1975
1976
1976
1975
1975
1974
1973
1973
1973
1973
1974
1974
1974
1974
1975
1975
1975
1974
1974
1974
1974
1975
1976
1976
1977
1976
1976
1975
1974
1974
1974
1975
1977
1977
1977
1977
1976
1975
1975
1976
1976
1977
1977
1976
1976
1975
1974
1974
1974
1975
1976
1976
1976
1975
1975
1974
1975
1975
1976
1976
1976
1976
1977
1977
1978
1978
1977
1976
1975
1975
1975
1977
1978
1980
1981
1981
1982
1982
1982
1983
1984
1984
1984
1984
1984
1983
1981
1979
1978
1978
1978
1979
1979
1980
1980
1980
1980
1980
1977
1972
1965
1962
1968
1989
2025
2071
2120
2159
2175
2158
2108
2037
1963
1907
1881
1884
1905
1931
1951
1964
1971
1975
1977
1979
1981
1982
1982
1983
1983
1983
1984
1985
1987
1988
1989
1990
1990
1990
1990
1991
1992
1994
1995
1997
1998
1999
1999
1999
2000
2002
2004
2007
2011
2014
2016
2019
2021
2023
2026
2029
2033
2035
2037
2039
2040
2040
2039
2037
2033
2028
2022
2015
2008
2002
1997
1992
1987
1982
1979
1977
1976
1976
1976
1977
1976
1976
1975
1974
1974
1974
1975
1976
1977
1977
1977
1976
1976
1975
1974
1974
1975
1976
1977
1977
1978
1977
1977
1976
1976
1976
1977
1978
1978
1978
1978
1978
1977
1977
1977
1977
1977
1978
1978
1978
1978
1978
1978
1977
1977
1978
1979
1979
1979
1979
1979
1978
1978
1978
1978
1977
1977
1977
1978
1980
1981
1981
1980
1978
1977
1977
1979
1980
1982
1984
1985
1985
1984
1984
1984
1984
1984
1984
1984
1983
1982
1981
1979
1978
1977
1977
1978
1979
1979
1980
1980
1980
1980
1977
1972
1965
1961
1966
1985
2020
2066
2116
2157
2175
2160
2112
2043
1968
1911
1882
1883
1902
1927
1948
1961
1969
1974
1976
1978
1980
1981
1981
1982
1982
1982
1983
1984
1985
1987
1987
1988
1989
1989
1989
1990
1991
1992
1994
1995
1996
1997
1998
1999
2000
2001
2003
2006
2009
2012
2015
2018
2020
2022
2025
2028
2031
2034
2036
2038
2039
2039
2038
2035
2030
2025
2019
2013
2007
2001
1995
1989
1985
1981
1978
1977
1975
1975
1974
1974
1973
1973
1973
1972
1972
1971
1971
1972
1973
1973
1973
1973
1972
1971
1971
1971
1971
1972
1972
1973
1973
1973
1973
1972
1972
1972
1973
1973
1974
1974
1974
1974
1973
1971
1970
1970
1971
1972
1973
1974
1974
1974
1974
1974
1974
1974
1973
1974
1974
1975
1975
1975
1974
1973
1972
1972
1973
1974
1975
1975
1975
1975
1974
1973
1972
1972
1972
1974
1975
1977
1978
1978
1977
1977
1977
1978
1978
1979
1978
1978
1976
1975
1974
1973
1972
1971
1972
1972
1973
1973
1974
1974
1974
1973
1968
1961
1954
1955
1969
1998
2042
2091
2137
2165
2164
2127
2062
1987
1920
1881
1872
1887
1912
1934
1950
1959
1965
1969
1971
1973
1973
1973
1973
1973
1974
1974
1975
1976
1978
1979
1980
1981
1981
1981
1982
1982
1983
1984
1986
1987
1988
1990
1991
1993
1994
1996
1998
2000
2003
2007
2010
2012
2015
2017
2019
2022
2024
2027
2029
2031
2032
2031
2029
2025
2020
2013
2006
2000
1994
1990
1985
1981
1977
1973
1970
1967
1966
1966
1965
1965
1965
1965
1964
1963
1963
1963
1963
1964
1964
1965
1966
1965
1965
1964
1964
1964
1964
1965
1965
1966
1966
1966
1966
1965
1965
1965
1965
1966
1966
1967
1968
1967
1967
1966
1965
1965
1966
1967
1968
1969
1969
1968
1967
1967
1968
1968
1968
1968
1968
1968
1968
1969
1968
1968
1967
1967
1967
1967
1967
1967
1967
1967
1967
1967
1967
1967
1968
1970
1971
1971
1971
1971
1970
1969
1969
1969
1969
1969
1969
1968
1966
1965
1964
1963
1963
1963
1964
1966
1967
1967
1965
1960
1953
1949
1955
1977
2017
2067
2120
2159
2170
2144
2085
2008
1934
1882
1863
1871
1894
1918
1936
1948
1954
1959
1962
1964
1966
1968
1970
1971
1972
1972
1973
1973
1974
1974
1975
1976
1976
1977
1978
1979
1980
1981
1981
1982
1983
1985
1987
1989
1991
1993
1995
1996
1998
2001
2004
2008
2012
2016
2019
2022
2023
2025
2027
2028
2029
2030
2029
2026
2023
2017
2010
2002
1994
1986
1980
1976
1973
1971
1969
1967
1965
1964
1962
1962
1962
1962
1962
1962
1962
1962
1962
1962
1962
1961
1961
1961
1961
1962
1962
1963
1963
1963
1963
1963
1963
1963
1964
1965
1966
1966
1966
1965
1965
1965
1965
1966
1966
1966
1967
1967
1966
1966
1966
1966
1966
1967
1968
1968
1968
1968
1968
1968
1968
1967
1968
1968
1968
1969
1969
1969
1969
1969
1968
1968
1969
1971
1972
1973
1974
1974
1974
1974
1974
1973
1973
1973
1974
1974
1974
1974
1972
1970
1969
1968
1968
1968
1969
1970
1972
1973
1972
1969
1962
1955
1954
1964
1991
2033
2082
2131
2166
2172
2142
2082
2005
1933
1884
1868
1878
1903
1928
1946
1957
1963
1967
1970
1972
1974
1975
1976
1977
1977
1978
1978
1979
1980
1982
1983
1984
1985
1985
1985
1986
1986
1987
1988
1990
1992
1994
1996
1998
1999
2000
2001
2004
2007
2010
2014
2017
2020
2023
2025
2028
2030
2032
2034
2036
2037
2037
2035
2032
2026
2019
2012
2005
1999
1993
1988
1983
1979
1976
1973
1971
1971
1971
1971
1971
1971
1970
1969
1969
1968
1968
1968
1969
1969
1969
1968
1968
1969
1969
1970
1970
1970
1970
1970
1971
1971
1971
1971
1971
1971
1970
1971
1971
1972
1972
1972
1972
1972
1972
1971
1971
1970
1971
1972
1973
1974
1974
1973
1972
1972
1972
1972
1973
1974
1974
1975
1975
1975
1974
1973
1973
1972
1972
1972
1974
1975
1977
1978
1978
1977
1976
1976
1975
1976
1978
1979
1980
1980
1979
1977
1974
1973
1972
1973
1974
1974
1974
1974
1974
1974
1973
1971
1966
1960
1959
1968
1992
2031
2078
2126
2162
2172
2149
2093
2019
1945
1892
1871
1879
1902
1928
1948
1959
1966
1970
1973
1974
1975
1975
1975
1975
1976
1977
1979
1980
1981
1983
1983
1984
1984
1985
1986
1987
1989
1989
1990
1990
1991
1993
1994
1996
1998
2000
2002
2004
2007
2009
2013
2016
2018
2021
2024
2027
2030
2033
2035
2036
2036
2036
2034
2031
2026
2020
2013
2006
2000
1994
1989
1984
1980
1977
1974
1972
1971
1971
1971
1971
1970
1969
1968
1968
1967
1967
1968
1968
1969
1970
1970
1969
1969
1968
1968
1968
1969
1969
1970
1971
1971
1970
1970
1969
1969
1969
1970
1971
1972
1972
1972
1971
1971
1971
1971
1971
1971
1972
1972
1972
1973
1972
1972
1972
1971
1971
1972
1972
1973
1974
1974
1973
1973
1972
1971
1971
1972
1972
1972
1973
1975
1976
1976
1976
1976
1977
1978
1980
1981
1981
1980
1979
1978
1976
1975
1975
1974
1974
1975
1974
1974
1974
1973
1974
1975
1975
1974
1969
1962
1959
1966
1988
2026
2072
2122
2160
2173
2153
2100
2028
1954
1900
1876
1880
1902
1928
1948
1961
1968
1973
1975
1975
1976
1976
1976
1978
1979
1981
1982
1983
1983
1984
1984
1984
1985
1986
1987
1989
1991
1992
1993
1993
1993
1993
1995
1997
2000
2003
2006
2008
2010
2012
2014
2016
2019
2022
2026
2029
2032
2035
2037
2038
2038
2037
2035
2032
2028
2023
2018
2011
2005
1998
1992
1986
1982
1979
1977
1975
1974
1974
1973
1973
1972
1972
1972
1972
1971
1970
1970
1970
1970
1971
1971
1971
1972
1972
1973
1973
1973
1973
1973
1973
1973
1973
1973
1973
1973
1974
1975
1975
1975
1974
1973
1973
1973
1974
1975
1975
1975
1975
1974
1974
1974
1974
1974
1974
1975
1975
1975
1976
1976
1977
1976
1975
1974
1974
1975
1976
1977
1978
1977
1976
1975
1974
1974
1976
1978
1980
1981
1981
1980
1980
1980
1981
1981
1981
1980
1980
1980
1979
1979
1977
1976
1975
1974
1975
1976
1977
1978
1979
1979
1978
1975
1969
1961
1958
1965
1987
2025
2072
2121
2159
2172
2151
2098
2026
1954
1901
1878
1884
1905
1930
1949
1961
1968
1972
1975
1976
1977
1978
1978
1978
1979
1979
1980
1982
1983
1984
1985
1986
1986
1987
1987
1988
1988
1989
1990
1992
1994
1996
1998
1999
1999
2000
2001
2004
2007
2010
2013
2016
2019
2021
2024
2027
2030
2032
2035
2036
2037
2037
2036
2033
2028
2022
2015
2008
2001
1995
1990
1986
1983
1980
1977
1975
1973
1972
1972
1971
1971
1971
1970
1970
1970
1970
1970
1970
1970
1970
1971
1971
1971
1970
1969
1968
1968
1968
1969
1970
1972
1973
1973
1972
1971
1970
1970
1971
1972
1972
1972
1972
1971
1971
1971
1971
1971
1971
1971
1971
1971
1972
1972
1971
1971
1970
1971
1971
1972
1973
1973
1973
1973
1972
1971
1970
1970
1970
1971
1972
1973
1973
1973
1973
1972
1971
1970
1969
1970
1971
1972
1973
1974
1974
1974
1974
1975
1975
1975
1976
1976
1977
1977
1976
1976
1975
1974
1973
1972
1972
1972
1972
1972
1972
1972
1973
1973
1972
1969
1964
1958
1956
1965
1988
2026
2073
2122
2158
2168
2143
2086
2012
1940
1891
1872
1881
1904
1929
1948
1959
1965
1969
1971
1972
1973
1973
1974
1975
1976
1978
1979
1980
1981
1982
1982
1982
1983
1984
1985
1986
1986
1987
1987
1987
1988
1988
1990
1992
1994
1997
2000
2003
2006
2008
2010
2013
2015
2018
2022
2025
2028
2030
2032
2033
2033
2032
2031
2028
2025
2021
2015
2008
2001
1994
1987
1982
1978
1975
1973
1972
1971
1970
1970
1970
1969
1968
1967
1966
1967
1967
1968
1968
1968
1967
1967
1966
1966
1967
1967
1968
1969
1969
1969
1969
1968
1968
1968
1968
1969
1970
1971
1971
1970
1969
1969
1969
1969
1970
1970
1971
1972
1972
1972
1971
1971
1970
1970
1970
1971
1972
1972
1972
1971
1971
1970
1970
1971
1971
1972
1973
1973
1973
1972
1972
1972
1972
1972
1972
1972
1972
1971
1971
1972
1972
1973
1974
1975
1975
1976
1977
1977
1978
1979
1979
1978
1977
1976
1976
1975
1975
1975
1974
1973
1973
1972
1972
1973
1973
1974
1975
1976
1974
1969
1962
1956
1959
1975
2008
2053
2104
2149
2172
2162
2117
2047
1970
1908
1875
1874
1893
1919
1941
1956
1963
1968
1971
1973
1975
1977
1978
1979
1979
1980
1981
1981
1982
1983
1984
1985
1986
1987
1988
1989
1989
1990
1991
1991
1992
1993
1995
1997
1999
2001
2003
2004
2006
2009
2012
2016
2020
2023
2026
2029
2031
2032
2034
2036
2037
2038
2037
2036
2033
2028
2022
2015
2007
2000
1994
1989
1985
1982
1979
1977
1975
1974
1973
1972
1972
1972
1972
1972
1973
1973
1972
1971
1971
1971
1971
1972
1972
1972
1973
1973
1973
1973
1973
1973
1973
1973
1973
1972
1972
1972
1972
1972
1972
1972
1973
1973
1975
1976
1976
1976
1975
1974
1974
1973
1974
1974
1975
1975
1975
1975
1975
1974
1974
1974
1974
1974
1975
1975
1976
1976
1976
1976
1975
1975
1974
1975
1975
1976
1976
1976
1976
1975
1975
1975
1975
1975
1975
1975
1975
1976
1977
1978
1978
1979
1979
1980
1981
1982
1983
1983
1983
1983
1982
1980
1979
1979
1978
1978
1977
1977
1976
1976
1976
1976
1977
1978
1978
1975
1969
1962
1961
1972
1998
2038
2085
2133
2166
2173
2145
2086
2011
1939
1891
1875
1887
1912
1938
1957
1967
1972
1974
1975
1976
1977
1978
1980
1981
1983
1983
1984
1984
1984
1985
1986
1987
1988
1989
1990
1991
1991
1992
1992
1992
1994
1995
1997
2000
2002
2003
2005
2007
2009
2011
2014
2016
2020
2023
2027
2030
2032
2034
2035
2036
2037
2037
2036
2034
2031
2025
2019
2012
2004
1998
1993
1988
1984
1981
1979
1978
1977
1976
1974
1973
1972
1972
1973
1974
1974
1974
1974
1974
1973
1973
1973
1973
1973
1973
1973
1974
1974
1974
1975
1975
1975
1974
1973
1973
1974
1975
1976
1976
1976
1975
1974
1974
1974
1975
1976
1976
1977
1977
1977
1977
1976
1976
1976
1976
1977
1977
1978
1977
1977
1976
1976
1976
1976
1976
1976
1976
1977
1977
1977
1976
1976
1976
1976
1976
1977
1977
1978
1978
1978
1978
1977
1977
1976
1976
1977
1977
1978
1978
1979
1979
1979
1980
1981
1981
1982
1983
1983
1983
1982
1981
1981
1980
1980
1980
1980
1979
1978
1978
1978
1978
1978
1978
1979
1980
1980
1978
1972
1964
1962
1971
1996
2036
2083
2131
2165
2174
2148
2092
2018
1946
1896
1878
1888
1913
1938
1956
1967
1972
1975
1977
1977
1978
1979
1980
1981
1982
1983
1983
1983
1984
1985
1986
1987
1988
1989
1990
1990
1991
1991
1992
1993
1994
1996
1998
2000
2001
2003
2004
2006
2008
2010
2013
2017
2021
2025
2028
2031
2032
2034
2035
2036
2037
2038
2037
2035
2031
2026
2019
2011
2004
1998
1992
1988
1985
1982
1979
1977
1976
1974
1973
1973
1973
1973
1973
1973
1973
1972
1972
1972
1972
1971
1971
1972
1972
1973
1973
1973
1973
1972
1971
1971
1971
1972
1973
1973
1974
1973
1972
1972
1971
1971
1971
1972
1973
1974
1974
1973
1973
1972
1972
1972
1973
1973
1973
1973
1973
1973
1973
1973
1973
1972
1972
1972
1973
1973
1973
1973
1973
1973
1973
1973
1974
1974
1974
1974
1974
1974
1974
1973
1973
1973
1974
1974
1974
1973
1973
1973
1973
1974
1975
1976
1976
1977
1977
1978
1979
1979
1980
1980
1979
1978
1978
1977
1977
1977
1976
1975
1974
1974
1973
1973
1973
1974
1975
1976
1975
1970
1963
1958
1960
1977
2009
2053
2102
2145
2169
2162
2120
2051
1975
1912
1877
1875
1895
1921
1944
1957
1964
1968
1970
1972
1973
1975
1976
1977
1978
1979
1979
1979
1980
1980
1981
1982
1983
1984
1985
1985
1986
1987
1987
1988
1990
1991
1993
1995
1997
1998
2000
2002
2003
2006
2009
2012
2015
2019
2022
2025
2027
2028
2030
2031
2033
2034
2034
2033
2030
2026
2020
2013
2006
1999
1993
1988
1984
1980
1977
1975
1974
1972
1971
1970
1969
1969
1968
1968
1969
1969
1969
1969
1968
1968
1968
1968
1969
1970
1970
1969
1969
1968
1967
1967
1968
1970
1971
1972
1972
1972
1971
1970
1969
1969
1969
1969
1970
1970
1971
1971
1971
1970
1970
1970
1970
1971
1971
1972
1972
1972
1971
1971
1971
1971
1971
1972
1972
1972
1972
1972
1972
1971
1971
1971
1970
1971
1971
1972
1972
1972
1971
1971
1970
1970
1970
1971
1973
1974
1974
1975
1975
1975
1974
1975
1975
1976
1977
1979
