Time,EcgWaveform
27/09/2019 11:11:42.412,297
27/09/2019 11:11:42.416,297
27/09/2019 11:11:42.420,297
27/09/2019 11:11:42.424,297
27/09/2019 11:11:42.428,297
27/09/2019 11:11:42.432,297
27/09/2019 11:11:42.436,297
27/09/2019 11:11:42.440,297
27/09/2019 11:11:42.444,297
27/09/2019 11:11:42.448,297
27/09/2019 11:11:42.452,297
27/09/2019 11:11:42.456,297
27/09/2019 11:11:42.460,297
27/09/2019 11:11:42.464,297
27/09/2019 11:11:42.468,297
27/09/2019 11:11:42.472,297
27/09/2019 11:11:42.476,297
27/09/2019 11:11:42.480,297
27/09/2019 11:11:42.484,297
27/09/2019 11:11:42.488,297
27/09/2019 11:11:42.492,297
27/09/2019 11:11:42.496,297
27/09/2019 11:11:42.500,297
27/09/2019 11:11:42.504,297
27/09/2019 11:11:42.508,297
27/09/2019 11:11:42.512,297
27/09/2019 11:11:42.516,297
27/09/2019 11:11:42.520,297
27/09/2019 11:11:42.524,297
27/09/2019 11:11:42.528,297
27/09/2019 11:11:42.532,297
27/09/2019 11:11:42.536,297
27/09/2019 11:11:42.540,297
27/09/2019 11:11:42.544,297
27/09/2019 11:11:42.548,297
27/09/2019 11:11:42.552,297
27/09/2019 11:11:42.556,297
27/09/2019 11:11:42.560,297
27/09/2019 11:11:42.564,297
27/09/2019 11:11:42.568,297
27/09/2019 11:11:42.572,297
27/09/2019 11:11:42.576,297
27/09/2019 11:11:42.580,297
27/09/2019 11:11:42.584,297
27/09/2019 11:11:42.588,297
27/09/2019 11:11:42.592,297
27/09/2019 11:11:42.596,297
27/09/2019 11:11:42.600,297
27/09/2019 11:11:42.604,297
27/09/2019 11:11:42.608,297
27/09/2019 11:11:42.612,297
27/09/2019 11:11:42.616,297
27/09/2019 11:11:42.620,297
27/09/2019 11:11:42.624,297
27/09/2019 11:11:42.628,297
27/09/2019 11:11:42.632,297
27/09/2019 11:11:42.636,297
27/09/2019 11:11:42.640,297
27/09/2019 11:11:42.644,297
27/09/2019 11:11:42.648,297
27/09/2019 11:11:42.652,297
27/09/2019 11:11:42.656,297
27/09/2019 11:11:42.660,297
27/09/2019 11:11:42.664,297
27/09/2019 11:11:42.668,297
27/09/2019 11:11:42.672,297
27/09/2019 11:11:42.676,297
27/09/2019 11:11:42.680,297
27/09/2019 11:11:42.684,297
27/09/2019 11:11:42.688,297
27/09/2019 11:11:42.692,297
27/09/2019 11:11:42.696,297
27/09/2019 11:11:42.700,297
27/09/2019 11:11:42.704,297
27/09/2019 11:11:42.708,297
27/09/2019 11:11:42.712,297
27/09/2019 11:11:42.716,297
27/09/2019 11:11:42.720,297
27/09/2019 11:11:42.724,297
27/09/2019 11:11:42.728,297
27/09/2019 11:11:42.732,297
27/09/2019 11:11:42.736,297
27/09/2019 11:11:42.740,297
27/09/2019 11:11:42.744,297
27/09/2019 11:11:42.748,297
27/09/2019 11:11:42.752,297
27/09/2019 11:11:42.756,297
27/09/2019 11:11:42.760,297
27/09/2019 11:11:42.764,297
27/09/2019 11:11:42.768,297
27/09/2019 11:11:42.772,297
27/09/2019 11:11:42.776,297
27/09/2019 11:11:42.780,297
27/09/2019 11:11:42.784,297
27/09/2019 11:11:42.788,297
27/09/2019 11:11:42.792,297
27/09/2019 11:11:42.796,297
27/09/2019 11:11:42.800,297
27/09/2019 11:11:42.804,297
27/09/2019 11:11:42.808,297
27/09/2019 11:11:42.812,297
27/09/2019 11:11:42.816,297
27/09/2019 11:11:42.820,297
27/09/2019 11:11:42.824,297
27/09/2019 11:11:42.828,297
27/09/2019 11:11:42.832,297
27/09/2019 11:11:42.836,297
27/09/2019 11:11:42.840,297
27/09/2019 11:11:42.844,297
27/09/2019 11:11:42.848,297
27/09/2019 11:11:42.852,297
27/09/2019 11:11:42.856,297
27/09/2019 11:11:42.860,297
27/09/2019 11:11:42.864,297
27/09/2019 11:11:42.868,297
27/09/2019 11:11:42.872,297
27/09/2019 11:11:42.876,297
27/09/2019 11:11:42.880,297
27/09/2019 11:11:42.884,297
27/09/2019 11:11:42.888,297
27/09/2019 11:11:42.892,297
27/09/2019 11:11:42.896,297
27/09/2019 11:11:42.900,297
27/09/2019 11:11:42.904,297
27/09/2019 11:11:42.908,297
27/09/2019 11:11:42.912,297
27/09/2019 11:11:42.916,297
27/09/2019 11:11:42.920,297
27/09/2019 11:11:42.924,297
27/09/2019 11:11:42.928,297
27/09/2019 11:11:42.932,297
27/09/2019 11:11:42.936,297
27/09/2019 11:11:42.940,297
27/09/2019 11:11:42.944,297
27/09/2019 11:11:42.948,297
27/09/2019 11:11:42.952,297
27/09/2019 11:11:42.956,297
27/09/2019 11:11:42.960,297
27/09/2019 11:11:42.964,297
27/09/2019 11:11:42.968,297
27/09/2019 11:11:42.972,297
27/09/2019 11:11:42.976,297
27/09/2019 11:11:42.980,297
27/09/2019 11:11:42.984,297
27/09/2019 11:11:42.988,297
27/09/2019 11:11:42.992,297
27/09/2019 11:11:42.996,297
27/09/2019 11:11:43.000,297
27/09/2019 11:11:43.004,297
27/09/2019 11:11:43.008,297
27/09/2019 11:11:43.012,297
27/09/2019 11:11:43.016,297
27/09/2019 11:11:43.020,297
27/09/2019 11:11:43.024,297
27/09/2019 11:11:43.028,297
27/09/2019 11:11:43.032,297
27/09/2019 11:11:43.036,297
27/09/2019 11:11:43.040,297
27/09/2019 11:11:43.044,297
27/09/2019 11:11:43.048,297
27/09/2019 11:11:43.052,297
27/09/2019 11:11:43.056,297
27/09/2019 11:11:43.060,297
27/09/2019 11:11:43.064,297
27/09/2019 11:11:43.068,297
27/09/2019 11:11:43.072,297
27/09/2019 11:11:43.076,297
27/09/2019 11:11:43.080,297
27/09/2019 11:11:43.084,297
27/09/2019 11:11:43.088,297
27/09/2019 11:11:43.092,297
27/09/2019 11:11:43.096,297
27/09/2019 11:11:43.100,297
27/09/2019 11:11:43.104,297
27/09/2019 11:11:43.108,297
27/09/2019 11:11:43.112,297
27/09/2019 11:11:43.116,297
27/09/2019 11:11:43.120,297
27/09/2019 11:11:43.124,297
27/09/2019 11:11:43.128,297
27/09/2019 11:11:43.132,297
27/09/2019 11:11:43.136,297
27/09/2019 11:11:43.140,297
27/09/2019 11:11:43.144,297
27/09/2019 11:11:43.148,297
27/09/2019 11:11:43.152,297
27/09/2019 11:11:43.156,297
27/09/2019 11:11:43.160,297
27/09/2019 11:11:43.164,297
27/09/2019 11:11:43.168,297
27/09/2019 11:11:43.172,297
27/09/2019 11:11:43.176,297
27/09/2019 11:11:43.180,297
27/09/2019 11:11:43.184,297
27/09/2019 11:11:43.188,297
27/09/2019 11:11:43.192,297
27/09/2019 11:11:43.196,297
27/09/2019 11:11:43.200,297
27/09/2019 11:11:43.204,297
27/09/2019 11:11:43.208,297
27/09/2019 11:11:43.212,297
27/09/2019 11:11:43.216,297
27/09/2019 11:11:43.220,297
27/09/2019 11:11:43.224,297
27/09/2019 11:11:43.228,297
27/09/2019 11:11:43.232,297
27/09/2019 11:11:43.236,297
27/09/2019 11:11:43.240,297
27/09/2019 11:11:43.244,297
27/09/2019 11:11:43.248,297
27/09/2019 11:11:43.252,297
27/09/2019 11:11:43.256,297
27/09/2019 11:11:43.260,297
27/09/2019 11:11:43.264,297
27/09/2019 11:11:43.268,297
27/09/2019 11:11:43.272,297
27/09/2019 11:11:43.276,297
27/09/2019 11:11:43.280,297
27/09/2019 11:11:43.284,297
27/09/2019 11:11:43.288,297
27/09/2019 11:11:43.292,297
27/09/2019 11:11:43.296,297
27/09/2019 11:11:43.300,297
27/09/2019 11:11:43.304,297
27/09/2019 11:11:43.308,297
27/09/2019 11:11:43.312,297
27/09/2019 11:11:43.316,297
27/09/2019 11:11:43.320,297
27/09/2019 11:11:43.324,297
27/09/2019 11:11:43.328,297
27/09/2019 11:11:43.332,297
27/09/2019 11:11:43.336,297
27/09/2019 11:11:43.340,297
27/09/2019 11:11:43.344,297
27/09/2019 11:11:43.348,297
27/09/2019 11:11:43.352,297
27/09/2019 11:11:43.356,297
27/09/2019 11:11:43.360,297
27/09/2019 11:11:43.364,297
27/09/2019 11:11:43.368,297
27/09/2019 11:11:43.372,297
27/09/2019 11:11:43.376,297
27/09/2019 11:11:43.380,297
27/09/2019 11:11:43.384,297
27/09/2019 11:11:43.388,297
27/09/2019 11:11:43.392,297
27/09/2019 11:11:43.396,297
27/09/2019 11:11:43.400,297
27/09/2019 11:11:43.404,297
27/09/2019 11:11:43.408,297
27/09/2019 11:11:43.412,297
27/09/2019 11:11:43.416,297
27/09/2019 11:11:43.420,297
27/09/2019 11:11:43.424,297
27/09/2019 11:11:43.428,297
27/09/2019 11:11:43.432,297
27/09/2019 11:11:43.436,297
27/09/2019 11:11:43.440,297
27/09/2019 11:11:43.444,297
27/09/2019 11:11:43.448,297
27/09/2019 11:11:43.452,297
27/09/2019 11:11:43.456,297
27/09/2019 11:11:43.460,297
27/09/2019 11:11:43.464,297
27/09/2019 11:11:43.468,297
27/09/2019 11:11:43.472,297
27/09/2019 11:11:43.476,297
27/09/2019 11:11:43.480,297
27/09/2019 11:11:43.484,297
27/09/2019 11:11:43.488,297
27/09/2019 11:11:43.492,297
27/09/2019 11:11:43.496,297
27/09/2019 11:11:43.500,297
27/09/2019 11:11:43.504,297
27/09/2019 11:11:43.508,297
27/09/2019 11:11:43.512,297
27/09/2019 11:11:43.516,297
27/09/2019 11:11:43.520,297
27/09/2019 11:11:43.524,297
27/09/2019 11:11:43.528,297
27/09/2019 11:11:43.532,297
27/09/2019 11:11:43.536,297
27/09/2019 11:11:43.540,297
27/09/2019 11:11:43.544,297
27/09/2019 11:11:43.548,297
27/09/2019 11:11:43.552,297
27/09/2019 11:11:43.556,297
27/09/2019 11:11:43.560,297
27/09/2019 11:11:43.564,297
27/09/2019 11:11:43.568,297
27/09/2019 11:11:43.572,297
27/09/2019 11:11:43.576,297
27/09/2019 11:11:43.580,297
27/09/2019 11:11:43.584,297
27/09/2019 11:11:43.588,297
27/09/2019 11:11:43.592,297
27/09/2019 11:11:43.596,297
27/09/2019 11:11:43.600,297
27/09/2019 11:11:43.604,297
27/09/2019 11:11:43.608,297
27/09/2019 11:11:43.612,297
27/09/2019 11:11:43.616,297
27/09/2019 11:11:43.620,297
27/09/2019 11:11:43.624,297
27/09/2019 11:11:43.628,297
27/09/2019 11:11:43.632,297
27/09/2019 11:11:43.636,297
27/09/2019 11:11:43.640,297
27/09/2019 11:11:43.644,297
27/09/2019 11:11:43.648,297
27/09/2019 11:11:43.652,297
27/09/2019 11:11:43.656,297
27/09/2019 11:11:43.660,297
27/09/2019 11:11:43.664,297
27/09/2019 11:11:43.668,297
27/09/2019 11:11:43.672,297
27/09/2019 11:11:43.676,297
27/09/2019 11:11:43.680,297
27/09/2019 11:11:43.684,297
27/09/2019 11:11:43.688,297
27/09/2019 11:11:43.692,297
27/09/2019 11:11:43.696,297
27/09/2019 11:11:43.700,297
27/09/2019 11:11:43.704,297
27/09/2019 11:11:43.708,297
27/09/2019 11:11:43.712,297
27/09/2019 11:11:43.716,297
27/09/2019 11:11:43.720,297
27/09/2019 11:11:43.724,297
27/09/2019 11:11:43.728,297
27/09/2019 11:11:43.732,297
27/09/2019 11:11:43.736,297
27/09/2019 11:11:43.740,297
27/09/2019 11:11:43.744,297
27/09/2019 11:11:43.748,297
27/09/2019 11:11:43.752,297
27/09/2019 11:11:43.756,297
27/09/2019 11:11:43.760,297
27/09/2019 11:11:43.764,297
27/09/2019 11:11:43.768,297
27/09/2019 11:11:43.772,297
27/09/2019 11:11:43.776,297
27/09/2019 11:11:43.780,297
27/09/2019 11:11:43.784,297
27/09/2019 11:11:43.788,297
27/09/2019 11:11:43.792,297
27/09/2019 11:11:43.796,297
27/09/2019 11:11:43.800,297
27/09/2019 11:11:43.804,297
27/09/2019 11:11:43.808,297
27/09/2019 11:11:43.812,297
27/09/2019 11:11:43.816,297
27/09/2019 11:11:43.820,297
27/09/2019 11:11:43.824,297
27/09/2019 11:11:43.828,297
27/09/2019 11:11:43.832,297
27/09/2019 11:11:43.836,297
27/09/2019 11:11:43.840,297
27/09/2019 11:11:43.844,297
27/09/2019 11:11:43.848,297
27/09/2019 11:11:43.852,297
27/09/2019 11:11:43.856,297
27/09/2019 11:11:43.860,297
27/09/2019 11:11:43.864,297
27/09/2019 11:11:43.868,297
27/09/2019 11:11:43.872,297
27/09/2019 11:11:43.876,297
27/09/2019 11:11:43.880,297
27/09/2019 11:11:43.884,297
27/09/2019 11:11:43.888,297
27/09/2019 11:11:43.892,297
27/09/2019 11:11:43.896,297
27/09/2019 11:11:43.900,297
27/09/2019 11:11:43.904,297
27/09/2019 11:11:43.908,297
27/09/2019 11:11:43.912,297
27/09/2019 11:11:43.916,297
27/09/2019 11:11:43.920,297
27/09/2019 11:11:43.924,297
27/09/2019 11:11:43.928,297
27/09/2019 11:11:43.932,297
27/09/2019 11:11:43.936,297
27/09/2019 11:11:43.940,297
27/09/2019 11:11:43.944,297
27/09/2019 11:11:43.948,297
27/09/2019 11:11:43.952,297
27/09/2019 11:11:43.956,297
27/09/2019 11:11:43.960,297
27/09/2019 11:11:43.964,297
27/09/2019 11:11:43.968,297
27/09/2019 11:11:43.972,297
27/09/2019 11:11:43.976,297
27/09/2019 11:11:43.980,297
27/09/2019 11:11:43.984,297
27/09/2019 11:11:43.988,297
27/09/2019 11:11:43.992,297
27/09/2019 11:11:43.996,297
27/09/2019 11:11:44.000,297
27/09/2019 11:11:44.004,297
27/09/2019 11:11:44.008,297
27/09/2019 11:11:44.012,297
27/09/2019 11:11:44.016,297
27/09/2019 11:11:44.020,297
27/09/2019 11:11:44.024,297
27/09/2019 11:11:44.028,297
27/09/2019 11:11:44.032,297
27/09/2019 11:11:44.036,297
27/09/2019 11:11:44.040,297
27/09/2019 11:11:44.044,297
27/09/2019 11:11:44.048,297
27/09/2019 11:11:44.052,297
27/09/2019 11:11:44.056,297
27/09/2019 11:11:44.060,297
27/09/2019 11:11:44.064,297
27/09/2019 11:11:44.068,297
27/09/2019 11:11:44.072,297
27/09/2019 11:11:44.076,297
27/09/2019 11:11:44.080,297
27/09/2019 11:11:44.084,297
27/09/2019 11:11:44.088,297
27/09/2019 11:11:44.092,297
27/09/2019 11:11:44.096,297
27/09/2019 11:11:44.100,297
27/09/2019 11:11:44.104,297
27/09/2019 11:11:44.108,297
27/09/2019 11:11:44.112,297
27/09/2019 11:11:44.116,297
27/09/2019 11:11:44.120,297
27/09/2019 11:11:44.124,297
27/09/2019 11:11:44.128,297
27/09/2019 11:11:44.132,297
27/09/2019 11:11:44.136,297
27/09/2019 11:11:44.140,297
27/09/2019 11:11:44.144,297
27/09/2019 11:11:44.148,297
27/09/2019 11:11:44.152,297
27/09/2019 11:11:44.156,297
27/09/2019 11:11:44.160,297
27/09/2019 11:11:44.164,297
27/09/2019 11:11:44.168,297
27/09/2019 11:11:44.172,297
27/09/2019 11:11:44.176,297
27/09/2019 11:11:44.180,297
27/09/2019 11:11:44.184,297
27/09/2019 11:11:44.188,297
27/09/2019 11:11:44.192,297
27/09/2019 11:11:44.196,297
27/09/2019 11:11:44.200,297
27/09/2019 11:11:44.204,297
27/09/2019 11:11:44.208,297
27/09/2019 11:11:44.212,297
27/09/2019 11:11:44.216,297
27/09/2019 11:11:44.220,297
27/09/2019 11:11:44.224,297
27/09/2019 11:11:44.228,297
27/09/2019 11:11:44.232,297
27/09/2019 11:11:44.236,297
27/09/2019 11:11:44.240,297
27/09/2019 11:11:44.244,297
27/09/2019 11:11:44.248,297
27/09/2019 11:11:44.252,297
27/09/2019 11:11:44.256,297
27/09/2019 11:11:44.260,297
27/09/2019 11:11:44.264,297
27/09/2019 11:11:44.268,297
27/09/2019 11:11:44.272,297
27/09/2019 11:11:44.276,297
27/09/2019 11:11:44.280,297
27/09/2019 11:11:44.284,297
27/09/2019 11:11:44.288,297
27/09/2019 11:11:44.292,297
27/09/2019 11:11:44.296,297
27/09/2019 11:11:44.300,297
27/09/2019 11:11:44.304,297
27/09/2019 11:11:44.308,297
27/09/2019 11:11:44.312,297
27/09/2019 11:11:44.316,297
27/09/2019 11:11:44.320,297
27/09/2019 11:11:44.324,297
27/09/2019 11:11:44.328,297
27/09/2019 11:11:44.332,297
27/09/2019 11:11:44.336,297
27/09/2019 11:11:44.340,297
27/09/2019 11:11:44.344,297
27/09/2019 11:11:44.348,297
27/09/2019 11:11:44.352,297
27/09/2019 11:11:44.356,297
27/09/2019 11:11:44.360,297
27/09/2019 11:11:44.364,297
27/09/2019 11:11:44.368,297
27/09/2019 11:11:44.372,297
27/09/2019 11:11:44.376,297
27/09/2019 11:11:44.380,297
27/09/2019 11:11:44.384,297
27/09/2019 11:11:44.388,297
27/09/2019 11:11:44.392,297
27/09/2019 11:11:44.396,297
27/09/2019 11:11:44.400,297
27/09/2019 11:11:44.404,297
27/09/2019 11:11:44.408,297
27/09/2019 11:11:44.412,297
27/09/2019 11:11:44.416,297
27/09/2019 11:11:44.420,297
27/09/2019 11:11:44.424,297
27/09/2019 11:11:44.428,297
27/09/2019 11:11:44.432,297
27/09/2019 11:11:44.436,297
27/09/2019 11:11:44.440,297
27/09/2019 11:11:44.444,297
27/09/2019 11:11:44.448,297
27/09/2019 11:11:44.452,297
27/09/2019 11:11:44.456,297
27/09/2019 11:11:44.460,297
27/09/2019 11:11:44.464,297
27/09/2019 11:11:44.468,297
27/09/2019 11:11:44.472,297
27/09/2019 11:11:44.476,297
27/09/2019 11:11:44.480,297
27/09/2019 11:11:44.484,297
27/09/2019 11:11:44.488,297
27/09/2019 11:11:44.492,297
27/09/2019 11:11:44.496,297
27/09/2019 11:11:44.500,297
27/09/2019 11:11:44.504,297
27/09/2019 11:11:44.508,297
27/09/2019 11:11:44.512,297
27/09/2019 11:11:44.516,297
27/09/2019 11:11:44.520,297
27/09/2019 11:11:44.524,297
27/09/2019 11:11:44.528,297
27/09/2019 11:11:44.532,297
27/09/2019 11:11:44.536,297
27/09/2019 11:11:44.540,297
27/09/2019 11:11:44.544,297
27/09/2019 11:11:44.548,297
27/09/2019 11:11:44.552,297
27/09/2019 11:11:44.556,297
27/09/2019 11:11:44.560,297
27/09/2019 11:11:44.564,297
27/09/2019 11:11:44.568,297
27/09/2019 11:11:44.572,297
27/09/2019 11:11:44.576,297
27/09/2019 11:11:44.580,297
27/09/2019 11:11:44.584,297
27/09/2019 11:11:44.588,297
27/09/2019 11:11:44.592,297
27/09/2019 11:11:44.596,297
27/09/2019 11:11:44.600,297
27/09/2019 11:11:44.604,297
27/09/2019 11:11:44.608,297
27/09/2019 11:11:44.612,297
27/09/2019 11:11:44.616,297
27/09/2019 11:11:44.620,297
27/09/2019 11:11:44.624,297
27/09/2019 11:11:44.628,297
27/09/2019 11:11:44.632,297
27/09/2019 11:11:44.636,297
27/09/2019 11:11:44.640,297
27/09/2019 11:11:44.644,297
27/09/2019 11:11:44.648,297
27/09/2019 11:11:44.652,297
27/09/2019 11:11:44.656,297
27/09/2019 11:11:44.660,297
27/09/2019 11:11:44.664,297
27/09/2019 11:11:44.668,297
27/09/2019 11:11:44.672,297
27/09/2019 11:11:44.676,297
27/09/2019 11:11:44.680,297
27/09/2019 11:11:44.684,297
27/09/2019 11:11:44.688,297
27/09/2019 11:11:44.692,297
27/09/2019 11:11:44.696,297
27/09/2019 11:11:44.700,297
27/09/2019 11:11:44.704,297
27/09/2019 11:11:44.708,297
27/09/2019 11:11:44.712,297
27/09/2019 11:11:44.716,297
27/09/2019 11:11:44.720,297
27/09/2019 11:11:44.724,297
27/09/2019 11:11:44.728,297
27/09/2019 11:11:44.732,297
27/09/2019 11:11:44.736,297
27/09/2019 11:11:44.740,297
27/09/2019 11:11:44.744,297
27/09/2019 11:11:44.748,297
27/09/2019 11:11:44.752,297
27/09/2019 11:11:44.756,297
27/09/2019 11:11:44.760,297
27/09/2019 11:11:44.764,297
27/09/2019 11:11:44.768,297
27/09/2019 11:11:44.772,297
27/09/2019 11:11:44.776,297
27/09/2019 11:11:44.780,297
27/09/2019 11:11:44.784,297
27/09/2019 11:11:44.788,297
27/09/2019 11:11:44.792,297
27/09/2019 11:11:44.796,297
27/09/2019 11:11:44.800,297
27/09/2019 11:11:44.804,297
27/09/2019 11:11:44.808,297
27/09/2019 11:11:44.812,297
27/09/2019 11:11:44.816,297
27/09/2019 11:11:44.820,297
27/09/2019 11:11:44.824,297
27/09/2019 11:11:44.828,297
27/09/2019 11:11:44.832,297
27/09/2019 11:11:44.836,297
27/09/2019 11:11:44.840,297
27/09/2019 11:11:44.844,297
27/09/2019 11:11:44.848,297
27/09/2019 11:11:44.852,297
27/09/2019 11:11:44.856,297
27/09/2019 11:11:44.860,297
27/09/2019 11:11:44.864,297
27/09/2019 11:11:44.868,297
27/09/2019 11:11:44.872,297
27/09/2019 11:11:44.876,297
27/09/2019 11:11:44.880,297
27/09/2019 11:11:44.884,297
27/09/2019 11:11:44.888,297
27/09/2019 11:11:44.892,297
27/09/2019 11:11:44.896,297
27/09/2019 11:11:44.900,297
27/09/2019 11:11:44.904,297
27/09/2019 11:11:44.908,297
27/09/2019 11:11:44.912,297
27/09/2019 11:11:44.916,297
27/09/2019 11:11:44.920,297
27/09/2019 11:11:44.924,297
27/09/2019 11:11:44.928,297
27/09/2019 11:11:44.932,297
27/09/2019 11:11:44.936,297
27/09/2019 11:11:44.940,297
27/09/2019 11:11:44.944,297
27/09/2019 11:11:44.948,297
27/09/2019 11:11:44.952,297
27/09/2019 11:11:44.956,297
27/09/2019 11:11:44.960,297
27/09/2019 11:11:44.964,297
27/09/2019 11:11:44.968,297
27/09/2019 11:11:44.972,297
27/09/2019 11:11:44.976,297
27/09/2019 11:11:44.980,297
27/09/2019 11:11:44.984,297
27/09/2019 11:11:44.988,297
27/09/2019 11:11:44.992,297
27/09/2019 11:11:44.996,297
27/09/2019 11:11:45.000,297
27/09/2019 11:11:45.004,297
27/09/2019 11:11:45.008,297
27/09/2019 11:11:45.012,297
27/09/2019 11:11:45.016,297
27/09/2019 11:11:45.020,297
27/09/2019 11:11:45.024,297
27/09/2019 11:11:45.028,297
27/09/2019 11:11:45.032,297
27/09/2019 11:11:45.036,297
27/09/2019 11:11:45.040,297
27/09/2019 11:11:45.044,297
27/09/2019 11:11:45.048,297
27/09/2019 11:11:45.052,297
27/09/2019 11:11:45.056,297
27/09/2019 11:11:45.060,297
27/09/2019 11:11:45.064,297
27/09/2019 11:11:45.068,297
27/09/2019 11:11:45.072,297
27/09/2019 11:11:45.076,297
27/09/2019 11:11:45.080,297
27/09/2019 11:11:45.084,297
27/09/2019 11:11:45.088,297
27/09/2019 11:11:45.092,297
27/09/2019 11:11:45.096,297
27/09/2019 11:11:45.100,297
27/09/2019 11:11:45.104,297
27/09/2019 11:11:45.108,297
27/09/2019 11:11:45.112,297
27/09/2019 11:11:45.116,297
27/09/2019 11:11:45.120,297
27/09/2019 11:11:45.124,297
27/09/2019 11:11:45.128,297
27/09/2019 11:11:45.132,297
27/09/2019 11:11:45.136,297
27/09/2019 11:11:45.140,297
27/09/2019 11:11:45.144,297
27/09/2019 11:11:45.148,297
27/09/2019 11:11:45.152,297
27/09/2019 11:11:45.156,297
27/09/2019 11:11:45.160,297
27/09/2019 11:11:45.164,297
27/09/2019 11:11:45.168,297
27/09/2019 11:11:45.172,297
27/09/2019 11:11:45.176,297
27/09/2019 11:11:45.180,297
27/09/2019 11:11:45.184,297
27/09/2019 11:11:45.188,297
27/09/2019 11:11:45.192,297
27/09/2019 11:11:45.196,297
27/09/2019 11:11:45.200,297
27/09/2019 11:11:45.204,297
27/09/2019 11:11:45.208,297
27/09/2019 11:11:45.212,297
27/09/2019 11:11:45.216,297
27/09/2019 11:11:45.220,297
27/09/2019 11:11:45.224,297
27/09/2019 11:11:45.228,297
27/09/2019 11:11:45.232,297
27/09/2019 11:11:45.236,297
27/09/2019 11:11:45.240,297
27/09/2019 11:11:45.244,297
27/09/2019 11:11:45.248,297
27/09/2019 11:11:45.252,297
27/09/2019 11:11:45.256,297
27/09/2019 11:11:45.260,297
27/09/2019 11:11:45.264,297
27/09/2019 11:11:45.268,297
27/09/2019 11:11:45.272,297
27/09/2019 11:11:45.276,297
27/09/2019 11:11:45.280,297
27/09/2019 11:11:45.284,297
27/09/2019 11:11:45.288,297
27/09/2019 11:11:45.292,297
27/09/2019 11:11:45.296,297
27/09/2019 11:11:45.300,297
27/09/2019 11:11:45.304,297
27/09/2019 11:11:45.308,297
27/09/2019 11:11:45.312,297
27/09/2019 11:11:45.316,297
27/09/2019 11:11:45.320,297
27/09/2019 11:11:45.324,297
27/09/2019 11:11:45.328,297
27/09/2019 11:11:45.332,297
27/09/2019 11:11:45.336,297
27/09/2019 11:11:45.340,297
27/09/2019 11:11:45.344,297
27/09/2019 11:11:45.348,297
27/09/2019 11:11:45.352,297
27/09/2019 11:11:45.356,297
27/09/2019 11:11:45.360,297
27/09/2019 11:11:45.364,297
27/09/2019 11:11:45.368,297
27/09/2019 11:11:45.372,297
27/09/2019 11:11:45.376,297
27/09/2019 11:11:45.380,297
27/09/2019 11:11:45.384,297
27/09/2019 11:11:45.388,297
27/09/2019 11:11:45.392,297
27/09/2019 11:11:45.396,297
27/09/2019 11:11:45.400,297
27/09/2019 11:11:45.404,297
27/09/2019 11:11:45.408,297
27/09/2019 11:11:45.412,297
27/09/2019 11:11:45.416,297
27/09/2019 11:11:45.420,297
27/09/2019 11:11:45.424,297
27/09/2019 11:11:45.428,297
27/09/2019 11:11:45.432,297
27/09/2019 11:11:45.436,297
27/09/2019 11:11:45.440,297
27/09/2019 11:11:45.444,297
27/09/2019 11:11:45.448,297
27/09/2019 11:11:45.452,297
27/09/2019 11:11:45.456,297
27/09/2019 11:11:45.460,297
27/09/2019 11:11:45.464,297
27/09/2019 11:11:45.468,297
27/09/2019 11:11:45.472,297
27/09/2019 11:11:45.476,297
27/09/2019 11:11:45.480,297
27/09/2019 11:11:45.484,297
27/09/2019 11:11:45.488,297
27/09/2019 11:11:45.492,297
27/09/2019 11:11:45.496,297
27/09/2019 11:11:45.500,297
27/09/2019 11:11:45.504,297
27/09/2019 11:11:45.508,297
27/09/2019 11:11:45.512,297
27/09/2019 11:11:45.516,297
27/09/2019 11:11:45.520,297
27/09/2019 11:11:45.524,297
27/09/2019 11:11:45.528,297
27/09/2019 11:11:45.532,297
27/09/2019 11:11:45.536,297
27/09/2019 11:11:45.540,297
27/09/2019 11:11:45.544,297
27/09/2019 11:11:45.548,297
27/09/2019 11:11:45.552,297
27/09/2019 11:11:45.556,297
27/09/2019 11:11:45.560,297
27/09/2019 11:11:45.564,297
27/09/2019 11:11:45.568,297
27/09/2019 11:11:45.572,297
27/09/2019 11:11:45.576,297
27/09/2019 11:11:45.580,297
27/09/2019 11:11:45.584,297
27/09/2019 11:11:45.588,297
27/09/2019 11:11:45.592,297
27/09/2019 11:11:45.596,297
27/09/2019 11:11:45.600,297
27/09/2019 11:11:45.604,297
27/09/2019 11:11:45.608,297
27/09/2019 11:11:45.612,297
27/09/2019 11:11:45.616,297
27/09/2019 11:11:45.620,297
27/09/2019 11:11:45.624,297
27/09/2019 11:11:45.628,297
27/09/2019 11:11:45.632,297
27/09/2019 11:11:45.636,297
27/09/2019 11:11:45.640,297
27/09/2019 11:11:45.644,297
27/09/2019 11:11:45.648,297
27/09/2019 11:11:45.652,297
27/09/2019 11:11:45.656,297
27/09/2019 11:11:45.660,297
27/09/2019 11:11:45.664,297
27/09/2019 11:11:45.668,297
27/09/2019 11:11:45.672,297
27/09/2019 11:11:45.676,297
27/09/2019 11:11:45.680,297
27/09/2019 11:11:45.684,297
27/09/2019 11:11:45.688,297
27/09/2019 11:11:45.692,297
27/09/2019 11:11:45.696,297
27/09/2019 11:11:45.700,297
27/09/2019 11:11:45.704,297
27/09/2019 11:11:45.708,297
27/09/2019 11:11:45.712,297
27/09/2019 11:11:45.716,297
27/09/2019 11:11:45.720,297
27/09/2019 11:11:45.724,297
27/09/2019 11:11:45.728,297
27/09/2019 11:11:45.732,297
27/09/2019 11:11:45.736,297
27/09/2019 11:11:45.740,297
27/09/2019 11:11:45.744,297
27/09/2019 11:11:45.748,297
27/09/2019 11:11:45.752,297
27/09/2019 11:11:45.756,297
27/09/2019 11:11:45.760,297
27/09/2019 11:11:45.764,297
27/09/2019 11:11:45.768,297
27/09/2019 11:11:45.772,297
27/09/2019 11:11:45.776,297
27/09/2019 11:11:45.780,297
27/09/2019 11:11:45.784,297
27/09/2019 11:11:45.788,297
27/09/2019 11:11:45.792,297
27/09/2019 11:11:45.796,297
27/09/2019 11:11:45.800,297
27/09/2019 11:11:45.804,297
27/09/2019 11:11:45.808,297
27/09/2019 11:11:45.812,297
27/09/2019 11:11:45.816,297
27/09/2019 11:11:45.820,297
27/09/2019 11:11:45.824,297
27/09/2019 11:11:45.828,297
27/09/2019 11:11:45.832,297
27/09/2019 11:11:45.836,297
27/09/2019 11:11:45.840,297
27/09/2019 11:11:45.844,297
27/09/2019 11:11:45.848,297
27/09/2019 11:11:45.852,297
27/09/2019 11:11:45.856,297
27/09/2019 11:11:45.860,297
27/09/2019 11:11:45.864,297
27/09/2019 11:11:45.868,297
27/09/2019 11:11:45.872,297
27/09/2019 11:11:45.876,297
27/09/2019 11:11:45.880,297
27/09/2019 11:11:45.884,297
27/09/2019 11:11:45.888,297
27/09/2019 11:11:45.892,297
27/09/2019 11:11:45.896,297
27/09/2019 11:11:45.900,297
27/09/2019 11:11:45.904,297
27/09/2019 11:11:45.908,297
27/09/2019 11:11:45.912,297
27/09/2019 11:11:45.916,297
27/09/2019 11:11:45.920,297
27/09/2019 11:11:45.924,297
27/09/2019 11:11:45.928,297
27/09/2019 11:11:45.932,297
27/09/2019 11:11:45.936,297
27/09/2019 11:11:45.940,297
27/09/2019 11:11:45.944,297
27/09/2019 11:11:45.948,297
27/09/2019 11:11:45.952,297
27/09/2019 11:11:45.956,297
27/09/2019 11:11:45.960,297
27/09/2019 11:11:45.964,297
27/09/2019 11:11:45.968,297
27/09/2019 11:11:45.972,297
27/09/2019 11:11:45.976,297
27/09/2019 11:11:45.980,297
27/09/2019 11:11:45.984,297
27/09/2019 11:11:45.988,297
27/09/2019 11:11:45.992,297
27/09/2019 11:11:45.996,297
27/09/2019 11:11:46.000,297
27/09/2019 11:11:46.004,297
27/09/2019 11:11:46.008,297
27/09/2019 11:11:46.012,297
27/09/2019 11:11:46.016,297
27/09/2019 11:11:46.020,297
27/09/2019 11:11:46.024,297
27/09/2019 11:11:46.028,297
27/09/2019 11:11:46.032,297
27/09/2019 11:11:46.036,297
27/09/2019 11:11:46.040,297
27/09/2019 11:11:46.044,297
27/09/2019 11:11:46.048,297
27/09/2019 11:11:46.052,297
27/09/2019 11:11:46.056,297
27/09/2019 11:11:46.060,297
27/09/2019 11:11:46.064,297
27/09/2019 11:11:46.068,297
27/09/2019 11:11:46.072,297
27/09/2019 11:11:46.076,297
27/09/2019 11:11:46.080,297
27/09/2019 11:11:46.084,297
27/09/2019 11:11:46.088,297
27/09/2019 11:11:46.092,297
27/09/2019 11:11:46.096,297
27/09/2019 11:11:46.100,297
27/09/2019 11:11:46.104,297
27/09/2019 11:11:46.108,297
27/09/2019 11:11:46.112,297
27/09/2019 11:11:46.116,297
27/09/2019 11:11:46.120,297
27/09/2019 11:11:46.124,297
27/09/2019 11:11:46.128,297
27/09/2019 11:11:46.132,297
27/09/2019 11:11:46.136,297
27/09/2019 11:11:46.140,297
27/09/2019 11:11:46.144,297
27/09/2019 11:11:46.148,297
27/09/2019 11:11:46.152,297
27/09/2019 11:11:46.156,297
27/09/2019 11:11:46.160,297
27/09/2019 11:11:46.164,297
27/09/2019 11:11:46.168,297
27/09/2019 11:11:46.172,297
27/09/2019 11:11:46.176,297
27/09/2019 11:11:46.180,297
27/09/2019 11:11:46.184,297
27/09/2019 11:11:46.188,297
27/09/2019 11:11:46.192,297
27/09/2019 11:11:46.196,297
27/09/2019 11:11:46.200,297
27/09/2019 11:11:46.204,297
27/09/2019 11:11:46.208,297
27/09/2019 11:11:46.212,297
27/09/2019 11:11:46.216,297
27/09/2019 11:11:46.220,297
27/09/2019 11:11:46.224,297
27/09/2019 11:11:46.228,297
27/09/2019 11:11:46.232,297
27/09/2019 11:11:46.236,297
27/09/2019 11:11:46.240,297
27/09/2019 11:11:46.244,297
27/09/2019 11:11:46.248,297
27/09/2019 11:11:46.252,297
27/09/2019 11:11:46.256,297
27/09/2019 11:11:46.260,297
27/09/2019 11:11:46.264,297
27/09/2019 11:11:46.268,297
27/09/2019 11:11:46.272,297
27/09/2019 11:11:46.276,297
27/09/2019 11:11:46.280,297
27/09/2019 11:11:46.284,297
27/09/2019 11:11:46.288,297
27/09/2019 11:11:46.292,297
27/09/2019 11:11:46.296,297
27/09/2019 11:11:46.300,297
27/09/2019 11:11:46.304,297
27/09/2019 11:11:46.308,297
27/09/2019 11:11:46.312,297
27/09/2019 11:11:46.316,297
27/09/2019 11:11:46.320,297
27/09/2019 11:11:46.324,297
27/09/2019 11:11:46.328,297
27/09/2019 11:11:46.332,297
27/09/2019 11:11:46.336,297
27/09/2019 11:11:46.340,297
27/09/2019 11:11:46.344,297
27/09/2019 11:11:46.348,297
27/09/2019 11:11:46.352,297
27/09/2019 11:11:46.356,297
27/09/2019 11:11:46.360,297
27/09/2019 11:11:46.364,297
27/09/2019 11:11:46.368,297
27/09/2019 11:11:46.372,297
27/09/2019 11:11:46.376,297
27/09/2019 11:11:46.380,297
27/09/2019 11:11:46.384,297
27/09/2019 11:11:46.388,297
27/09/2019 11:11:46.392,297
27/09/2019 11:11:46.396,297
27/09/2019 11:11:46.400,297
27/09/2019 11:11:46.404,297
27/09/2019 11:11:46.408,297
27/09/2019 11:11:46.412,297
27/09/2019 11:11:46.416,297
27/09/2019 11:11:46.420,297
27/09/2019 11:11:46.424,297
27/09/2019 11:11:46.428,297
27/09/2019 11:11:46.432,297
27/09/2019 11:11:46.436,297
27/09/2019 11:11:46.440,297
27/09/2019 11:11:46.444,297
27/09/2019 11:11:46.448,297
27/09/2019 11:11:46.452,297
27/09/2019 11:11:46.456,297
27/09/2019 11:11:46.460,297
27/09/2019 11:11:46.464,297
27/09/2019 11:11:46.468,297
27/09/2019 11:11:46.472,297
27/09/2019 11:11:46.476,297
27/09/2019 11:11:46.480,297
27/09/2019 11:11:46.484,297
27/09/2019 11:11:46.488,297
27/09/2019 11:11:46.492,297
27/09/2019 11:11:46.496,297
27/09/2019 11:11:46.500,297
27/09/2019 11:11:46.504,297
27/09/2019 11:11:46.508,297
27/09/2019 11:11:46.512,297
27/09/2019 11:11:46.516,297
27/09/2019 11:11:46.520,297
27/09/2019 11:11:46.524,297
27/09/2019 11:11:46.528,297
27/09/2019 11:11:46.532,297
27/09/2019 11:11:46.536,297
27/09/2019 11:11:46.540,297
27/09/2019 11:11:46.544,297
27/09/2019 11:11:46.548,297
27/09/2019 11:11:46.552,297
27/09/2019 11:11:46.556,297
27/09/2019 11:11:46.560,297
27/09/2019 11:11:46.564,297
27/09/2019 11:11:46.568,297
27/09/2019 11:11:46.572,297
27/09/2019 11:11:46.576,297
27/09/2019 11:11:46.580,297
27/09/2019 11:11:46.584,297
27/09/2019 11:11:46.588,297
27/09/2019 11:11:46.592,297
27/09/2019 11:11:46.596,297
27/09/2019 11:11:46.600,297
27/09/2019 11:11:46.604,297
27/09/2019 11:11:46.608,297
27/09/2019 11:11:46.612,297
27/09/2019 11:11:46.616,297
27/09/2019 11:11:46.620,297
27/09/2019 11:11:46.624,297
27/09/2019 11:11:46.628,297
27/09/2019 11:11:46.632,297
27/09/2019 11:11:46.636,297
27/09/2019 11:11:46.640,297
27/09/2019 11:11:46.644,297
27/09/2019 11:11:46.648,297
27/09/2019 11:11:46.652,297
27/09/2019 11:11:46.656,297
27/09/2019 11:11:46.660,297
27/09/2019 11:11:46.664,297
27/09/2019 11:11:46.668,297
27/09/2019 11:11:46.672,297
27/09/2019 11:11:46.676,297
27/09/2019 11:11:46.680,297
27/09/2019 11:11:46.684,297
27/09/2019 11:11:46.688,297
27/09/2019 11:11:46.692,297
27/09/2019 11:11:46.696,297
27/09/2019 11:11:46.700,297
27/09/2019 11:11:46.704,297
27/09/2019 11:11:46.708,297
27/09/2019 11:11:46.712,297
27/09/2019 11:11:46.716,297
27/09/2019 11:11:46.720,297
27/09/2019 11:11:46.724,297
27/09/2019 11:11:46.728,297
27/09/2019 11:11:46.732,297
27/09/2019 11:11:46.736,297
27/09/2019 11:11:46.740,297
27/09/2019 11:11:46.744,297
27/09/2019 11:11:46.748,297
27/09/2019 11:11:46.752,297
27/09/2019 11:11:46.756,297
27/09/2019 11:11:46.760,297
27/09/2019 11:11:46.764,297
27/09/2019 11:11:46.768,297
27/09/2019 11:11:46.772,297
27/09/2019 11:11:46.776,297
27/09/2019 11:11:46.780,297
27/09/2019 11:11:46.784,297
27/09/2019 11:11:46.788,297
27/09/2019 11:11:46.792,297
27/09/2019 11:11:46.796,297
27/09/2019 11:11:46.800,297
27/09/2019 11:11:46.804,297
27/09/2019 11:11:46.808,297
27/09/2019 11:11:46.812,297
27/09/2019 11:11:46.816,297
27/09/2019 11:11:46.820,297
27/09/2019 11:11:46.824,297
27/09/2019 11:11:46.828,297
27/09/2019 11:11:46.832,297
27/09/2019 11:11:46.836,297
27/09/2019 11:11:46.840,297
27/09/2019 11:11:46.844,297
27/09/2019 11:11:46.848,297
27/09/2019 11:11:46.852,297
27/09/2019 11:11:46.856,297
27/09/2019 11:11:46.860,297
27/09/2019 11:11:46.864,297
27/09/2019 11:11:46.868,297
27/09/2019 11:11:46.872,297
27/09/2019 11:11:46.876,297
27/09/2019 11:11:46.880,297
27/09/2019 11:11:46.884,297
27/09/2019 11:11:46.888,297
27/09/2019 11:11:46.892,297
27/09/2019 11:11:46.896,297
27/09/2019 11:11:46.900,297
27/09/2019 11:11:46.904,297
27/09/2019 11:11:46.908,297
27/09/2019 11:11:46.912,297
27/09/2019 11:11:46.916,297
27/09/2019 11:11:46.920,297
27/09/2019 11:11:46.924,297
27/09/2019 11:11:46.928,297
27/09/2019 11:11:46.932,297
27/09/2019 11:11:46.936,297
27/09/2019 11:11:46.940,297
27/09/2019 11:11:46.944,297
27/09/2019 11:11:46.948,297
27/09/2019 11:11:46.952,297
27/09/2019 11:11:46.956,297
27/09/2019 11:11:46.960,297
27/09/2019 11:11:46.964,297
27/09/2019 11:11:46.968,297
27/09/2019 11:11:46.972,297
27/09/2019 11:11:46.976,297
27/09/2019 11:11:46.980,297
27/09/2019 11:11:46.984,297
27/09/2019 11:11:46.988,297
27/09/2019 11:11:46.992,297
27/09/2019 11:11:46.996,297
27/09/2019 11:11:47.000,297
27/09/2019 11:11:47.004,297
27/09/2019 11:11:47.008,297
27/09/2019 11:11:47.012,297
27/09/2019 11:11:47.016,297
27/09/2019 11:11:47.020,297
27/09/2019 11:11:47.024,297
27/09/2019 11:11:47.028,297
27/09/2019 11:11:47.032,297
27/09/2019 11:11:47.036,297
27/09/2019 11:11:47.040,297
27/09/2019 11:11:47.044,297
27/09/2019 11:11:47.048,297
27/09/2019 11:11:47.052,297
27/09/2019 11:11:47.056,297
27/09/2019 11:11:47.060,297
27/09/2019 11:11:47.064,297
27/09/2019 11:11:47.068,297
27/09/2019 11:11:47.072,297
27/09/2019 11:11:47.076,297
27/09/2019 11:11:47.080,297
27/09/2019 11:11:47.084,297
27/09/2019 11:11:47.088,297
27/09/2019 11:11:47.092,297
27/09/2019 11:11:47.096,297
27/09/2019 11:11:47.100,297
27/09/2019 11:11:47.104,297
27/09/2019 11:11:47.108,297
27/09/2019 11:11:47.112,297
27/09/2019 11:11:47.116,297
27/09/2019 11:11:47.120,297
27/09/2019 11:11:47.124,297
27/09/2019 11:11:47.128,297
27/09/2019 11:11:47.132,297
27/09/2019 11:11:47.136,297
27/09/2019 11:11:47.140,297
27/09/2019 11:11:47.144,297
27/09/2019 11:11:47.148,297
27/09/2019 11:11:47.152,297
27/09/2019 11:11:47.156,297
27/09/2019 11:11:47.160,297
27/09/2019 11:11:47.164,297
27/09/2019 11:11:47.168,297
27/09/2019 11:11:47.172,297
27/09/2019 11:11:47.176,297
27/09/2019 11:11:47.180,297
27/09/2019 11:11:47.184,297
27/09/2019 11:11:47.188,297
27/09/2019 11:11:47.192,297
27/09/2019 11:11:47.196,297
27/09/2019 11:11:47.200,297
27/09/2019 11:11:47.204,297
27/09/2019 11:11:47.208,297
27/09/2019 11:11:47.212,297
27/09/2019 11:11:47.216,297
27/09/2019 11:11:47.220,297
27/09/2019 11:11:47.224,297
27/09/2019 11:11:47.228,297
27/09/2019 11:11:47.232,297
27/09/2019 11:11:47.236,297
27/09/2019 11:11:47.240,297
27/09/2019 11:11:47.244,297
27/09/2019 11:11:47.248,297
27/09/2019 11:11:47.252,297
27/09/2019 11:11:47.256,297
27/09/2019 11:11:47.260,297
27/09/2019 11:11:47.264,297
27/09/2019 11:11:47.268,297
27/09/2019 11:11:47.272,297
27/09/2019 11:11:47.276,297
27/09/2019 11:11:47.280,297
27/09/2019 11:11:47.284,297
27/09/2019 11:11:47.288,297
27/09/2019 11:11:47.292,297
27/09/2019 11:11:47.296,297
27/09/2019 11:11:47.300,297
27/09/2019 11:11:47.304,297
27/09/2019 11:11:47.308,297
27/09/2019 11:11:47.312,297
27/09/2019 11:11:47.316,297
27/09/2019 11:11:47.320,297
27/09/2019 11:11:47.324,297
27/09/2019 11:11:47.328,297
27/09/2019 11:11:47.332,297
27/09/2019 11:11:47.336,297
27/09/2019 11:11:47.340,297
27/09/2019 11:11:47.344,297
27/09/2019 11:11:47.348,297
27/09/2019 11:11:47.352,297
27/09/2019 11:11:47.356,297
27/09/2019 11:11:47.360,297
27/09/2019 11:11:47.364,297
27/09/2019 11:11:47.368,297
27/09/2019 11:11:47.372,297
27/09/2019 11:11:47.376,297
27/09/2019 11:11:47.380,297
27/09/2019 11:11:47.384,297
27/09/2019 11:11:47.388,297
27/09/2019 11:11:47.392,297
27/09/2019 11:11:47.396,297
27/09/2019 11:11:47.400,297
27/09/2019 11:11:47.404,297
27/09/2019 11:11:47.408,297
27/09/2019 11:11:47.412,297
27/09/2019 11:11:47.416,297
27/09/2019 11:11:47.420,297
27/09/2019 11:11:47.424,297
27/09/2019 11:11:47.428,297
27/09/2019 11:11:47.432,297
27/09/2019 11:11:47.436,297
27/09/2019 11:11:47.440,297
27/09/2019 11:11:47.444,297
27/09/2019 11:11:47.448,297
27/09/2019 11:11:47.452,297
27/09/2019 11:11:47.456,297
27/09/2019 11:11:47.460,297
27/09/2019 11:11:47.464,297
27/09/2019 11:11:47.468,297
27/09/2019 11:11:47.472,297
27/09/2019 11:11:47.476,297
27/09/2019 11:11:47.480,297
27/09/2019 11:11:47.484,297
27/09/2019 11:11:47.488,297
27/09/2019 11:11:47.492,297
27/09/2019 11:11:47.496,297
27/09/2019 11:11:47.500,297
27/09/2019 11:11:47.504,297
27/09/2019 11:11:47.508,297
27/09/2019 11:11:47.512,297
27/09/2019 11:11:47.516,297
27/09/2019 11:11:47.520,297
27/09/2019 11:11:47.524,297
27/09/2019 11:11:47.528,297
27/09/2019 11:11:47.532,297
27/09/2019 11:11:47.536,297
27/09/2019 11:11:47.540,297
27/09/2019 11:11:47.544,297
27/09/2019 11:11:47.548,297
27/09/2019 11:11:47.552,297
27/09/2019 11:11:47.556,297
27/09/2019 11:11:47.560,297
27/09/2019 11:11:47.564,297
27/09/2019 11:11:47.568,297
27/09/2019 11:11:47.572,297
27/09/2019 11:11:47.576,297
27/09/2019 11:11:47.580,297
27/09/2019 11:11:47.584,297
27/09/2019 11:11:47.588,297
27/09/2019 11:11:47.592,297
27/09/2019 11:11:47.596,297
27/09/2019 11:11:47.600,297
27/09/2019 11:11:47.604,297
27/09/2019 11:11:47.608,297
27/09/2019 11:11:47.612,297
27/09/2019 11:11:47.616,297
27/09/2019 11:11:47.620,297
27/09/2019 11:11:47.624,297
27/09/2019 11:11:47.628,297
27/09/2019 11:11:47.632,297
27/09/2019 11:11:47.636,297
27/09/2019 11:11:47.640,297
27/09/2019 11:11:47.644,297
27/09/2019 11:11:47.648,297
27/09/2019 11:11:47.652,297
27/09/2019 11:11:47.656,297
27/09/2019 11:11:47.660,297
27/09/2019 11:11:47.664,297
27/09/2019 11:11:47.668,297
27/09/2019 11:11:47.672,297
27/09/2019 11:11:47.676,297
27/09/2019 11:11:47.680,297
27/09/2019 11:11:47.684,297
27/09/2019 11:11:47.688,297
27/09/2019 11:11:47.692,297
27/09/2019 11:11:47.696,297
27/09/2019 11:11:47.700,297
27/09/2019 11:11:47.704,297
27/09/2019 11:11:47.708,297
27/09/2019 11:11:47.712,297
27/09/2019 11:11:47.716,297
27/09/2019 11:11:47.720,297
27/09/2019 11:11:47.724,297
27/09/2019 11:11:47.728,297
27/09/2019 11:11:47.732,297
27/09/2019 11:11:47.736,297
27/09/2019 11:11:47.740,297
27/09/2019 11:11:47.744,297
27/09/2019 11:11:47.748,297
27/09/2019 11:11:47.752,297
27/09/2019 11:11:47.756,297
27/09/2019 11:11:47.760,297
27/09/2019 11:11:47.764,297
27/09/2019 11:11:47.768,297
27/09/2019 11:11:47.772,297
27/09/2019 11:11:47.776,297
27/09/2019 11:11:47.780,297
27/09/2019 11:11:47.784,297
27/09/2019 11:11:47.788,297
27/09/2019 11:11:47.792,297
27/09/2019 11:11:47.796,297
27/09/2019 11:11:47.800,297
27/09/2019 11:11:47.804,297
27/09/2019 11:11:47.808,297
27/09/2019 11:11:47.812,297
27/09/2019 11:11:47.816,297
27/09/2019 11:11:47.820,297
27/09/2019 11:11:47.824,297
27/09/2019 11:11:47.828,297
27/09/2019 11:11:47.832,297
27/09/2019 11:11:47.836,297
27/09/2019 11:11:47.840,297
27/09/2019 11:11:47.844,297
27/09/2019 11:11:47.848,297
27/09/2019 11:11:47.852,297
27/09/2019 11:11:47.856,297
27/09/2019 11:11:47.860,297
27/09/2019 11:11:47.864,297
27/09/2019 11:11:47.868,297
27/09/2019 11:11:47.872,297
27/09/2019 11:11:47.876,297
27/09/2019 11:11:47.880,297
27/09/2019 11:11:47.884,297
27/09/2019 11:11:47.888,297
27/09/2019 11:11:47.892,297
27/09/2019 11:11:47.896,297
27/09/2019 11:11:47.900,297
27/09/2019 11:11:47.904,297
27/09/2019 11:11:47.908,297
27/09/2019 11:11:47.912,297
27/09/2019 11:11:47.916,297
27/09/2019 11:11:47.920,297
27/09/2019 11:11:47.924,297
27/09/2019 11:11:47.928,297
27/09/2019 11:11:47.932,297
27/09/2019 11:11:47.936,297
27/09/2019 11:11:47.940,297
27/09/2019 11:11:47.944,297
27/09/2019 11:11:47.948,297
27/09/2019 11:11:47.952,297
27/09/2019 11:11:47.956,297
27/09/2019 11:11:47.960,297
27/09/2019 11:11:47.964,297
27/09/2019 11:11:47.968,297
27/09/2019 11:11:47.972,297
27/09/2019 11:11:47.976,297
27/09/2019 11:11:47.980,297
27/09/2019 11:11:47.984,297
27/09/2019 11:11:47.988,297
27/09/2019 11:11:47.992,297
27/09/2019 11:11:47.996,297
27/09/2019 11:11:48.000,297
27/09/2019 11:11:48.004,297
27/09/2019 11:11:48.008,297
27/09/2019 11:11:48.012,297
27/09/2019 11:11:48.016,297
27/09/2019 11:11:48.020,297
27/09/2019 11:11:48.024,297
27/09/2019 11:11:48.028,297
27/09/2019 11:11:48.032,297
27/09/2019 11:11:48.036,297
27/09/2019 11:11:48.040,297
27/09/2019 11:11:48.044,297
27/09/2019 11:11:48.048,297
27/09/2019 11:11:48.052,297
27/09/2019 11:11:48.056,297
27/09/2019 11:11:48.060,297
27/09/2019 11:11:48.064,297
27/09/2019 11:11:48.068,297
27/09/2019 11:11:48.072,297
27/09/2019 11:11:48.076,297
27/09/2019 11:11:48.080,297
27/09/2019 11:11:48.084,297
27/09/2019 11:11:48.088,297
27/09/2019 11:11:48.092,297
27/09/2019 11:11:48.096,297
27/09/2019 11:11:48.100,297
27/09/2019 11:11:48.104,297
27/09/2019 11:11:48.108,297
27/09/2019 11:11:48.112,297
27/09/2019 11:11:48.116,297
27/09/2019 11:11:48.120,297
27/09/2019 11:11:48.124,297
27/09/2019 11:11:48.128,297
27/09/2019 11:11:48.132,297
27/09/2019 11:11:48.136,297
27/09/2019 11:11:48.140,297
27/09/2019 11:11:48.144,297
27/09/2019 11:11:48.148,297
27/09/2019 11:11:48.152,297
27/09/2019 11:11:48.156,297
27/09/2019 11:11:48.160,297
27/09/2019 11:11:48.164,297
27/09/2019 11:11:48.168,297
27/09/2019 11:11:48.172,297
27/09/2019 11:11:48.176,297
27/09/2019 11:11:48.180,297
27/09/2019 11:11:48.184,297
27/09/2019 11:11:48.188,297
27/09/2019 11:11:48.192,297
27/09/2019 11:11:48.196,297
27/09/2019 11:11:48.200,297
27/09/2019 11:11:48.204,297
27/09/2019 11:11:48.208,297
27/09/2019 11:11:48.212,297
27/09/2019 11:11:48.216,297
27/09/2019 11:11:48.220,297
27/09/2019 11:11:48.224,297
27/09/2019 11:11:48.228,297
27/09/2019 11:11:48.232,297
27/09/2019 11:11:48.236,297
27/09/2019 11:11:48.240,297
27/09/2019 11:11:48.244,297
27/09/2019 11:11:48.248,297
27/09/2019 11:11:48.252,297
27/09/2019 11:11:48.256,297
27/09/2019 11:11:48.260,297
27/09/2019 11:11:48.264,297
27/09/2019 11:11:48.268,297
27/09/2019 11:11:48.272,297
27/09/2019 11:11:48.276,297
27/09/2019 11:11:48.280,297
27/09/2019 11:11:48.284,297
27/09/2019 11:11:48.288,297
27/09/2019 11:11:48.292,297
27/09/2019 11:11:48.296,297
27/09/2019 11:11:48.300,297
27/09/2019 11:11:48.304,297
27/09/2019 11:11:48.308,297
27/09/2019 11:11:48.312,297
27/09/2019 11:11:48.316,297
27/09/2019 11:11:48.320,297
27/09/2019 11:11:48.324,297
27/09/2019 11:11:48.328,297
27/09/2019 11:11:48.332,297
27/09/2019 11:11:48.336,297
27/09/2019 11:11:48.340,297
27/09/2019 11:11:48.344,297
27/09/2019 11:11:48.348,297
27/09/2019 11:11:48.352,297
27/09/2019 11:11:48.356,297
27/09/2019 11:11:48.360,297
27/09/2019 11:11:48.364,297
27/09/2019 11:11:48.368,297
27/09/2019 11:11:48.372,297
27/09/2019 11:11:48.376,297
27/09/2019 11:11:48.380,297
27/09/2019 11:11:48.384,297
27/09/2019 11:11:48.388,297
27/09/2019 11:11:48.392,297
27/09/2019 11:11:48.396,297
27/09/2019 11:11:48.400,297
27/09/2019 11:11:48.404,297
27/09/2019 11:11:48.408,297
27/09/2019 11:11:48.412,297
27/09/2019 11:11:48.416,297
27/09/2019 11:11:48.420,297
27/09/2019 11:11:48.424,297
27/09/2019 11:11:48.428,297
27/09/2019 11:11:48.432,297
27/09/2019 11:11:48.436,297
27/09/2019 11:11:48.440,297
27/09/2019 11:11:48.444,297
27/09/2019 11:11:48.448,297
27/09/2019 11:11:48.452,297
27/09/2019 11:11:48.456,297
27/09/2019 11:11:48.460,297
27/09/2019 11:11:48.464,297
27/09/2019 11:11:48.468,297
27/09/2019 11:11:48.472,297
27/09/2019 11:11:48.476,297
27/09/2019 11:11:48.480,297
27/09/2019 11:11:48.484,297
27/09/2019 11:11:48.488,297
27/09/2019 11:11:48.492,297
27/09/2019 11:11:48.496,297
27/09/2019 11:11:48.500,297
27/09/2019 11:11:48.504,297
27/09/2019 11:11:48.508,297
27/09/2019 11:11:48.512,297
27/09/2019 11:11:48.516,297
27/09/2019 11:11:48.520,297
27/09/2019 11:11:48.524,297
27/09/2019 11:11:48.528,297
27/09/2019 11:11:48.532,297
27/09/2019 11:11:48.536,297
27/09/2019 11:11:48.540,297
27/09/2019 11:11:48.544,297
27/09/2019 11:11:48.548,297
27/09/2019 11:11:48.552,297
27/09/2019 11:11:48.556,297
27/09/2019 11:11:48.560,297
27/09/2019 11:11:48.564,297
27/09/2019 11:11:48.568,297
27/09/2019 11:11:48.572,297
27/09/2019 11:11:48.576,297
27/09/2019 11:11:48.580,297
27/09/2019 11:11:48.584,297
27/09/2019 11:11:48.588,297
27/09/2019 11:11:48.592,297
27/09/2019 11:11:48.596,297
27/09/2019 11:11:48.600,297
27/09/2019 11:11:48.604,297
27/09/2019 11:11:48.608,297
27/09/2019 11:11:48.612,297
27/09/2019 11:11:48.616,297
27/09/2019 11:11:48.620,297
27/09/2019 11:11:48.624,297
27/09/2019 11:11:48.628,297
27/09/2019 11:11:48.632,297
27/09/2019 11:11:48.636,297
27/09/2019 11:11:48.640,297
27/09/2019 11:11:48.644,297
27/09/2019 11:11:48.648,297
27/09/2019 11:11:48.652,297
27/09/2019 11:11:48.656,297
27/09/2019 11:11:48.660,297
27/09/2019 11:11:48.664,297
27/09/2019 11:11:48.668,297
27/09/2019 11:11:48.672,297
27/09/2019 11:11:48.676,297
27/09/2019 11:11:48.680,297
27/09/2019 11:11:48.684,297
27/09/2019 11:11:48.688,297
27/09/2019 11:11:48.692,297
27/09/2019 11:11:48.696,297
27/09/2019 11:11:48.700,297
27/09/2019 11:11:48.704,297
27/09/2019 11:11:48.708,297
27/09/2019 11:11:48.712,297
27/09/2019 11:11:48.716,297
27/09/2019 11:11:48.720,297
27/09/2019 11:11:48.724,297
27/09/2019 11:11:48.728,297
27/09/2019 11:11:48.732,297
27/09/2019 11:11:48.736,297
27/09/2019 11:11:48.740,297
27/09/2019 11:11:48.744,297
27/09/2019 11:11:48.748,297
27/09/2019 11:11:48.752,297
27/09/2019 11:11:48.756,297
27/09/2019 11:11:48.760,297
27/09/2019 11:11:48.764,297
27/09/2019 11:11:48.768,297
27/09/2019 11:11:48.772,297
27/09/2019 11:11:48.776,297
27/09/2019 11:11:48.780,297
27/09/2019 11:11:48.784,297
27/09/2019 11:11:48.788,297
27/09/2019 11:11:48.792,297
27/09/2019 11:11:48.796,297
27/09/2019 11:11:48.800,297
27/09/2019 11:11:48.804,297
27/09/2019 11:11:48.808,297
27/09/2019 11:11:48.812,297
27/09/2019 11:11:48.816,297
27/09/2019 11:11:48.820,297
27/09/2019 11:11:48.824,297
27/09/2019 11:11:48.828,297
27/09/2019 11:11:48.832,297
27/09/2019 11:11:48.836,297
27/09/2019 11:11:48.840,297
27/09/2019 11:11:48.844,297
27/09/2019 11:11:48.848,297
27/09/2019 11:11:48.852,297
27/09/2019 11:11:48.856,297
27/09/2019 11:11:48.860,297
27/09/2019 11:11:48.864,297
27/09/2019 11:11:48.868,297
27/09/2019 11:11:48.872,297
27/09/2019 11:11:48.876,297
27/09/2019 11:11:48.880,297
27/09/2019 11:11:48.884,297
27/09/2019 11:11:48.888,297
27/09/2019 11:11:48.892,297
27/09/2019 11:11:48.896,297
27/09/2019 11:11:48.900,297
27/09/2019 11:11:48.904,297
27/09/2019 11:11:48.908,297
27/09/2019 11:11:48.912,297
27/09/2019 11:11:48.916,297
27/09/2019 11:11:48.920,297
27/09/2019 11:11:48.924,297
27/09/2019 11:11:48.928,297
27/09/2019 11:11:48.932,297
27/09/2019 11:11:48.936,297
27/09/2019 11:11:48.940,297
27/09/2019 11:11:48.944,297
27/09/2019 11:11:48.948,297
27/09/2019 11:11:48.952,297
27/09/2019 11:11:48.956,297
27/09/2019 11:11:48.960,297
27/09/2019 11:11:48.964,297
27/09/2019 11:11:48.968,297
27/09/2019 11:11:48.972,297
27/09/2019 11:11:48.976,297
27/09/2019 11:11:48.980,297
27/09/2019 11:11:48.984,297
27/09/2019 11:11:48.988,297
27/09/2019 11:11:48.992,297
27/09/2019 11:11:48.996,297
27/09/2019 11:11:49.000,297
27/09/2019 11:11:49.004,297
27/09/2019 11:11:49.008,297
27/09/2019 11:11:49.012,297
27/09/2019 11:11:49.016,297
27/09/2019 11:11:49.020,297
27/09/2019 11:11:49.024,297
27/09/2019 11:11:49.028,297
27/09/2019 11:11:49.032,297
27/09/2019 11:11:49.036,297
27/09/2019 11:11:49.040,297
27/09/2019 11:11:49.044,297
27/09/2019 11:11:49.048,297
27/09/2019 11:11:49.052,297
27/09/2019 11:11:49.056,297
27/09/2019 11:11:49.060,297
27/09/2019 11:11:49.064,297
27/09/2019 11:11:49.068,297
27/09/2019 11:11:49.072,297
27/09/2019 11:11:49.076,297
27/09/2019 11:11:49.080,297
27/09/2019 11:11:49.084,297
27/09/2019 11:11:49.088,297
27/09/2019 11:11:49.092,297
27/09/2019 11:11:49.096,297
27/09/2019 11:11:49.100,297
27/09/2019 11:11:49.104,297
27/09/2019 11:11:49.108,297
27/09/2019 11:11:49.112,297
27/09/2019 11:11:49.116,297
27/09/2019 11:11:49.120,297
27/09/2019 11:11:49.124,297
27/09/2019 11:11:49.128,297
27/09/2019 11:11:49.132,297
27/09/2019 11:11:49.136,297
27/09/2019 11:11:49.140,297
27/09/2019 11:11:49.144,297
27/09/2019 11:11:49.148,297
27/09/2019 11:11:49.152,297
27/09/2019 11:11:49.156,297
27/09/2019 11:11:49.160,297
27/09/2019 11:11:49.164,297
27/09/2019 11:11:49.168,297
27/09/2019 11:11:49.172,297
27/09/2019 11:11:49.176,297
27/09/2019 11:11:49.180,297
27/09/2019 11:11:49.184,297
27/09/2019 11:11:49.188,297
27/09/2019 11:11:49.192,297
27/09/2019 11:11:49.196,297
27/09/2019 11:11:49.200,297
27/09/2019 11:11:49.204,297
27/09/2019 11:11:49.208,297
27/09/2019 11:11:49.212,297
27/09/2019 11:11:49.216,297
27/09/2019 11:11:49.220,297
27/09/2019 11:11:49.224,298
27/09/2019 11:11:49.228,298
27/09/2019 11:11:49.232,297
27/09/2019 11:11:49.236,296
27/09/2019 11:11:49.240,295
27/09/2019 11:11:49.244,295
27/09/2019 11:11:49.248,297
27/09/2019 11:11:49.252,303
27/09/2019 11:11:49.256,312
27/09/2019 11:11:49.260,323
27/09/2019 11:11:49.264,335
27/09/2019 11:11:49.268,346
27/09/2019 11:11:49.272,355
27/09/2019 11:11:49.276,364
27/09/2019 11:11:49.280,372
27/09/2019 11:11:49.284,380
27/09/2019 11:11:49.288,389
27/09/2019 11:11:49.292,398
27/09/2019 11:11:49.296,407
27/09/2019 11:11:49.300,417
27/09/2019 11:11:49.304,426
27/09/2019 11:11:49.308,436
27/09/2019 11:11:49.312,444
27/09/2019 11:11:49.316,453
27/09/2019 11:11:49.320,461
27/09/2019 11:11:49.324,469
27/09/2019 11:11:49.328,476
27/09/2019 11:11:49.332,484
27/09/2019 11:11:49.336,493
27/09/2019 11:11:49.340,502
27/09/2019 11:11:49.344,511
27/09/2019 11:11:49.348,519
27/09/2019 11:11:49.352,528
27/09/2019 11:11:49.356,535
27/09/2019 11:11:49.360,543
27/09/2019 11:11:49.364,550
27/09/2019 11:11:49.368,557
27/09/2019 11:11:49.372,565
27/09/2019 11:11:49.376,573
27/09/2019 11:11:49.380,581
27/09/2019 11:11:49.384,589
27/09/2019 11:11:49.388,598
27/09/2019 11:11:49.392,606
27/09/2019 11:11:49.396,614
27/09/2019 11:11:49.400,621
27/09/2019 11:11:49.404,628
27/09/2019 11:11:49.408,634
27/09/2019 11:11:49.412,641
27/09/2019 11:11:49.416,649
27/09/2019 11:11:49.420,656
27/09/2019 11:11:49.424,665
27/09/2019 11:11:49.428,673
27/09/2019 11:11:49.432,680
27/09/2019 11:11:49.436,687
27/09/2019 11:11:49.440,694
27/09/2019 11:11:49.444,700
27/09/2019 11:11:49.448,706
27/09/2019 11:11:49.452,713
27/09/2019 11:11:49.456,721
27/09/2019 11:11:49.460,728
27/09/2019 11:11:49.464,736
27/09/2019 11:11:49.468,743
27/09/2019 11:11:49.472,750
27/09/2019 11:11:49.476,756
27/09/2019 11:11:49.480,762
27/09/2019 11:11:49.484,768
27/09/2019 11:11:49.488,774
27/09/2019 11:11:49.492,780
27/09/2019 11:11:49.496,787
27/09/2019 11:11:49.500,795
27/09/2019 11:11:49.504,802
27/09/2019 11:11:49.508,809
27/09/2019 11:11:49.512,816
27/09/2019 11:11:49.516,822
27/09/2019 11:11:49.520,827
27/09/2019 11:11:49.524,832
27/09/2019 11:11:49.528,837
27/09/2019 11:11:49.532,843
27/09/2019 11:11:49.536,849
27/09/2019 11:11:49.540,856
27/09/2019 11:11:49.544,863
27/09/2019 11:11:49.548,870
27/09/2019 11:11:49.552,876
27/09/2019 11:11:49.556,882
27/09/2019 11:11:49.560,888
27/09/2019 11:11:49.564,893
27/09/2019 11:11:49.568,897
27/09/2019 11:11:49.572,903
27/09/2019 11:11:49.576,908
27/09/2019 11:11:49.580,914
27/09/2019 11:11:49.584,920
27/09/2019 11:11:49.588,927
27/09/2019 11:11:49.592,933
27/09/2019 11:11:49.596,938
27/09/2019 11:11:49.600,943
27/09/2019 11:11:49.604,948
27/09/2019 11:11:49.608,952
27/09/2019 11:11:49.612,958
27/09/2019 11:11:49.616,964
27/09/2019 11:11:49.620,969
27/09/2019 11:11:49.624,975
27/09/2019 11:11:49.628,981
27/09/2019 11:11:49.632,986
27/09/2019 11:11:49.636,991
27/09/2019 11:11:49.640,996
27/09/2019 11:11:49.644,1000
27/09/2019 11:11:49.648,1005
27/09/2019 11:11:49.652,1010
27/09/2019 11:11:49.656,1015
27/09/2019 11:11:49.660,1020
27/09/2019 11:11:49.664,1026
27/09/2019 11:11:49.668,1031
27/09/2019 11:11:49.672,1036
27/09/2019 11:11:49.676,1041
27/09/2019 11:11:49.680,1046
27/09/2019 11:11:49.684,1050
27/09/2019 11:11:49.688,1055
27/09/2019 11:11:49.692,1059
27/09/2019 11:11:49.696,1064
27/09/2019 11:11:49.700,1069
27/09/2019 11:11:49.704,1074
27/09/2019 11:11:49.708,1080
27/09/2019 11:11:49.712,1085
27/09/2019 11:11:49.716,1089
27/09/2019 11:11:49.720,1093
27/09/2019 11:11:49.724,1096
27/09/2019 11:11:49.728,1100
27/09/2019 11:11:49.732,1104
27/09/2019 11:11:49.736,1109
27/09/2019 11:11:49.740,1114
27/09/2019 11:11:49.744,1120
27/09/2019 11:11:49.748,1125
27/09/2019 11:11:49.752,1130
27/09/2019 11:11:49.756,1134
27/09/2019 11:11:49.760,1137
27/09/2019 11:11:49.764,1141
27/09/2019 11:11:49.768,1144
27/09/2019 11:11:49.772,1148
27/09/2019 11:11:49.776,1153
27/09/2019 11:11:49.780,1158
27/09/2019 11:11:49.784,1162
27/09/2019 11:11:49.788,1167
27/09/2019 11:11:49.792,1171
27/09/2019 11:11:49.796,1175
27/09/2019 11:11:49.800,1179
27/09/2019 11:11:49.804,1182
27/09/2019 11:11:49.808,1186
27/09/2019 11:11:49.812,1190
27/09/2019 11:11:49.816,1194
27/09/2019 11:11:49.820,1198
27/09/2019 11:11:49.824,1202
27/09/2019 11:11:49.828,1206
27/09/2019 11:11:49.832,1210
27/09/2019 11:11:49.836,1214
27/09/2019 11:11:49.840,1217
27/09/2019 11:11:49.844,1220
27/09/2019 11:11:49.848,1223
27/09/2019 11:11:49.852,1227
27/09/2019 11:11:49.856,1231
27/09/2019 11:11:49.860,1235
27/09/2019 11:11:49.864,1239
27/09/2019 11:11:49.868,1243
27/09/2019 11:11:49.872,1246
27/09/2019 11:11:49.876,1249
27/09/2019 11:11:49.880,1253
27/09/2019 11:11:49.884,1256
27/09/2019 11:11:49.888,1259
27/09/2019 11:11:49.892,1262
27/09/2019 11:11:49.896,1266
27/09/2019 11:11:49.900,1270
27/09/2019 11:11:49.904,1274
27/09/2019 11:11:49.908,1278
27/09/2019 11:11:49.912,1282
27/09/2019 11:11:49.916,1285
27/09/2019 11:11:49.920,1288
27/09/2019 11:11:49.924,1290
27/09/2019 11:11:49.928,1292
27/09/2019 11:11:49.932,1295
27/09/2019 11:11:49.936,1299
27/09/2019 11:11:49.940,1303
27/09/2019 11:11:49.944,1307
27/09/2019 11:11:49.948,1310
27/09/2019 11:11:49.952,1314
27/09/2019 11:11:49.956,1317
27/09/2019 11:11:49.960,1319
27/09/2019 11:11:49.964,1321
27/09/2019 11:11:49.968,1324
27/09/2019 11:11:49.972,1326
27/09/2019 11:11:49.976,1329
27/09/2019 11:11:49.980,1332
27/09/2019 11:11:49.984,1336
27/09/2019 11:11:49.988,1340
27/09/2019 11:11:49.992,1344
27/09/2019 11:11:49.996,1347
27/09/2019 11:11:50.000,1349
27/09/2019 11:11:50.004,1352
27/09/2019 11:11:50.008,1354
27/09/2019 11:11:50.012,1357
27/09/2019 11:11:50.016,1360
27/09/2019 11:11:50.020,1363
27/09/2019 11:11:50.024,1366
27/09/2019 11:11:50.028,1369
27/09/2019 11:11:50.032,1372
27/09/2019 11:11:50.036,1375
27/09/2019 11:11:50.040,1377
27/09/2019 11:11:50.044,1379
27/09/2019 11:11:50.048,1381
27/09/2019 11:11:50.052,1384
27/09/2019 11:11:50.056,1388
27/09/2019 11:11:50.060,1391
27/09/2019 11:11:50.064,1395
27/09/2019 11:11:50.068,1398
27/09/2019 11:11:50.072,1400
27/09/2019 11:11:50.076,1403
27/09/2019 11:11:50.080,1404
27/09/2019 11:11:50.084,1406
27/09/2019 11:11:50.088,1408
27/09/2019 11:11:50.092,1410
27/09/2019 11:11:50.096,1413
27/09/2019 11:11:50.100,1415
27/09/2019 11:11:50.104,1418
27/09/2019 11:11:50.108,1422
27/09/2019 11:11:50.112,1425
27/09/2019 11:11:50.116,1428
27/09/2019 11:11:50.120,1430
27/09/2019 11:11:50.124,1432
27/09/2019 11:11:50.128,1433
27/09/2019 11:11:50.132,1435
27/09/2019 11:11:50.136,1437
27/09/2019 11:11:50.140,1439
27/09/2019 11:11:50.144,1443
27/09/2019 11:11:50.148,1446
27/09/2019 11:11:50.152,1449
27/09/2019 11:11:50.156,1451
27/09/2019 11:11:50.160,1453
27/09/2019 11:11:50.164,1454
27/09/2019 11:11:50.168,1456
27/09/2019 11:11:50.172,1458
27/09/2019 11:11:50.176,1461
27/09/2019 11:11:50.180,1464
27/09/2019 11:11:50.184,1466
27/09/2019 11:11:50.188,1469
27/09/2019 11:11:50.192,1471
27/09/2019 11:11:50.196,1473
27/09/2019 11:11:50.200,1474
27/09/2019 11:11:50.204,1476
27/09/2019 11:11:50.208,1478
27/09/2019 11:11:50.212,1480
27/09/2019 11:11:50.216,1482
27/09/2019 11:11:50.220,1485
27/09/2019 11:11:50.224,1488
27/09/2019 11:11:50.228,1491
27/09/2019 11:11:50.232,1493
27/09/2019 11:11:50.236,1495
27/09/2019 11:11:50.240,1496
27/09/2019 11:11:50.244,1497
27/09/2019 11:11:50.248,1498
27/09/2019 11:11:50.252,1501
27/09/2019 11:11:50.256,1504
27/09/2019 11:11:50.260,1507
27/09/2019 11:11:50.264,1510
27/09/2019 11:11:50.268,1512
27/09/2019 11:11:50.272,1513
27/09/2019 11:11:50.276,1514
27/09/2019 11:11:50.280,1515
27/09/2019 11:11:50.284,1516
27/09/2019 11:11:50.288,1518
27/09/2019 11:11:50.292,1520
27/09/2019 11:11:50.296,1522
27/09/2019 11:11:50.300,1525
27/09/2019 11:11:50.304,1528
27/09/2019 11:11:50.308,1530
27/09/2019 11:11:50.312,1533
27/09/2019 11:11:50.316,1534
27/09/2019 11:11:50.320,1535
27/09/2019 11:11:50.324,1536
27/09/2019 11:11:50.328,1537
27/09/2019 11:11:50.332,1539
27/09/2019 11:11:50.336,1540
27/09/2019 11:11:50.340,1543
27/09/2019 11:11:50.344,1545
27/09/2019 11:11:50.348,1548
27/09/2019 11:11:50.352,1550
27/09/2019 11:11:50.356,1552
27/09/2019 11:11:50.360,1553
27/09/2019 11:11:50.364,1554
27/09/2019 11:11:50.368,1555
27/09/2019 11:11:50.372,1556
27/09/2019 11:11:50.376,1558
27/09/2019 11:11:50.380,1561
27/09/2019 11:11:50.384,1564
27/09/2019 11:11:50.388,1566
27/09/2019 11:11:50.392,1568
27/09/2019 11:11:50.396,1569
27/09/2019 11:11:50.400,1569
27/09/2019 11:11:50.404,1570
27/09/2019 11:11:50.408,1570
27/09/2019 11:11:50.412,1572
27/09/2019 11:11:50.416,1574
27/09/2019 11:11:50.420,1576
27/09/2019 11:11:50.424,1578
27/09/2019 11:11:50.428,1580
27/09/2019 11:11:50.432,1582
27/09/2019 11:11:50.436,1583
27/09/2019 11:11:50.440,1585
27/09/2019 11:11:50.444,1587
27/09/2019 11:11:50.448,1588
27/09/2019 11:11:50.452,1589
27/09/2019 11:11:50.456,1590
27/09/2019 11:11:50.460,1592
27/09/2019 11:11:50.464,1593
27/09/2019 11:11:50.468,1595
27/09/2019 11:11:50.472,1596
27/09/2019 11:11:50.476,1598
27/09/2019 11:11:50.480,1599
27/09/2019 11:11:50.484,1599
27/09/2019 11:11:50.488,1600
27/09/2019 11:11:50.492,1601
27/09/2019 11:11:50.496,1602
27/09/2019 11:11:50.500,1604
27/09/2019 11:11:50.504,1607
27/09/2019 11:11:50.508,1609
27/09/2019 11:11:50.512,1611
27/09/2019 11:11:50.516,1612
27/09/2019 11:11:50.520,1613
27/09/2019 11:11:50.524,1614
27/09/2019 11:11:50.528,1615
27/09/2019 11:11:50.532,1616
27/09/2019 11:11:50.536,1617
27/09/2019 11:11:50.540,1619
27/09/2019 11:11:50.544,1621
27/09/2019 11:11:50.548,1623
27/09/2019 11:11:50.552,1625
27/09/2019 11:11:50.556,1626
27/09/2019 11:11:50.560,1626
27/09/2019 11:11:50.564,1626
27/09/2019 11:11:50.568,1627
27/09/2019 11:11:50.572,1628
27/09/2019 11:11:50.576,1631
27/09/2019 11:11:50.580,1633
27/09/2019 11:11:50.584,1634
27/09/2019 11:11:50.588,1635
27/09/2019 11:11:50.592,1636
27/09/2019 11:11:50.596,1637
27/09/2019 11:11:50.600,1638
27/09/2019 11:11:50.604,1639
27/09/2019 11:11:50.608,1640
27/09/2019 11:11:50.612,1640
27/09/2019 11:11:50.616,1642
27/09/2019 11:11:50.620,1644
27/09/2019 11:11:50.624,1646
27/09/2019 11:11:50.628,1648
27/09/2019 11:11:50.632,1649
27/09/2019 11:11:50.636,1650
27/09/2019 11:11:50.640,1651
27/09/2019 11:11:50.644,1651
27/09/2019 11:11:50.648,1652
27/09/2019 11:11:50.652,1653
27/09/2019 11:11:50.656,1654
27/09/2019 11:11:50.660,1656
27/09/2019 11:11:50.664,1657
27/09/2019 11:11:50.668,1658
27/09/2019 11:11:50.672,1659
27/09/2019 11:11:50.676,1660
27/09/2019 11:11:50.680,1661
27/09/2019 11:11:50.684,1662
27/09/2019 11:11:50.688,1662
27/09/2019 11:11:50.692,1663
27/09/2019 11:11:50.696,1664
27/09/2019 11:11:50.700,1666
27/09/2019 11:11:50.704,1668
27/09/2019 11:11:50.708,1670
27/09/2019 11:11:50.712,1672
27/09/2019 11:11:50.716,1673
27/09/2019 11:11:50.720,1673
27/09/2019 11:11:50.724,1673
27/09/2019 11:11:50.728,1673
27/09/2019 11:11:50.732,1673
27/09/2019 11:11:50.736,1674
27/09/2019 11:11:50.740,1675
27/09/2019 11:11:50.744,1677
27/09/2019 11:11:50.748,1679
27/09/2019 11:11:50.752,1681
27/09/2019 11:11:50.756,1682
27/09/2019 11:11:50.760,1683
27/09/2019 11:11:50.764,1683
27/09/2019 11:11:50.768,1684
27/09/2019 11:11:50.772,1685
27/09/2019 11:11:50.776,1686
27/09/2019 11:11:50.780,1687
27/09/2019 11:11:50.784,1688
27/09/2019 11:11:50.788,1689
27/09/2019 11:11:50.792,1690
27/09/2019 11:11:50.796,1691
27/09/2019 11:11:50.800,1691
27/09/2019 11:11:50.804,1691
27/09/2019 11:11:50.808,1692
27/09/2019 11:11:50.812,1692
27/09/2019 11:11:50.816,1693
27/09/2019 11:11:50.820,1695
27/09/2019 11:11:50.824,1696
27/09/2019 11:11:50.828,1698
27/09/2019 11:11:50.832,1699
27/09/2019 11:11:50.836,1700
27/09/2019 11:11:50.840,1700
27/09/2019 11:11:50.844,1700
27/09/2019 11:11:50.848,1701
27/09/2019 11:11:50.852,1701
27/09/2019 11:11:50.856,1702
27/09/2019 11:11:50.860,1704
27/09/2019 11:11:50.864,1706
27/09/2019 11:11:50.868,1707
27/09/2019 11:11:50.872,1708
27/09/2019 11:11:50.876,1708
27/09/2019 11:11:50.880,1708
27/09/2019 11:11:50.884,1708
27/09/2019 11:11:50.888,1709
27/09/2019 11:11:50.892,1710
27/09/2019 11:11:50.896,1712
27/09/2019 11:11:50.900,1713
27/09/2019 11:11:50.904,1715
27/09/2019 11:11:50.908,1716
27/09/2019 11:11:50.912,1716
27/09/2019 11:11:50.916,1716
27/09/2019 11:11:50.920,1716
27/09/2019 11:11:50.924,1717
27/09/2019 11:11:50.928,1717
27/09/2019 11:11:50.932,1718
27/09/2019 11:11:50.936,1719
27/09/2019 11:11:50.940,1720
27/09/2019 11:11:50.944,1721
27/09/2019 11:11:50.948,1722
27/09/2019 11:11:50.952,1723
27/09/2019 11:11:50.956,1724
27/09/2019 11:11:50.960,1725
27/09/2019 11:11:50.964,1725
27/09/2019 11:11:50.968,1725
27/09/2019 11:11:50.972,1725
27/09/2019 11:11:50.976,1726
27/09/2019 11:11:50.980,1726
27/09/2019 11:11:50.984,1728
27/09/2019 11:11:50.988,1729
27/09/2019 11:11:50.992,1731
27/09/2019 11:11:50.996,1732
27/09/2019 11:11:51.000,1732
27/09/2019 11:11:51.004,1731
27/09/2019 11:11:51.008,1731
27/09/2019 11:11:51.012,1731
27/09/2019 11:11:51.016,1732
27/09/2019 11:11:51.020,1734
27/09/2019 11:11:51.024,1736
27/09/2019 11:11:51.028,1737
27/09/2019 11:11:51.032,1738
27/09/2019 11:11:51.036,1739
27/09/2019 11:11:51.040,1739
27/09/2019 11:11:51.044,1739
27/09/2019 11:11:51.048,1739
27/09/2019 11:11:51.052,1739
27/09/2019 11:11:51.056,1740
27/09/2019 11:11:51.060,1741
27/09/2019 11:11:51.064,1742
27/09/2019 11:11:51.068,1744
27/09/2019 11:11:51.072,1746
27/09/2019 11:11:51.076,1747
27/09/2019 11:11:51.080,1748
27/09/2019 11:11:51.084,1747
27/09/2019 11:11:51.088,1747
27/09/2019 11:11:51.092,1746
27/09/2019 11:11:51.096,1746
27/09/2019 11:11:51.100,1747
27/09/2019 11:11:51.104,1748
27/09/2019 11:11:51.108,1750
27/09/2019 11:11:51.112,1752
27/09/2019 11:11:51.116,1753
27/09/2019 11:11:51.120,1753
27/09/2019 11:11:51.124,1753
27/09/2019 11:11:51.128,1753
27/09/2019 11:11:51.132,1753
27/09/2019 11:11:51.136,1753
27/09/2019 11:11:51.140,1754
27/09/2019 11:11:51.144,1756
27/09/2019 11:11:51.148,1757
27/09/2019 11:11:51.152,1758
27/09/2019 11:11:51.156,1759
27/09/2019 11:11:51.160,1759
27/09/2019 11:11:51.164,1758
27/09/2019 11:11:51.168,1758
27/09/2019 11:11:51.172,1758
27/09/2019 11:11:51.176,1759
27/09/2019 11:11:51.180,1760
27/09/2019 11:11:51.184,1762
27/09/2019 11:11:51.188,1763
27/09/2019 11:11:51.192,1764
27/09/2019 11:11:51.196,1763
27/09/2019 11:11:51.200,1763
27/09/2019 11:11:51.204,1762
27/09/2019 11:11:51.208,1762
27/09/2019 11:11:51.212,1763
27/09/2019 11:11:51.216,1764
27/09/2019 11:11:51.220,1765
27/09/2019 11:11:51.224,1766
27/09/2019 11:11:51.228,1767
27/09/2019 11:11:51.232,1768
27/09/2019 11:11:51.236,1768
27/09/2019 11:11:51.240,1768
27/09/2019 11:11:51.244,1768
27/09/2019 11:11:51.248,1768
27/09/2019 11:11:51.252,1769
27/09/2019 11:11:51.256,1769
27/09/2019 11:11:51.260,1770
27/09/2019 11:11:51.264,1772
27/09/2019 11:11:51.268,1773
27/09/2019 11:11:51.272,1774
27/09/2019 11:11:51.276,1774
27/09/2019 11:11:51.280,1775
27/09/2019 11:11:51.284,1775
27/09/2019 11:11:51.288,1775
27/09/2019 11:11:51.292,1775
27/09/2019 11:11:51.296,1775
27/09/2019 11:11:51.300,1776
27/09/2019 11:11:51.304,1777
27/09/2019 11:11:51.308,1778
27/09/2019 11:11:51.312,1779
27/09/2019 11:11:51.316,1779
27/09/2019 11:11:51.320,1779
27/09/2019 11:11:51.324,1779
27/09/2019 11:11:51.328,1779
27/09/2019 11:11:51.332,1779
27/09/2019 11:11:51.336,1780
27/09/2019 11:11:51.340,1781
27/09/2019 11:11:51.344,1783
27/09/2019 11:11:51.348,1784
27/09/2019 11:11:51.352,1785
27/09/2019 11:11:51.356,1785
27/09/2019 11:11:51.360,1784
27/09/2019 11:11:51.364,1784
27/09/2019 11:11:51.368,1783
27/09/2019 11:11:51.372,1784
27/09/2019 11:11:51.376,1784
27/09/2019 11:11:51.380,1786
27/09/2019 11:11:51.384,1787
27/09/2019 11:11:51.388,1788
27/09/2019 11:11:51.392,1788
27/09/2019 11:11:51.396,1788
27/09/2019 11:11:51.400,1788
27/09/2019 11:11:51.404,1787
27/09/2019 11:11:51.408,1787
27/09/2019 11:11:51.412,1788
27/09/2019 11:11:51.416,1789
27/09/2019 11:11:51.420,1790
27/09/2019 11:11:51.424,1792
27/09/2019 11:11:51.428,1793
27/09/2019 11:11:51.432,1793
27/09/2019 11:11:51.436,1794
27/09/2019 11:11:51.440,1793
27/09/2019 11:11:51.444,1793
27/09/2019 11:11:51.448,1792
27/09/2019 11:11:51.452,1793
27/09/2019 11:11:51.456,1793
27/09/2019 11:11:51.460,1794
27/09/2019 11:11:51.464,1795
27/09/2019 11:11:51.468,1796
27/09/2019 11:11:51.472,1797
27/09/2019 11:11:51.476,1797
27/09/2019 11:11:51.480,1797
27/09/2019 11:11:51.484,1797
27/09/2019 11:11:51.488,1797
27/09/2019 11:11:51.492,1797
27/09/2019 11:11:51.496,1798
27/09/2019 11:11:51.500,1798
27/09/2019 11:11:51.504,1798
27/09/2019 11:11:51.508,1799
27/09/2019 11:11:51.512,1800
27/09/2019 11:11:51.516,1800
27/09/2019 11:11:51.520,1801
27/09/2019 11:11:51.524,1801
27/09/2019 11:11:51.528,1801
27/09/2019 11:11:51.532,1801
27/09/2019 11:11:51.536,1801
27/09/2019 11:11:51.540,1801
27/09/2019 11:11:51.544,1802
27/09/2019 11:11:51.548,1802
27/09/2019 11:11:51.552,1802
27/09/2019 11:11:51.556,1802
27/09/2019 11:11:51.560,1802
27/09/2019 11:11:51.564,1802
27/09/2019 11:11:51.568,1803
27/09/2019 11:11:51.572,1803
27/09/2019 11:11:51.576,1804
27/09/2019 11:11:51.580,1805
27/09/2019 11:11:51.584,1807
27/09/2019 11:11:51.588,1807
27/09/2019 11:11:51.592,1808
27/09/2019 11:11:51.596,1808
27/09/2019 11:11:51.600,1808
27/09/2019 11:11:51.604,1807
27/09/2019 11:11:51.608,1807
27/09/2019 11:11:51.612,1807
27/09/2019 11:11:51.616,1808
27/09/2019 11:11:51.620,1809
27/09/2019 11:11:51.624,1810
27/09/2019 11:11:51.628,1811
27/09/2019 11:11:51.632,1812
27/09/2019 11:11:51.636,1811
27/09/2019 11:11:51.640,1811
27/09/2019 11:11:51.644,1810
27/09/2019 11:11:51.648,1809
27/09/2019 11:11:51.652,1810
27/09/2019 11:11:51.656,1811
27/09/2019 11:11:51.660,1813
27/09/2019 11:11:51.664,1816
27/09/2019 11:11:51.668,1817
27/09/2019 11:11:51.672,1817
27/09/2019 11:11:51.676,1817
27/09/2019 11:11:51.680,1816
27/09/2019 11:11:51.684,1815
27/09/2019 11:11:51.688,1815
27/09/2019 11:11:51.692,1815
27/09/2019 11:11:51.696,1815
27/09/2019 11:11:51.700,1816
27/09/2019 11:11:51.704,1816
27/09/2019 11:11:51.708,1817
27/09/2019 11:11:51.712,1817
27/09/2019 11:11:51.716,1818
27/09/2019 11:11:51.720,1818
27/09/2019 11:11:51.724,1818
27/09/2019 11:11:51.728,1817
27/09/2019 11:11:51.732,1816
27/09/2019 11:11:51.736,1817
27/09/2019 11:11:51.740,1818
27/09/2019 11:11:51.744,1820
27/09/2019 11:11:51.748,1822
27/09/2019 11:11:51.752,1823
27/09/2019 11:11:51.756,1823
27/09/2019 11:11:51.760,1822
27/09/2019 11:11:51.764,1821
27/09/2019 11:11:51.768,1820
27/09/2019 11:11:51.772,1820
27/09/2019 11:11:51.776,1821
27/09/2019 11:11:51.780,1822
27/09/2019 11:11:51.784,1823
27/09/2019 11:11:51.788,1823
27/09/2019 11:11:51.792,1823
27/09/2019 11:11:51.796,1823
27/09/2019 11:11:51.800,1823
27/09/2019 11:11:51.804,1823
27/09/2019 11:11:51.808,1823
27/09/2019 11:11:51.812,1823
27/09/2019 11:11:51.816,1824
27/09/2019 11:11:51.820,1824
27/09/2019 11:11:51.824,1825
27/09/2019 11:11:51.828,1826
27/09/2019 11:11:51.832,1827
27/09/2019 11:11:51.836,1827
27/09/2019 11:11:51.840,1826
27/09/2019 11:11:51.844,1826
27/09/2019 11:11:51.848,1825
27/09/2019 11:11:51.852,1825
27/09/2019 11:11:51.856,1826
27/09/2019 11:11:51.860,1827
27/09/2019 11:11:51.864,1828
27/09/2019 11:11:51.868,1829
27/09/2019 11:11:51.872,1829
27/09/2019 11:11:51.876,1829
27/09/2019 11:11:51.880,1829
27/09/2019 11:11:51.884,1829
27/09/2019 11:11:51.888,1829
27/09/2019 11:11:51.892,1829
27/09/2019 11:11:51.896,1829
27/09/2019 11:11:51.900,1830
27/09/2019 11:11:51.904,1831
27/09/2019 11:11:51.908,1832
27/09/2019 11:11:51.912,1832
27/09/2019 11:11:51.916,1833
27/09/2019 11:11:51.920,1833
27/09/2019 11:11:51.924,1832
27/09/2019 11:11:51.928,1831
27/09/2019 11:11:51.932,1831
27/09/2019 11:11:51.936,1831
27/09/2019 11:11:51.940,1832
27/09/2019 11:11:51.944,1833
27/09/2019 11:11:51.948,1833
27/09/2019 11:11:51.952,1834
27/09/2019 11:11:51.956,1834
27/09/2019 11:11:51.960,1834
27/09/2019 11:11:51.964,1834
27/09/2019 11:11:51.968,1834
27/09/2019 11:11:51.972,1834
27/09/2019 11:11:51.976,1834
27/09/2019 11:11:51.980,1835
27/09/2019 11:11:51.984,1836
27/09/2019 11:11:51.988,1836
27/09/2019 11:11:51.992,1837
27/09/2019 11:11:51.996,1838
27/09/2019 11:11:52.000,1838
27/09/2019 11:11:52.004,1837
27/09/2019 11:11:52.008,1836
27/09/2019 11:11:52.012,1835
27/09/2019 11:11:52.016,1835
27/09/2019 11:11:52.020,1836
27/09/2019 11:11:52.024,1837
27/09/2019 11:11:52.028,1838
27/09/2019 11:11:52.032,1839
27/09/2019 11:11:52.036,1840
27/09/2019 11:11:52.040,1840
27/09/2019 11:11:52.044,1839
27/09/2019 11:11:52.048,1838
27/09/2019 11:11:52.052,1838
27/09/2019 11:11:52.056,1839
27/09/2019 11:11:52.060,1839
27/09/2019 11:11:52.064,1840
27/09/2019 11:11:52.068,1840
27/09/2019 11:11:52.072,1841
27/09/2019 11:11:52.076,1841
27/09/2019 11:11:52.080,1841
27/09/2019 11:11:52.084,1841
27/09/2019 11:11:52.088,1841
27/09/2019 11:11:52.092,1841
27/09/2019 11:11:52.096,1841
27/09/2019 11:11:52.100,1842
27/09/2019 11:11:52.104,1842
27/09/2019 11:11:52.108,1843
27/09/2019 11:11:52.112,1844
27/09/2019 11:11:52.116,1844
27/09/2019 11:11:52.120,1844
27/09/2019 11:11:52.124,1843
27/09/2019 11:11:52.128,1843
27/09/2019 11:11:52.132,1843
27/09/2019 11:11:52.136,1843
27/09/2019 11:11:52.140,1844
27/09/2019 11:11:52.144,1845
27/09/2019 11:11:52.148,1845
27/09/2019 11:11:52.152,1845
27/09/2019 11:11:52.156,1844
27/09/2019 11:11:52.160,1844
27/09/2019 11:11:52.164,1844
27/09/2019 11:11:52.168,1844
27/09/2019 11:11:52.172,1844
27/09/2019 11:11:52.176,1844
27/09/2019 11:11:52.180,1844
27/09/2019 11:11:52.184,1845
27/09/2019 11:11:52.188,1845
27/09/2019 11:11:52.192,1846
27/09/2019 11:11:52.196,1847
27/09/2019 11:11:52.200,1847
27/09/2019 11:11:52.204,1847
27/09/2019 11:11:52.208,1847
27/09/2019 11:11:52.212,1847
27/09/2019 11:11:52.216,1846
27/09/2019 11:11:52.220,1847
27/09/2019 11:11:52.224,1847
27/09/2019 11:11:52.228,1848
27/09/2019 11:11:52.232,1849
27/09/2019 11:11:52.236,1849
27/09/2019 11:11:52.240,1849
27/09/2019 11:11:52.244,1849
27/09/2019 11:11:52.248,1848
27/09/2019 11:11:52.252,1848
27/09/2019 11:11:52.256,1848
27/09/2019 11:11:52.260,1849
27/09/2019 11:11:52.264,1850
27/09/2019 11:11:52.268,1851
27/09/2019 11:11:52.272,1852
27/09/2019 11:11:52.276,1852
27/09/2019 11:11:52.280,1852
27/09/2019 11:11:52.284,1851
27/09/2019 11:11:52.288,1850
27/09/2019 11:11:52.292,1850
27/09/2019 11:11:52.296,1850
27/09/2019 11:11:52.300,1851
27/09/2019 11:11:52.304,1852
27/09/2019 11:11:52.308,1853
27/09/2019 11:11:52.312,1853
27/09/2019 11:11:52.316,1853
27/09/2019 11:11:52.320,1853
27/09/2019 11:11:52.324,1852
27/09/2019 11:11:52.328,1852
27/09/2019 11:11:52.332,1852
27/09/2019 11:11:52.336,1852
27/09/2019 11:11:52.340,1853
27/09/2019 11:11:52.344,1854
27/09/2019 11:11:52.348,1855
27/09/2019 11:11:52.352,1855
27/09/2019 11:11:52.356,1855
27/09/2019 11:11:52.360,1854
27/09/2019 11:11:52.364,1854
27/09/2019 11:11:52.368,1853
27/09/2019 11:11:52.372,1854
27/09/2019 11:11:52.376,1854
27/09/2019 11:11:52.380,1854
27/09/2019 11:11:52.384,1855
27/09/2019 11:11:52.388,1855
27/09/2019 11:11:52.392,1856
27/09/2019 11:11:52.396,1857
27/09/2019 11:11:52.400,1857
27/09/2019 11:11:52.404,1856
27/09/2019 11:11:52.408,1855
27/09/2019 11:11:52.412,1855
27/09/2019 11:11:52.416,1855
27/09/2019 11:11:52.420,1856
27/09/2019 11:11:52.424,1858
27/09/2019 11:11:52.428,1858
27/09/2019 11:11:52.432,1859
27/09/2019 11:11:52.436,1859
27/09/2019 11:11:52.440,1859
27/09/2019 11:11:52.444,1859
27/09/2019 11:11:52.448,1859
27/09/2019 11:11:52.452,1859
27/09/2019 11:11:52.456,1859
27/09/2019 11:11:52.460,1859
27/09/2019 11:11:52.464,1859
27/09/2019 11:11:52.468,1859
27/09/2019 11:11:52.472,1859
27/09/2019 11:11:52.476,1859
27/09/2019 11:11:52.480,1859
27/09/2019 11:11:52.484,1858
27/09/2019 11:11:52.488,1858
27/09/2019 11:11:52.492,1858
27/09/2019 11:11:52.496,1859
27/09/2019 11:11:52.500,1860
27/09/2019 11:11:52.504,1861
27/09/2019 11:11:52.508,1861
27/09/2019 11:11:52.512,1861
27/09/2019 11:11:52.516,1861
27/09/2019 11:11:52.520,1861
27/09/2019 11:11:52.524,1860
27/09/2019 11:11:52.528,1860
27/09/2019 11:11:52.532,1860
27/09/2019 11:11:52.536,1860
27/09/2019 11:11:52.540,1860
27/09/2019 11:11:52.544,1861
27/09/2019 11:11:52.548,1862
27/09/2019 11:11:52.552,1863
27/09/2019 11:11:52.556,1863
27/09/2019 11:11:52.560,1862
27/09/2019 11:11:52.564,1862
27/09/2019 11:11:52.568,1861
27/09/2019 11:11:52.572,1861
27/09/2019 11:11:52.576,1861
27/09/2019 11:11:52.580,1862
27/09/2019 11:11:52.584,1864
27/09/2019 11:11:52.588,1864
27/09/2019 11:11:52.592,1865
27/09/2019 11:11:52.596,1864
27/09/2019 11:11:52.600,1864
27/09/2019 11:11:52.604,1863
27/09/2019 11:11:52.608,1863
27/09/2019 11:11:52.612,1863
27/09/2019 11:11:52.616,1863
27/09/2019 11:11:52.620,1864
27/09/2019 11:11:52.624,1865
27/09/2019 11:11:52.628,1865
27/09/2019 11:11:52.632,1866
27/09/2019 11:11:52.636,1867
27/09/2019 11:11:52.640,1867
27/09/2019 11:11:52.644,1866
27/09/2019 11:11:52.648,1865
27/09/2019 11:11:52.652,1865
27/09/2019 11:11:52.656,1865
27/09/2019 11:11:52.660,1865
27/09/2019 11:11:52.664,1866
27/09/2019 11:11:52.668,1867
27/09/2019 11:11:52.672,1867
27/09/2019 11:11:52.676,1867
27/09/2019 11:11:52.680,1867
27/09/2019 11:11:52.684,1866
27/09/2019 11:11:52.688,1865
27/09/2019 11:11:52.692,1865
27/09/2019 11:11:52.696,1865
27/09/2019 11:11:52.700,1866
27/09/2019 11:11:52.704,1867
27/09/2019 11:11:52.708,1868
27/09/2019 11:11:52.712,1868
27/09/2019 11:11:52.716,1868
27/09/2019 11:11:52.720,1868
27/09/2019 11:11:52.724,1867
27/09/2019 11:11:52.728,1867
27/09/2019 11:11:52.732,1867
27/09/2019 11:11:52.736,1868
27/09/2019 11:11:52.740,1868
27/09/2019 11:11:52.744,1869
27/09/2019 11:11:52.748,1869
27/09/2019 11:11:52.752,1869
27/09/2019 11:11:52.756,1869
27/09/2019 11:11:52.760,1869
27/09/2019 11:11:52.764,1869
27/09/2019 11:11:52.768,1869
27/09/2019 11:11:52.772,1869
27/09/2019 11:11:52.776,1869
27/09/2019 11:11:52.780,1869
27/09/2019 11:11:52.784,1870
27/09/2019 11:11:52.788,1870
27/09/2019 11:11:52.792,1871
27/09/2019 11:11:52.796,1871
27/09/2019 11:11:52.800,1870
27/09/2019 11:11:52.804,1870
27/09/2019 11:11:52.808,1869
27/09/2019 11:11:52.812,1869
27/09/2019 11:11:52.816,1869
27/09/2019 11:11:52.820,1870
27/09/2019 11:11:52.824,1871
27/09/2019 11:11:52.828,1871
27/09/2019 11:11:52.832,1871
27/09/2019 11:11:52.836,1871
27/09/2019 11:11:52.840,1871
27/09/2019 11:11:52.844,1871
27/09/2019 11:11:52.848,1871
27/09/2019 11:11:52.852,1871
27/09/2019 11:11:52.856,1871
27/09/2019 11:11:52.860,1872
27/09/2019 11:11:52.864,1872
27/09/2019 11:11:52.868,1873
27/09/2019 11:11:52.872,1874
27/09/2019 11:11:52.876,1874
27/09/2019 11:11:52.880,1873
27/09/2019 11:11:52.884,1872
27/09/2019 11:11:52.888,1871
27/09/2019 11:11:52.892,1871
27/09/2019 11:11:52.896,1871
27/09/2019 11:11:52.900,1873
27/09/2019 11:11:52.904,1874
27/09/2019 11:11:52.908,1875
27/09/2019 11:11:52.912,1875
27/09/2019 11:11:52.916,1874
27/09/2019 11:11:52.920,1874
27/09/2019 11:11:52.924,1873
27/09/2019 11:11:52.928,1872
27/09/2019 11:11:52.932,1873
27/09/2019 11:11:52.936,1874
27/09/2019 11:11:52.940,1876
27/09/2019 11:11:52.944,1878
27/09/2019 11:11:52.948,1879
27/09/2019 11:11:52.952,1879
27/09/2019 11:11:52.956,1877
27/09/2019 11:11:52.960,1875
27/09/2019 11:11:52.964,1874
27/09/2019 11:11:52.968,1874
27/09/2019 11:11:52.972,1874
27/09/2019 11:11:52.976,1876
27/09/2019 11:11:52.980,1878
27/09/2019 11:11:52.984,1880
27/09/2019 11:11:52.988,1881
27/09/2019 11:11:52.992,1881
27/09/2019 11:11:52.996,1881
27/09/2019 11:11:53.000,1880
27/09/2019 11:11:53.004,1879
27/09/2019 11:11:53.008,1878
27/09/2019 11:11:53.012,1878
27/09/2019 11:11:53.016,1879
27/09/2019 11:11:53.020,1880
27/09/2019 11:11:53.024,1881
27/09/2019 11:11:53.028,1881
27/09/2019 11:11:53.032,1881
27/09/2019 11:11:53.036,1881
27/09/2019 11:11:53.040,1881
27/09/2019 11:11:53.044,1880
27/09/2019 11:11:53.048,1879
27/09/2019 11:11:53.052,1879
27/09/2019 11:11:53.056,1878
27/09/2019 11:11:53.060,1879
27/09/2019 11:11:53.064,1880
27/09/2019 11:11:53.068,1881
27/09/2019 11:11:53.072,1881
27/09/2019 11:11:53.076,1881
27/09/2019 11:11:53.080,1881
27/09/2019 11:11:53.084,1880
27/09/2019 11:11:53.088,1880
27/09/2019 11:11:53.092,1880
27/09/2019 11:11:53.096,1880
27/09/2019 11:11:53.100,1881
27/09/2019 11:11:53.104,1882
27/09/2019 11:11:53.108,1882
27/09/2019 11:11:53.112,1883
27/09/2019 11:11:53.116,1883
27/09/2019 11:11:53.120,1883
27/09/2019 11:11:53.124,1882
27/09/2019 11:11:53.128,1882
27/09/2019 11:11:53.132,1881
27/09/2019 11:11:53.136,1880
27/09/2019 11:11:53.140,1880
27/09/2019 11:11:53.144,1881
27/09/2019 11:11:53.148,1882
27/09/2019 11:11:53.152,1882
27/09/2019 11:11:53.156,1883
27/09/2019 11:11:53.160,1883
27/09/2019 11:11:53.164,1882
27/09/2019 11:11:53.168,1882
27/09/2019 11:11:53.172,1882
27/09/2019 11:11:53.176,1882
27/09/2019 11:11:53.180,1882
27/09/2019 11:11:53.184,1883
27/09/2019 11:11:53.188,1884
27/09/2019 11:11:53.192,1884
27/09/2019 11:11:53.196,1884
27/09/2019 11:11:53.200,1883
27/09/2019 11:11:53.204,1883
27/09/2019 11:11:53.208,1883
27/09/2019 11:11:53.212,1883
27/09/2019 11:11:53.216,1884
27/09/2019 11:11:53.220,1884
27/09/2019 11:11:53.224,1885
27/09/2019 11:11:53.228,1885
27/09/2019 11:11:53.232,1886
27/09/2019 11:11:53.236,1885
27/09/2019 11:11:53.240,1885
27/09/2019 11:11:53.244,1883
27/09/2019 11:11:53.248,1882
27/09/2019 11:11:53.252,1882
27/09/2019 11:11:53.256,1883
27/09/2019 11:11:53.260,1885
27/09/2019 11:11:53.264,1886
27/09/2019 11:11:53.268,1887
27/09/2019 11:11:53.272,1887
27/09/2019 11:11:53.276,1886
27/09/2019 11:11:53.280,1885
27/09/2019 11:11:53.284,1884
27/09/2019 11:11:53.288,1884
27/09/2019 11:11:53.292,1884
27/09/2019 11:11:53.296,1885
27/09/2019 11:11:53.300,1886
27/09/2019 11:11:53.304,1886
27/09/2019 11:11:53.308,1886
27/09/2019 11:11:53.312,1886
27/09/2019 11:11:53.316,1886
27/09/2019 11:11:53.320,1885
27/09/2019 11:11:53.324,1884
27/09/2019 11:11:53.328,1884
27/09/2019 11:11:53.332,1884
27/09/2019 11:11:53.336,1885
27/09/2019 11:11:53.340,1886
27/09/2019 11:11:53.344,1886
27/09/2019 11:11:53.348,1887
27/09/2019 11:11:53.352,1887
27/09/2019 11:11:53.356,1887
27/09/2019 11:11:53.360,1886
27/09/2019 11:11:53.364,1885
27/09/2019 11:11:53.368,1885
27/09/2019 11:11:53.372,1885
27/09/2019 11:11:53.376,1886
27/09/2019 11:11:53.380,1886
27/09/2019 11:11:53.384,1887
27/09/2019 11:11:53.388,1887
27/09/2019 11:11:53.392,1887
27/09/2019 11:11:53.396,1887
27/09/2019 11:11:53.400,1887
27/09/2019 11:11:53.404,1886
27/09/2019 11:11:53.408,1886
27/09/2019 11:11:53.412,1885
27/09/2019 11:11:53.416,1886
27/09/2019 11:11:53.420,1887
27/09/2019 11:11:53.424,1888
27/09/2019 11:11:53.428,1890
27/09/2019 11:11:53.432,1890
27/09/2019 11:11:53.436,1890
27/09/2019 11:11:53.440,1888
27/09/2019 11:11:53.444,1887
27/09/2019 11:11:53.448,1887
27/09/2019 11:11:53.452,1887
27/09/2019 11:11:53.456,1887
27/09/2019 11:11:53.460,1888
27/09/2019 11:11:53.464,1889
27/09/2019 11:11:53.468,1890
27/09/2019 11:11:53.472,1891
27/09/2019 11:11:53.476,1891
27/09/2019 11:11:53.480,1890
27/09/2019 11:11:53.484,1889
27/09/2019 11:11:53.488,1888
27/09/2019 11:11:53.492,1887
27/09/2019 11:11:53.496,1888
27/09/2019 11:11:53.500,1889
27/09/2019 11:11:53.504,1890
27/09/2019 11:11:53.508,1890
27/09/2019 11:11:53.512,1891
27/09/2019 11:11:53.516,1890
27/09/2019 11:11:53.520,1890
27/09/2019 11:11:53.524,1889
27/09/2019 11:11:53.528,1888
27/09/2019 11:11:53.532,1888
27/09/2019 11:11:53.536,1888
27/09/2019 11:11:53.540,1889
27/09/2019 11:11:53.544,1890
27/09/2019 11:11:53.548,1891
27/09/2019 11:11:53.552,1891
27/09/2019 11:11:53.556,1891
27/09/2019 11:11:53.560,1891
27/09/2019 11:11:53.564,1891
27/09/2019 11:11:53.568,1890
27/09/2019 11:11:53.572,1890
27/09/2019 11:11:53.576,1890
27/09/2019 11:11:53.580,1890
27/09/2019 11:11:53.584,1891
27/09/2019 11:11:53.588,1891
27/09/2019 11:11:53.592,1892
27/09/2019 11:11:53.596,1892
27/09/2019 11:11:53.600,1892
27/09/2019 11:11:53.604,1891
27/09/2019 11:11:53.608,1890
27/09/2019 11:11:53.612,1890
27/09/2019 11:11:53.616,1890
27/09/2019 11:11:53.620,1891
27/09/2019 11:11:53.624,1892
27/09/2019 11:11:53.628,1893
27/09/2019 11:11:53.632,1893
27/09/2019 11:11:53.636,1893
27/09/2019 11:11:53.640,1893
27/09/2019 11:11:53.644,1892
27/09/2019 11:11:53.648,1892
27/09/2019 11:11:53.652,1891
27/09/2019 11:11:53.656,1891
27/09/2019 11:11:53.660,1892
27/09/2019 11:11:53.664,1892
27/09/2019 11:11:53.668,1893
27/09/2019 11:11:53.672,1893
27/09/2019 11:11:53.676,1893
27/09/2019 11:11:53.680,1893
27/09/2019 11:11:53.684,1892
27/09/2019 11:11:53.688,1891
27/09/2019 11:11:53.692,1891
27/09/2019 11:11:53.696,1891
27/09/2019 11:11:53.700,1891
27/09/2019 11:11:53.704,1893
27/09/2019 11:11:53.708,1894
27/09/2019 11:11:53.712,1895
27/09/2019 11:11:53.716,1894
27/09/2019 11:11:53.720,1894
27/09/2019 11:11:53.724,1893
27/09/2019 11:11:53.728,1892
27/09/2019 11:11:53.732,1892
27/09/2019 11:11:53.736,1892
27/09/2019 11:11:53.740,1892
27/09/2019 11:11:53.744,1893
27/09/2019 11:11:53.748,1893
27/09/2019 11:11:53.752,1894
27/09/2019 11:11:53.756,1895
27/09/2019 11:11:53.760,1895
27/09/2019 11:11:53.764,1895
27/09/2019 11:11:53.768,1894
27/09/2019 11:11:53.772,1893
27/09/2019 11:11:53.776,1893
27/09/2019 11:11:53.780,1893
27/09/2019 11:11:53.784,1894
27/09/2019 11:11:53.788,1895
27/09/2019 11:11:53.792,1896
27/09/2019 11:11:53.796,1896
27/09/2019 11:11:53.800,1895
27/09/2019 11:11:53.804,1893
27/09/2019 11:11:53.808,1892
27/09/2019 11:11:53.812,1891
27/09/2019 11:11:53.816,1891
27/09/2019 11:11:53.820,1892
27/09/2019 11:11:53.824,1894
27/09/2019 11:11:53.828,1895
27/09/2019 11:11:53.832,1896
27/09/2019 11:11:53.836,1896
27/09/2019 11:11:53.840,1895
27/09/2019 11:11:53.844,1894
27/09/2019 11:11:53.848,1893
27/09/2019 11:11:53.852,1893
27/09/2019 11:11:53.856,1894
27/09/2019 11:11:53.860,1895
27/09/2019 11:11:53.864,1896
27/09/2019 11:11:53.868,1897
27/09/2019 11:11:53.872,1897
27/09/2019 11:11:53.876,1897
27/09/2019 11:11:53.880,1896
27/09/2019 11:11:53.884,1895
27/09/2019 11:11:53.888,1894
27/09/2019 11:11:53.892,1894
27/09/2019 11:11:53.896,1894
27/09/2019 11:11:53.900,1895
27/09/2019 11:11:53.904,1897
27/09/2019 11:11:53.908,1897
27/09/2019 11:11:53.912,1897
27/09/2019 11:11:53.916,1897
27/09/2019 11:11:53.920,1896
27/09/2019 11:11:53.924,1896
27/09/2019 11:11:53.928,1896
27/09/2019 11:11:53.932,1895
27/09/2019 11:11:53.936,1895
27/09/2019 11:11:53.940,1896
27/09/2019 11:11:53.944,1897
27/09/2019 11:11:53.948,1897
27/09/2019 11:11:53.952,1898
27/09/2019 11:11:53.956,1897
27/09/2019 11:11:53.960,1897
27/09/2019 11:11:53.964,1896
27/09/2019 11:11:53.968,1896
27/09/2019 11:11:53.972,1896
27/09/2019 11:11:53.976,1896
27/09/2019 11:11:53.980,1896
27/09/2019 11:11:53.984,1897
27/09/2019 11:11:53.988,1897
27/09/2019 11:11:53.992,1898
27/09/2019 11:11:53.996,1898
27/09/2019 11:11:54.000,1898
27/09/2019 11:11:54.004,1897
27/09/2019 11:11:54.008,1897
27/09/2019 11:11:54.012,1896
27/09/2019 11:11:54.016,1896
27/09/2019 11:11:54.020,1896
27/09/2019 11:11:54.024,1898
27/09/2019 11:11:54.028,1899
27/09/2019 11:11:54.032,1900
27/09/2019 11:11:54.036,1900
27/09/2019 11:11:54.040,1899
27/09/2019 11:11:54.044,1898
27/09/2019 11:11:54.048,1897
27/09/2019 11:11:54.052,1896
27/09/2019 11:11:54.056,1897
27/09/2019 11:11:54.060,1898
27/09/2019 11:11:54.064,1899
27/09/2019 11:11:54.068,1900
27/09/2019 11:11:54.072,1900
27/09/2019 11:11:54.076,1899
27/09/2019 11:11:54.080,1898
27/09/2019 11:11:54.084,1898
27/09/2019 11:11:54.088,1897
27/09/2019 11:11:54.092,1898
27/09/2019 11:11:54.096,1898
27/09/2019 11:11:54.100,1898
27/09/2019 11:11:54.104,1899
27/09/2019 11:11:54.108,1899
27/09/2019 11:11:54.112,1899
27/09/2019 11:11:54.116,1899
27/09/2019 11:11:54.120,1899
27/09/2019 11:11:54.124,1898
27/09/2019 11:11:54.128,1898
27/09/2019 11:11:54.132,1898
27/09/2019 11:11:54.136,1898
27/09/2019 11:11:54.140,1898
27/09/2019 11:11:54.144,1899
27/09/2019 11:11:54.148,1899
27/09/2019 11:11:54.152,1900
27/09/2019 11:11:54.156,1900
27/09/2019 11:11:54.160,1899
27/09/2019 11:11:54.164,1898
27/09/2019 11:11:54.168,1898
27/09/2019 11:11:54.172,1898
27/09/2019 11:11:54.176,1899
27/09/2019 11:11:54.180,1900
27/09/2019 11:11:54.184,1901
27/09/2019 11:11:54.188,1902
27/09/2019 11:11:54.192,1902
27/09/2019 11:11:54.196,1901
27/09/2019 11:11:54.200,1901
27/09/2019 11:11:54.204,1900
27/09/2019 11:11:54.208,1900
27/09/2019 11:11:54.212,1900
27/09/2019 11:11:54.216,1900
27/09/2019 11:11:54.220,1900
27/09/2019 11:11:54.224,1901
27/09/2019 11:11:54.228,1902
27/09/2019 11:11:54.232,1902
27/09/2019 11:11:54.236,1902
27/09/2019 11:11:54.240,1901
27/09/2019 11:11:54.244,1900
27/09/2019 11:11:54.248,1899
27/09/2019 11:11:54.252,1899
27/09/2019 11:11:54.256,1899
27/09/2019 11:11:54.260,1900
27/09/2019 11:11:54.264,1901
27/09/2019 11:11:54.268,1902
27/09/2019 11:11:54.272,1903
27/09/2019 11:11:54.276,1902
27/09/2019 11:11:54.280,1902
27/09/2019 11:11:54.284,1901
27/09/2019 11:11:54.288,1900
27/09/2019 11:11:54.292,1900
27/09/2019 11:11:54.296,1900
27/09/2019 11:11:54.300,1901
27/09/2019 11:11:54.304,1901
27/09/2019 11:11:54.308,1902
27/09/2019 11:11:54.312,1903
27/09/2019 11:11:54.316,1903
27/09/2019 11:11:54.320,1903
27/09/2019 11:11:54.324,1902
27/09/2019 11:11:54.328,1901
27/09/2019 11:11:54.332,1901
27/09/2019 11:11:54.336,1901
27/09/2019 11:11:54.340,1901
27/09/2019 11:11:54.344,1902
27/09/2019 11:11:54.348,1903
27/09/2019 11:11:54.352,1903
27/09/2019 11:11:54.356,1903
27/09/2019 11:11:54.360,1902
27/09/2019 11:11:54.364,1902
27/09/2019 11:11:54.368,1901
27/09/2019 11:11:54.372,1901
27/09/2019 11:11:54.376,1901
27/09/2019 11:11:54.380,1902
27/09/2019 11:11:54.384,1903
27/09/2019 11:11:54.388,1903
27/09/2019 11:11:54.392,1904
27/09/2019 11:11:54.396,1904
27/09/2019 11:11:54.400,1903
27/09/2019 11:11:54.404,1903
27/09/2019 11:11:54.408,1902
27/09/2019 11:11:54.412,1902
27/09/2019 11:11:54.416,1902
27/09/2019 11:11:54.420,1903
27/09/2019 11:11:54.424,1903
27/09/2019 11:11:54.428,1904
27/09/2019 11:11:54.432,1904
27/09/2019 11:11:54.436,1904
27/09/2019 11:11:54.440,1904
27/09/2019 11:11:54.444,1904
27/09/2019 11:11:54.448,1904
27/09/2019 11:11:54.452,1905
27/09/2019 11:11:54.456,1905
27/09/2019 11:11:54.460,1905
27/09/2019 11:11:54.464,1905
27/09/2019 11:11:54.468,1905
27/09/2019 11:11:54.472,1905
27/09/2019 11:11:54.476,1904
27/09/2019 11:11:54.480,1903
27/09/2019 11:11:54.484,1902
27/09/2019 11:11:54.488,1902
27/09/2019 11:11:54.492,1902
27/09/2019 11:11:54.496,1902
27/09/2019 11:11:54.500,1903
27/09/2019 11:11:54.504,1904
27/09/2019 11:11:54.508,1905
27/09/2019 11:11:54.512,1905
27/09/2019 11:11:54.516,1905
27/09/2019 11:11:54.520,1904
27/09/2019 11:11:54.524,1903
27/09/2019 11:11:54.528,1903
27/09/2019 11:11:54.532,1903
27/09/2019 11:11:54.536,1903
27/09/2019 11:11:54.540,1904
27/09/2019 11:11:54.544,1905
27/09/2019 11:11:54.548,1906
27/09/2019 11:11:54.552,1907
27/09/2019 11:11:54.556,1907
27/09/2019 11:11:54.560,1906
27/09/2019 11:11:54.564,1905
27/09/2019 11:11:54.568,1904
27/09/2019 11:11:54.572,1904
27/09/2019 11:11:54.576,1904
27/09/2019 11:11:54.580,1904
27/09/2019 11:11:54.584,1905
27/09/2019 11:11:54.588,1906
27/09/2019 11:11:54.592,1906
27/09/2019 11:11:54.596,1906
27/09/2019 11:11:54.600,1906
27/09/2019 11:11:54.604,1905
27/09/2019 11:11:54.608,1904
27/09/2019 11:11:54.612,1904
27/09/2019 11:11:54.616,1904
27/09/2019 11:11:54.620,1905
27/09/2019 11:11:54.624,1906
27/09/2019 11:11:54.628,1907
27/09/2019 11:11:54.632,1907
27/09/2019 11:11:54.636,1907
27/09/2019 11:11:54.640,1906
27/09/2019 11:11:54.644,1906
27/09/2019 11:11:54.648,1905
27/09/2019 11:11:54.652,1905
27/09/2019 11:11:54.656,1905
27/09/2019 11:11:54.660,1905
27/09/2019 11:11:54.664,1906
27/09/2019 11:11:54.668,1907
27/09/2019 11:11:54.672,1907
27/09/2019 11:11:54.676,1907
27/09/2019 11:11:54.680,1907
27/09/2019 11:11:54.684,1907
27/09/2019 11:11:54.688,1906
27/09/2019 11:11:54.692,1906
27/09/2019 11:11:54.696,1906
27/09/2019 11:11:54.700,1907
27/09/2019 11:11:54.704,1907
27/09/2019 11:11:54.708,1908
27/09/2019 11:11:54.712,1908
27/09/2019 11:11:54.716,1908
27/09/2019 11:11:54.720,1907
27/09/2019 11:11:54.724,1906
27/09/2019 11:11:54.728,1906
27/09/2019 11:11:54.732,1906
27/09/2019 11:11:54.736,1907
27/09/2019 11:11:54.740,1908
27/09/2019 11:11:54.744,1908
27/09/2019 11:11:54.748,1908
27/09/2019 11:11:54.752,1908
27/09/2019 11:11:54.756,1908
27/09/2019 11:11:54.760,1907
27/09/2019 11:11:54.764,1906
27/09/2019 11:11:54.768,1906
27/09/2019 11:11:54.772,1906
27/09/2019 11:11:54.776,1906
27/09/2019 11:11:54.780,1907
27/09/2019 11:11:54.784,1908
27/09/2019 11:11:54.788,1908
27/09/2019 11:11:54.792,1909
27/09/2019 11:11:54.796,1909
27/09/2019 11:11:54.800,1908
27/09/2019 11:11:54.804,1908
27/09/2019 11:11:54.808,1907
27/09/2019 11:11:54.812,1906
27/09/2019 11:11:54.816,1907
27/09/2019 11:11:54.820,1907
27/09/2019 11:11:54.824,1908
27/09/2019 11:11:54.828,1909
27/09/2019 11:11:54.832,1910
27/09/2019 11:11:54.836,1909
27/09/2019 11:11:54.840,1909
27/09/2019 11:11:54.844,1907
27/09/2019 11:11:54.848,1907
27/09/2019 11:11:54.852,1907
27/09/2019 11:11:54.856,1907
27/09/2019 11:11:54.860,1908
27/09/2019 11:11:54.864,1909
27/09/2019 11:11:54.868,1909
27/09/2019 11:11:54.872,1909
27/09/2019 11:11:54.876,1909
27/09/2019 11:11:54.880,1908
27/09/2019 11:11:54.884,1907
27/09/2019 11:11:54.888,1907
27/09/2019 11:11:54.892,1906
27/09/2019 11:11:54.896,1906
27/09/2019 11:11:54.900,1907
27/09/2019 11:11:54.904,1908
27/09/2019 11:11:54.908,1909
27/09/2019 11:11:54.912,1909
27/09/2019 11:11:54.916,1909
27/09/2019 11:11:54.920,1908
27/09/2019 11:11:54.924,1907
27/09/2019 11:11:54.928,1907
27/09/2019 11:11:54.932,1907
27/09/2019 11:11:54.936,1908
27/09/2019 11:11:54.940,1909
27/09/2019 11:11:54.944,1910
27/09/2019 11:11:54.948,1910
27/09/2019 11:11:54.952,1911
27/09/2019 11:11:54.956,1910
27/09/2019 11:11:54.960,1910
27/09/2019 11:11:54.964,1908
27/09/2019 11:11:54.968,1907
27/09/2019 11:11:54.972,1907
27/09/2019 11:11:54.976,1907
27/09/2019 11:11:54.980,1908
27/09/2019 11:11:54.984,1909
27/09/2019 11:11:54.988,1910
27/09/2019 11:11:54.992,1910
27/09/2019 11:11:54.996,1910
27/09/2019 11:11:55.000,1909
27/09/2019 11:11:55.004,1908
27/09/2019 11:11:55.008,1907
27/09/2019 11:11:55.012,1907
27/09/2019 11:11:55.016,1907
27/09/2019 11:11:55.020,1908
27/09/2019 11:11:55.024,1909
27/09/2019 11:11:55.028,1910
27/09/2019 11:11:55.032,1910
27/09/2019 11:11:55.036,1910
27/09/2019 11:11:55.040,1909
27/09/2019 11:11:55.044,1908
27/09/2019 11:11:55.048,1908
27/09/2019 11:11:55.052,1908
27/09/2019 11:11:55.056,1908
27/09/2019 11:11:55.060,1909
27/09/2019 11:11:55.064,1911
27/09/2019 11:11:55.068,1912
27/09/2019 11:11:55.072,1913
27/09/2019 11:11:55.076,1912
27/09/2019 11:11:55.080,1911
27/09/2019 11:11:55.084,1909
27/09/2019 11:11:55.088,1908
27/09/2019 11:11:55.092,1908
27/09/2019 11:11:55.096,1909
27/09/2019 11:11:55.100,1910
27/09/2019 11:11:55.104,1911
27/09/2019 11:11:55.108,1911
27/09/2019 11:11:55.112,1911
27/09/2019 11:11:55.116,1910
27/09/2019 11:11:55.120,1910
27/09/2019 11:11:55.124,1909
27/09/2019 11:11:55.128,1909
27/09/2019 11:11:55.132,1909
27/09/2019 11:11:55.136,1910
27/09/2019 11:11:55.140,1911
27/09/2019 11:11:55.144,1911
27/09/2019 11:11:55.148,1911
27/09/2019 11:11:55.152,1911
27/09/2019 11:11:55.156,1911
27/09/2019 11:11:55.160,1910
27/09/2019 11:11:55.164,1910
27/09/2019 11:11:55.168,1909
27/09/2019 11:11:55.172,1909
27/09/2019 11:11:55.176,1909
27/09/2019 11:11:55.180,1909
27/09/2019 11:11:55.184,1910
27/09/2019 11:11:55.188,1911
27/09/2019 11:11:55.192,1912
27/09/2019 11:11:55.196,1912
27/09/2019 11:11:55.200,1912
27/09/2019 11:11:55.204,1911
27/09/2019 11:11:55.208,1910
27/09/2019 11:11:55.212,1910
27/09/2019 11:11:55.216,1910
27/09/2019 11:11:55.220,1911
27/09/2019 11:11:55.224,1912
27/09/2019 11:11:55.228,1913
27/09/2019 11:11:55.232,1914
27/09/2019 11:11:55.236,1913
27/09/2019 11:11:55.240,1913
27/09/2019 11:11:55.244,1911
27/09/2019 11:11:55.248,1910
27/09/2019 11:11:55.252,1910
27/09/2019 11:11:55.256,1910
27/09/2019 11:11:55.260,1911
27/09/2019 11:11:55.264,1912
27/09/2019 11:11:55.268,1913
27/09/2019 11:11:55.272,1913
27/09/2019 11:11:55.276,1913
27/09/2019 11:11:55.280,1912
27/09/2019 11:11:55.284,1911
27/09/2019 11:11:55.288,1910
27/09/2019 11:11:55.292,1910
27/09/2019 11:11:55.296,1911
27/09/2019 11:11:55.300,1912
27/09/2019 11:11:55.304,1913
27/09/2019 11:11:55.308,1914
27/09/2019 11:11:55.312,1914
27/09/2019 11:11:55.316,1914
27/09/2019 11:11:55.320,1913
27/09/2019 11:11:55.324,1912
27/09/2019 11:11:55.328,1911
27/09/2019 11:11:55.332,1911
27/09/2019 11:11:55.336,1912
27/09/2019 11:11:55.340,1912
27/09/2019 11:11:55.344,1913
27/09/2019 11:11:55.348,1914
27/09/2019 11:11:55.352,1914
27/09/2019 11:11:55.356,1913
27/09/2019 11:11:55.360,1913
27/09/2019 11:11:55.364,1912
27/09/2019 11:11:55.368,1911
27/09/2019 11:11:55.372,1911
27/09/2019 11:11:55.376,1912
27/09/2019 11:11:55.380,1913
27/09/2019 11:11:55.384,1914
27/09/2019 11:11:55.388,1915
27/09/2019 11:11:55.392,1915
27/09/2019 11:11:55.396,1914
27/09/2019 11:11:55.400,1913
27/09/2019 11:11:55.404,1913
27/09/2019 11:11:55.408,1912
27/09/2019 11:11:55.412,1912
27/09/2019 11:11:55.416,1912
27/09/2019 11:11:55.420,1912
27/09/2019 11:11:55.424,1913
27/09/2019 11:11:55.428,1914
27/09/2019 11:11:55.432,1914
27/09/2019 11:11:55.436,1914
27/09/2019 11:11:55.440,1914
27/09/2019 11:11:55.444,1913
27/09/2019 11:11:55.448,1912
27/09/2019 11:11:55.452,1912
27/09/2019 11:11:55.456,1912
27/09/2019 11:11:55.460,1913
27/09/2019 11:11:55.464,1913
27/09/2019 11:11:55.468,1914
27/09/2019 11:11:55.472,1914
27/09/2019 11:11:55.476,1914
27/09/2019 11:11:55.480,1914
27/09/2019 11:11:55.484,1914
27/09/2019 11:11:55.488,1913
27/09/2019 11:11:55.492,1913
27/09/2019 11:11:55.496,1912
27/09/2019 11:11:55.500,1913
27/09/2019 11:11:55.504,1914
27/09/2019 11:11:55.508,1915
27/09/2019 11:11:55.512,1915
27/09/2019 11:11:55.516,1915
27/09/2019 11:11:55.520,1914
27/09/2019 11:11:55.524,1913
27/09/2019 11:11:55.528,1912
27/09/2019 11:11:55.532,1912
27/09/2019 11:11:55.536,1913
27/09/2019 11:11:55.540,1913
27/09/2019 11:11:55.544,1914
27/09/2019 11:11:55.548,1914
27/09/2019 11:11:55.552,1915
27/09/2019 11:11:55.556,1915
27/09/2019 11:11:55.560,1915
27/09/2019 11:11:55.564,1914
27/09/2019 11:11:55.568,1913
27/09/2019 11:11:55.572,1913
27/09/2019 11:11:55.576,1913
27/09/2019 11:11:55.580,1914
27/09/2019 11:11:55.584,1915
27/09/2019 11:11:55.588,1916
27/09/2019 11:11:55.592,1916
27/09/2019 11:11:55.596,1916
27/09/2019 11:11:55.600,1915
27/09/2019 11:11:55.604,1915
27/09/2019 11:11:55.608,1914
27/09/2019 11:11:55.612,1914
27/09/2019 11:11:55.616,1913
27/09/2019 11:11:55.620,1913
27/09/2019 11:11:55.624,1914
27/09/2019 11:11:55.628,1914
27/09/2019 11:11:55.632,1915
27/09/2019 11:11:55.636,1915
27/09/2019 11:11:55.640,1914
27/09/2019 11:11:55.644,1913
27/09/2019 11:11:55.648,1912
27/09/2019 11:11:55.652,1912
27/09/2019 11:11:55.656,1912
27/09/2019 11:11:55.660,1913
27/09/2019 11:11:55.664,1914
27/09/2019 11:11:55.668,1915
27/09/2019 11:11:55.672,1916
27/09/2019 11:11:55.676,1916
27/09/2019 11:11:55.680,1915
27/09/2019 11:11:55.684,1914
27/09/2019 11:11:55.688,1912
27/09/2019 11:11:55.692,1911
27/09/2019 11:11:55.696,1912
27/09/2019 11:11:55.700,1912
27/09/2019 11:11:55.704,1914
27/09/2019 11:11:55.708,1915
27/09/2019 11:11:55.712,1916
27/09/2019 11:11:55.716,1916
27/09/2019 11:11:55.720,1915
27/09/2019 11:11:55.724,1914
27/09/2019 11:11:55.728,1913
27/09/2019 11:11:55.732,1913
27/09/2019 11:11:55.736,1913
27/09/2019 11:11:55.740,1914
27/09/2019 11:11:55.744,1915
27/09/2019 11:11:55.748,1915
27/09/2019 11:11:55.752,1915
27/09/2019 11:11:55.756,1915
27/09/2019 11:11:55.760,1914
27/09/2019 11:11:55.764,1913
27/09/2019 11:11:55.768,1913
27/09/2019 11:11:55.772,1914
27/09/2019 11:11:55.776,1914
27/09/2019 11:11:55.780,1915
27/09/2019 11:11:55.784,1916
27/09/2019 11:11:55.788,1916
27/09/2019 11:11:55.792,1916
27/09/2019 11:11:55.796,1917
27/09/2019 11:11:55.800,1916
27/09/2019 11:11:55.804,1916
27/09/2019 11:11:55.808,1915
27/09/2019 11:11:55.812,1914
27/09/2019 11:11:55.816,1915
27/09/2019 11:11:55.820,1915
27/09/2019 11:11:55.824,1916
27/09/2019 11:11:55.828,1917
27/09/2019 11:11:55.832,1917
27/09/2019 11:11:55.836,1917
27/09/2019 11:11:55.840,1916
27/09/2019 11:11:55.844,1916
27/09/2019 11:11:55.848,1915
27/09/2019 11:11:55.852,1915
27/09/2019 11:11:55.856,1916
27/09/2019 11:11:55.860,1916
27/09/2019 11:11:55.864,1917
27/09/2019 11:11:55.868,1917
27/09/2019 11:11:55.872,1917
27/09/2019 11:11:55.876,1917
27/09/2019 11:11:55.880,1916
27/09/2019 11:11:55.884,1916
27/09/2019 11:11:55.888,1916
27/09/2019 11:11:55.892,1916
27/09/2019 11:11:55.896,1916
27/09/2019 11:11:55.900,1917
27/09/2019 11:11:55.904,1917
27/09/2019 11:11:55.908,1918
27/09/2019 11:11:55.912,1918
27/09/2019 11:11:55.916,1918
27/09/2019 11:11:55.920,1917
27/09/2019 11:11:55.924,1916
27/09/2019 11:11:55.928,1916
27/09/2019 11:11:55.932,1915
27/09/2019 11:11:55.936,1915
27/09/2019 11:11:55.940,1916
27/09/2019 11:11:55.944,1917
27/09/2019 11:11:55.948,1917
27/09/2019 11:11:55.952,1918
27/09/2019 11:11:55.956,1918
27/09/2019 11:11:55.960,1917
27/09/2019 11:11:55.964,1916
27/09/2019 11:11:55.968,1915
27/09/2019 11:11:55.972,1915
27/09/2019 11:11:55.976,1916
27/09/2019 11:11:55.980,1916
27/09/2019 11:11:55.984,1917
27/09/2019 11:11:55.988,1918
27/09/2019 11:11:55.992,1919
27/09/2019 11:11:55.996,1918
27/09/2019 11:11:56.000,1918
27/09/2019 11:11:56.004,1917
27/09/2019 11:11:56.008,1916
27/09/2019 11:11:56.012,1916
27/09/2019 11:11:56.016,1916
27/09/2019 11:11:56.020,1916
27/09/2019 11:11:56.024,1917
27/09/2019 11:11:56.028,1918
27/09/2019 11:11:56.032,1919
27/09/2019 11:11:56.036,1919
27/09/2019 11:11:56.040,1918
27/09/2019 11:11:56.044,1917
27/09/2019 11:11:56.048,1915
27/09/2019 11:11:56.052,1914
27/09/2019 11:11:56.056,1915
27/09/2019 11:11:56.060,1916
27/09/2019 11:11:56.064,1917
27/09/2019 11:11:56.068,1917
27/09/2019 11:11:56.072,1918
27/09/2019 11:11:56.076,1917
27/09/2019 11:11:56.080,1917
27/09/2019 11:11:56.084,1916
27/09/2019 11:11:56.088,1916
27/09/2019 11:11:56.092,1916
27/09/2019 11:11:56.096,1917
27/09/2019 11:11:56.100,1917
27/09/2019 11:11:56.104,1918
27/09/2019 11:11:56.108,1919
27/09/2019 11:11:56.112,1919
27/09/2019 11:11:56.116,1919
27/09/2019 11:11:56.120,1918
27/09/2019 11:11:56.124,1918
27/09/2019 11:11:56.128,1917
27/09/2019 11:11:56.132,1916
27/09/2019 11:11:56.136,1917
27/09/2019 11:11:56.140,1917
27/09/2019 11:11:56.144,1918
27/09/2019 11:11:56.148,1919
27/09/2019 11:11:56.152,1920
27/09/2019 11:11:56.156,1919
27/09/2019 11:11:56.160,1919
27/09/2019 11:11:56.164,1918
27/09/2019 11:11:56.168,1917
27/09/2019 11:11:56.172,1917
27/09/2019 11:11:56.176,1917
27/09/2019 11:11:56.180,1918
27/09/2019 11:11:56.184,1919
27/09/2019 11:11:56.188,1919
27/09/2019 11:11:56.192,1919
27/09/2019 11:11:56.196,1920
27/09/2019 11:11:56.200,1919
27/09/2019 11:11:56.204,1919
27/09/2019 11:11:56.208,1919
27/09/2019 11:11:56.212,1918
27/09/2019 11:11:56.216,1919
27/09/2019 11:11:56.220,1919
27/09/2019 11:11:56.224,1919
27/09/2019 11:11:56.228,1920
27/09/2019 11:11:56.232,1920
27/09/2019 11:11:56.236,1920
27/09/2019 11:11:56.240,1920
27/09/2019 11:11:56.244,1920
27/09/2019 11:11:56.248,1919
27/09/2019 11:11:56.252,1919
27/09/2019 11:11:56.256,1919
27/09/2019 11:11:56.260,1919
27/09/2019 11:11:56.264,1920
27/09/2019 11:11:56.268,1920
27/09/2019 11:11:56.272,1920
27/09/2019 11:11:56.276,1920
27/09/2019 11:11:56.280,1919
27/09/2019 11:11:56.284,1919
27/09/2019 11:11:56.288,1919
27/09/2019 11:11:56.292,1919
27/09/2019 11:11:56.296,1919
27/09/2019 11:11:56.300,1920
27/09/2019 11:11:56.304,1920
27/09/2019 11:11:56.308,1921
27/09/2019 11:11:56.312,1921
27/09/2019 11:11:56.316,1921
27/09/2019 11:11:56.320,1920
27/09/2019 11:11:56.324,1919
27/09/2019 11:11:56.328,1919
27/09/2019 11:11:56.332,1918
27/09/2019 11:11:56.336,1918
27/09/2019 11:11:56.340,1919
27/09/2019 11:11:56.344,1920
27/09/2019 11:11:56.348,1920
27/09/2019 11:11:56.352,1920
27/09/2019 11:11:56.356,1920
27/09/2019 11:11:56.360,1920
27/09/2019 11:11:56.364,1919
27/09/2019 11:11:56.368,1919
27/09/2019 11:11:56.372,1918
27/09/2019 11:11:56.376,1918
27/09/2019 11:11:56.380,1919
27/09/2019 11:11:56.384,1920
27/09/2019 11:11:56.388,1921
27/09/2019 11:11:56.392,1921
27/09/2019 11:11:56.396,1921
27/09/2019 11:11:56.400,1921
27/09/2019 11:11:56.404,1920
27/09/2019 11:11:56.408,1919
27/09/2019 11:11:56.412,1918
27/09/2019 11:11:56.416,1918
27/09/2019 11:11:56.420,1919
27/09/2019 11:11:56.424,1920
27/09/2019 11:11:56.428,1921
27/09/2019 11:11:56.432,1921
27/09/2019 11:11:56.436,1922
27/09/2019 11:11:56.440,1922
27/09/2019 11:11:56.444,1922
27/09/2019 11:11:56.448,1922
27/09/2019 11:11:56.452,1922
27/09/2019 11:11:56.456,1922
27/09/2019 11:11:56.460,1922
27/09/2019 11:11:56.464,1922
27/09/2019 11:11:56.468,1922
27/09/2019 11:11:56.472,1922
27/09/2019 11:11:56.476,1922
27/09/2019 11:11:56.480,1921
27/09/2019 11:11:56.484,1920
27/09/2019 11:11:56.488,1919
27/09/2019 11:11:56.492,1919
27/09/2019 11:11:56.496,1919
27/09/2019 11:11:56.500,1920
27/09/2019 11:11:56.504,1921
27/09/2019 11:11:56.508,1922
27/09/2019 11:11:56.512,1922
27/09/2019 11:11:56.516,1922
27/09/2019 11:11:56.520,1921
27/09/2019 11:11:56.524,1920
27/09/2019 11:11:56.528,1919
27/09/2019 11:11:56.532,1919
27/09/2019 11:11:56.536,1920
27/09/2019 11:11:56.540,1920
27/09/2019 11:11:56.544,1921
27/09/2019 11:11:56.548,1921
27/09/2019 11:11:56.552,1922
27/09/2019 11:11:56.556,1921
27/09/2019 11:11:56.560,1921
27/09/2019 11:11:56.564,1921
27/09/2019 11:11:56.568,1920
27/09/2019 11:11:56.572,1920
27/09/2019 11:11:56.576,1920
27/09/2019 11:11:56.580,1921
27/09/2019 11:11:56.584,1921
27/09/2019 11:11:56.588,1921
27/09/2019 11:11:56.592,1922
27/09/2019 11:11:56.596,1922
27/09/2019 11:11:56.600,1922
27/09/2019 11:11:56.604,1921
27/09/2019 11:11:56.608,1920
27/09/2019 11:11:56.612,1920
27/09/2019 11:11:56.616,1920
27/09/2019 11:11:56.620,1920
27/09/2019 11:11:56.624,1922
27/09/2019 11:11:56.628,1923
27/09/2019 11:11:56.632,1923
27/09/2019 11:11:56.636,1924
27/09/2019 11:11:56.640,1924
27/09/2019 11:11:56.644,1923
27/09/2019 11:11:56.648,1922
27/09/2019 11:11:56.652,1921
27/09/2019 11:11:56.656,1921
27/09/2019 11:11:56.660,1922
27/09/2019 11:11:56.664,1923
27/09/2019 11:11:56.668,1923
27/09/2019 11:11:56.672,1924
27/09/2019 11:11:56.676,1924
27/09/2019 11:11:56.680,1923
27/09/2019 11:11:56.684,1923
27/09/2019 11:11:56.688,1922
27/09/2019 11:11:56.692,1921
27/09/2019 11:11:56.696,1921
27/09/2019 11:11:56.700,1921
27/09/2019 11:11:56.704,1921
27/09/2019 11:11:56.708,1922
27/09/2019 11:11:56.712,1923
27/09/2019 11:11:56.716,1923
27/09/2019 11:11:56.720,1923
27/09/2019 11:11:56.724,1922
27/09/2019 11:11:56.728,1921
27/09/2019 11:11:56.732,1921
27/09/2019 11:11:56.736,1921
27/09/2019 11:11:56.740,1922
27/09/2019 11:11:56.744,1923
27/09/2019 11:11:56.748,1923
27/09/2019 11:11:56.752,1924
27/09/2019 11:11:56.756,1924
27/09/2019 11:11:56.760,1923
27/09/2019 11:11:56.764,1923
27/09/2019 11:11:56.768,1922
27/09/2019 11:11:56.772,1922
27/09/2019 11:11:56.776,1922
27/09/2019 11:11:56.780,1922
27/09/2019 11:11:56.784,1923
27/09/2019 11:11:56.788,1924
27/09/2019 11:11:56.792,1924
27/09/2019 11:11:56.796,1924
27/09/2019 11:11:56.800,1923
27/09/2019 11:11:56.804,1923
27/09/2019 11:11:56.808,1922
27/09/2019 11:11:56.812,1922
27/09/2019 11:11:56.816,1923
27/09/2019 11:11:56.820,1924
27/09/2019 11:11:56.824,1924
27/09/2019 11:11:56.828,1924
27/09/2019 11:11:56.832,1924
27/09/2019 11:11:56.836,1924
27/09/2019 11:11:56.840,1924
27/09/2019 11:11:56.844,1923
27/09/2019 11:11:56.848,1923
27/09/2019 11:11:56.852,1922
27/09/2019 11:11:56.856,1922
27/09/2019 11:11:56.860,1922
27/09/2019 11:11:56.864,1923
27/09/2019 11:11:56.868,1923
27/09/2019 11:11:56.872,1924
27/09/2019 11:11:56.876,1924
27/09/2019 11:11:56.880,1924
27/09/2019 11:11:56.884,1923
27/09/2019 11:11:56.888,1923
27/09/2019 11:11:56.892,1922
27/09/2019 11:11:56.896,1922
27/09/2019 11:11:56.900,1923
27/09/2019 11:11:56.904,1924
27/09/2019 11:11:56.908,1924
27/09/2019 11:11:56.912,1925
27/09/2019 11:11:56.916,1925
27/09/2019 11:11:56.920,1925
27/09/2019 11:11:56.924,1924
27/09/2019 11:11:56.928,1924
27/09/2019 11:11:56.932,1923
27/09/2019 11:11:56.936,1923
27/09/2019 11:11:56.940,1924
27/09/2019 11:11:56.944,1924
27/09/2019 11:11:56.948,1925
27/09/2019 11:11:56.952,1925
27/09/2019 11:11:56.956,1925
27/09/2019 11:11:56.960,1924
27/09/2019 11:11:56.964,1923
27/09/2019 11:11:56.968,1922
27/09/2019 11:11:56.972,1922
27/09/2019 11:11:56.976,1922
27/09/2019 11:11:56.980,1923
27/09/2019 11:11:56.984,1923
27/09/2019 11:11:56.988,1924
27/09/2019 11:11:56.992,1925
27/09/2019 11:11:56.996,1925
27/09/2019 11:11:57.000,1925
27/09/2019 11:11:57.004,1925
27/09/2019 11:11:57.008,1924
27/09/2019 11:11:57.012,1924
27/09/2019 11:11:57.016,1924
27/09/2019 11:11:57.020,1924
27/09/2019 11:11:57.024,1925
27/09/2019 11:11:57.028,1926
27/09/2019 11:11:57.032,1926
27/09/2019 11:11:57.036,1926
27/09/2019 11:11:57.040,1925
27/09/2019 11:11:57.044,1925
27/09/2019 11:11:57.048,1924
27/09/2019 11:11:57.052,1924
27/09/2019 11:11:57.056,1925
27/09/2019 11:11:57.060,1925
27/09/2019 11:11:57.064,1925
27/09/2019 11:11:57.068,1926
27/09/2019 11:11:57.072,1926
27/09/2019 11:11:57.076,1926
27/09/2019 11:11:57.080,1926
27/09/2019 11:11:57.084,1925
27/09/2019 11:11:57.088,1925
27/09/2019 11:11:57.092,1924
27/09/2019 11:11:57.096,1924
27/09/2019 11:11:57.100,1925
27/09/2019 11:11:57.104,1926
27/09/2019 11:11:57.108,1927
27/09/2019 11:11:57.112,1927
27/09/2019 11:11:57.116,1927
27/09/2019 11:11:57.120,1926
27/09/2019 11:11:57.124,1925
27/09/2019 11:11:57.128,1924
27/09/2019 11:11:57.132,1923
27/09/2019 11:11:57.136,1924
27/09/2019 11:11:57.140,1924
27/09/2019 11:11:57.144,1925
27/09/2019 11:11:57.148,1925
27/09/2019 11:11:57.152,1926
27/09/2019 11:11:57.156,1926
27/09/2019 11:11:57.160,1926
27/09/2019 11:11:57.164,1925
27/09/2019 11:11:57.168,1925
27/09/2019 11:11:57.172,1925
27/09/2019 11:11:57.176,1925
27/09/2019 11:11:57.180,1925
27/09/2019 11:11:57.184,1926
27/09/2019 11:11:57.188,1926
27/09/2019 11:11:57.192,1926
27/09/2019 11:11:57.196,1926
27/09/2019 11:11:57.200,1926
27/09/2019 11:11:57.204,1926
27/09/2019 11:11:57.208,1925
27/09/2019 11:11:57.212,1925
27/09/2019 11:11:57.216,1924
27/09/2019 11:11:57.220,1925
27/09/2019 11:11:57.224,1925
27/09/2019 11:11:57.228,1926
27/09/2019 11:11:57.232,1927
27/09/2019 11:11:57.236,1927
27/09/2019 11:11:57.240,1926
27/09/2019 11:11:57.244,1925
27/09/2019 11:11:57.248,1925
27/09/2019 11:11:57.252,1925
27/09/2019 11:11:57.256,1925
27/09/2019 11:11:57.260,1926
27/09/2019 11:11:57.264,1926
27/09/2019 11:11:57.268,1927
27/09/2019 11:11:57.272,1927
27/09/2019 11:11:57.276,1927
27/09/2019 11:11:57.280,1926
27/09/2019 11:11:57.284,1926
27/09/2019 11:11:57.288,1925
27/09/2019 11:11:57.292,1925
27/09/2019 11:11:57.296,1925
27/09/2019 11:11:57.300,1925
27/09/2019 11:11:57.304,1926
27/09/2019 11:11:57.308,1926
27/09/2019 11:11:57.312,1927
27/09/2019 11:11:57.316,1927
27/09/2019 11:11:57.320,1926
27/09/2019 11:11:57.324,1926
27/09/2019 11:11:57.328,1925
27/09/2019 11:11:57.332,1925
27/09/2019 11:11:57.336,1925
27/09/2019 11:11:57.340,1926
27/09/2019 11:11:57.344,1927
27/09/2019 11:11:57.348,1928
27/09/2019 11:11:57.352,1929
27/09/2019 11:11:57.356,1928
27/09/2019 11:11:57.360,1928
27/09/2019 11:11:57.364,1927
27/09/2019 11:11:57.368,1926
27/09/2019 11:11:57.372,1926
27/09/2019 11:11:57.376,1926
27/09/2019 11:11:57.380,1926
27/09/2019 11:11:57.384,1927
27/09/2019 11:11:57.388,1927
27/09/2019 11:11:57.392,1927
27/09/2019 11:11:57.396,1927
27/09/2019 11:11:57.400,1927
27/09/2019 11:11:57.404,1927
27/09/2019 11:11:57.408,1926
27/09/2019 11:11:57.412,1925
27/09/2019 11:11:57.416,1925
27/09/2019 11:11:57.420,1925
27/09/2019 11:11:57.424,1926
27/09/2019 11:11:57.428,1927
27/09/2019 11:11:57.432,1928
27/09/2019 11:11:57.436,1928
27/09/2019 11:11:57.440,1927
27/09/2019 11:11:57.444,1926
27/09/2019 11:11:57.448,1925
27/09/2019 11:11:57.452,1925
27/09/2019 11:11:57.456,1925
27/09/2019 11:11:57.460,1926
27/09/2019 11:11:57.464,1927
27/09/2019 11:11:57.468,1927
27/09/2019 11:11:57.472,1928
27/09/2019 11:11:57.476,1928
27/09/2019 11:11:57.480,1927
27/09/2019 11:11:57.484,1927
27/09/2019 11:11:57.488,1926
27/09/2019 11:11:57.492,1925
27/09/2019 11:11:57.496,1926
27/09/2019 11:11:57.500,1927
27/09/2019 11:11:57.504,1927
27/09/2019 11:11:57.508,1928
27/09/2019 11:11:57.512,1928
27/09/2019 11:11:57.516,1928
27/09/2019 11:11:57.520,1927
27/09/2019 11:11:57.524,1926
27/09/2019 11:11:57.528,1925
27/09/2019 11:11:57.532,1925
27/09/2019 11:11:57.536,1925
27/09/2019 11:11:57.540,1926
27/09/2019 11:11:57.544,1927
27/09/2019 11:11:57.548,1928
27/09/2019 11:11:57.552,1928
27/09/2019 11:11:57.556,1928
27/09/2019 11:11:57.560,1927
27/09/2019 11:11:57.564,1926
27/09/2019 11:11:57.568,1926
27/09/2019 11:11:57.572,1926
27/09/2019 11:11:57.576,1927
27/09/2019 11:11:57.580,1928
27/09/2019 11:11:57.584,1929
27/09/2019 11:11:57.588,1929
27/09/2019 11:11:57.592,1929
27/09/2019 11:11:57.596,1928
27/09/2019 11:11:57.600,1927
27/09/2019 11:11:57.604,1927
27/09/2019 11:11:57.608,1926
27/09/2019 11:11:57.612,1926
27/09/2019 11:11:57.616,1926
27/09/2019 11:11:57.620,1927
27/09/2019 11:11:57.624,1928
27/09/2019 11:11:57.628,1929
27/09/2019 11:11:57.632,1929
27/09/2019 11:11:57.636,1929
27/09/2019 11:11:57.640,1928
27/09/2019 11:11:57.644,1928
27/09/2019 11:11:57.648,1927
27/09/2019 11:11:57.652,1927
27/09/2019 11:11:57.656,1927
27/09/2019 11:11:57.660,1927
27/09/2019 11:11:57.664,1928
27/09/2019 11:11:57.668,1928
27/09/2019 11:11:57.672,1929
27/09/2019 11:11:57.676,1929
27/09/2019 11:11:57.680,1928
27/09/2019 11:11:57.684,1928
27/09/2019 11:11:57.688,1927
27/09/2019 11:11:57.692,1927
27/09/2019 11:11:57.696,1927
27/09/2019 11:11:57.700,1927
27/09/2019 11:11:57.704,1928
27/09/2019 11:11:57.708,1929
27/09/2019 11:11:57.712,1929
27/09/2019 11:11:57.716,1929
27/09/2019 11:11:57.720,1928
27/09/2019 11:11:57.724,1927
27/09/2019 11:11:57.728,1926
27/09/2019 11:11:57.732,1926
27/09/2019 11:11:57.736,1927
27/09/2019 11:11:57.740,1928
27/09/2019 11:11:57.744,1929
27/09/2019 11:11:57.748,1930
27/09/2019 11:11:57.752,1930
27/09/2019 11:11:57.756,1929
27/09/2019 11:11:57.760,1928
27/09/2019 11:11:57.764,1928
27/09/2019 11:11:57.768,1927
27/09/2019 11:11:57.772,1927
27/09/2019 11:11:57.776,1927
27/09/2019 11:11:57.780,1928
27/09/2019 11:11:57.784,1929
27/09/2019 11:11:57.788,1930
27/09/2019 11:11:57.792,1930
27/09/2019 11:11:57.796,1930
27/09/2019 11:11:57.800,1929
27/09/2019 11:11:57.804,1928
27/09/2019 11:11:57.808,1928
27/09/2019 11:11:57.812,1928
27/09/2019 11:11:57.816,1928
27/09/2019 11:11:57.820,1929
27/09/2019 11:11:57.824,1931
27/09/2019 11:11:57.828,1931
27/09/2019 11:11:57.832,1932
27/09/2019 11:11:57.836,1931
27/09/2019 11:11:57.840,1930
27/09/2019 11:11:57.844,1929
27/09/2019 11:11:57.848,1929
27/09/2019 11:11:57.852,1928
27/09/2019 11:11:57.856,1928
27/09/2019 11:11:57.860,1929
27/09/2019 11:11:57.864,1930
27/09/2019 11:11:57.868,1931
27/09/2019 11:11:57.872,1931
27/09/2019 11:11:57.876,1931
27/09/2019 11:11:57.880,1930
27/09/2019 11:11:57.884,1929
27/09/2019 11:11:57.888,1928
27/09/2019 11:11:57.892,1928
27/09/2019 11:11:57.896,1928
27/09/2019 11:11:57.900,1929
27/09/2019 11:11:57.904,1930
27/09/2019 11:11:57.908,1931
27/09/2019 11:11:57.912,1932
27/09/2019 11:11:57.916,1932
27/09/2019 11:11:57.920,1931
27/09/2019 11:11:57.924,1930
27/09/2019 11:11:57.928,1928
27/09/2019 11:11:57.932,1928
27/09/2019 11:11:57.936,1928
27/09/2019 11:11:57.940,1929
27/09/2019 11:11:57.944,1930
27/09/2019 11:11:57.948,1930
27/09/2019 11:11:57.952,1931
27/09/2019 11:11:57.956,1930
27/09/2019 11:11:57.960,1930
27/09/2019 11:11:57.964,1929
27/09/2019 11:11:57.968,1929
27/09/2019 11:11:57.972,1929
27/09/2019 11:11:57.976,1930
27/09/2019 11:11:57.980,1931
27/09/2019 11:11:57.984,1931
27/09/2019 11:11:57.988,1932
27/09/2019 11:11:57.992,1932
27/09/2019 11:11:57.996,1931
27/09/2019 11:11:58.000,1931
27/09/2019 11:11:58.004,1930
27/09/2019 11:11:58.008,1929
27/09/2019 11:11:58.012,1928
27/09/2019 11:11:58.016,1928
27/09/2019 11:11:58.020,1929
27/09/2019 11:11:58.024,1930
27/09/2019 11:11:58.028,1931
27/09/2019 11:11:58.032,1932
27/09/2019 11:11:58.036,1931
27/09/2019 11:11:58.040,1930
27/09/2019 11:11:58.044,1929
27/09/2019 11:11:58.048,1928
27/09/2019 11:11:58.052,1928
27/09/2019 11:11:58.056,1928
27/09/2019 11:11:58.060,1929
27/09/2019 11:11:58.064,1930
27/09/2019 11:11:58.068,1930
27/09/2019 11:11:58.072,1931
27/09/2019 11:11:58.076,1931
27/09/2019 11:11:58.080,1930
27/09/2019 11:11:58.084,1930
27/09/2019 11:11:58.088,1930
27/09/2019 11:11:58.092,1930
27/09/2019 11:11:58.096,1930
27/09/2019 11:11:58.100,1930
27/09/2019 11:11:58.104,1930
27/09/2019 11:11:58.108,1930
27/09/2019 11:11:58.112,1930
27/09/2019 11:11:58.116,1930
27/09/2019 11:11:58.120,1930
27/09/2019 11:11:58.124,1929
27/09/2019 11:11:58.128,1929
27/09/2019 11:11:58.132,1928
27/09/2019 11:11:58.136,1928
27/09/2019 11:11:58.140,1928
27/09/2019 11:11:58.144,1929
27/09/2019 11:11:58.148,1930
27/09/2019 11:11:58.152,1930
27/09/2019 11:11:58.156,1930
27/09/2019 11:11:58.160,1929
27/09/2019 11:11:58.164,1928
27/09/2019 11:11:58.168,1927
27/09/2019 11:11:58.172,1928
27/09/2019 11:11:58.176,1928
27/09/2019 11:11:58.180,1929
27/09/2019 11:11:58.184,1930
27/09/2019 11:11:58.188,1930
27/09/2019 11:11:58.192,1930
27/09/2019 11:11:58.196,1930
27/09/2019 11:11:58.200,1930
27/09/2019 11:11:58.204,1929
27/09/2019 11:11:58.208,1929
27/09/2019 11:11:58.212,1928
27/09/2019 11:11:58.216,1928
27/09/2019 11:11:58.220,1929
27/09/2019 11:11:58.224,1930
27/09/2019 11:11:58.228,1930
27/09/2019 11:11:58.232,1931
27/09/2019 11:11:58.236,1931
27/09/2019 11:11:58.240,1931
27/09/2019 11:11:58.244,1930
27/09/2019 11:11:58.248,1930
27/09/2019 11:11:58.252,1930
27/09/2019 11:11:58.256,1930
27/09/2019 11:11:58.260,1930
27/09/2019 11:11:58.264,1931
27/09/2019 11:11:58.268,1932
27/09/2019 11:11:58.272,1932
27/09/2019 11:11:58.276,1932
27/09/2019 11:11:58.280,1931
27/09/2019 11:11:58.284,1930
27/09/2019 11:11:58.288,1930
27/09/2019 11:11:58.292,1929
27/09/2019 11:11:58.296,1930
27/09/2019 11:11:58.300,1930
27/09/2019 11:11:58.304,1931
27/09/2019 11:11:58.308,1932
27/09/2019 11:11:58.312,1933
27/09/2019 11:11:58.316,1932
27/09/2019 11:11:58.320,1932
27/09/2019 11:11:58.324,1931
27/09/2019 11:11:58.328,1930
27/09/2019 11:11:58.332,1930
27/09/2019 11:11:58.336,1930
27/09/2019 11:11:58.340,1931
27/09/2019 11:11:58.344,1931
27/09/2019 11:11:58.348,1932
27/09/2019 11:11:58.352,1932
27/09/2019 11:11:58.356,1931
27/09/2019 11:11:58.360,1931
27/09/2019 11:11:58.364,1930
27/09/2019 11:11:58.368,1930
27/09/2019 11:11:58.372,1931
27/09/2019 11:11:58.376,1931
27/09/2019 11:11:58.380,1932
27/09/2019 11:11:58.384,1932
27/09/2019 11:11:58.388,1932
27/09/2019 11:11:58.392,1932
27/09/2019 11:11:58.396,1932
27/09/2019 11:11:58.400,1931
27/09/2019 11:11:58.404,1930
27/09/2019 11:11:58.408,1930
27/09/2019 11:11:58.412,1930
27/09/2019 11:11:58.416,1930
27/09/2019 11:11:58.420,1930
27/09/2019 11:11:58.424,1931
27/09/2019 11:11:58.428,1931
27/09/2019 11:11:58.432,1932
27/09/2019 11:11:58.436,1932
27/09/2019 11:11:58.440,1932
27/09/2019 11:11:58.444,1933
27/09/2019 11:11:58.448,1933
27/09/2019 11:11:58.452,1933
27/09/2019 11:11:58.456,1933
27/09/2019 11:11:58.460,1933
27/09/2019 11:11:58.464,1932
27/09/2019 11:11:58.468,1932
27/09/2019 11:11:58.472,1932
27/09/2019 11:11:58.476,1932
27/09/2019 11:11:58.480,1932
27/09/2019 11:11:58.484,1931
27/09/2019 11:11:58.488,1930
27/09/2019 11:11:58.492,1930
27/09/2019 11:11:58.496,1930
27/09/2019 11:11:58.500,1931
27/09/2019 11:11:58.504,1932
27/09/2019 11:11:58.508,1932
27/09/2019 11:11:58.512,1933
27/09/2019 11:11:58.516,1932
27/09/2019 11:11:58.520,1932
27/09/2019 11:11:58.524,1930
27/09/2019 11:11:58.528,1930
27/09/2019 11:11:58.532,1929
27/09/2019 11:11:58.536,1930
27/09/2019 11:11:58.540,1930
27/09/2019 11:11:58.544,1931
27/09/2019 11:11:58.548,1932
27/09/2019 11:11:58.552,1932
27/09/2019 11:11:58.556,1933
27/09/2019 11:11:58.560,1932
27/09/2019 11:11:58.564,1931
27/09/2019 11:11:58.568,1930
27/09/2019 11:11:58.572,1930
27/09/2019 11:11:58.576,1930
27/09/2019 11:11:58.580,1931
27/09/2019 11:11:58.584,1932
27/09/2019 11:11:58.588,1933
27/09/2019 11:11:58.592,1933
27/09/2019 11:11:58.596,1933
27/09/2019 11:11:58.600,1933
27/09/2019 11:11:58.604,1931
27/09/2019 11:11:58.608,1930
27/09/2019 11:11:58.612,1930
27/09/2019 11:11:58.616,1930
27/09/2019 11:11:58.620,1931
27/09/2019 11:11:58.624,1932
27/09/2019 11:11:58.628,1933
27/09/2019 11:11:58.632,1933
27/09/2019 11:11:58.636,1933
27/09/2019 11:11:58.640,1932
27/09/2019 11:11:58.644,1931
