1980
1959
1945
1944
1950
1958
1965
1968
1970
1971
1972
1971
1970
1969
1968
1968
1969
1969
1969
1969
1969
1970
1971
1972
1972
1971
1970
1970
1971
1972
1972
1972
1972
1971
1970
1969
1970
1972
1974
1976
1976
1975
1974
1972
1972
1972
1973
1974
1974
1974
1975
1976
1977
1978
1979
1979
1979
1979
1979
1978
1978
1978
1978
1978
1978
1977
1976
1976
1975
1975
1975
1974
1972
1970
1969
1969
1970
1971
1972
1972
1971
1970
1969
1968
1968
1969
1971
1972
1973
1973
1972
1971
1970
1970
1970
1971
1971
1972
1973
1973
1974
1974
1973
1972
1972
1972
1972
1972
1972
1972
1972
1973
1973
1973
1973
1973
1973
1973
1973
1973
1972
1972
1972
1972
1972
1973
1973
1973
1973
1973
1972
1972
1972
1972
1973
1973
1973
1974
1974
1974
1973
1973
1973
1972
1973
1973
1974
1974
1974
1974
1973
1972
1971
1971
1972
1974
1976
1977
1977
1977
1976
1976
1976
1976
1977
1978
1978
1977
1976
1975
1975
1974
1974
1973
1972
1972
1972
1973
1974
1975
1976
1976
1976
1975
1975
1974
1973
1972
1970
1968
1970
1978
1992
2009
2021
2022
2010
1990
1970
1957
1954
1959
1966
1971
1974
1974
1974
1973
1973
1973
1973
1973
1973
1973
1973
1973
1973
1974
1974
1974
1975
1976
1976
1976
1976
1975
1975
1975
1975
1975
1975
1975
1975
1976
1976
1976
1976
1977
1978
1979
1980
1980
1979
1978
1977
1977
1977
1977
1979
1980
1982
1983
1982
1982
1981
1981
1980
1981
1981
1982
1982
1982
1981
1981
1980
1979
1978
1978
1977
1976
1975
1974
1974
1974
1974
1974
1974
1974
1974
1974
1974
1974
1974
1973
1973
1973
1974
1975
1975
1975
1975
1974
1974
1974
1974
1975
1975
1976
1976
1975
1975
1974
1973
1973
1975
1976
1977
1977
1976
1974
1973
1973
1973
1974
1975
1976
1976
1977
1977
1976
1976
1975
1975
1975
1975
1975
1975
1975
1975
1975
1975
1976
1976
1976
1976
1976
1976
1976
1976
1976
1976
1976
1976
1976
1976
1976
1976
1976
1976
1977
1977
1976
1976
1975
1975
1975
1976
1977
1978
1978
1977
1976
1976
1976
1977
1979
1979
1979
1979
1979
1979
1979
1978
1977
1976
1976
1976
1976
1976
1976
1976
1976
1976
1977
1977
1977
1978
1979
1977
1975
1971
1970
1973
1982
1998
2015
2024
2023
2009
1988
1970
1960
1959
1964
1970
1974
1976
1976
1977
1978
1978
1978
1978
1978
1977
1977
1977
1977
1977
1978
1978
1979
1979
1979
1979
1979
1978
1978
1979
1981
1981
1982
1981
1981
1981
1981
1981
1981
1981
1981
1982
1982
1983
1983
1983
1983
1983
1985
1986
1986
1986
1986
1985
1985
1985
1986
1987
1987
1987
1987
1986
1986
1985
1984
1984
1984
1985
1985
1985
1985
1984
1983
1981
1980
1979
1979
1979
1979
1978
1978
1978
1978
1979
1979
1979
1979
1979
1979
1980
1980
1979
1979
1979
1979
1980
1980
1980
1980
1981
1981
1982
1981
1980
1979
1978
1978
1979
1980
1981
1981
1981
1980
1980
1979
1979
1979
1981
1982
1983
1983
1982
1981
1980
1980
1981
1981
1980
1980
1980
1980
1981
1981
1982
1982
1981
1981
1980
1980
1980
1982
1984
1985
1985
1983
1981
1980
1980
1981
1982
1982
1982
1982
1982
1982
1983
1984
1984
1985
1985
1985
1984
1984
1983
1982
1981
1981
1982
1983
1983
1983
1982
1980
1979
1979
1980
1980
1981
1982
1983
1984
1985
1983
1980
1975
1973
1976
1986
2003
2022
2033
2031
2015
1990
1967
1953
1953
1961
1972
1980
1983
1983
1982
1981
1980
1979
1978
1978
1979
1979
1980
1981
1982
1982
1981
1981
1980
1980
1981
1981
1981
1982
1982
1982
1981
1980
1980
1980
1982
1983
1984
1984
1983
1982
1982
1981
1981
1981
1982
1982
1983
1984
1985
1984
1984
1984
1985
1986
1987
1987
1988
1987
1987
1986
1985
1985
1985
1985
1985
1985
1984
1983
1981
1979
1976
1975
1974
1975
1976
1977
1977
1977
1976
1974
1973
1973
1973
1974
1975
1976
1976
1976
1975
1974
1973
1973
1973
1974
1975
1975
1976
1976
1976
1975
1974
1973
1973
1973
1974
1975
1975
1975
1975
1975
1974
1974
1973
1973
1973
1973
1974
1975
1975
1974
1974
1973
1973
1973
1973
1973
1973
1973
1974
1975
1975
1975
1974
1973
1972
1972
1973
1974
1975
1975
1974
1973
1973
1973
1973
1973
1973
1972
1971
1970
1970
1971
1973
1974
1976
1976
1976
1977
1977
1976
1976
1975
1974
1973
1974
1974
1975
1974
1974
1973
1972
1972
1972
1973
1974
1975
1975
1975
1975
1974
1974
1974
1973
1971
1969
1967
1969
1975
1988
2005
2019
2024
2015
1996
1973
1956
1950
1955
1963
1971
1975
1974
1973
1972
1972
1972
1973
1973
1974
1974
1974
1974
1973
1973
1973
1973
1972
1973
1974
1975
1975
1976
1976
1976
1976
1976
1976
1976
1975
1975
1976
1977
1978
1979
1979
1979
1978
1978
1977
1977
1977
1977
1978
1979
1980
1982
1983
1983
1982
1981
1980
1979
1979
1980
1982
1984
1984
1983
1982
1980
1979
1979
1979
1979
1978
1977
1976
1974
1972
1971
1971
1972
1974
1975
1976
1975
1975
1974
1973
1972
1972
1971
1972
1973
1974
1975
1976
1976
1976
1975
1974
1973
1973
1973
1974
1976
1976
1976
1975
1975
1974
1974
1973
1973
1974
1975
1976
1977
1976
1976
1975
1974
1974
1974
1974
1975
1975
1976
1975
1975
1974
1974
1975
1976
1977
1977
1977
1976
1975
1975
1975
1975
1975
1975
1975
1976
1977
1977
1976
1976
1975
1975
1975
1976
1977
1978
1978
1977
1976
1974
1973
1973
1974
1975
1977
1978
1978
1979
1978
1978
1978
1978
1978
1978
1979
1979
1978
1977
1977
1976
1975
1975
1975
1975
1975
1976
1977
1977
1976
1976
1975
1976
1976
1975
1973
1971
1969
1971
1978
1992
2008
2021
2024
2014
1995
1975
1961
1957
1960
1966
1971
1974
1974
1974
1974
1974
1974
1973
1973
1973
1973
1973
1974
1975
1976
1976
1976
1976
1976
1977
1977
1977
1977
1978
1978
1979
1979
1979
1979
1978
1977
1976
1977
1978
1980
1981
1982
1981
1980
1979
1978
1978
1980
1982
1983
1984
1983
1982
1982
1982
1983
1984
1984
1984
1985
1985
1985
1985
1984
1983
1982
1980
1980
1980
1980
1980
1980
1980
1980
1979
1978
1977
1975
1975
1975
1976
1978
1979
1980
1980
1979
1977
1976
1976
1976
1977
1978
1979
1979
1978
1978
1978
1979
1979
1980
1980
1979
1978
1977
1977
1978
1979
1980
1980
1980
1980
1980
1981
1980
1980
1979
1978
1978
1979
1981
1982
1982
1981
1980
1979
1978
1978
1979
1981
1982
1982
1982
1982
1981
1980
1979
1978
1979
1980
1982
1983
1983
1983
1982
1981
1980
1980
1980
1980
1980
1981
1981
1980
1980
1980
1979
1979
1980
1982
1983
1985
1986
1986
1985
1984
1984
1983
1983
1983
1983
1983
1983
1983
1982
1981
1980
1979
1979
1980
1981
1982
1982
1983
1983
1982
1982
1982
1981
1980
1978
1977
1977
1981
1991
2006
2022
2031
2027
2011
1988
1967
1956
1956
1963
1972
1978
1980
1981
1981
1982
1983
1983
1983
1982
1981
1979
1979
1979
1980
1982
1983
1984
1984
1984
1984
1983
1983
1983
1984
1984
1984
1984
1983
1983
1983
1984
1984
1984
1985
1986
1987
1987
1986
1986
1985
1985
1986
1986
1987
1988
1988
1988
1989
1989
1989
1990
1990
1990
1990
1991
1991
1992
1993
1992
1990
1988
1987
1985
1984
1984
1983
1983
1982
1982
1981
1980
1979
1978
1978
1979
1979
1979
1979
1978
1977
1977
1976
1976
1977
1978
1979
1979
1979
1979
1979
1979
1978
1978
1978
1978
1978
1978
1979
1979
1978
1977
1977
1977
1978
1979
1979
1979
1978
1976
1975
1975
1976
1977
1978
1978
1978
1978
1978
1977
1977
1976
1976
1975
1975
1976
1977
1978
1978
1977
1976
1976
1976
1977
1978
1978
1978
1978
1978
1977
1977
1976
1975
1975
1975
1976
1976
1975
1975
1974
1975
1976
1978
1980
1980
1980
1980
1980
1980
1980
1978
1977
1975
1974
1974
1975
1976
1976
1975
1975
1974
1973
1973
1973
1975
1977
1979
1979
1979
1976
1973
1969
1966
1967
1974
1989
2007
2021
2025
2015
1994
1971
1955
1949
1953
1961
1970
1975
1976
1976
1975
1973
1972
1971
1972
1973
1974
1975
1975
1975
1974
1974
1974
1974
1974
1974
1975
1976
1977
1977
1978
1978
1977
1976
1976
1976
1976
1977
1978
1978
1978
1977
1977
1977
1978
1979
1979
1980
1980
1980
1980
1981
1981
1981
1981
1981
1982
1982
1982
1982
1981
1981
1980
1980
1981
1982
1982
1983
1982
1981
1979
1977
1975
1974
1973
1973
1974
1974
1974
1974
1973
1972
1971
1971
1970
1971
1971
1972
1973
1974
1976
1976
1976
1975
1973
1972
1972
1973
1973
1974
1974
1974
1974
1974
1974
1975
1975
1974
1974
1974
1974
1974
1974
1974
1974
1974
1974
1974
1975
1975
1975
1975
1974
1973
1973
1973
1974
1975
1976
1976
1976
1975
1974
1973
1973
1974
1975
1976
1977
1977
1976
1975
1975
1974
1975
1975
1975
1975
1975
1975
1975
1975
1974
1974
1975
1976
1977
1977
1977
1976
1975
1974
1973
1974
1975
1977
1978
1979
1978
1977
1976
1976
1977
1977
1977
1978
1978
1978
1978
1977
1977
1976
1976
1975
1975
1975
1975
1975
1976
1976
1976
1976
1976
1975
1974
1973
1971
1971
1975
1985
2001
2016
2024
2021
2007
1986
1967
1957
1956
1961
1967
1972
1973
1973
1974
1974
1975
1975
1976
1975
1975
1974
1974
1974
1974
1975
1975
1976
1976
1976
1976
1976
1976
1976
1977
1978
1978
1977
1977
1976
1975
1976
1977
1979
1979
1980
1979
1979
1979
1979
1979
1979
1979
1979
1980
1981
1981
1981
1981
1981
1982
1982
1983
1983
1983
1983
1983
1984
1983
1983
1982
1981
1980
1979
1978
1977
1977
1977
1977
1977
1976
1976
1976
1975
1975
1975
1975
1976
1976
1976
1976
1975
1975
1974
1974
1974
1975
1976
1977
1976
1976
1975
1974
1975
1976
1976
1976
1976
1975
1975
1975
1975
1975
1975
1975
1975
1975
1975
1975
1975
1975
1975
1975
1976
1977
1978
1978
1978
1977
1977
1976
1976
1975
1975
1976
1976
1976
1976
1977
1977
1978
1977
1976
1976
1976
1976
1976
1977
1977
1977
1976
1976
1975
1975
1976
1977
1978
1979
1979
1978
1977
1977
1976
1975
1976
1977
1978
1979
1979
1979
1978
1977
1976
1975
1975
1976
1978
1979
1980
1981
1980
1980
1979
1979
1979
1979
1979
1979
1980
1979
1979
1978
1977
1977
1977
1978
1979
1979
1979
1978
1977
1976
1976
1977
1978
1979
1979
1978
1974
1971
1970
1974
1986
2003
2019
2027
2022
2005
1983
1965
1956
1956
1963
1971
1976
1978
1978
1978
1977
1976
1976
1977
1977
1978
1978
1977
1977
1977
1978
1980
1981
1981
1981
1981
1980
1980
1981
1982
1983
1983
1982
1981
1981
1980
1981
1982
1983
1983
1983
1983
1982
1981
1980
1981
1982
1984
1986
1987
1987
1986
1985
1985
1986
1986
1987
1988
1988
1987
1987
1987
1987
1987
1987
1988
1988
1987
1987
1986
1985
1984
1982
1980
1978
1977
1978
1978
1979
1980
1979
1979
1978
1977
1978
1978
1979
1979
1979
1979
1979
1978
1977
1977
1977
1978
1979
1979
1980
1980
1979
1978
1977
1977
1978
1979
1980
1980
1980
1980
1980
1980
1980
1980
1979
1980
1980
1981
1982
1982
1981
1981
1981
1980
1981
1981
1982
1982
1982
1982
1982
1981
1981
1982
1982
1982
1982
1983
1983
1984
1985
1986
1986
1985
1985
1984
1984
1983
1984
1985
1985
1986
1985
1985
1984
1984
1984
1984
1984
1984
1984
1984
1984
1983
1982
1982
1982
1983
1984
1983
1983
1982
1981
1981
1983
1985
1987
1988
1989
1989
1988
1987
1986
1985
1984
1984
1985
1985
1985
1985
1984
1984
1984
1984
1984
1984
1985
1986
1988
1989
1989
1989
1987
1985
1982
1980
1981
1987
2000
2017
2030
2034
2027
2009
1989
1975
1969
1971
1976
1980
1982
1981
1980
1978
1978
1979
1980
1982
1984
1984
1983
1982
1980
1979
1979
1979
1980
1981
1981
1981
1982
1982
1981
1980
1979
1979
1979
1980
1981
1981
1981
1981
1980
1980
1980
1980
1980
1981
1981
1981
1981
1980
1980
1980
1980
1981
1982
1982
1982
1982
1982
1982
1982
1982
1982
1982
1982
1982
1983
1983
1982
1980
1979
1978
1977
1978
1978
1979
1979
1979
1978
1977
1976
1975
1975
1975
1975
1976
1977
1978
1978
1977
1977
1976
1975
1975
1976
1977
1978
1978
1978
1977
1976
1975
1975
1976
1977
1978
1979
1979
1978
1976
1975
1975
1975
1975
1975
1976
1976
1977
1977
1977
1977
1976
1975
1975
1975
1975
1976
1977
1977
1977
1977
1977
1978
1978
1977
1976
1976
1976
1977
1978
1980
1980
1979
1977
1977
1977
1978
1980
1980
1980
1979
1977
1975
1975
1976
1978
1980
1981
1981
1980
1979
1977
1976
1976
1976
1976
1977
1978
1978
1978
1977
1976
1976
1976
1977
1979
1981
1982
1982
1981
1979
1976
1975
1974
1974
1973
1973
1974
1975
1976
1976
1975
1974
1974
1974
1975
1976
1977
1976
1975
1971
1968
1967
1970
1980
1994
2009
2018
2016
2005
1989
1974
1966
1965
1969
1973
1975
1975
1974
1974
1973
1973
1972
1972
1972
1973
1974
1975
1976
1976
1976
1975
1975
1976
1977
1979
1980
1981
1982
1981
1980
1979
1979
1980
1981
1982
1983
1983
1983
1983
1983
1983
1983
1984
1984
1984
1984
1984
1983
1982
1982
1983
1984
1984
1985
1985
1985
1985
1984
1983
1983
1983
1984
1984
1985
1985
1985
1984
1983
1982
1981
1981
1981
1981
1981
1982
1983
1983
1982
1981
1980
1979
1978
1978
1978
1979
1980
1982
1982
1982
1981
1980
1979
1979
1979
1980
1981
1981
1981
1981
1980
1979
1979
1979
1980
1981
1981
1982
1981
1980
1979
1977
1977
1977
1978
1980
1981
1982
1983
1983
1982
1982
1981
1981
1981
1981
1981
1981
1980
1980
1979
1980
1981
1981
1981
1981
1980
1980
1981
1982
1983
1983
1982
1981
1980
1981
1981
1981
1980
1980
1981
1981
1982
1981
1980
1979
1978
1979
1981
1983
1984
1984
1984
1983
1983
1984
1984
1984
1983
1982
1981
1980
1980
1981
1981
1981
1981
1981
1980
1980
1980
1980
1981
1981
1982
1982
1982
1980
1976
1973
1972
1975
1985
2001
2019
2029
2028
2013
1990
1968
1955
1953
1960
1968
1975
1979
1980
1980
1979
1978
1976
1976
1976
1977
1978
1979
1980
1980
1979
1979
1979
1978
1978
1978
1977
1977
1978
1979
1980
1981
1980
1979
1977
1976
1976
1978
1980
1981
1982
1981
1980
1979
1979
1979
1979
1979
1980
1980
1980
1981
1983
1984
1984
1984
1983
1982
1982
1982
1983
1983
1984
1983
1983
1983
1982
1981
1980
1979
1978
1977
1976
1975
1974
1973
1973
1974
1974
1974
1974
1974
1973
1973
1972
1972
1972
1973
1973
1973
1974
1973
1973
1972
1972
1973
1973
1974
1975
1975
1974
1974
1973
1973
1973
1973
1973
1973
1974
1974
1974
1973
1973
1973
1973
1973
1974
1974
1974
1973
1973
1972
1972
1972
1972
1973
1973
1974
1974
1974
1974
1973
1973
1972
1972
1972
1972
1972
1973
1974
1975
1975
1976
1977
1977
1976
1975
1975
1973
1973
1973
1974
1975
1977
1978
1979
1979
1979
1978
1978
1977
1977
1977
1977
1977
1976
1976
1976
1976
1976
1976
1975
1975
1974
1974
1975
1975
1975
1975
1975
1975
1975
1975
1974
1972
1970
1969
1971
1978
1991
2006
2018
2020
2010
1992
1973
1959
1955
1958
1965
1971
1973
1974
1973
1973
1972
1973
1974
1974
1974
1974
1973
1973
1973
1973
1974
1975
1976
1976
1976
1976
1975
1975
1975
1976
1977
1977
1978
1977
1977
1977
1977
1977
1978
1978
1979
1979
1980
1980
1980
1980
1979
1979
1978
1978
1979
1979
1980
1981
1982
1982
1981
1980
1980
1981
1982
1982
1983
1982
1982
1981
1981
1980
1979
1978
1977
1976
1977
1977
1978
1977
1977
1976
1975
1975
1975
1976
1976
1977
1977
1977
1976
1976
1976
1976
1977
1977
1977
1978
1978
1978
1978
1978
1977
1976
1976
1976
1977
1978
1978
1978
1978
1977
1977
1976
1976
1976
1977
1978
1979
1979
1979
1978
1977
1976
1976
1977
1977
1978
1978
1978
1978
1977
1977
1977
1978
1978
1979
1979
1979
1979
1979
1978
1978
1979
1978
1978
1978
1979
1979
1979
1980
1980
1980
1981
1981
1982
1982
1982
1982
1982
1982
1981
1981
1980
1980
1980
1981
1981
1981
1980
1979
1978
1979
1979
1981
1982
1983
1983
1983
1981
1978
1975
1973
1974
1981
1995
2012
2027
2031
2021
2000
1976
1959
1952
1956
1965
1974
1979
1982
1982
1982
1981
1980
1979
1979
1980
1980
1981
1982
1982
1982
1981
1980
1980
1981
1982
1983
1984
1984
1983
1982
1982
1982
1983
1983
1984
1984
1985
1985
1985
1985
1985
1984
1983
1983
1984
1985
1986
1987
1988
1987
1987
1986
1986
1986
1987
1988
1990
1991
1991
1991
1990
1990
1989
1989
1989
1988
1987
1986
1984
1983
1982
1981
1981
1980
1978
1977
1977
1976
1976
1976
1977
1977
1977
1978
1978
1978
1978
1977
1976
1976
1975
1975
1975
1976
1976
1977
1977
1977
1977
1976
1976
1975
1975
1975
1975
1976
1977
1977
1978
1977
1976
1975
1974
1974
1975
1976
1977
1978
1977
1976
1975
1974
1973
1973
1974
1976
1977
1977
1976
1975
1974
1973
1972
1972
1973
1974
1976
1977
1978
1978
1977
1977
1977
1976
1976
1976
1976
1977
1976
1976
1975
1974
1973
1972
1973
1973
1974
1974
1973
1973
1973
1973
1973
1974
1974
1974
1972
1969
1967
1968
1975
1988
2005
2018
2020
2009
1988
1965
1950
1946
1951
1960
1967
1971
1972
1973
1973
1973
1973
1973
1973
1972
1972
1972
1973
1973
1974
1975
1975
1975
1974
1974
1974
1974
1975
1975
1975
1976
1976
1976
1975
1974
1973
1973
1973
1975
1976
1978
1978
1977
1976
1976
1976
1976
1977
1978
1979
1979
1979
1979
1979
1979
1980
1980
1981
1981
1980
1979
1979
1978
1978
1979
1979
1979
1978
1977
1976
1975
1975
1975
1974
1973
1972
1971
1970
1970
1970
1969
1969
1969
1970
1970
1971
1971
1971
1971
1972
1973
1974
1974
1974
1974
1973
1972
1972
1972
1972
1974
1975
1975
1975
1974
1973
1974
1974
1975
1976
1976
1975
1974
1973
1973
1973
1973
1974
1974
1974
1973
1973
1972
1972
1972
1972
1973
1974
1976
1976
1976
1975
1974
1974
1973
1972
1971
1971
1972
1974
1976
1978
1978
1977
1976
1975
1975
1976
1977
1977
1977
1976
1975
1974
1973
1972
1972
1973
1974
1975
1976
1976
1975
1975
1974
1975
1976
1977
1977
1975
1971
1968
1968
1976
1990
2006
2017
2019
2008
1989
1971
1959
1957
1961
1968
1972
1974
1974
1974
1974
1974
1975
1975
1976
1975
1975
1974
1973
1973
1974
1974
1974
1974
1974
1974
1974
1975
1975
1975
1975
1976
1977
1978
1978
1977
1976
1976
1976
1976
1976
1976
1975
1975
1976
1976
1977
1977
1978
1978
1979
1979
1979
1978
1978
1977
1977
1978
1979
1980
1981
1982
1981
1980
1979
1977
1975
1974
1973
1973
1975
1977
1979
1979
1978
1976
1973
1971
1970
1970
1971
1973
1974
1974
1973
1972
1972
1972
1973
1973
1973
1973
1972
1972
1971
1971
1971
1972
1973
1974
1975
1975
1974
1974
1973
1972
1972
1972
1973
1973
1973
1972
1972
1972
1972
1972
1973
1973
1973
1973
1973
1974
1974
1974
1973
1973
1973
1973
1973
1973
1973
1973
1972
1972
1972
1973
1974
1975
1977
1978
1979
1979
1979
1979
1978
1977
1976
1975
1976
1976
1976
1976
1975
1975
1975
1975
1975
1976
1976
1977
1977
1978
1978
1978
1977
1976
1973
1971
1971
1976
1987
2002
2014
2018
2011
1995
1977
1963
1959
1962
1968
1973
1977
1977
1977
1976
1976
1976
1976
1977
1978
1978
1979
1979
1979
1979
1979
1978
1978
1979
1980
1981
1982
1982
1981
1980
1979
1979
1980
1981
1982
1983
1983
1982
1982
1981
1981
1982
1983
1984
1984
1984
1983
1983
1983
1984
1985
1986
1987
1986
1986
1986
1986
1986
1985
1985
1985
1985
1986
1987
1988
1988
1987
1986
1984
1983
1982
1982
1982
1982
1982
1981
1981
1981
1980
1979
1979
1978
1979
1980
1981
1982
1982
1982
1980
1979
1979
1980
1981
1982
1982
1982
1981
1980
1979
1979
1979
1981
1982
1982
1983
1982
1982
1982
1982
1982
1981
1982
1982
1983
1984
1984
1984
1983
1983
1984
1984
1984
1984
1983
1982
1981
1980
1980
1980
1982
1983
1985
1986
1986
1986
1986
1985
1984
1983
1983
1982
1982
1983
1983
1983
1984
1984
1984
1984
1983
1982
1981
1982
1983
1984
1985
1985
1983
1981
1979
1977
1976
1978
1985
1998
2014
2025
2025
2014
1994
1975
1963
1961
1967
1975
1980
1983
1984
1984
1984
1984
1983
1983
1983
1984
1984
1985
1985
1986
1985
1985
1984
1984
1985
1986
1987
1987
1986
1984
1983
1982
1982
1983
1985
1986
1986
1987
1986
1985
1984
1983
1984
1985
1987
1988
1988
1987
1987
1986
1986
1987
1988
1990
1991
1991
1991
1990
1988
1988
1988
1989
1990
1992
1993
1992
1991
1988
1986
1984
1983
1984
1985
1986
1985
1984
1983
1982
1981
1981
1981
1980
1981
1981
1982
1983
1983
1982
1980
1979
1978
1979
1980
1981
1983
1985
1985
1984
1983
1981
1980
1980
1980
1981
1982
1981
1981
1981
1981
1981
1980
1979
1978
1979
1981
1984
1985
1985
1983
1982
1980
1979
1979
1979
1978
1979
1979
1979
1980
1980
1981
1983
1984
1985
1985
1983
1982
1982
1982
1980
1979
1977
1976
1977
1980
1982
1983
1983
1981
1980
1978
1977
1976
1976
1977
1978
1980
1979
1978
1975
1972
1972
1976
1987
2002
2017
2024
2018
2002
1981
1964
1957
1960
1968
1975
1979
1980
1979
1978
1976
1975
1974
1974
1975
1977
1978
1979
1979
1979
1978
1977
1975
1975
1975
1975
1977
1978
1978
1978
1977
1977
1977
1977
1978
1979
1980
1980
1980
1979
1978
1976
1975
1975
1976
1977
1978
1979
1979
1979
1979
1979
1980
1980
1981
1981
1981
1981
1980
1979
1978
1977
1976
1976
1976
1977
1977
1977
1976
1975
1973
1972
1971
1970
1970
1970
1971
1971
1971
1971
1971
1971
1970
1970
1970
1971
1972
1972
1972
1971
1971
1970
1970
1971
1972
1972
1973
1972
1972
1971
1971
1971
1971
1972
1973
1974
1974
1973
1970
1968
1968
1969
1972
1975
1977
1978
1977
1974
1971
1968
1967
1967
1970
1973
1976
1977
1976
1975
1973
1972
1972
1973
1975
1977
1978
1979
1979
1978
1978
1978
1978
1977
1976
1975
1975
1976
1976
1977
1977
1976
1976
1976
1976
1977
1977
1978
1978
1979
1980
1979
1977
1974
1971
1971
1977
1990
2006
2020
2025
2016
1997
1975
1959
1953
1957
1965
1973
1976
1976
1975
1975
1975
1975
1975
1976
1977
1977
1977
1977
1976
1976
1975
1975
1975
1976
1977
1979
1980
1979
1979
1977
1977
1977
1978
1980
1981
1982
1982
1982
1981
1980
1979
1979
1979
1980
1981
1982
1983
1984
1984
1982
1981
1981
1981
1983
1984
1986
1986
1986
1984
1983
1981
1980
1979
1980
1980
1981
1982
1983
1983
1982
1981
1979
1977
1976
1976
1976
1976
1975
1974
1973
1972
1973
1975
1976
1977
1978
1978
1977
1976
1975
1974
1974
1974
1975
1976
1976
1977
1977
1977
1976
1976
1976
1976
1976
1976
1976
1976
1975
1974
1974
1974
1975
1976
1976
1977
1977
1977
1976
1975
1973
1972
1972
1974
1975
1977
1978
1978
1977
1977
1977
1978
1978
1977
1976
1976
1977
1978
1979
1980
1979
1977
1976
1975
1976
1976
1977
1978
1978
1977
1976
1976
1975
1974
1974
1974
1975
1976
1976
1975
1973
1970
1969
1971
1979
1994
2011
2023
2023
2010
1987
1964
1950
1946
1952
1961
1969
1973
1973
1972
1971
1969
1968
1969
1970
1971
1971
1971
1971
1971
1970
1970
1969
1970
1971
1972
1972
1972
1971
1970
1969
1968
1969
1969
1970
1971
1972
1972
1971
1971
1970
1970
1970
1970
1970
1971
1972
1973
1974
1974
1973
1973
1972
1973
1975
1976
1977
1977
1976
1976
1976
1976
1976
1977
1977
1976
1975
1974
1973
1971
1970
1969
1968
1967
1967
1967
1967
1967
1966
1965
1964
1964
1965
1965
1966
1966
1967
1968
1968
1968
1966
1965
1964
1964
1965
1967
1968
1968
1969
1969
1969
1968
1967
1967
1967
1968
1969
1969
1968
1968
1967
1967
1967
1968
1969
1969
1970
1969
1969
1969
1969
1968
1968
1968
1968
1969
1970
1970
1970
1970
1970
1969
1969
1969
1969
1970
1970
1970
1969
1968
1968
1968
1969
1971
1973
1974
1975
1974
1974
1973
1972
1972
1971
1971
1971
1971
1971
1972
1972
1972
1972
1971
1971
1971
1971
1971
1972
1973
1973
1972
1970
1967
1965
1965
1969
1980
1997
2014
2023
2019
2001
1977
1957
1947
1948
1955
1964
1969
1971
1972
1972
1971
1970
1970
1971
1972
1972
1972
1971
1971
1970
1970
1970
1970
1970
1971
1972
1973
1973
1972
1972
1971
1971
1972
1972
1973
1974
1974
1975
1975
1974
1974
1973
1974
1975
1975
1976
1976
1976
1976
1976
1976
1976
1976
1977
1977
1978
1979
1979
1979
1979
1979
1979
1979
1979
1979
1979
1978
1977
1976
1974
1973
1971
1970
1970
1970
1970
1970
1970
1969
1969
1969
1969
1969
1969
1970
1971
1971
1971
1971
1970
1970
1969
1969
1970
1971
1972
1972
1972
1971
1971
1971
1972
1972
1973
1973
1972
1972
1973
1973
1973
1973
1972
1972
1973
1973
1974
1974
1974
1974
1973
1974
1974
1973
1973
1973
1974
1975
1975
1975
1974
1973
1973
1974
1975
1976
1977
1977
1976
1975
1973
1972
1972
1973
1974
1975
1976
1977
1977
1978
1978
1977
1977
1977
1978
1978
1978
1977
1976
1976
1975
1975
1975
1976
1976
1976
1976
1977
1977
1977
1976
1975
1975
1975
1976
1977
1977
1976
1974
1970
1968
1970
1980
1996
2014
2026
2026
2011
1988
1966
1952
1950
1956
1966
1973
1976
1977
1977
1976
1975
1974
1975
1975
1976
1976
1976
1977
1977
1977
1977
1976
1975
1974
1974
1975
1977
1978
1979
1979
1978
1978
1977
1977
1977
1977
1978
1979
1979
1980
1979
1978
1978
1977
1978
1979
1980
1980
1981
1981
1981
1981
1981
1982
1982
1982
1983
1983
1983
1983
1982
1982
1981
1981
1981
1981
1980
1979
1978
1978
1976
1975
1974
1973
1973
1973
1973
1973
1972
1972
1972
1971
1971
1971
1971
1972
1972
1972
1972
1973
1973
1973
1972
1972
1973
1974
1974
1975
1975
1974
1973
1973
1972
1972
1973
1974
1974
1975
1975
1974
1974
1973
1973
1973
1973
1974
1974
1974
1974
1974
1973
1973
1973
1973
1973
1974
1974
1975
1975
1975
1974
1973
1973
1973
1973
1974
1975
1975
1975
1975
1974
1974
1974
1975
1975
1975
1975
1974
1974
1974
1974
1975
1974
1974
1973
1973
1974
1975
1975
1974
1973
1973
1972
1973
1973
1975
1976
1977
1978
1978
1977
1977
1976
1976
1976
1976
1975
1975
1974
1974
1974
1974
1974
1974
1974
1974
1974
1975
1975
1976
1975
1975
1974
1974
1972
1970
1968
1968
1973
1985
2002
2018
2024
2018
2000
1978
1960
1952
1954
1961
1968
1972
1973
1973
1972
1972
1972
1972
1972
1972
1972
1972
1972
1972
1972
1973
1973
1974
1975
1975
1974
1974
1973
1974
1974
1975
1975
1975
1975
1975
1975
1976
1976
1976
1976
1976
1977
1977
1977
1977
1977
1976
1976
1977
1978
1979
1980
1980
1980
1980
1980
1981
1981
1982
1982
1982
1982
1981
1981
1980
1980
1979
1978
1978
1976
1976
1975
1975
1975
1974
1974
1973
1972
1971
1972
1972
1973
1974
1974
1974
1973
1972
1972
1972
1972
1972
1973
1973
1974
1975
1975
1974
1974
1973
1973
1974
1974
1975
1975
1975
1974
1974
1973
1974
1974
1974
1975
1975
1976
1976
1976
1975
1974
1973
1973
1973
1975
1975
1975
1974
1974
1973
1973
1974
1975
1975
1975
1975
1976
1976
1975
1975
1974
1973
1973
1974
1975
1976
1976
1976
1976
1976
1975
1975
1975
1975
1976
1976
1977
1976
1976
1975
1974
1974
1975
1976
1977
1977
1978
1978
1977
1977
1976
1975
1975
1976
1977
1977
1978
1978
1977
1977
1976
1976
1976
1976
1976
1976
1976
1976
1976
1976
1975
1976
1978
1979
1980
1981
1980
1979
1978
1977
1977
1977
1976
1976
1976
1976
1976
1977
1977
1977
1976
1976
1975
1975
1976
1977
1978
1978
1978
1976
1973
1969
1968
1970
1979
1995
2012
2025
2026
2015
1994
1973
1959
1955
1959
1967
1972
1975
1975
1974
1973
1973
1973
1974
1974
1974
1975
1975
1975
1975
1974
1974
1974
1975
1976
1977
1977
1977
1976
1976
1976
1976
1976
1977
1978
1978
1979
1978
1978
1977
1977
1977
1977
1979
1980
1980
1980
1980
1980
1980
1980
1980
1981
1982
1982
1982
1982
1982
1981
1981
1982
1982
1983
1984
1984
1983
1982
1981
1980
1980
1979
1978
1977
1976
1976
1976
1976
1975
1975
1975
1974
1974
1973
1973
1973
1974
1974
1975
1974
1973
1973
1972
1973
1974
1974
1975
1975
1975
1975
1974
1974
1974
1974
1975
1976
1976
1976
1976
1975
1975
1974
1974
1974
1974
1975
1976
1977
1977
1976
1975
1974
1974
1975
1975
1976
1976
1976
1976
1976
1975
1974
1974
1974
1975
1977
1977
1978
1977
1977
1976
1976
1976
1976
1977
1977
1978
1978
1977
1977
1976
1975
1976
1976
1977
1978
1978
1978
1978
1977
1977
1976
1976
1976
1977
1978
1979
1979
1979
1978
1977
1976
1976
1976
1976
1977
1977
1978
1978
1977
1977
1976
1977
1978
1979
1981
1981
1981
1981
1980
1979
1979
1978
1978
1978
1979
1979
1979
1979
1979
1978
1977
1976
1976
1976
1977
1978
1979
1979
1979
1979
1978
1976
1974
1971
1971
1976
1987
2004
2020
2028
2024
2007
1986
1967
1957
1958
1964
1970
1975
1976
1976
1976
1976
1976
1976
1976
1977
1977
1978
1978
1977
1977
1977
1977
1978
1978
1979
1979
1979
1979
1978
1978
1978
1979
1979
1980
1981
1980
1980
1979
1979
1979
1980
1981
1982
1982
1982
1982
1982
1982
1982
1982
1982
1982
1982
1984
1985
1986
1986
1986
1985
1985
1985
1986
1986
1986
1986
1985
1984
1983
1982
1982
1981
1981
1981
1981
1980
1979
1978
1977
1976
1976
1977
1977
1978
1978
1978
1978
1978
1978
1977
1977
1977
1978
1978
1979
1979
1979
1979
1979
1978
1978
1978
1979
1979
1980
1980
1979
1979
1978
1977
1977
1977
1978
1979
1980
1980
1979
1978
1977
1977
1977
1977
1978
1979
1980
1980
1980
1980
1979
1978
1978
1978
1978
1979
1979
1979
1979
1979
1980
1980
1980
1980
1980
1980
1981
1981
1981
1980
1980
1979
1979
1979
1979
1980
1980
1980
1980
1980
1979
1979
1979
1978
1978
1979
1979
1979
1979
1979
1979
1978
1978
1977
1977
1978
1978
1979
1979
1980
1980
1981
1982
1982
1982
1982
1982
1982
1981
1981
1980
1980
1979
1978
1979
1979
1980
1980
1980
1979
1978
1978
1977
1978
1979
1979
1980
1980
1980
1978
1975
1972
1971
1976
1989
2007
2024
2032
2026
2007
1981
1961
1951
1952
1961
1969
1976
1978
1978
1978
1977
1976
1976
1976
1976
1977
1978
1978
1978
1978
1977
1977
1976
1976
1977
1978
1979
1979
1980
1979
1979
1978
1978
1978
1978
1978
1979
1979
1979
1979
1979
1979
1980
1980
1980
1980
1981
1982
1983
1983
1982
1982
1982
1982
1983
1985
1986
1986
1986
1985
1985
1984
1983
1983
1984
1984
1985
1984
1983
1981
1979
1977
1976
1975
1975
1975
1975
1975
1974
1974
1973
1973
1973
1973
1973
1973
1973
1973
1973
1973
1973
1973
1972
1972
1972
1973
1974
1975
1975
1974
1973
1972
1972
1973
1974
1975
1975
1975
1974
1974
1973
1973
1972
1973
1973
1974
1974
1974
1974
1974
1973
1972
1972
1972
1972
1972
1973
1973
1973
1973
1973
1974
1974
1973
1973
1972
1972
1973
1974
1974
1974
1973
1972
1972
1973
1974
1974
1974
1974
1973
1972
1972
1973
1974
1974
1974
1974
1973
1973
1973
1973
1973
1972
1973
1973
1973
1973
1973
1973
1973
1974
1974
1974
1975
1976
1976
1977
1977
1976
1976
1975
1975
1974
1974
1973
1973
1974
1974
1974
1973
1972
1972
1971
1972
1973
1974
1974
1975
1975
1974
1972
1969
1966
1967
1974
1987
2005
2021
2026
2019
2000
1977
1960
1952
1954
1961
1968
1973
1974
1974
1973
1972
1971
1971
1971
1972
1973
1974
1974
1974
1974
1973
1973
1973
1973
1974
1975
1975
1975
1975
1974
1973
1973
1974
1976
1977
1978
1978
1977
1977
1976
1976
1976
1976
1977
1977
1978
1978
1978
1978
1978
1978
1979
1980
1980
1981
1982
1982
1983
1982
1981
1980
1980
1980
1981
1982
1983
1983
1982
1980
1978
1977
1976
1975
1976
1976
1976
1976
1975
1974
1973
1972
1973
1973
1974
1975
1976
1976
1976
1976
1975
1974
1974
1974
1975
1976
1976
1976
1976
1976
1975
1975
1975
1975
1976
1976
1976
1976
1975
1975
1975
1974
1974
1974
1975
1975
1976
1976
1976
1975
1975
1974
1974
1974
1975
1976
1977
1977
1976
1976
1975
1975
1975
1975
1976
1976
1976
1976
1976
1976
1975
1975
1975
1975
1975
1976
1977
1977
1977
1976
1975
1975
1974
1974
1975
1976
1976
1977
1977
1976
1975
1975
1974
1974
1975
1976
1976
1977
1977
1976
1975
1974
1974
1974
1974
1976
1977
1978
1979
1979
1978
1978
1977
1977
1977
1977
1977
1977
1977
1977
1976
1975
1975
1975
1975
1975
1976
1977
1976
1976
1975
1975
1975
1976
1976
1975
1973
1970
1969
1972
1982
1998
2015
2026
2025
2011
1989
1969
1957
1955
1960
1967
1972
1973
1974
1974
1974
1973
1973
1973
1973
1973
1973
1973
1974
1975
1975
1976
1976
1976
1975
1975
1975
1975
1975
1976
1976
1977
1977
1977
1976
1976
1976
1976
1977
1978
1979
1979
1978
1978
1977
1978
1978
1979
1980
1981
1981
1981
1981
1981
1982
1981
1981
1982
1982
1983
1984
1984
1984
1983
1982
1981
1981
1982
1982
1982
1981
1980
1979
1977
1976
1976
1975
1975
1976
1976
1977
1976
1976
1975
1975
1975
1975
1975
1976
1976
1977
1977
1977
1976
1976
1975
1975
1976
1976
1977
1978
1979
1978
1977
1976
1976
1976
1976
1977
1977
1978
1978
1978
1978
1978
1977
1977
1977
1977
1978
1978
1978
1978
1978
1978
1977
1976
1976
1977
1978
1979
1979
1979
1978
1977
1977
1976
1977
1977
1978
1979
1979
1979
1979
1978
1978
1977
1978
1978
1979
1980
1980
1980
1980
1980
1979
1979
1979
1979
1980
1980
1981
1981
1980
1979
1978
1976
1975
1976
1978
1981
1983
1984
1984
1983
1981
1981
1981
1982
1983
1983
1983
1983
1982
1981
1980
1979
1979
1979
1980
1980
1980
1980
1980
1979
1979
1980
1981
1982
1981
1979
1975
1973
1974
1982
1996
2014
2029
2032
2022
2000
1977
1960
1954
1958
1966
1973
1977
1979
1979
1980
1980
1980
1979
1979
1979
1979
1979
1980
1980
1980
1980
1981
1981
1981
1980
1980
1980
1980
1981
1982
1982
1982
1982
1981
1981
1981
1981
1982
1983
1983
1984
1984
1983
1983
1982
1982
1982
1983
1984
1985
1986
1986
1985
1984
1984
1985
1985
1986
1988
1988
1989
1989
1988
1987
1985
1984
1984
1983
1983
1983
1982
1981
1980
1979
1978
1977
1977
1976
1976
1977
1977
1977
1976
1976
1975
1975
1975
1976
1977
1977
1977
1976
1976
1976
1975
1975
1975
1976
1976
1977
1977
1977
1976
1975
1974
1974
1974
1974
1975
1977
1977
1977
1976
1975
1975
1975
1976
1976
1977
1977
1976
1976
1975
1975
1974
1974
1975
1975
1976
1976
1976
1975
1974
1974
1973
1973
1974
1975
1976
1976
1976
1976
1976
1975
1975
1974
1974
1974
1975
1975
1975
1975
1975
1975
1974
1974
1974
1974
1974
1974
1974
1974
1974
1975
1975
1976
1976
1977
1977
1978
1978
1978
1977
1976
1975
1974
1974
1974
1974
1974
1975
1974
1974
1973
1972
1973
1973
1974
1975
1976
1976
1976
1974
1972
1968
1966
1968
1976
1991
2009
2023
2026
2015
1994
1970
1954
1949
1954
1962
1969
1972
1973
1973
1972
1971
1971
1971
1972
1973
1973
1973
1973
1973
1973
1973
1973
1973
1974
1974
1975
1975
1975
1975
1975
1975
1975
1975
1975
1975
1976
1976
1976
1976
1975
1975
1976
1976
1976
1977
1978
1978
1978
1978
1978
1978
1978
1978
1979
1980
1981
1981
1981
1981
1980
1979
1979
1980
1980
1981
1981
1981
1980
1979
1977
1976
1975
1975
1974
1974
1974
1974
1973
1973
1972
1972
1972
1972
1972
1973
1973
1973
1973
1973
1973
1973
1973
1973
1973
1973
1974
1974
1975
1974
1974
1973
1973
1974
1974
1975
1975
1975
1975
1974
1973
1973
1973
1973
1973
1974
1975
1975
1975
1975
1974
1974
1974
1974
1974
1975
1975
1975
1974
1974
1974
1974
1974
1974
1974
1975
1976
1976
1976
1976
1975
1974
1974
1974
1974
1975
1976
1976
1975
1975
1975
1975
1976
1976
1976
1977
1977
1976
1976
1976
1975
1975
1975
1975
1975
1975
1976
1976
1976
1976
1975
1974
1974
1974
1975
1976
1977
1978
1978
1978
1978
1978
1977
1978
1978
1979
1979
1979
1978
1977
1975
1975
1975
1975
1976
1977
1977
1977
1976
1976
1975
1975
1976
1976
1976
1975
1974
1971
1970
1970
1976
1989
2006
2022
2028
2021
2002
1980
1961
1953
1955
1961
1968
1972
1974
1975
1975
1975
1975
1974
1974
1974
1973
1973
1974
1975
1975
1976
1976
1975
1975
1974
1974
1974
1975
1976
1977
1977
1978
1978
1978
1977
1976
1976
1976
1976
1977
1978
1978
1978
1978
1978
1978
1979
1979
1980
1980
1980
1980
1980
1981
1981
1981
1982
1982
1982
1983
1983
1982
1982
1982
1981
1981
1981
1981
1980
1980
1980
1978
1977
1976
1975
1974
1974
1974
1975
1975
1975
1975
1974
1974
1973
1973
1973
1974
1975
1975
1976
1976
1975
1975
1975
1975
1976
1976
1977
1977
1977
1976
1974
1973
1972
1973
1975
1977
1978
1979
1979
1978
1977
1976
1976
1976
1976
1976
1976
1976
1976
1976
1976
1976
1975
1975
1974
1974
1975
1975
1976
1976
1976
1976
1975
1974
1974
1974
1975
1975
1976
1976
1976
1976
1976
1976
1976
1977
1977
1977
1977
1977
1976
1976
1975
1975
1975
1976
1977
1978
1978
1978
1977
1976
1975
1975
1975
1976
1977
1978
1978
1977
1976
1976
1975
1976
1977
1979
1980
1981
1981
1981
1980
1979
1978
1978
1977
1977
1977
1977
1977
1977
1977
1977
1976
1976
1976
1977
1977
1978
1978
1978
1978
1977
1976
1975
1972
1969
1970
1974
1985
2002
2017
2026
2023
2008
1987
1968
1957
1956
1960
1967
1972
1975
1975
1976
1976
1975
1975
1974
1974
1975
1976
1976
1975
1974
1973
1974
1977
1980
1982
1981
1979
1977
1976
1976
1977
1978
1978
1978
1978
1977
1977
1977
1977
1979
1981
1982
1982
1981
1979
1978
1977
1977
1978
1980
1981
1983
1983
1984
1983
1983
1983
1983
1982
1981
1981
1983
1985
1986
1985
1981
1976
1972
1973
1977
1981
1983
1981
1978
1974
1972
1974
1976
1979
1981
1981
1980
1977
1974
1970
1967
1967
1971
1977
1985
1991
1991
1986
1975
1964
1959
1962
1970
1981
1990
1993
1989
1980
1971
1964
1965
1972
1979
1980
1975
1966
1960
1962
1971
1981
1986
1981
1970
1957
1951
1954
1965
1979
1988
1990
1983
1972
1962
1959
1962
1970
1978
1981
1977
1967
1957
1954
1958
1969
1979
1984
1982
1975
1967
1961
1959
1961
1964
1968
1972
1975
1975
1973
1970
1969
1968
1969
1971
1972
1972
1970
1966
1963
1962
1964
1967
1972
1974
1974
1971
1968
1966
1967
1969
1971
1972
1970
1968
1964
1961
1959
1960
1962
1966
1970
1972
1971
1967
1962
1957
1954
1954
1956
1959
1963
1964
1963
1959
1954
1950
1949
1954
1966
1982
1998
2006
2003
1988
1967
1949
1939
1937
1941
1946
1949
1950
1951
1952
1953
1953
1954
1955
1957
1957
1957
1956
1955
1955
1954
1955
1955
1955
1956
1956
1957
1958
1959
1960
1961
1961
1961
1961
1960
1959
1960
1961
1962
1963
1963
1963
1963
1963
1963
1962
1961
1961
1962
1964
1966
1968
1969
1970
1970
1971
1972
1973
1973
1972
1971
1970
1970
1971
1972
1974
1976
1975
1974
1972
1970
1969
1969
1969
1969
1969
1968
1967
1967
1967
1967
1968
1968
1969
1970
1970
1970
1970
1969
1970
1971
1972
1972
1973
1973
1974
1974
1974
1974
1973
1973
1974
1975
1977
1978
1978
1979
1978
1978
1978
1977
1977
1976
1977
1977
1978
1978
1978
1977
1977
1977
1977
1978
1979
1980
1981
1981
1980
1979
1978
1978
1978
1978
1977
1976
1975
1975
1976
1976
1975
1975
1975
1976
1979
1981
1980
1977
1974
1973
1976
1979
1982
1983
1981
1979
1978
1978
1980
1980
1980
1979
1978
1977
1978
1980
1982
1982
1982
1981
1979
1977
1976
1975
1976
1976
1977
1977
1977
1977
1977
1978
1978
1978
1978
1978
1979
1980
1979
1976
1972
1969
1969
1978
1993
2012
2025
2027
2015
1994
1973
1959
1955
1959
1966
1971
1975
1976
1977
1975
1974
1972
1972
1973
1975
1977
1978
1977
1975
1973
1972
1973
1975
1978
1980
1980
1978
1977
1977
1977
1977
1977
1976
1977
1977
1978
1979
1979
1979
1977
1976
1976
1977
1979
1980
1980
1979
1978
1978
1979
1980
1982
1982
1983
1982
1982
1982
1981
1981
1982
1981
1981
1981
1980
1980
1980
1981
1982
1982
1981
1979
1977
1976
1976
1976
1976
1975
1974
1973
1973
1973
1973
1973
1974
1975
1977
1978
1978
1977
1975
1974
1974
1976
1978
1979
1979
1979
1978
1976
1975
1974
1973
1972
1973
1973
1974
1975
1975
1974
1973
1973
1973
1973
1974
1975
1976
1976
1975
1974
1973
1971
1970
1970
1971
1973
1974
1975
1975
1974
1973
1972
1972
1972
1973
1974
1974
1975
1974
1974
1973
1973
1973
1973
1973
1973
1973
1974
1975
1976
1976
1976
1975
1974
1973
1974
1974
1975
1975
1975
1975
1974
1974
1975
1976
1977
1978
1979
1978
1977
1976
1975
1974
1974
1974
1974
1974
1974
1975
1975
1975
1976
1975
1975
1974
1974
1973
1974
1975
1975
1972
1969
1966
1967
1974
1989
2007
2021
2024
2015
1996
1975
1960
1955
1957
1964
1970
1973
1974
1974
1973
1971
1970
1970
1971
1973
1973
1974
1974
1974
1974
1974
1974
1974
1974
1974
1974
1975
1975
1975
1976
1977
1977
1977
1978
1977
1977
1977
1977
1977
1977
1977
1977
1977
1977
1978
1978
1979
1979
1979
1979
1979
1979
1980
1980
1981
1981
1982
1982
1982
1982
1981
1980
1980
1981
1982
1984
1984
1984
1982
1980
1979
1977
1976
1976
1976
1976
1976
1976
1976
1976
1975
1975
1974
1974
1975
1976
1976
1977
1977
1977
1976
1975
1975
1975
1976
1977
1977
1977
1977
1977
1976
1976
1977
1977
1978
1979
1980
1979
1978
1976
1975
1975
1976
1976
1977
1978
1978
1979
1979
1978
1978
1977
1976
1976
1977
1978
1978
1979
1979
1979
1978
1978
1977
1978
1978
1979
1980
1980
1980
1979
1979
1978
1978
1978
1978
1979
1980
1981
1981
1980
1978
1977
1976
1977
1978
1979
1979
1980
1980
1980
1981
1982
1982
1982
1982
1983
1983
1984
1983
1982
1980
1979
1979
1978
1979
1980
1980
1980
1980
1979
1978
1978
1978
1978
1979
1980
1981
1981
1980
1976
1972
1970
1972
1982
1999
2018
2030
2030
2015
1992
1971
1958
1955
1961
1970
1976
1979
1979
1978
1977
1977
1976
1976
1976
1976
1977
1978
1979
1980
1980
1979
1978
1977
1978
1978
1979
1980
1980
1980
1979
1979
1979
1980
1980
1980
1980
1979
1979
1980
1980
1981
1982
1982
1982
1981
1981
1982
1982
1983
1983
1983
1983
1983
1984
1984
1986
1987
1987
1987
1987
1986
1986
1985
1984
1984
1984
1984
1984
1984
1983
1981
1978
1976
1976
1976
1977
1978
1978
1978
1978
1977
1976
1976
1975
1975
1976
1977
1977
1977
1977
1976
1975
1975
1975
1976
1977
1978
1978
1977
1977
1976
1976
1975
1975
1975
1975
1976
1977
1978
1977
1976
1975
1975
1975
1976
1976
1977
1977
1977
1977
1977
1975
1974
1974
1974
1975
1976
1977
1977
1977
1976
1975
1974
1974
1975
1976
1977
1977
1977
1976
1976
1975
1975
1975
1975
1976
1976
1976
1976
1976
1975
1976
1976
1978
1979
1980
1980
1980
1979
1979
1978
1977
1977
1976
1976
1976
1976
1977
1978
1978
1977
1975
1975
1975
1976
1976
1976
1977
1977
1977
1977
1974
1971
1968
1968
1971
1980
1995
2012
2024
2027
2016
1996
1975
1959
1954
1957
1963
1970
1973
1974
1973
1973
1972
1973
1974
1975
1976
1976
1975
1974
1973
1973
1973
1974
1975
1976
1977
1976
1976
1975
1974
1974
1974
1975
1976
1977
1977
1976
1975
1975
1975
1975
1975
1976
1977
1978
1979
1978
1978
1977
1977
1977
1977
1978
1979
1980
1980
1981
1981
1981
1981
1981
1981
1981
1981
1981
1981
1980
1979
1979
1978
1978
1977
1977
1976
1975
1974
1974
1974
1973
1972
1972
1972
1973
1974
1975
1975
1974
1973
1973
1973
1973
1973
1974
1975
1976
1976
1975
1974
1973
1973
1973
1973
1974
1974
1975
1975
1975
1974
1974
1974
1975
1975
1975
1975
1975
1975
1975
1975
1975
1974
1974
1974
1974
1975
1976
1976
1975
1975
1974
1974
1974
1975
1975
1976
1976
1976
1976
1976
1975
1974
1974
1975
1976
1977
1978
1977
1977
1977
1976
1976
1975
1975
1975
1976
1978
1979
1980
1981
1980
1979
1979
1979
1980
1982
1983
1982
1981
1979
1978
1978
1978
1979
1980
1980
1980
1980
1980
1980
1978
1977
1976
1977
1980
1982
1983
1982
1979
1975
1975
1979
1991
2008
2025
2034
2029
2012
1988
1969
1959
1959
1965
1972
1977
1979
1980
1981
1981
1980
1979
1978
1979
1979
1981
1981
1982
1982
1982
1982
1981
1981
1981
1981
1982
1982
1982
1983
1982
1982
1982
1982
1982
1983
1984
1985
1985
1985
1985
1984
1984
1984
1985
1986
1986
1987
1987
1987
1987
1988
1988
1989
1989
1990
1991
1991
1991
1991
1991
1991
1991
1990
1990
1989
1989
1990
1990
1990
1990
1988
1987
1986
1985
1984
1983
1983
1982
1982
1982
1983
1983
1983
1983
1983
1984
1985
1986
1986
1986
1985
1983
1982
1982
1982
1983
1983
1983
1983
1984
1985
1986
1985
1985
1984
1983
1984
1986
1988
1989
1989
1988
1987
1986
1985
1985
1985
1985
1984
1984
1983
1982
1983
1983
1984
1984
1984
1984
1983
1983
1982
1982
1982
1981
1981
1981
1981
1981
1982
1982
1982
1982
1983
1984
1984
1984
1985
1984
1984
1983
1983
1982
1981
1980
1980
1980
1981
1982
1982
1982
1980
1979
1978
1978
1978
1980
1981
1982
1982
1982
1980
1977
1973
1971
1972
1980
1996
2016
2031
2034
2020
1995
1969
1951
1947
1953
1963
1972
1976
1978
1978
1978
1977
1977
1977
1977
1978
1978
1979
1979
1978
1978
1978
1978
1978
1978
1978
1979
1980
1980
1981
1980
1979
1978
1978
1978
1979
1980
1980
1980
1980
1980
1979
1979
1979
1979
1980
1980
1981
1982
1982
1982
1982
1983
1985
1986
1986
1985
1984
1984
1984
1985
1985
1986
1985
1984
1983
1983
1982
1981
1980
1978
1976
1975
1974
1973
1973
1972
1972
1972
1971
1970
1969
1968
1969
1970
1971
1972
1972
1971
1971
1970
1970
1970
1971
1971
1971
1972
1972
1972
1972
1972
1971
1971
1970
1971
1972
1973
1974
1974
1973
1972
1971
1971
1971
1971
1972
1973
1974
1974
1974
1973
1972
1972
1971
1971
1971
1971
1972
1973
1973
1972
1972
1971
1971
1971
1972
1973
1974
1973
1973
1971
1970
1970
1970
1971
1972
1973
1974
1975
1976
1975
1975
1974
1974
1975
1976
1976
1976
1975
1974
1973
1972
1971
1971
1971
1971
1971
1972
1972
1972
1972
1972
1973
1974
1975
1976
1975
1973
1969
1965
1965
1969
1982
2000
2017
2026
2021
2003
1981
1962
1953
1953
1959
1966
1971
1973
1974
1974
1972
1971
1970
1969
1970
1971
1973
1974
1975
1976
1975
1974
1973
1972
1972
1972
1973
1974
1975
1976
1976
1975
1974
1973
1973
1973
1974
1976
1977
1977
1977
1976
1976
1976
1976
1977
1978
1979
1979
1979
1978
1978
1978
1978
1979
1980
1980
1980
1980
1981
1981
1981
1981
1980
1979
1978
1978
1978
1978
1978
1977
1976
1974
1973
1973
1973
1973
1974
1974
1974
1974
1973
1973
1973
1973
1973
1973
1973
1973
1974
1974
1974
1974
1974
1974
1974
1974
1974
1974
1973
1973
1973
1973
1973
1973
1973
1973
1973
1974
1975
1975
1974
1974
1973
1973
1973
1974
1974
1974
1974
1974
1974
1973
1973
1972
1972
1972
1973
1974
1975
1975
1975
1974
1973
1972
1972
1973
1974
1975
1976
1975
1974
1973
1972
1971
1971
1972
1973
1974
1976
1976
1977
1977
1977
1977
1976
1976
1976
1976
1976
1976
1976
1976
1975
1974
1974
1974
1974
1974
1974
1974
1974
1974
1974
1974
1974
1975
1976
1975
1974
1971
1968
1967
1971
1982
1999
2016
2026
2024
2009
1988
1969
1958
1956
1960
1966
1971
1974
1975
1975
1974
1974
1974
1974
1975
1975
1976
1976
1976
1977
1977
1976
1976
1976
1976
1976
1976
1977
1978
1979
1979
1979
1979
1979
1979
1979
1980
1980
1981
1981
1981
1981
1981
1981
1982
1982
1983
1984
1985
1985
1985
1985
1984
1984
1985
1986
1987
1988
1988
1989
1989
1989
1989
1988
1988
1987
1987
1987
1987
1986
1985
1984
1982
1980
1980
1980
1981
1981
1981
1981
1981
1980
1980
1980
1980
1980
1980
1981
1982
1982
1982
1981
1980
1979
1978
1979
1980
1982
1983
1984
1983
1982
1981
1980
1980
1980
1980
1980
1981
1981
1981
1981
1981
1980
1980
1980
1980
1982
1983
1983
1983
1981
1980
1979
1979
1979
1980
1981
1981
1981
1981
1981
1981
1981
1980
1980
1980
1981
1981
1981
1981
1980
1979
1979
1979
1979
1979
1980
1981
1982
1982
1983
1982
1982
1982
1982
1982
1983
1983
1983
1982
1982
1982
1982
1981
1980
1980
1980
1981
1982
1982
1982
1982
1981
1981
1981
1982
1983
1983
1981
1977
1973
1973
1978
1992
2012
2030
2038
2031
2010
1984
1963
1953
1954
1961
1970
1976
1980
1982
1983
1982
1981
1980
1980
1980
1980
1980
1981
1981
1981
1981
1982
1982
1982
1982
1982
1982
1982
1983
1983
1983
1983
1983
1982
1982
1982
1983
1983
1983
1983
1984
1984
1985
1985
1984
1984
1984
1985
1986
1986
1986
1986
1986
1986
1987
1988
1989
1989
1989
1989
1989
1989
1989
1989
1988
1987
1987
1986
1985
1984
1982
1980
1979
1977
1976
1975
1975
1975
1976
1976
1975
1975
1974
1974
1974
1974
1975
1975
1974
1974
1973
1974
1974
1974
1974
1974
1974
1975
1975
1975
1975
1975
1975
1975
1975
1974
1974
1974
1974
1974
1974
1974
1974
1973
1973
1973
1973
1973
1973
1973
1974
1974
1974
1973
1972
1971
1972
1973
1974
1974
1974
1973
1972
1972
1972
1972
1972
1972
1972
1972
1972
1972
1972
1973
1974
1974
1975
1975
1975
1974
1973
1972
1972
1971
1970
1970
1970
1971
1971
1971
1971
1970
1970
1970
1969
1970
1970
1971
1973
1973
1972
1969
1965
1962
1964
1973
1989
2009
2023
2025
2011
1988
1964
1948
1943
1948
1957
1966
1971
1972
1973
1972
1970
1969
1969
1970
1970
1971
1971
1971
1971
1971
1971
1971
1972
1972
1972
1973
1973
1974
1974
1974
1973
1973
1972
1972
1972
1973
1974
1975
1976
1976
1976
1976
1976
1976
1977
1977
1978
1979
1978
1978
1977
1977
1978
1980
1982
1984
1984
1984
1984
1984
1983
1983
1983
1982
1983
1983
1983
1983
1981
1979
1977
1976
1976
1976
1976
1976
1976
1975
1975
1975
1975
1976
1976
1977
1977
1977
1977
1977
1977
1977
1976
1975
1975
1976
1978
1979
1980
1979
1978
1978
1977
1977
1977
1978
1978
1978
1979
1979
1980
1980
1980
1979
1979
1979
1979
1979
1979
1980
1980
1980
1980
1980
1979
1979
1979
1980
1981
1982
1981
1979
1978
1977
1978
1979
1981
1982
1983
1982
1982
1980
1979
1979
1978
1978
1979
1979
1979
1979
1980
1980
1981
1981
1982
1982
1982
1982
1982
1982
1982
1982
1982
1981
1980
1979
1979
1980
1981
1982
1982
1980
1978
1977
1977
1978
1979
1981
1982
1982
1982
1980
1977
1974
1971
1971
1976
1989
2007
2024
2033
2027
2007
1981
1960
1949
1951
1960
1969
1976
1978
1979
1979
1977
1977
1976
1977
1978
1979
1979
1979
1978
1977
1977
1977
1977
1978
1979
1979
1979
1979
1978
1978
1978
1978
1978
1978
1978
1979
1980
1981
1981
1981
1980
1979
1978
1978
1979
1980
1982
1983
1983
1983
1983
1983
1983
1984
1985
1985
1985
1984
1984
1984
1984
1984
1984
1985
1985
1985
1985
1984
1982
1979
1977
1976
1975
1976
1976
1976
1975
1973
1972
1971
1971
1972
1973
1973
1973
1974
1974
1974
1973
1972
1971
1971
1971
1972
1973
1974
1974
1974
1974
1973
1973
1973
1973
1974
1974
1975
1975
1975
1975
1974
1974
1973
1972
1972
1972
1973
1974
1975
1975
1974
1973
1972
1972
1973
1973
1974
1974
1974
1973
1973
1973
1974
1973
1973
1973
1974
1974
1974
1974
1973
1972
1972
1972
1974
1975
1975
1975
1974
1974
1973
1973
1973
1973
1973
1973
1973
1972
1972
1972
1971
1971
1972
1973
1974
1975
1976
1977
1977
1977
1976
1976
1976
1976
1976
1976
1975
1975
1975
1975
1974
1973
1972
1972
1972
1974
1975
1976
1975
1975
1974
1973
1974
1974
1973
1972
1969
1967
1969
1978
1993
2011
2025
2026
2013
1992
1970
1956
1952
1956
1963
1969
1972
1973
1974
1974
1973
1972
1971
1971
1971
1972
1972
1973
1974
1974
1975
1975
1975
1975
1975
1975
1974
1974
1974
1974
1975
1976
1977
1977
1977
1976
1976
1976
1976
1977
1977
1977
1978
1978
1978
1977
1977
1978
1978
1980
1981
1982
1982
1981
1981
1980
1980
1980
1981
1983
1983
1984
1983
1983
1981
1980
1979
1978
1978
1978
1978
1978
1977
1976
1975
1974
1973
1973
1973
1974
1974
1975
1975
1975
1974
1974
1973
1973
1974
1975
1976
1976
1975
1975
1974
1974
1974
1975
1975
1975
1975
1975
1975
1975
1975
1974
1973
1974
1974
1976
1977
1977
1976
1975
1974
1973
1973
1974
1975
1976
1977
1977
1976
1976
1976
1975
1975
1975
1974
1975
1975
1976
1977
1977
1976
1975
1974
1974
1975
1976
1976
1976
1975
1975
1975
1976
1976
1976
1976
1976
1977
1977
1977
1977
1976
1975
1975
1974
1975
1975
1976
1977
1977
1977
1976
1975
1975
1975
1976
1977
1977
1977
1977
1976
1976
1976
1976
1977
1978
1979
1979
1979
1979
1979
1979
1978
1978
1977
1977
1977
1977
1978
1978
1977
1977
1976
1975
1975
1975
1975
1976
1977
1978
1978
1978
1976
1972
1969
1968
1971
1980
1996
2014
2026
2028
2016
1996
1975
1961
1957
1960
1967
1973
1975
1975
1975
1974
1973
1974
1975
1976
1976
1976
1976
1975
1975
1975
1975
1976
1976
1977
1977
1978
1977
1977
1977
1977
1977
1978
1978
1979
1979
1979
1979
1978
1978
1978
1978
1979
1980
1980
1980
1980
1980
1980
1980
1980
1980
1982
1983
1984
1985
1985
1984
1983
1983
1983
1983
1984
1985
1985
1985
1985
1984
1983
1982
1981
1981
1980
1980
1979
1979
1978
1977
1976
1976
1976
1977
1977
1977
1978
1978
1979
1978
1978
1977
1977
1977
1977
1978
1979
1980
1980
1979
1978
1977
1977
1977
1978
1979
1980
1980
1980
1979
1979
1978
1978
1978
1979
1980
1980
1980
1980
1980
1980
1980
1979
1979
1980
1981
1982
1982
1981
1980
1979
1979
1980
1980
1981
1982
1982
1982
1982
1982
1981
1980
1980
1981
1981
1982
1983
1983
1982
1982
1982
1982
1982
1982
1982
1983
1983
1983
1983
1983
1983
1982
1982
1983
1983
1983
1983
1983
1983
1983
1983
1983
1982
1982
1982
1982
1982
1983
1983
1983
1983
1983
1984
1985
1985
1986
1986
1986
1986
1985
1985
1984
1984
1984
1984
1984
1983
1983
1982
1982
1982
1982
1982
1982
1983
1983
1983
1984
1985
1984
1982
1979
1975
1973
1976
1985
2002
2021
2035
2037
2024
2001
1977
1960
1955
1960
1969
1977
1981
1982
1983
1982
1981
1980
1980
1980
1981
1982
1982
1983
1983
1983
1983
1983
1983
1983
1983
1983
1983
1983
1983
1982
1982
1982
1983
1984
1985
1985
1985
1984
1983
1983
1982
1982
1983
1985
1986
1987
1987
1987
1986
1985
1985
1985
1986
1987
1988
1989
1989
1989
1988
1988
1988
1988
1988
1989
1989
1989
1988
1987
1985
1983
1981
1980
1980
1979
1979
1979
1978
1977
1976
1975
1975
1975
1976
1977
1977
1977
1976
1976
1976
1976
1976
1976
1976
1976
1977
1978
1978
1978
1977
1976
1975
1975
1976
1977
1977
1978
1977
1976
1975
1975
1975
1975
1976
1977
1977
1977
1976
1976
1975
1974
1974
1974
1975
1976
1976
1976
1976
1976
1975
1974
1974
1974
1974
1975
1976
1975
1975
1974
1973
1973
1974
1974
1975
1975
1975
1974
1974
1974
1974
1974
1974
1974
1973
1974
1974
1974
1975
1974
1974
1973
1973
1973
1974
1974
1974
1974
1973
1972
1972
1972
1973
1974
1975
1977
1977
1977
1977
1976
1975
1974
1974
1974
1974
1974
1974
1974
1973
1973
1973
1973
1973
1973
1973
1973
1973
1973
1973
1973
1973
1972
1970
1967
1965
1966
1972
1986
2004
2020
2026
2019
2001
1978
1959
1951
1953
1960
1967
1971
1972
1971
1970
1970
1970
1971
1972
1973
1973
1972
1971
1971
1971
1971
1972
1973
1974
1974
1974
1973
1973
1973
1973
1974
1974
1975
1975
1975
1975
1975
1974
1974
1974
1974
1975
1975
1976
1977
1978
1978
1978
1977
1976
1976
1977
1978
1979
1980
1980
1980
1980
1980
1980
1980
1980
1980
1981
1981
1981
1981
1980
1979
1978
1977
1976
1975
1974
1974
1974
1974
1973
1973
1972
1972
1972
1972
1973
1974
1974
1974
1973
1972
1972
1972
1973
1974
1975
1975
1975
1975
1974
1973
1973
1973
1974
1975
1975
1975
1974
1974
1973
1973
1974
1974
1975
1975
1975
1975
1975
1975
1975
1974
1974
1974
1975
1976
1976
1977
1976
1976
1975
1975
1974
1974
1975
1976
1977
1978
1977
1976
1975
1975
1975
1975
1976
1977
1977
1977
1976
1976
1976
1976
1975
1975
1975
1976
1976
1977
1978
1978
1978
1977
1976
1976
1976
1976
1977
1977
1977
1977
1977
1976
1976
1975
1975
1975
1976
1977
1978
1979
1980
1979
1979
1979
1979
1980
1981
1981
1980
1979
1978
1977
1977
1976
1976
1976
1977
1977
1978
1978
1978
1978
1978
1978
1978
1979
1979
1977
1974
1971
1969
1972
1982
1999
2017
2029
2029
2015
1993
1972
1959
1956
1961
1968
1974
1976
1976
1976
1976
1976
1975
1975
1975
1975
1975
1976
1977
1977
1977
1976
1976
1976
1976
1976
1977
1978
1979
1980
1980
1979
1979
1978
1978
1978
1979
1979
1979
1980
1980
1980
1981
1981
1981
1981
1981
1981
1982
1982
1983
1983
1983
1983
1983
1984
1985
1985
1986
1986
1985
1985
1985
1984
1984
1984
1984
1984
1984
1983
1983
1982
1981
1980
1979
1978
1978
1978
1979
1979
1979
1978
1977
1976
1976
1976
1977
1978
1978
1979
1979
1978
1978
1977
1978
1978
1978
1979
1979
1979
1979
1979
1978
1977
1977
1977
1978
1978
1978
1978
1979
1979
1978
1978
1977
1976
1976
1977
1978
1979
1979
1979
1978
1977
1976
1976
1977
1978
1979
1979
1979
1978
1977
1976
1976
1977
1978
1979
1980
1980
1980
1979
1978
1978
1978
1978
1979
1979
1978
1978
1978
1978
1978
1978
1978
1979
1980
1980
1980
1979
1978
1978
1977
1978
1978
1979
1980
1981
1981
1982
1982
1982
1982
1981
1980
1979
1979
1979
1980
1980
1980
1979
1978
1977
1977
1978
1978
1979
1979
1979
1979
1979
1978
1978
1978
1976
1974
1971
1972
1977
1989
2006
2023
2032
2027
2009
1986
1965
1955
1955
1962
1970
1975
1977
1976
1976
1975
1975
1976
1977
1978
1978
1977
1977
1975
1975
1975
1976
1977
1978
1979
1979
1978
1977
1977
1977
1977
1978
1979
1979
1979
1979
1979
1978
1979
1979
1979
1979
1980
1980
1981
1982
1982
1981
1980
1980
1981
1982
1983
1984
1984
1984
1983
1983
1983
1984
1984
1985
1985
1985
1984
1984
1983
1981
1980
1979
1979
1979
1979
1979
1978
1977
1976
1975
1974
1973
1973
1974
1975
1975
1975
1975
1975
1975
1975
1975
1975
1975
1975
1975
1976
1976
1976
1976
1976
1975
1975
1976
1976
1976
1976
1976
1975
1974
1974
1975
1975
1976
1976
1977
1977
1977
1976
1976
1975
1974
1974
1975
1975
1976
1976
1976
1976
1975
1975
1974
1974
1975
1976
1976
1977
1976
1975
1974
1974
1974
1975
1976
1977
1977
1977
1976
1975
1975
1976
1976
1977
1977
1977
1977
1977
1976
1975
1975
1975
1975
1976
1976
1976
1976
1976
1977
1977
1977
1978
1979
1980
1980
1981
1980
1979
1978
1977
1976
1976
1977
1977
1977
1977
1977
1977
1977
1977
1977
1976
1976
1976
1977
1977
1977
1977
1975
1972
1969
1968
1973
1984
2002
2019
2029
2026
2010
1988
1968
1957
1955
1961
1968
1974
1976
1976
1976
1975
1974
1973
1974
1975
1975
1976
1976
1976
1976
1976
1977
1976
1976
1977
1977
1978
1978
1978
1978
1978
1977
1977
1976
1976
1977
1978
1979
1979
1979
1978
1978
1978
1978
1979
1980
1981
1981
1981
1981
1981
1980
1980
1981
1981
1982
1983
1983
1984
1984
1984
1983
1983
1983
1982
1982
1983
1983
1982
1982
1980
1979
1977
1976
1975
1976
1976
1977
1977
1976
1975
1974
1974
1974
1975
1976
1976
1977
1976
1976
1976
1975
1975
1975
1975
1976
1977
1977
1977
1977
1976
1976
1975
1975
1976
1976
1977
1977
1977
1977
1976
1975
1975
1976
1977
1978
1978
1978
1977
1976
1975
1974
1974
1976
1977
1978
1979
1978
1977
1977
1976
1976
1977
1977
1977
1978
1979
1979
1979
1979
1978
1977
1977
1977
1978
1979
1980
1980
1980
1979
1979
1978
1978
1978
1978
1979
1979
1979
1979
1979
1978
1978
1978
1980
1981
1983
1984
1984
1984
1983
1983
1982
1982
1981
1981
1981
1980
1980
1980
1980
1980
1980
1979
1979
1980
1981
1981
1982
1981
1981
1981
1981
1981
1979
1977
1975
1976
1984
1999
2018
2031
2034
2023
2001
1978
1963
1958
1962
1970
1976
1980
1981
1981
1981
1981
1981
1981
1982
1982
1982
1981
1981
1981
1982
1983
1984
1984
1984
1984
1984
1983
1983
1983
1983
1984
1984
1984
1985
1985
1985
1985
1985
1985
1985
1985
1986
1986
1987
1987
1987
1987
1987
1987
1988
1989
1989
1990
1990
1991
1991
1991
1991
1991
1991
1991
1992
1992
1992
1992
1991
1990
1989
1989
1988
1987
1987
1986
1985
1984
1983
1982
1981
1981
1981
1982
1982
1982
1983
1982
1982
1982
1982
1982
1981
1982
1982
1983
1983
1983
1983
1983
1983
1983
1982
1982
1982
1983
1983
1984
1984
1983
1982
1981
1981
1982
1983
1983
1984
1984
1984
1983
1983
1982
1981
1981
1981
1982
1982
1983
1983
1982
1981
1981
1981
1981
1981
1981
1981
1981
1981
1981
1981
1980
1980
1980
1980
1980
1981
1982
1982
1982
1982
1982
1982
1983
1983
1984
1984
1983
1983
1982
1981
1980
1980
1979
1979
1980
1980
1980
1980
1979
1979
1978
1978
1979
1979
1980
1981
1981
1979
1976
1972
1971
1973
1983
1999
2018
2031
2032
2017
1992
1967
1952
1949
1955
1964
1972
1977
1978
1979
1978
1977
1976
1976
1976
1977
1978
1979
1979
1979
1979
1978
1978
1978
1978
1979
1979
1979
1979
1979
1979
1979
1979
1979
1979
1979
1980
1980
1980
1980
1980
1979
1978
1979
1979
1981
1982
1983
1983
1982
1982
1981
1982
1983
1984
1985
1986
1987
1987
1987
1986
1985
1984
1984
1984
1985
1985
1985
1984
1982
1979
1977
1976
1976
1976
1976
1976
1975
1974
1972
1971
1971
1971
1972
1972
1973
1974
1974
1974
1973
1973
1972
1971
1972
1972
1973
1974
1974
1974
1973
1973
1972
1972
1972
1973
1973
1974
1974
1974
1974
1973
1972
1971
1972
1972
1974
1974
1974
1974
1973
1972
1972
1972
1972
1973
1973
1974
1974
1973
1973
1973
1972
1972
1972
1972
1973
1973
1973
1973
1973
1973
1972
1972
1972
1972
1972
1973
1973
1973
1973
1973
1974
1974
1975
1976
1977
1977
1977
1977
1976
1976
1975
1974
1973
1973
1973
1973
1973
1974
1974
1973
1973
1973
1972
1973
1974
1974
1975
1975
1974
1972
1968
1965
1964
1968
1980
1997
2014
2025
2024
2009
1987
1966
1953
1950
1955
1963
1970
1973
1973
1972
1971
1970
1970
1971
1972
1972
1972
1972
1972
1972
1972
1973
1973
1974
1974
1975
1975
1974
1974
1974
1973
1973
1973
1974
1975
1975
1976
1975
1975
1975
1975
1976
1976
1977
1978
1978
1978
1978
1978
1978
1978
1978
1978
1978
1979
1979
1980
1982
1982
1983
1982
1981
1981
1981
1981
1982
1982
1981
1980
1979
1977
1976
1975
1975
1975
1975
1975
1974
1973
1972
1972
1972
1972
1972
1973
1974
1974
1974
1974
1974
1973
1973
1972
1972
1973
1973
1974
1974
1975
1974
1974
1974
1973
1974
1974
1975
1975
1975
1975
1974
1974
1973
1973
1973
1973
1974
1975
1976
1976
1975
1974
1973
1973
1973
1974
1975
1976
1976
1976
1975
1974
1974
1974
1975
1975
1976
1976
1976
1975
1975
1975
1975
1975
1975
1976
1975
1975
1975
1974
1974
1974
1975
1976
1977
1978
1978
1979
1978
1978
1978
1978
1977
1977
1976
1976
1976
1976
1976
1976
1976
1976
1975
1975
1975
1975
1976
1976
1976
1976
1976
1976
1976
1974
1971
1969
1971
1978
1992
2010
2024
2027
2018
1998
1977
1962
1956
1959
1965
1971
1974
1974
1973
1973
1973
1974
1975
1976
1976
1975
1975
1974
1974
1974
1975
1976
1976
1976
1977
1976
1976
1976
1975
1975
1976
1976
1977
1977
1977
1977
1977
1977
1977
1977
1978
1978
1979
1979
1979
1979
1980
1980
1981
1981
1981
1981
1982
1982
1983
1983
1984
1983
1983
1984
1984
1985
1985
1985
1985
1984
1983
1982
1981
1980
1980
1979
1979
1978
1977
1977
1976
1975
1975
1976
1976
1977
1977
1977
1977
1977
1977
1976
1976
1976
1976
1977
1977
1978
1977
1977
1976
1976
1977
1977
1978
1978
1979
1979
1979
1978
1977
1976
1976
1976
1977
1978
1979
1980
1980
1979
1978
1977
1977
1977
1978
1978
1979
1979
1979
1979
1978
1978
1979
1979
1980
1980
1980
1979
1979
1979
1978
1978
1979
1979
1980
1981
1981
1981
1981
1980
1979
1979
1979
1979
1980
1980
1981
1982
1983
1983
1983
1983
1983
1983
1984
1985
1984
1984
1983
1981
1980
1980
1980
1981
1981
1982
1983
1983
1983
1982
1982
1982
1982
1982
1983
1983
1983
1981
1978
1975
1975
1979
1991
2009
2027
2036
2032
2014
1990
1969
1958
1957
1964
1973
1980
1983
1984
1984
1983
1982
1982
1981
1982
1982
1983
1984
1984
1984
1983
1983
1983
1983
1984
1984
1985
1985
1986
1986
1986
1986
1986
1985
1985
1985
1986
1987
1987
1987
1987
1986
1986
1986
1987
1988
1989
1990
1990
1990
1990
1990
1989
1990
1990
1991
1992
1994
1995
1996
1996
1996
1994
1993
1992
1992
1992
1993
1993
1992
1990
1987
1985
1984
1983
1983
1983
1982
1982
1983
1983
1983
1982
1981
1981
1981
1982
1982
1983
1983
1983
1982
1982
1983
1983
1983
1984
1984
1984
1984
1984
1983
1983
1982
1982
1982
1983
1984
1984
1984
1984
1983
1982
1982
1982
1982
1983
1983
1983
1982
1982
1982
1981
1981
1981
1981
1982
1982
1983
1983
1982
1981
1981
1980
1980
1981
1981
1981
1980
1980
1980
1980
1980
1979
1980
1980
1982
1983
1984
1984
1984
1983
1982
1981
1981
1981
1981
1981
1981
1981
1980
1980
1979
1978
1977
1977
1977
1978
1979
1979
1980
1979
1979
1979
1979
1978
1976
1973
1972
1974
1982
1997
2015
2027
2028
2015
1993
1969
1954
1949
1954
1962
1969
1973
1974
1975
1976
1977
1977
1977
1977
1977
1977
1976
1975
1975
1975
1975
1976
1977
1978
1978
1977
1976
1976
1976
1976
1977
1978
1979
1979
1978
1977
1976
1976
1977
1978
1979
1979
1979
1978
1978
1978
1978
1978
1979
1979
1980
1980
1981
1981
1982
1982
1983
1982
1983
1983
1984
1985
1985
1985
1984
1982
1980
1979
1978
1977
1976
1975
1974
1973
1972
1970
1969
1968
1968
1968
1968
1969
1970
1970
1970
1969
1968
1968
1968
1969
1969
1970
1971
1971
1971
1970
1970
1969
1970
1970
1971
1972
1973
1972
1972
1971
1971
1971
1971
1971
1972
1972
1973
1972
1972
1971
1971
1971
1972
1972
1973
1973
1974
1973
1973
1972
1971
1971
1971
1972
1973
1974
1975
1974
1973
1973
1972
1972
1973
1974
1975
1974
1974
1973
1972
1972
1972
1972
1973
1973
1974
1974
1974
1974
1974
1973
1973
1973
1973
1974
1974
1974
1973
1973
1973
1973
1973
1973
1974
1976
1977
1978
1978
1978
1977
1976
1976
1976
1975
1976
1976
1975
1975
1974
1973
1973
1973
1973
1974
1974
1974
1975
1975
1975
1975
1975
1975
1975
1973
1971
1968
1967
1970
1978
1994
2010
2022
2024
2013
1994
1974
1961
1957
1960
1965
1969
1971
1971
1971
1971
1972
1972
1973
1973
1973
1973
1972
1972
1972
1973
1974
1975
1976
1976
1975
1975
1974
1974
1974
1975
1976
1976
1977
1977
1977
1977
1976
1976
1976
1977
1977
1978
1978
1978
1978
1979
1980
1980
1981
1981
1981
1982
1983
1984
1984
1984
1983
1983
1983
1983
1984
1985
1986
1986
1985
1985
1984
1983
1983
1983
1982
1981
1980
1980
1979
1978
1977
1976
1976
1977
1978
1979
1980
1979
1978
1977
1977
1977
1978
1980
1981
1982
1981
1980
1979
1978
1978
1978
1978
1979
1980
1980
1981
1980
1980
1979
1978
1978
1978
1979
1980
1980
1981
1982
1981
1980
1979
1979
1979
1980
1981
1981
1982
1981
1981
1981
1980
1980
1980
1980
1981
1981
1982
1982
1982
1981
1981
1981
1981
1982
1982
1983
1983
1983
1982
1982
1982
1982
1982
1982
1983
1983
1983
1982
1982
1982
1982
1982
1982
1983
1983
1983
1983
1982
1981
1980
1980
1981
1983
1984
1986
1987
1987
1986
1986
1985
1984
1984
1983
1983
1983
1983
1983
1983
1983
1982
1981
1981
1982
1982
1982
1982
1982
1981
1982
1982
1983
1983
1982
1979
1976
1974
1975
1982
1996
2015
2032
2037
2028
2007
1982
1963
1955
1957
1965
1972
1977
1979
1980
1981
1981
1981
1980
1980
1980
1980
1981
1981
1981
1982
1982
1983
1983
1983
1982
1982
1981
1981
1982
1982
1983
1983
1983
1982
1982
1982
1982
1983
1983
1984
1984
1984
1984
1984
1984
1984
1983
1983
1984
1984
1985
1986
1987
1987
1987
1988
1988
1988
1988
1988
1988
1988
1989
1989
1988
1988
1987
1986
1985
1984
1983
1982
1981
1979
1978
1977
1976
1975
1975
1974
1974
1974
1975
1975
1975
1975
1974
1974
1974
1974
1975
1976
1976
1976
1975
1975
1974
1974
1974
1974
1974
1975
1975
1976
1975
1975
1974
1973
1973
1974
1975
1975
1975
1974
1973
1973
1973
1974
1975
1975
1976
1976
1976
1975
1975
1974
1973
1972
1972
1973
1974
1974
1975
1974
1974
1973
1973
1973
1973
1973
1973
1973
1973
1972
1972
1972
1972
1972
1972
1972
1973
1973
1973
1973
1972
1971
1970
1970
1970
1971
1973
1974
1975
1976
1975
1974
1974
1973
1973
1973
1973
1974
1974
1974
1974
1973
1971
1970
1970
1971
1971
1972
1973
1972
1971
1970
1970
1971
1972
1973
1973
1970
1967
1964
1965
1973
1988
2007
2021
2024
2014
1993
1971
1955
1949
1952
1959
1965
1969
1970
1970
1970
1970
1970
1970
1970
1970
1970
1970
1970
1971
1972
1972
1972
1972
1971
1971
1971
1971
1971
1972
1972
1973
1973
1973
1972
1972
1972
1973
1974
1974
1975
1974
1974
1974
1974
1974
1974
1974
1975
1976
1977
1978
1979
1978
1977
1977
1977
1979
1980
1982
1982
1982
1981
1980
1979
1979
1979
1979
1979
1979
1978
1976
1975
1973
1972
1971
1970
1970
1970
1971
1971
1971
1971
1971
1970
1970
1969
1970
1970
1972
1973
1973
1973
1972
1971
1970
1970
1970
1971
1972
1972
1973
1973
1972
1971
1971
1971
1971
1972
1973
1974
1974
1973
1972
1971
1971
1972
1972
1972
1972
1972
1973
1973
1973
1973
1973
1972
1972
1973
1973
1973
1974
1974
1973
1973
1972
1972
1972
1973
1974
1974
1974
1974
1974
1974
1973
1973
1973
1973
1973
1974
1975
1975
1974
1974
1973
1973
1974
1975
1975
1976
1976
1975
1975
1974
1974
1974
1974
1974
1975
1975
1975
1975
1974
1973
1972
1973
1973
1974
1976
1977
1978
1978
1979
1978
1977
1976
1975
1976
1976
1977
1977
1977
1976
1975
1974
1973
1974
1974
1975
1975
1976
1976
1975
1974
1973
1973
1974
1975
1974
1971
1969
1968
1972
1983
2000
2017
2026
2024
2010
1990
1971
1960
1957
1961
1966
1970
1972
1973
1973
1973
1973
1973
1973
1973
1972
1973
1973
1974
1975
1975
1976
1975
1975
1974
1974
1974
1975
1975
1976
1976
1977
1977
1977
1977
1977
1977
1977
1977
1978
1979
1980
1980
1980
1979
1979
1978
1978
1978
1979
1980
1981
1981
1981
1980
1980
1981
1982
1983
1984
1985
1986
1985
1985
1984
1983
1982
1982
1982
1982
1981
1981
1980
1979
1978
1977
1976
1976
1977
1977
1977
1977
1977
1977
1977
1977
1977
1977
1977
1978
1978
1979
1979
1978
1977
1976
1976
1977
1978
1978
1979
1979
1978
1978
1978
1978
1978
1978
1978
1977
1977
1977
1977
1978
1978
1978
1978
1977
1977
1977
1978
1979
1980
1981
1980
1979
1978
1978
1979
1980
1981
1981
1981
1980
1979
1979
1979
1979
1980
1980
1980
1981
1980
1980
1980
1980
1980
1980
1981
1982
1982
1982
1981
1981
1981
1981
1981
1981
1981
1982
1982
1983
1983
1982
1982
1981
1981
1981
1982
1983
1984
1984
1984
1982
1981
1980
1980
1981
1983
1984
1985
1986
1986
1986
1985
1985
1984
1984
1985
1985
1985
1984
1984
1983
1983
1983
1983
1984
1984
1984
1984
1984
1984
1983
1983
1983
1984
1985
1984
1981
1977
1975
1977
1985
2001
2020
2034
2038
2027
2004
1980
1962
1956
1960
1969
1977
1981
1982
1984
1985
1985
1985
1984
1983
1982
1982
1982
1983
1984
1985
1985
1985
1985
1985
1985
1984
1984
1984
1984
1985
1985
1986
1986
1986
1986
1986
1986
1986
1987
1987
1987
1987
1988
1988
1987
1986
1986
1986
1987
1989
1991
1991
1991
1991
1990
1990
1991
1991
1992
1992
1993
1993
1993
1992
1991
1991
1991
1990
1990
1989
1988
1986
1985
1983
1982
1981
1980
1980
1980
1980
1979
1979
1979
1979
1979
1979
1979
1979
1979
1979
1979
1980
1980
1980
1979
1978
1978
1978
1979
1979
1980
1980
1980
1979
1979
1979
1979
1979
1979
1979
1979
1979
1979
1979
1979
1979
1979
1978
1978
1979
1979
1979
1979
1979
1978
1978
1977
1978
1978
1978
1978
1978
1978
1978
1978
1978
1977
1977
1977
1978
1978
1978
1978
1977
1977
1976
1976
1976
1976
1977
1977
1977
1976
1975
1975
1975
1976
1977
1978
1979
1980
1981
1980
1979
1978
1977
1977
1977
1977
1978
1977
1977
1976
1976
1975
1975
1975
1975
1975
1976
1976
1977
1978
1977
1977
1976
1974
1971
1969
1968
1970
1979
1995
2013
2025
2027
2014
1993
1970
1956
1952
1956
1963
1970
1972
1972
1972
1972
1972
1973
1974
1974
1974
1973
1973
1973
1974
1974
1975
1975
1975
1975
1976
1976
1976
1975
1975
1974
1974
1975
1976
1977
1977
1976
1975
1975
1975
1976
1977
1979
1979
1979
1978
1977
1977
1977
1977
1978
1979
1981
1981
1982
1981
1981
1981
1981
1981
1982
1982
1982
1983
1983
1984
1983
1982
1981
1979
1978
1978
1977
1976
1975
1974
1974
1973
1973
1973
1972
1972
1972
1972
1973
1974
1974
1974
1973
1973
1973
1974
1974
1974
1975
1975
1974
1974
1973
1973
1973
1973
1974
1975
1975
1975
1974
1973
1972
1973
1973
1975
1975
1976
1976
1975
1975
1974
1974
1974
1974
1974
1975
1975
1974
1974
1975
1975
1975
1974
1974
1974
1975
1976
1976
1976
1976
1974
1973
1973
1974
1975
1976
1976
1976
1976
1975
1975
1975
1975
1976
1976
1977
1977
1977
1977
1976
1976
1976
1975
1975
1975
1976
1976
1976
1977
1977
1977
1977
1976
1976
1977
1977
1977
1977
1977
1976
1975
1974
1974
1974
1976
1978
1979
1980
1980
1980
1980
1979
1978
1978
1977
1977
1978
1978
1979
1978
1977
1976
1976
1975
1976
1976
1977
1977
1977
1976
1976
1976
1976
1977
1976
1974
1971
1969
1971
1980
1995
2013
2026
2028
2018
1998
1977
1962
1957
1960
1967
1972
1973
1973
1972
1973
1973
1974
1975
1975
1974
1974
1974
1974
1975
1975
1976
1976
1976
1976
1976
1976
1976
1976
1976
1977
1977
1978
1978
1977
1977
1976
1976
1976
1976
1977
1979
1980
1980
1980
1979
1978
1978
1978
1979
1980
1981
1982
1983
1982
1981
1980
1980
1981
1982
1983
1983
1984
1984
1983
1983
1982
1981
1981
1981
1980
1980
1979
1978
1977
1975
1974
1973
1973
1974
1976
1977
1977
1976
1976
1975
1974
1973
1973
1973
1974
1974
1975
1976
1976
1976
1975
1975
1975
1975
1975
1975
1975
1974
1974
1974
1974
1975
1975
1975
1975
1975
1975
1975
1975
1975
1975
1975
1975
1975
1976
1977
1977
1977
1976
1975
1975
1974
1974
1975
1976
1976
1976
1976
1976
1976
1976
1976
1975
1975
1975
1975
1976
1976
1976
1976
1976
1976
1976
1975
1975
1976
1976
1976
1976
1976
1976
1976
1976
1976
1976
1976
1976
1976
1976
1976
1976
1975
1975
1975
1976
1976
1976
1976
1976
1976
1975
1975
1975
1976
1977
1978
1978
1977
1976
1975
1975
1975
1975
1976
1976
1976
1976
1976
1977
1978
1978
1978
1978
1978
1979
1979
1980
1980
1979
1978
1976
1975
1975
1975
1976
1977
1977
1978
1978
1977
1976
1975
1975
1975
1976
1978
1978
1978
1975
1972
1968
1967
1971
1983
2000
2019
2030
2029
2015
1993
1971
1958
1955
1960
1967
1973
1976
1976
1975
1974
1973
1973
1974
1974
1975
1976
1977
1977
1977
1976
1975
1974
1974
1974
1975
1976
1977
1978
1977
1977
1977
1977
1977
1977
1978
1978
1979
1979
1979
1979
1978
1977
1977
1977
1978
1978
1979
1979
1979
1979
1979
1978
1978
1979
1980
1981
1982
1983
1983
1982
1982
1982
1982
1982
1982
1982
1982
1981
1981
1980
1979
1978
1977
1977
1976
1976
1976
1976
1975
1975
1974
1974
1974
1974
1973
1973
1974
1975
1976
1976
1975
1975
1975
1975
1976
1976
1976
1976
1976
1975
1975
1975
1975
1975
1976
1976
1976
1976
1976
1976
1975
1975
1975
1976
1976
1976
1976
1976
1976
1975
1976
1976
1977
1977
1977
1977
1976
1976
1976
1976
1976
1976
1976
1977
1977
1977
1977
1977
1977
1977
1976
1976
1976
1976
1977
1978
1978
1978
1978
1976
1976
1976
1976
1977
1978
1978
1978
1978
1978
1977
1977
1977
1977
1978
1978
1978
1978
1978
1977
1977
1977
1977
1977
1977
1978
1979
1979
1979
1978
1977
1977
1976
1976
1977
1978
1978
1978
1978
1978
1978
1979
1980
1980
1981
1981
1981
1981
1981
1980
1979
1978
1977
1976
1976
1977
1978
1978
1978
1978
1978
1977
1977
1977
1977
1978
1978
1979
1979
1977
1973
1970
1970
1975
1989
2008
2024
2032
2025
2006
1982
1962
1953
1954
1961
1969
1975
1976
1976
1975
1974
1974
1974
1974
1975
1976
1976
1975
1975
1975
1975
1974
1974
1974
1975
1976
1977
1977
1977
1976
1975
1975
1975
1976
1976
1977
1977
1977
1977
1977
1977
1977
1977
1977
1977
1978
1979
1979
1979
1978
1978
1977
1977
1978
1979
1980
1981
1982
1982
1981
1981
1980
1980
1980
1980
1980
1980
1980
1980
1980
1979
1978
1976
1975
1974
1973
1973
1973
1973
1972
1972
1971
1971
1972
1973
1973
1973
1973
1972
1972
1972
1972
1972
1973
1973
1974
1974
1974
1974
1974
1974
1974
1975
1975
1976
1975
1975
1974
1974
1974
1974
1974
1974
1973
1973
1973
1974
1975
1976
1976
1975
1974
1974
1974
1974
1975
1976
1976
1975
1975
1974
1975
1975
1975
1976
1976
1976
1976
1976
1976
1976
1975
1975
1975
1975
1976
1976
1976
1976
1976
1975
1975
1975
1975
1976
1977
1977
1978
1977
1977
1976
1976
1976
1976
1976
1976
1977
1977
1977
1976
1976
1976
1976
1976
1977
1977
1978
1978
1977
1976
1976
1975
1976
1977
1978
1979
1980
1981
1981
1981
1981
1980
1979
1978
1978
1977
1978
1978
1978
1977
1977
1976
1976
1976
1977
1978
1978
1978
1978
1977
1977
1977
1977
1977
1975
1972
1970
1971
1977
1990
2007
2022
2029
2023
2005
1983
1965
1956
1956
1962
1969
1973
1974
1975
1975
1974
1974
1975
1975
1975
1974
1974
1974
1975
1976
1976
1977
1977
1977
1977
1977
1977
1977
1977
1977
1977
1978
1978
1978
1978
1978
1977
1977
1978
1978
1978
1979
1980
1980
1980
1980
1980
1980
1980
1981
1981
1982
1983
1983
1983
1982
1982
1982
1982
1983
1985
1985
1985
1985
1984
1984
1983
1982
1982
1981
1981
1981
1981
1980
1980
1978
1977
1977
1977
1977
1977
1977
1977
1978
1978
1978
1977
1977
1977
1977
1978
1979
1979
1979
1979
1978
1978
1978
1978
1978
1978
1979
1980
1980
1980
1979
1978
1978
1977
1978
1978
1979
1979
1979
1979
1979
1978
1978
1978
1979
1979
1980
1980
1980
1980
1979
1979
1978
1978
1978
1978
1978
1979
1980
1980
1980
1980
1980
1980
1980
1979
1979
1979
1979
1979
1979
1980
1980
1981
1981
1981
1981
1980
1980
1980
1979
1979
1979
1979
1980
1981
1981
1982
1982
1981
1980
1980
1979
1979
1980
1980
1980
1979
1979
1979
1979
1980
1981
1982
1982
1983
1983
1984
1984
1983
1982
1981
1981
1981
1981
1982
1982
1982
1981
1980
1980
1979
1979
1979
1980
1981
1981
1981
1981
1981
1980
1979
1977
1974
1973
1976
1985
2001
2019
2032
2032
2019
1996
1972
1957
1954
1959
1967
1974
1977
1978
1978
1978
1978
1978
1979
1979
1979
1979
1978
1978
1978
1978
1979
1980
1981
1981
1981
1980
1980
1980
1980
1980
1980
1980
1980
1981
1981
1981
1981
1981
1980
1980
1981
1981
1981
1981
1982
1982
1983
1983
1983
1983
1982
1983
1983
1984
1985
1986
1986
1985
1985
1985
1985
1985
1986
1986
1986
1985
1985
1984
1983
1981
1980
1980
1980
1980
1979
1978
1978
1977
1976
1976
1976
1976
1975
1975
1975
1976
1976
1976
1976
1975
1975
1975
1975
1976
1977
1977
1978
1978
1977
1976
1976
1976
1977
1977
1978
1977
1977
1976
1976
1975
1976
1976
1977
1978
1978
1977
1976
1976
1975
1976
1977
1977
1977
1977
1976
1976
1976
1976
1976
1976
1976
1976
1976
1976
1977
1977
1977
1977
1977
1977
1977
1977
1977
1977
1977
1977
1978
1977
1977
1977
1977
1978
1978
1978
1978
1978
1978
1978
1978
1978
1978
1978
1978
1978
1978
1978
1978
1978
1978
1978
1978
1978
1979
1979
1979
1979
1979
1979
1979
1980
1981
1981
1982
1982
1982
1982
1982
1981
1980
1979
1979
1979
1980
1980
1980
1979
1979
1979
1978
1978
1978
1978
1979
1979
1980
1980
1980
1978
1975
1972
1970
1973
1984
2000
2019
2030
2030
2015
1993
1972
1959
1956
1962
1969
1975
1977
1977
1976
1976
1976
1976
1977
1977
1978
1978
1979
1978
1977
1976
1976
1977
1978
1979
1980
1980
1979
1978
1978
1978
1978
1979
1979
1980
1980
1980
1980
1980
1980
1979
1979
1980
1981
1981
1982
1982
1982
1981
1981
1981
1981
1982
1982
1983
1984
1984
1984
1984
1984
1984
1985
1984
1984
1984
1984
1984
1984
1983
1982
1981
1981
1980
1980
1980
1979
1978
1978
1977
1976
1976
1975
1975
1976
1977
1977
1977
1976
1976
1976
1976
1976
1976
1976
1977
1977
1978
1978
1978
1977
1977
1976
1976
1976
1976
1977
1977
1977
1977
1977
1976
1976
1976
1977
1978
1978
1978
1977
1976
1975
1975
1975
1976
1976
1977
1977
1977
1977
1977
1976
1976
1976
1976
1976
1977
1977
1977
1977
1977
1977
1976
1976
1975
1976
1977
1978
1978
1978
1977
1976
1975
1975
1975
1977
1978
1978
1978
1977
1977
1976
1976
1977
1977
1978
1978
1978
1977
1977
1976
1976
1976
1976
1976
1977
1977
1978
1978
1979
1979
1978
1978
1978
1978
1979
1980
1981
1980
1980
1979
1978
1977
1977
1977
1977
1977
1977
1978
1978
1978
1977
1976
1976
1976
1976
1977
1978
1979
1977
1975
1971
1969
1972
1982
1999
2017
2030
2030
2016
1994
1972
1958
1954
1958
1966
1973
1976
1976
1976
1975
1974
1974
1974
1975
1976
1977
1977
1978
1977
1977
1977
1976
1976
1976
1977
1977
1978
1978
1978
1978
1978
1978
1978
1978
1978
1978
1978
1978
1978
1979
1980
1980
1981
1981
1980
1980
1980
1981
1982
1982
1982
1981
1981
1981
1982
1984
1985
1986
1986
1985
1985
1984
1983
1982
1982
1983
1983
1983
1983
1982
1981
1980
1979
1978
1978
1977
1977
1977
1977
1977
1976
1976
1976
1976
1976
1977
1977
1978
1978
1978
1977
1977
1977
1977
1977
1977
1977
1977
1977
1977
1977
1977
1978
1978
1978
1978
1978
1978
1978
1978
1978
1978
1978
1978
1978
1978
1979
1979
1979
1979
1978
1978
1977
1978
1978
1979
1979
1979
1979
1979
1979
1978
1978
1978
1978
1979
1980
1980
1980
1980
1979
1979
1978
1978
1979
1980
1980
1981
1980
1979
1979
1978
1979
1979
1980
1980
1980
1980
1981
1981
1981
1980
1979
1979
1979
1980
1981
1982
1982
1982
1980
1979
1979
1979
1979
1980
1980
1981
1981
1982
1982
1982
1983
1983
1983
1983
1984
1984
1985
1984
1983
1982
1981
1980
1980
1980
1981
1981
1981
1981
1981
1981
1981
1981
1981
1982
1982
1983
1982
1980
1976
1974
1974
1981
1994
2012
2028
2035
2027
2007
1983
1964
1956
1958
1966
1974
1980
1981
1982
1981
1980
1978
1978
1979
1979
1980
1981
1982
1982
1982
1982
1981
1980
1980
1980
1982
1983
1984
1984
1984
1983
1982
1982
1983
1983
1983
1983
1983
1983
1983
1984
1984
1984
1984
1985
1985
1986
1986
1986
1986
1985
1985
1986
1987
1988
1989
1989
1990
1990
1990
1989
1989
1989
1989
1989
1990
1990
1990
1989
1988
1987
1985
1984
1984
1983
1983
1982
1982
1981
1981
1980
1980
1980
1980
1980
1980
1981
1981
1981
1982
1981
1980
1979
1979
1980
1981
1982
1982
1982
1982
1981
1980
1980
1980
1980
1980
1981
1981
1981
1980
1979
1979
1979
1980
1981
1981
1981
1980
1979
1979
1979
1978
1978
1978
1979
1979
1980
1980
1979
1979
1978
1977
1977
1977
1978
1978
1979
1979
1980
1979
1979
1978
1977
1976
1976
1977
1978
1979
1979
1978
1976
1976
1975
1976
1977
1977
1977
1977
1976
1976
1976
1976
1977
1977
1978
1979
1979
1979
1979
1979
1979
1978
1977
1976
1976
1975
1975
1976
1976
1976
1975
1974
1974
1973
1973
1974
1976
1977
1978
1977
1976
1973
1969
1966
1966
1970
1982
2000
2018
2028
2024
2006
1982
1961
1949
1949
1956
1964
1970
1972
1973
1973
1973
1972
1971
1972
1973
1974
1974
1974
1973
1972
1971
1971
1972
1973
1973
1973
1973
1974
1974
1974
1974
1974
1975
1975
1975
1974
1974
1974
1974
1975
1975
1975
1975
1975
1976
1977
1977
1977
1977
1977
1976
1976
1977
1978
1979
1980
1981
1981
1981
1981
1981
1981
1981
1981
1981
1981
1981
1980
1979
1979
1978
1977
1975
1974
1974
1974
1973
1973
1972
1971
1970
1970
1970
1970
1971
1971
1971
1971
1971
1972
1972
1972
1972
1973
1973
1973
1973
1972
1972
1971
1972
1972
1973
1973
1973
1974
1974
1973
1973
1973
1972
1972
1972
1973
1973
1973
1973
1973
1973
1972
1972
1972
1973
1973
1973
1973
1973
1973
1973
1973
1973
1973
1973
1973
1973
1973
1973
1973
1973
1972
1972
1973
1973
1974
1975
1975
1975
1975
1974
1973
1972
1973
1974
1975
1975
1975
1975
1974
1974
1973
1973
1972
1973
1973
1974
1976
1977
1978
1978
1977
1977
1977
1977
1977
1978
1978
1978
1977
1976
1975
1975
1974
1974
1975
1976
1976
1977
1976
1975
1975
1974
1974
1975
1976
1976
1975
1972
1969
1967
1969
1979
1995
2014
2027
2028
2016
1995
1973
1958
1954
1958
1965
1971
1974
1975
1975
1974
1973
1973
1973
1974
1974
1975
1975
1976
1976
1975
1975
1975
1975
1975
1975
1975
1976
1976
1977
1977
1977
1977
1976
1976
1976
1976
1976
1977
1978
1979
1979
1978
1977
1977
1977
1978
1979
1980
1981
1981
1980
1980
1980
1981
1981
1982
1983
1983
1983
1982
1982
1982
1982
1983
1983
1984
1983
1983
1982
1981
1980
1979
1978
1977
1977
1976
1976
1976
1977
1977
1977
1976
1975
1975
1975
1976
1977
1978
1979
1979
1979
1978
1977
1977
1977
1978
1979
1979
1979
1979
1978
1978
1977
1977
1978
1979
1980
1981
1981
1980
1980
1979
1979
1979
1979
1980
1980
1981
1981
1981
1981
1980
1979
1979
1980
1980
1981
1981
1980
1980
1980
1980
1981
1981
1981
1981
1982
1982
1982
1981
1981
1981
1981
1981
1982
1982
1983
1983
1982
1982
1982
1981
1981
1981
1982
1982
1982
1982
1981
1981
1981
1982
1982
1983
1983
1984
1985
1986
1986
1986
1986
1985
1984
1983
1982
1982
1982
1983
1983
1982
1982
1981
1980
1980
1981
1981
1981
1982
1983
1984
1984
1983
1982
1981
1979
1976
1976
1978
1987
2003
2022
2035
2035
2021
1997
1973
1958
1955
1962
1971
1978
1982
1983
1983
1983
1982
1981
1981
1982
1983
1984
1984
1983
1983
1983
1983
1984
1985
1985
1985
1985
1985
1984
1984
1984
1985
1985
1986
1986
1986
1986
1986
1985
1985
1986
1986
1987
1987
1987
1987
1988
1988
1989
1989
1990
1990
1991
1992
1993
1993
1993
1993
1993
1993
1994
1994
1995
1995
1995
1994
1993
1992
1992
1991
1991
1991
1990
1989
1989
1988
1986
1985
1983
1982
1982
1983
1984
1985
1985
1984
1983
1982
1982
1982
1983
1984
1985
1985
1985
1984
1984
1984
1984
1985
1985
1984
1985
1985
1985
1985
1985
1984
1984
1984
1984
1984
1984
1984
1984
1984
1984
1984
1984
1983
1983
1983
1984
1984
1985
1984
1984
1983
1983
1983
1983
1983
1983
1983
1983
1984
1984
1984
1983
1982
1982
1982
1982
1982
1982
1983
1983
1983
1983
1984
1984
1985
1986
1986
1987
1986
1986
1985
1984
1983
1982
1982
1982
1983
1983
1982
1982
1981
1980
1980
1980
1981
1981
1982
1983
1983
1983
1982
1980
1977
1974
1973
1977
1987
2005
2024
2036
2034
2017
1990
1966
1951
1950
1957
1966
1974
1977
1978
1979
1979
1979
1979
1979
1980
1981
1980
1979
1978
1978
1978
1978
1979
1980
1980
1980
1981
1980
1980
1979
1978
1978
1979
1980
1981
1981
1980
1980
1979
1978
1978
1978
1979
1979
1980
1981
1981
1981
1981
1980
1980
1980
1981
1983
1985
1986
1986
1985
1984
1983
1983
1983
1983
1984
1985
1985
1984
1983
1982
1980
1979
1978
1977
1976
1975
1974
1972
1971
1971
1970
1970
1971
1971
1971
1972
1972
1972
1972
1971
1971
1970
1971
1971
1972
1973
1973
1974
1973
1973
1972
1972
1973
1973
1974
1974
1974
1974
1974
1973
1973
1973
1973
1973
1973
1974
1975
1975
1975
1974
1973
1972
1972
1972
1973
1974
1974
1974
1974
1974
1973
1972
1972
1972
1973
1974
1974
1974
1974
1973
1973
1972
1972
1973
1973
1974
1974
1974
1973
1973
1973
1973
1973
1973
1973
1973
1973
1974
1974
1974
1974
1975
1976
1977
1978
1978
1977
1976
1976
1975
1975
1975
1974
1974
1974
1974
1975
1975
1975
1974
1973
1972
1972
1973
1974
1976
1977
1977
1976
1973
1969
1965
1964
1969
1981
2000
2019
2030
2027
2010
1986
1964
1952
1951
1958
1965
1971
1973
1973
1973
1972
1971
1971
1972
1973
1974
1974
1974
1974
1974
1974
1973
1974
1974
1975
1975
1976
1976
1976
1975
1974
1973
1974
1975
1976
1977
1977
1976
1976
1975
1975
1975
1976
1976
1977
1977
1977
1977
1978
1978
1978
1978
1978
1979
1979
1980
1981
1981
1981
1981
1981
1981
1981
1981
1981
1981
1981
1980
1979
1978
1976
1975
1975
1975
1974
1974
1974
1973
1972
1971
1971
1970
1971
1971
1972
1972
1972
1971
1971
1971
1971
1971
1971
1970
1971
1971
1972
1972
1971
1970
1970
1970
1970
1970
1971
1971
1971
1971
1970
1969
1969
1970
1970
1971
1971
1971
1971
1971
1971
1971
1971
1970
1971
1971
1972
1972
1972
1972
1971
1971
1970
1970
1970
1971
1972
1972
1972
1971
1971
1970
1970
1971
1972
1973
1973
1973
1972
1971
1971
1971
1971
1971
1970
1971
1971
1972
1972
1972
1971
1970
1969
1969
1970
1971
1972
1973
1974
1975
1975
1974
1973
1973
1973
1974
1974
1974
1973
1972
1971
1970
1970
1971
1971
1971
1971
1971
1971
1971
1971
1971
1971
1972
1972
1972
1971
1968
1965
1965
1968
1979
1995
2012
2022
2022
2008
1988
1968
1956
1953
1957
1963
1968
1970
1971
1971
1971
1971
1971
1971
1971
1971
1971
1971
1971
1972
1973
1974
1974
1974
1973
1973
1974
1975
1976
1977
1977
1977
1977
1976
1976
1975
1975
1976
1977
1978
1978
1979
1979
1979
1979
1979
1979
1980
1980
1980
1981
1982
1982
1982
1983
1983
1983
1983
1984
1984
1985
1985
1985
1985
1985
1984
1984
1984
1984
1984
1984
1983
1982
1981
1980
1979
1978
1978
1978
1978
1978
1978
1978
1979
1978
1978
1978
1979
1979
1979
1980
1980
1980
1980
1979
1979
1979
1979
1979
1979
1980
1980
1980
1980
1980
1979
1979
1979
1979
1980
1981
1982
1982
1981
1981
1980
1980
1981
1982
1982
1983
1982
1982
1981
1980
1980
1980
1980
1980
1981
1982
1982
1982
1982
1982
1981
1981
1982
1983
1984
1985
1985
1984
1983
1982
1981
1982
1983
1983
1984
1985
1985
1985
1985
1985
1985
1985
1986
1988
1989
1990
1990
1990
1989
1988
1987
1986
1986
1986
1987
1987
1987
1987
1986
1986
1985
1985
1985
1985
1986
1986
1987
1987
1986
1985
1983
1980
1978
1980
1987
2002
2020
2035
2040
2029
2006
1981
1962
1956
1960
1969
1977
1983
1984
1985
1985
1984
1983
1983
1984
1984
1985
1985
1984
1983
1983
1983
1983
1983
1984
1985
1985
1985
1985
1984
1983
1983
1982
1983
1984
1985
1985
1985
1984
1983
1983
1983
1983
1984
1984
1985
1985
1985
1985
1985
1985
1985
1985
1985
1986
1987
1988
1988
1988
1988
1988
1988
1988
1988
1988
1987
1987
1986
1985
1984
1982
1981
1980
1979
1978
1978
1977
1976
1975
1974
1974
1974
1974
1975
1975
1974
1974
1973
1973
1973
1973
1973
1973
1973
1974
1974
1974
1974
1974
1974
1973
1973
1973
1973
1974
1974
1974
1973
1973
1972
1972
1972
1972
1972
1973
1973
1973
1973
1972
1972
1971
1971
1971
1972
1972
1972
1972
1971
1971
1971
1970
1970
1970
1970
1970
1970
1971
1971
1971
1971
1970
1970
1969
1968
1969
1969
1970
1971
1973
1974
1973
1973
1972
1972
1973
1974
1975
1975
1974
1973
1971
1969
1968
1969
1970
1972
1972
1971
1970
1969
1968
1969
1971
1972
1974
1975
1975
1973
1968
1964
1962
1966
1977
1995
2013
2024
2023
2008
1986
1966
1953
1951
1956
1963
1969
1971
1971
1971
1971
1970
1969
1969
1970
1971
1973
1973
1973
1973
1972
1972
1972
1972
1972
1973
1973
1974
1974
1975
1975
1975
1975
1975
1975
1975
1975
1976
1977
1977
1977
1976
1975
1975
1975
1976
1976
1977
1977
1977
1977
1977
1978
1978
1978
1978
1979
1980
1980
1981
1980
1979
1979
1979
1979
1980
1980
1981
1980
1979
1978
1977
1975
1974
1973
1973
1973
1974
1974
1975
1975
1974
1974
1973
1973
1973
1974
1975
1976
1976
1976
1975
1974
1974
1974
1975
1976
1976
1976
1976
1976
1977
1977
1976
1976
1975
1975
1975
1975
1976
1977
1977
1977
1976
1976
1977
1978
1978
1978
1978
1978
1977
1977
1977
1978
1979
1980
1981
1981
1981
1981
1981
1981
1982
1982
1982
1982
1983
1983
1983
1983
1982
1982
1982
1982
1982
1982
1983
1983
1984
1985
1986
1986
1985
1985
1985
1986
1986
1986
1985
1984
1983
1983
1983
1984
1984
1983
1983
1982
1982
1982
1982
1982
1982
1982
1983
1983
1984
1983
1981
1977
1974
1975
1980
1994
2012
2028
2035
2029
2010
1986
1966
1957
1958
1965
1974
1979
1982
1983
1983
1982
1981
1980
1980
1981
1982
1983
1983
1983
1983
1982
1982
1981
1981
1981
1982
1983
1984
1985
1984
1984
1983
1982
1983
1983
1984
1985
1985
1985
1985
1985
1984
1984
1984
1984
1985
1986
1987
1988
1988
1988
1988
1987
1987
1988
1988
1990
1991
1991
1991
1991
1991
1990
1990
1991
1991
1990
1990
1989
1988
1986
1984
1982
1981
1980
1980
1980
1981
1981
1981
1980
1980
1979
1978
1978
1978
1979
1979
1980
1981
1981
1981
1980
1979
1979
1979
1979
1980
1980
1980
1979
1979
1978
1978
1977
1977
1978
1979
1980
1980
1980
1979
1978
1978
1978
1979
1979
1979
1979
1978
1978
1979
1979
1979
1979
1978
1978
1978
1978
1978
1978
1978
1978
1977
1976
1976
1976
1976
1976
1977
1978
1979
1980
1981
1981
1981
1981
1981
1980
1979
1979
1978
1978
1978
1977
1976
1975
1975
1975
1976
1977
1977
1977
1976
1975
1976
1977
1978
1978
1977
1974
1970
1967
1967
1972
1985
2003
2020
2028
2022
2003
1979
1958
1948
1949
1957
1965
1971
1973
1974
1974
1974
1973
1972
1972
1972
1973
1973
1974
1974
1974
1973
1973
1973
1973
1973
1974
1975
1975
1975
1974
1974
1973
1973
1974
1974
1975
1976
1976
1976
1976
1975
1974
1974
1974
1975
1976
1977
1977
1977
1977
1978
1978
1979
1979
1980
1981
1981
1982
1982
1981
1980
1980
1980
1980
1980
1981
1981
1980
1980
1979
1977
1975
1974
1973
1973
1972
1972
1971
1971
1970
1970
1970
1970
1970
1971
1971
1972
1972
1972
1971
1971
1970
1970
1970
1971
1973
1974
1974
1974
1973
1972
1971
1971
1971
1972
1974
1975
1974
1974
1973
1972
1972
1973
1974
1975
1975
1975
1974
1973
1972
1972
1972
1972
1973
1973
1973
1973
1973
1973
1973
1973
1973
1973
1973
1973
1973
1973
1974
1974
1974
1973
1972
1971
1971
1972
1974
1976
1978
1979
1978
1977
1976
1975
1975
1976
1977
1977
1976
1975
1974
1974
1974
1974
1974
1974
1975
1975
1975
1975
1975
1974
1973
1973
1974
1975
1974
1971
1968
1967
1970
1980
1997
2014
2026
2025
2012
1991
1971
1958
1955
1959
1965
1970
1972
1973
1973
1973
1973
1973
1973
1973
1973
1973
1974
1975
1975
1976
1976
1975
1975
1975
1974
1974
1974
1975
1976
1977
1977
1977
1977
1977
1976
1976
1976
1976
1977
1977
1977
1978
1978
1978
1978
1978
1978
1979
1979
1980
1981
1981
1981
1980
1980
1980
1980
1981
1982
1982
1983
1983
1983
1983
1982
1981
1981
1980
1980
1979
1979
1978
1977
1976
1974
1973
1973
1972
1973
1974
1975
1976
1976
1976
1975
1975
1974
1974
1974
1975
1975
1975
1974
1974
1973
1973
1973
1973
1974
1975
1976
1976
1975
1974
1974
1973
1973
1973
1974
1974
1975
1975
1975
1974
1974
1974
1975
1975
1975
1975
1975
1975
1975
1975
1975
1974
1974
1975
1975
1976
1976
1976
1976
1976
1976
1976
1976
1976
1976
1977
1977
1976
1976
1976
1975
1975
1975
1975
1976
1977
1978
1978
1979
1979
1979
1978
1978
1978
1979
1979
1979
1979
1978
1977
1976
1975
1976
1977
1977
1977
1977
1976
1976
1975
1974
1974
1975
1976
1977
1978
1978
1975
1971
1968
1968
1974
1988
2007
2023
2029
2022
2004
1982
1964
1956
1957
1963
1970
1974
1976
1976
1976
1975
1974
1973
1973
1974
1974
1976
1977
1977
1977
1977
1977
1977
1977
1977
1977
1978
1978
1978
1979
1979
1978
1978
1978
1978
1978
1979
1979
1980
1980
1980
1979
1979
1979
1979
1980
1981
1982
1982
1983
1982
1982
1982
1982
1982
1983
1984
1984
1985
1985
1985
1985
1984
1984
1984
1984
1984
1983
1983
1983
1982
1981
1980
1979
1978
1978
1978
1979
1979
1979
1979
1978
1977
1977
1977
1978
1978
1979
1979
1979
1979
1978
1978
1977
1977
1977
1978
1979
1980
1980
1980
1979
1978
1977
1977
1977
1978
1979
1980
1980
1980
1979
1978
1978
1978
1979
1979
1979
1980
1980
1980
1979
1979
1978
1978
1979
1979
1979
1980
1980
1980
1980
1980
1979
1979
1979
1979
1979
1980
1980
1980
1979
1979
1979
1979
1979
1980
1980
1980
1980
1980
1980
1981
1982
1984
1985
1985
1985
1984
1983
1982
1982
1982
1982
1982
1982
1982
1982
1982
1982
1981
1981
1980
1980
1980
1981
1981
1982
1982
1983
1982
1980
1977
1974
1974
1980
1993
2012
2029
2036
2029
2009
1984
1964
1956
1958
1966
1975
1980
1981
1981
1981
1981
1981
1981
1981
1981
1982
1982
1983
1983
1982
1982
1981
1981
1982
1982
1983
1984
1985
1984
1984
1984
1984
1984
1984
1984
1985
1985
1985
1985
1985
1985
1984
1985
1985
1986
1987
1987
1988
1988
1987
1987
1987
1987
1989
1990
1991
1992
1991
1990
1990
1990
1990
1990
1991
1991
1991
1991
1989
1988
1986
1984
1983
1982
1982
1982
1982
1982
1981
1981
1980
1978
1978
1978
1978
1978
1979
1979
1979
1979
1978
1977
1977
1977
1978
1979
1979
1979
1979
1979
1979
1978
1978
1977
1977
1978
1978
1978
1978
1978
1978
1978
1977
1977
1977
1977
1978
1978
1978
1978
1977
1976
1976
1976
1977
1977
1978
1978
1978
1977
1976
1976
1976
1976
1977
1977
1978
1977
1976
1975
1974
1973
1973
1974
1976
1978
1980
1980
1980
1979
1978
1977
1977
1977
1977
1977
1978
1977
1977
1975
1974
1974
1974
1974
1975
1976
1977
1976
1976
1975
1974
1974
1975
1974
1972
1970
1968
1969
1976
1989
2007
2021
2024
2014
1994
1971
1955
1949
1953
1960
1967
1971
1973
1973
1973
1972
1972
1972
1973
1973
1973
1972
1972
1972
1973
1974
1975
1975
1975
1974
1973
1973
1973
1973
1973
1974
1974
1975
1975
1975
1974
1974
1974
1974
1975
1975
1975
1975
1975
1975
1975
1975
1976
1976
1977
1977
1978
1979
1980
1980
1979
1979
1978
1979
1980
1981
1981
1981
1980
1979
1979
1978
1977
1977
1976
1976
1975
1974
1973
1972
1971
1970
1970
1969
1970
1970
1971
1971
1971
1971
1970
1970
1970
1971
1971
1972
1972
1972
1973
1972
1972
1971
1971
1971
1971
1972
1972
1972
1972
1972
1971
1971
1971
1971
1971
1972
1973
1973
1972
1972
1971
1971
1971
1971
1972
1972
1973
1973
1973
1972
1972
1972
1972
1972
1973
1973
1974
1974
1974
1973
1972
1971
1971
1972
1973
1974
1974
1974
1974
1974
1974
1973
1973
1973
1973
1974
1975
1975
1975
1975
1974
1973
1972
1972
1973
1974
1975
1976
1977
1977
1977
1977
1977
1977
1977
1977
1977
1977
1976
1976
1975
1974
1974
1974
1974
1975
1976
1976
1976
1976
1975
1975
1974
1975
1976
1977
1976
1973
1969
1968
1971
1982
1998
2016
2027
2025
2010
1989
1968
1957
1955
1959
1966
1971
1974
1975
1976
1975
1974
1973
1972
1972
1972
1973
1974
1975
1975
1975
1975
1975
1975
1975
1975
1975
1975
1976
1977
1978
1978
1977
1976
1975
1975
1975
1976
1977
1977
1978
1978
1978
1978
1978
1978
1979
1979
1979
1980
1980
1980
1980
1980
1980
1981
1981
1982
1982
1982
1982
1982
1981
1981
1981
1981
1981
1981
1981
1981
1980
1979
1979
1978
1977
1975
1974
1973
1973
1974
1975
1975
1975
1974
1973
1973
1974
1974
1975
1976
1976
1976
1975
1974
1974
1974
1974
1975
1976
1977
1977
1976
1976
1975
1974
1974
1974
1975
1976
1977
1977
1977
1977
1975
1974
1974
1974
1975
1975
1976
1976
1976
1976
1975
1975
1975
1975
1976
1976
1977
1977
1977
1977
1977
1976
1976
1975
1975
1976
1976
1977
1978
1977
1977
1976
1976
1976
1976
1977
1977
1978
1978
1977
1977
1976
1976
1976
1976
1977
1977
1978
1978
1978
1977
1977
1976
1976
1977
1977
1978
1978
1978
1978
1977
1976
1976
1975
1975
1975
1976
1977
1978
1979
1979
1979
1979
1980
1980
1981
1981
1980
1979
1978
1977
1977
1976
1977
1977
1977
1978
1978
1978
1977
1977
1977
1977
1977
1978
1979
1979
1978
1975
1971
1969
1971
1980
1997
2016
2029
2029
2017
1996
1975
1961
1957
1961
1967
1973
1976
1976
1977
1976
1976
1975
1975
1975
1975
1976
1976
1976
1976
1976
1976
1976
1977
1977
1977
1978
1978
1979
1979
1978
1978
1978
1978
1978
1978
1979
1980
1980
1981
1980
1980
1979
1978
1979
1979
1980
1981
1982
1982
1982
1982
1981
1981
1981
1982
1982
1983
1983
1984
1984
1983
1983
1982
1982
1982
1983
1983
1984
1983
1983
1982
1980
1979
1978
1977
1978
1978
1978
1978
1978
1977
1977
1976
1976
1976
1976
1977
1977
1978
1978
1977
1977
1977
1977
1978
1978
1978
1978
1979
1979
1979
1979
1978
1977
1977
1978
1978
1979
1979
1979
1978
1978
1977
1977
1978
1978
1979
1979
1979
1979
1980
1980
1979
1979
1979
1979
1979
1980
1980
1981
1980
1980
1979
1978
1978
1979
1980
1980
1981
1981
1980
1980
1979
1980
1980
1981
1982
1981
1981
1980
1980
1981
1981
1981
1981
1981
1981
1981
1981
1981
1982
1981
1981
1981
1981
1981
1982
1982
1982
1982
1982
1981
1981
1981
1982
1982
1982
1982
1981
1981
1981
1981
1982
1983
1984
1984
1984
1984
1984
1984
1985
1984
1983
1982
1982
1982
1983
1983
1982
1982
1981
1981
1981
1981
1981
1982
1983
1984
1984
1984
1983
1980
1977
1975
1974
1976
1985
2000
2019
2032
2035
2023
2001
1977
1961
1956
1961
1969
1977
1980
1981
1980
1979
1979
1979
1980
1982
1982
1982
1982
1981
1981
1981
1981
1982
1983
1983
1983
1983
1982
1982
1982
1982
1981
1982
1982
1983
1983
1984
1984
1983
1983
1983
1982
1983
1984
1985
1986
1986
1985
1984
1984
1983
1983
1984
1984
1985
1986
1987
1988
1987
1987
1986
1986
1985
1986
1987
1987
1987
1987
1985
1984
1982
1982
1981
1981
1981
1980
1980
1979
1978
1977
1976
1976
1975
1976
1976
1977
1977
1977
1977
1976
1974
1974
1974
1975
1977
1978
1978
1978
1977
1976
1975
1975
1974
1975
1975
1975
1976
1976
1975
1975
1974
1974
1973
1974
1974
1975
1976
1976
1976
1975
1975
1974
1975
1975
1976
1976
1977
1976
1976
1975
1974
1974
1974
1974
1974
1975
1975
1976
1976
1976
1975
1974
1974
1973
1973
1974
1974
1975
1975
1975
1975
1974
1974
1974
1974
1975
1975
1975
1975
1975
1974
1974
1974
1975
1975
1975
1975
1975
1974
1973
1973
1974
1975
1976
1977
1978
1978
1978
1977
1977
1977
1977
1977
1976
1976
1976
1976
1975
1975
1974
1974
1973
1974
1974
1975
1976
1976
1976
1976
1976
1975
1974
1972
1969
1967
1968
1973
1985
2002
2018
2026
2021
2004
1981
1963
1954
1954
1960
1967
1971
1973
1973
1973
1973
1973
1973
1973
1973
1974
1974
1974
1973
1973
1974
1974
1975
1976
1976
1975
1975
1974
1974
1974
1975
1975
1976
1977
1977
1976
1976
1975
1975
1976
1977
1977
1978
1978
1978
1978
1978
1978
1978
1979
1979
1979
1979
1979
1979
1980
1980
1980
1980
1981
1982
1982
1982
1982
1982
1982
1981
1980
1979
1978
1978
1978
1979
1979
1977
1976
1974
1973
1973
1973
1974
1974
1975
1975
1974
1974
1973
1973
1973
1973
1974
1974
1975
1975
1975
1975
1975
1974
1974
1974
1974
1974
1975
1975
1975
1975
1974
1974
1974
1974
1974
1975
1975
1975
1975
1975
1975
1974
1973
1973
1973
1974
1975
1976
1976
1975
1974
1974
1974
1975
1975
1975
1975
1975
1975
1975
1975
1975
1975
1975
1975
1975
1976
1976
1976
1976
1975
1975
1975
1974
1975
1975
1976
1976
1976
1976
1975
1975
1975
1975
1976
1976
1976
1976
1976
1976
1975
1975
1974
1974
1974
1975
1976
1977
1977
1978
1978
1978
1978
1978
1979
1979
1979
1980
1980
1979
1979
1978
1977
1976
1976
1976
1976
1977
1977
1977
1976
1976
1976
1976
1977
1978
1979
1979
1978
1974
1970
1967
1969
1979
1996
2015
2028
2029
2016
1995
1973
1959
1954
1958
1965
1971
1974
1975
1975
1975
1975
1974
1974
1974
1975
1975
1976
1976
1977
1976
1976
1976
1976
1976
1977
1977
1977
1977
1976
1976
1976
1976
1977
1977
1978
1978
1979
1979
1979
1979
1978
1978
1978
1978
1979
1980
1980
1980
1980
1980
1980
1980
1980
1980
1981
1982
1983
1983
1983
1982
1981
1980
1980
1980
1981
1982
1983
1983
1982
1981
1979
1978
1977
1977
1977
1976
1976
1975
1975
1974
1974
1974
1974
1974
1975
1975
1975
1976
1975
1975
1974
1974
1974
1975
1976
1976
1977
1976
1976
1975
1974
1974
1974
1974
1975
1975
1976
1976
1975
1975
1974
1974
1974
1974
1975
1975
1975
1976
1975
1975
1975
1975
1975
1975
1976
1976
1976
1976
1975
1975
1975
1974
1975
1975
1975
1975
1976
1976
1976
1976
1975
1975
1975
1975
1976
1976
1977
1977
1976
1976
1976
1976
1976
1976
1976
1976
1977
1977
1977
1976
1976
1975
1975
1975
1975
1976
1977
1978
1979
1979
1979
1979
1979
1979
1979
1979
1979
1979
1978
1978
1977
1977
1977
1976
1976
1977
1977
1977
1977
1977
1976
1976
1975
1976
1976
1977
1976
1974
1972
1972
1976
1988
2005
2021
2029
2024
2006
1984
1965
1956
1957
1963
1970
1975
1977
1978
1978
1977
1976
1975
1974
1975
1975
1976
1977
1977
1977
1977
1977
1977
1977
1978
1978
1978
1978
1978
1978
1978
1979
1979
1979
1978
1978
1978
1979
1980
1981
1981
1981
1981
1980
1980
1980
1980
1981
1981
1982
1983
1983
1983
1982
1982
1982
1983
1984
1985
1986
1986
1986
1985
1984
1984
1984
1984
1985
1985
1984
1983
1981
1980
1979
1978
1978
1978
1978
1978
1979
1979
1979
1978
1978
1977
1977
1977
1977
1978
1978
1979
1978
1978
1978
1978
1978
1978
1979
1979
1979
1978
1978
1977
1977
1976
1976
1977
1978
1979
1979
1979
1979
1978
1978
1977
1978
1978
1978
1978
1978
1978
1978
1978
1978
1979
1979
1979
1979
1980
1980
1980
1980
1979
1978
1978
1979
1979
1980
1981
1980
1980
1979
1979
1979
1979
1979
1979
1980
1981
1981
1981
1980
1979
1978
1978
1978
1979
1980
1981
1982
1982
1982
1982
1982
1982
1982
1982
1983
1983
1984
1983
1982
1981
1980
1979
1979
1979
1979
1979
1979
1979
1980
1980
1980
1980
1980
1980
1980
1978
1976
1974
1974
1978
1989
2005
2021
2030
2026
2010
1988
1968
1957
1957
1963
1971
1976
1978
1979
1978
1977
1977
1977
1978
1979
1980
1980
1979
1979
1979
1979
1977
1974
1970
1968
1969
1974
1981
1988
1992
1994
1993
1992
1989
1988
1986
1986
1986
1985
1985
1985
1985
1986
1985
1985
1984
1984
1985
1986
1987
1987
1988
1988
1988
1988
1988
1988
1989
1990
1991
1992
1992
1992
1991
1989
1989
1988
1989
1989
1989
1989
1988
1987
1986
1985
1984
1983
1983
1982
1982
1982
1982
1982
1982
1981
1980
1980
1980
1981
1981
1982
1982
1982
1981
1981
1980
1980
1979
1980
1982
1984
1985
1985
1984
1982
1980
1979
1979
1980
1981
1981
1982
1982
1983
1983
1983
1983
1982
1982
1982
1983
1983
1983
1983
1982
1981
1980
1980
1980
1980
1981
1981
1982
1981
1980
1979
1979
1979
1979
1980
1980
1981
1980
1980
1979
1978
1978
1977
1977
1977
1978
1979
1979
1980
1980
1980
1979
1979
1979
1980
1981
1982
1982
1981
1979
1977
1976
1976
1977
1977
1978
1979
1979
1978
1976
1975
1975
1976
1977
1978
1978
1977
1975
1972
1970
1971
1976
1987
2001
2012
2016
2010
1996
1980
1968
1962
1963
1967
1971
1973
1974
1975
1975
1974
1974
1973
1973
1974
1974
1975
1975
1976
1976
1976
1976
1976
1975
1975
1975
1976
1977
1978
1979
1979
1978
1977
1977
1977
1978
1979
1979
1979
1978
1977
1976
1977
1978
1980
1981
1982
1982
1982
1982
1982
1981
1981
1981
1981
1982
1983
1983
1984
1984
1984
1984
1983
1982
1982
1983
1984
1985
1984
1983
1982
1981
1980
1980
1980
1979
1979
1979
1979
1979
1979
1979
1979
1979
1979
1980
1980
1980
1979
1979
1978
1977
1977
1977
1978
1978
1979
1980
1980
1979
1978
1977
1976
1976
1976
1977
1978
1978
1978
1977
1976
1975
1975
1975
1976
1977
1978
1978
1978
1978
1977
1976
1976
1977
1977
1978
1979
1979
1979
1979
1979
1978
1979
1979
1980
1981
1982
1982
1983
1982
1982
1981
1980
1980
1980
1980
1981
1981
1983
1984
1985
1985
1985
1985
1984
1984
1984
1985
1985
1985
1985
1984
1983
1983
1982
1983
1984
1984
1984
1983
1981
1981
1981
1982
1983
1984
1985
1984
1983
1980
1977
1976
1979
1989
2005
2022
2032
2030
2015
1993
1972
1960
1959
1965
1973
1980
1983
1984
1984
1983
1982
1981
1981
1981
1982
1984
1985
1985
1985
1985
1984
1983
1982
1982
1983
1984
1984
1984
1984
1985
1985
1986
1986
1987
1987
1987
1987
1988
1988
1988
1987
1986
1985
1985
1987
1988
1991
1992
1992
1992
1991
1990
1989
1988
1989
1990
1992
1995
1996
1996
1994
1993
1991
1991
1991
1991
1992
1992
1992
1990
1988
1986
1984
1983
1983
1983
1984
1983
1983
1982
1980
1979
1979
1979
1980
1981
1982
1983
1983
1982
1981
1980
1980
1980
1980
1981
1981
1981
1981
1981
1981
1980
1980
1980
1980
1980
1981
1980
1980
1980
1979
1978
1978
1978
1979
1979
1979
1979
1978
1978
1978
1978
1978
1978
1978
1978
1978
1978
1978
1978
1978
1977
1977
1976
1976
1976
1977
1977
1978
1979
1980
1980
1979
1978
1978
1978
1979
1979
1978
1977
1976
1975
1974
1974
1974
1975
1975
1976
1977
1976
1975
1974
1974
1974
1975
1976
1976
1975
1972
1968
1967
1970
1979
1995
2012
2024
2023
2009
1986
1965
1952
1950
1955
1963
1970
1974
1976
1976
1976
1974
1974
1973
1974
1975
1975
1975
1976
1976
1976
1976
1976
1976
1976
1976
1976
1977
1977
1977
1977
1977
1977
1976
1976
1976
1976
1977
1978
1978
1978
1978
1978
1978
1978
1978
1979
1980
1981
1981
1981
1981
1981
1980
1980
1980
1981
1983
1984
1984
1984
1983
1982
1982
1982
1982
1982
1982
1982
1981
1980
1978
1977
1976
1975
1974
1974
1974
1974
1974
1974
1974
1974
1973
1973
1973
1974
1974
1975
1975
1975
1975
1974
1974
1974
1974
1975
1975
1976
1976
1977
1976
1976
1975
1975
1975
1975
1975
1976
1977
1977
1976
1976
1975
1974
1974
1974
1975
1975
1976
1976
1975
1975
1974
1974
1974
1975
1975
1975
1976
1976
1975
1975
1974
1973
1973
1972
1974
1975
1977
1978
1978
1978
1977
1977
1977
1977
1976
1976
1975
1975
1976
1976
1976
1975
1974
1974
1974
1975
1976
1977
1976
1976
1975
1974
1974
1975
1975
1974
1971
1969
1969
1975
1989
2006
2021
2025
2016
1997
1975
1960
1954
1957
1964
1971
1974
1975
1975
1975
1975
1975
1975
1975
1975
1974
1974
1975
1975
1976
1977
1977
1977
1977
1976
1976
1976
1976
1976
1977
1978
1978
1978
1978
1977
1976
1976
1977
1977
1978
1979
1979
1979
1978
1978
1978
1979
1979
1980
1980
1981
1981
1982
1982
1982
1982
1982
1982
1982
1983
1984
1984
1983
1983
1982
1981
1980
1980
1980
1979
1979
1979
1978
1977
1976
1975
1974
1974
1974
1975
1975
1975
1975
1974
1974
1974
1974
1974
1975
1976
1976
1976
1975
1975
1975
1974
1974
1974
1974
1975
1975
1975
1975
1975
1975
1975
1974
1974
1974
1975
1975
1975
1975
1975
1974
1974
1975
1975
1975
1975
1975
1975
1975
1975
1975
1974
1974
1974
1974
1975
1975
1975
1975
1975
1974
1974
1974
1974
1974
1975
1976
1976
1976
1976
1975
1975
1974
1975
1975
1975
1975
1975
1974
1973
1973
1973
1974
1975
1977
1978
1978
1979
1979
1979
1978
1977
1976
1976
1976
1976
1976
1976
1975
1975
1974
1974
1974
1974
1975
1976
1976
1977
1977
1977
1976
1975
1972
1969
1968
1969
1976
1990
2007
2021
2026
2018
1999
1978
1962
1955
1958
1964
1970
1974
1974
1974
1973
1972
1973
1974
1975
1976
1976
1975
1974
1974
1974
1974
1975
1976
1976
1976
1976
1976
1976
1975
1975
1975
1976
1976
1977
1977
1977
1977
1977
1977
1977
1978
1978
1978
1979
1979
1979
1979
1979
1979
1979
1979
1979
1980
1981
1982
1983
1983
1982
1982
1981
1981
1981
1982
1983
1983
1983
1982
1981
1980
1979
1979
1979
1978
1977
1977
1976
1976
1975
1974
1974
1974
1975
1976
1977
1977
1976
1975
1974
1974
1974
1975
1975
1975
1976
1976
1977
1977
1976
1975
1975
1975
1975
1976
1977
1977
1976
1976
1975
1975
1975
1975
1976
1976
1976
1976
1976
1976
1976
1975
1975
1975
1975
1976
1976
1977
1977
1977
1976
1975
1975
1975
1976
1977
1977
1977
1977
1976
1976
1976
1975
1975
1976
1976
1977
1977
1977
1976
1976
1975
1975
1975
1976
1976
1977
1977
1977
1976
1976
1975
1975
1976
1976
1976
1977
1977
1977
1977
1976
1976
1976
1976
1976
1976
1976
1975
1974
1973
1973
1974
1976
1977
1979
1979
1980
1979
1979
1978
1977
1977
1976
1976
1976
1976
1976
1976
1976
1976
1976
1975
1975
1975
1976
1976
1977
1977
1978
1977
1975
1973
1969
1967
1969
1977
1992
2010
2024
2027
2017
1997
1976
1961
1957
1960
1967
1972
1975
1975
1975
1974
1973
1973
1974
1976
1977
1977
1976
1975
1975
1975
1975
1975
1976
1977
1977
1977
1977
1977
1977
1977
1977
1977
1978
1979
1979
1980
1979
1979
1978
1978
1978
1978
1979
1981
1982
1982
1982
1982
1981
1981
1981
1982
1983
1983
1984
1985
1985
1985
1984
1984
1983
1984
1984
1985
1986
1986
1985
1985
1983
1982
1982
1981
1981
1981
1981
1981
1980
1980
1979
1978
1977
1977
1978
1979
1980
1980
1980
1979
1979
1978
1978
1978
1979
1980
1980
1980
1980
1979
1979
1979
1979
1979
1979
1980
1980
1980
1980
1979
1979
1979
1979
1979
1980
1980
1980
1980
1980
1980
1980
1980
1980
1980
1980
1980
1981
1981
