1977
1977
1976
1976
1976
1977
1977
1978
1978
1978
1978
1978
1978
1978
1978
1978
1979
1979
1979
1979
1979
1978
1978
1978
1979
1979
1979
1978
1977
1976
1975
1975
1976
1977
1980
1983
1987
1990
1991
1991
1990
1988
1986
1985
1984
1983
1982
1981
1980
1980
1980
1979
1979
1979
1979
1979
1981
1982
1982
1981
1976
1969
1962
1967
1989
2028
2070
2098
2094
2058
2005
1958
1934
1937
1958
1981
1996
2000
1996
1991
1987
1985
1984
1985
1985
1986
1987
1988
1988
1989
1989
1989
1989
1990
1990
1991
1992
1993
1994
1995
1995
1995
1996
1997
1998
1999
2000
2001
2002
2002
2003
2004
2005
2007
2008
2011
2013
2015
2018
2020
2023
2025
2028
2031
2035
2039
2043
2048
2051
2054
2056
2058
2058
2058
2056
2053
2048
2040
2031
2021
2012
2003
1994
1987
1980
1975
1972
1970
1969
1968
1967
1965
1964
1964
1964
1964
1965
1965
1965
1965
1966
1966
1966
1967
1967
1968
1969
1970
1970
1970
1970
1970
1970
1971
1972
1972
1972
1972
1972
1973
1974
1974
1974
1973
1973
1973
1974
1974
1975
1975
1976
1976
1975
1975
1975
1975
1976
1976
1977
1977
1976
1975
1975
1975
1975
1976
1977
1977
1978
1978
1977
1977
1976
1976
1976
1977
1977
1978
1978
1979
1979
1979
1979
1978
1978
1979
1979
1980
1980
1980
1980
1979
1979
1979
1979
1979
1980
1980
1981
1981
1981
1981
1981
1981
1981
1980
1980
1979
1979
1979
1979
1979
1980
1981
1981
1981
1981
1981
1982
1982
1982
1983
1982
1982
1982
1982
1982
1983
1983
1982
1982
1981
1980
1979
1979
1980
1980
1980
1980
1981
1982
1985
1988
1992
1994
1995
1995
1993
1991
1990
1989
1988
1986
1984
1983
1983
1984
1985
1985
1984
1984
1983
1983
1983
1984
1983
1981
1976
1969
1969
1986
2021
2066
2102
2104
2068
2006
1944
1909
1909
1936
1969
1992
2002
2003
1999
1995
1993
1992
1993
1993
1994
1995
1995
1996
1996
1997
1997
1998
1999
2000
2001
2001
2002
2002
2002
2003
2005
2006
2008
2008
2008
2009
2010
2011
2013
2015
2016
2018
2020
2021
2023
2024
2026
2029
2033
2037
2041
2045
2048
2052
2056
2060
2064
2069
2073
2077
2079
2081
2080
2078
2074
2068
2058
2048
2035
2024
2013
2004
1996
1989
1983
1978
1974
1972
1970
1969
1968
1967
1966
1966
1966
1966
1966
1966
1966
1967
1967
1967
1966
1965
1965
1965
1966
1967
1969
1971
1972
1972
1971
1969
1968
1968
1968
1969
1971
1972
1973
1973
1973
1972
1972
1972
1972
1972
1972
1972
1973
1974
1974
1973
1972
1971
1970
1971
1972
1973
1974
1974
1974
1973
1973
1972
1972
1972
1972
1973
1973
1973
1973
1973
1973
1973
1973
1974
1974
1974
1974
1974
1974
1974
1973
1973
1973
1973
1974
1975
1976
1977
1976
1975
1973
1971
1970
1969
1970
1972
1974
1977
1981
1985
1987
1988
1987
1985
1984
1983
1982
1981
1979
1977
1975
1974
1974
1974
1975
1975
1976
1977
1977
1977
1977
1976
1972
1966
1959
1961
1982
2021
2066
2096
2090
2047
1983
1926
1899
1906
1936
1968
1988
1995
1994
1989
1986
1984
1984
1984
1984
1985
1986
1987
1988
1989
1989
1989
1990
1990
1991
1992
1993
1993
1993
1993
1993
1994
1996
1997
1999
2001
2002
2002
2003
2003
2004
2005
2007
2010
2013
2015
2018
2020
2023
2025
2029
2032
2037
2042
2047
2051
2055
2059
2062
2065
2068
2070
2071
2069
2064
2056
2047
2036
2023
2011
2000
1991
1984
1978
1973
1970
1966
1963
1961
1960
1959
1959
1959
1960
1960
1960
1960
1960
1960
1959
1959
1959
1960
1961
1961
1962
1962
1962
1962
1962
1963
1963
1963
1964
1965
1966
1967
1967
1966
1966
1967
1967
1968
1969
1970
1970
1969
1968
1968
1968
1968
1968
1969
1969
1970
1970
1970
1970
1969
1969
1969
1969
1969
1970
1971
1971
1971
1971
1970
1970
1970
1970
1971
1971
1971
1971
1971
1970
1970
1970
1971
1971
1971
1972
1973
1973
1973
1973
1973
1972
1972
1973
1973
1973
1973
1974
1974
1973
1973
1973
1973
1973
1973
1973
1972
1971
1970
1970
1970
1970
1973
1976
1980
1984
1986
1987
1986
1983
1981
1979
1978
1977
1976
1975
1975
1974
1974
1973
1973
1972
1972
1972
1973
1974
1976
1976
1973
1966
1957
1954
1969
2002
2048
2085
2094
2067
2015
1960
1926
1921
1940
1966
1985
1992
1991
1986
1981
1978
1977
1977
1977
1977
1978
1979
1980
1981
1982
1982
1983
1983
1983
1983
1983
1984
1985
1986
1987
1987
1987
1988
1988
1989
1990
1991
1992
1994
1995
1996
1997
1998
1999
2001
2003
2006
2009
2011
2014
2017
2020
2023
2027
2031
2035
2039
2042
2045
2048
2048
2048
2048
2046
2041
2034
2026
2017
2007
1997
1988
1980
1973
1967
1963
1960
1958
1957
1956
1955
1954
1953
1953
1953
1953
1953
1954
1954
1955
1955
1955
1955
1955
1955
1956
1956
1957
1958
1959
1959
1959
1959
1958
1958
1959
1960
1961
1962
1963
1962
1962
1962
1961
1962
1962
1963
1964
1964
1964
1964
1964
1964
1964
1964
1964
1964
1965
1965
1965
1965
1965
1965
1965
1965
1965
1965
1966
1966
1967
1966
1966
1966
1966
1966
1967
1968
1969
1969
1969
1969
1969
1968
1968
1968
1969
1969
1970
1970
1971
1971
1971
1970
1970
1970
1970
1971
1971
1972
1972
1972
1972
1972
1972
1971
1972
1972
1973
1974
1975
1975
1974
1974
1973
1973
1973
1974
1974
1975
1975
1975
1975
1975
1975
1975
1975
1975
1976
1976
1977
1977
1977
1976
1976
1975
1976
1976
1977
1978
1979
1979
1979
1978
1978
1978
1978
1979
1979
1980
1980
1980
1980
1979
1979
1979
1979
1979
1978
1977
1977
1977
1977
1978
1979
1982
1985
1988
1991
1992
1992
1991
1989
1988
1986
1985
1984
1983
1982
1981
1981
1982
1982
1982
1981
1981
1981
1982
1984
1984
1983
1977
1970
1964
1970
1995
2036
2078
2105
2100
2064
2013
1969
1949
1953
1971
1990
1999
2000
1996
1990
1987
1985
1985
1985
1985
1986
1987
1988
1989
1989
1990
1990
1990
1990
1991
1991
1992
1993
1994
1995
1995
1995
1996
1996
1997
1998
1999
2000
2001
2002
2003
2004
2005
2006
2008
2009
2011
2014
2016
2019
2021
2024
2026
2029
2032
2035
2039
2043
2047
2049
2052
2053
2054
2053
2052
2049
2046
2040
2032
2024
2015
2006
1998
1991
1986
1981
1978
1975
1973
1972
1971
1969
1968
1967
1967
1967
1967
1967
1968
1969
1969
1969
1969
1968
1968
1969
1970
1971
1972
1973
1973
1972
1972
1971
1971
1971
1972
1973
1974
1974
1975
1975
1974
1974
1974
1973
1974
1975
1975
1975
1975
1975
1975
1974
1974
1974
1974
1974
1975
1975
1975
1975
1974
1974
1974
1974
1975
1976
1976
1976
1976
1976
1975
1975
1975
1975
1976
1976
1977
1978
1978
1977
1977
1977
1976
1977
1977
1978
1978
1978
1978
1978
1977
1977
1977
1977
1978
1979
1979
1979
1979
1978
1977
1977
1977
1977
1978
1978
1979
1979
1979
1979
1978
1978
1978
1978
1978
1979
1979
1979
1979
1979
1978
1978
1978
1978
1979
1979
1980
1980
1979
1979
1978
1978
1978
1978
1979
1980
1980
1980
1980
1980
1980
1979
1979
1979
1979
1979
1979
1979
1979
1979
1979
1979
1979
1979
1979
1979
1980
1980
1980
1980
1979
1979
1978
1979
1979
1980
1980
1979
1978
1977
1975
1975
1975
1975
1977
1980
1984
1987
1989
1990
1990
1988
1986
1985
1984
1984
1983
1982
1981
1979
1978
1977
1977
1977
1977
1978
1978
1979
1980
1980
1978
1973
1965
1958
1963
1986
2027
2071
2099
2093
2054
1999
1951
1928
1934
1956
1979
1993
1996
1992
1986
1982
1980
1980
1980
1981
1982
1983
1984
1984
1984
1984
1984
1985
1985
1987
1987
1988
1988
1989
1989
1989
1990
1991
1992
1993
1994
1995
1996
1996
1997
1997
1998
1999
2001
2004
2006
2007
2009
2011
2012
2015
2018
2021
2025
2029
2033
2037
2040
2043
2046
2048
2049
2051
2052
2052
2050
2046
2039
2030
2020
2010
2001
1993
1986
1979
1974
1970
1966
1963
1960
1959
1957
1957
1957
1957
1957
1957
1957
1957
1956
1956
1956
1956
1957
1958
1958
1959
1960
1960
1960
1960
1960
1960
1961
1962
1963
1963
1963
1963
1963
1963
1963
1963
1963
1964
1965
1965
1965
1965
1964
1963
1963
1963
1963
1964
1964
1965
1965
1965
1964
1964
1964
1964
1964
1965
1965
1965
1965
1965
1964
1964
1964
1964
1965
1966
1967
1967
1967
1966
1966
1966
1966
1966
1967
1967
1967
1968
1968
1968
1968
1968
1968
1968
1968
1968
1968
1969
1969
1968
1968
1968
1968
1968
1969
1969
1970
1970
1970
1970
1969
1969
1969
1969
1970
1970
1970
1970
1970
1970
1970
1970
1970
1970
1971
1971
1972
1972
1972
1972
1971
1971
1971
1971
1972
1972
1972
1972
1972
1972
1972
1972
1972
1972
1973
1974
1974
1974
1974
1973
1973
1973
1973
1973
1974
1975
1975
1975
1975
1973
1972
1970
1969
1969
1970
1972
1975
1977
1980
1983
1985
1986
1985
1984
1983
1982
1982
1981
1979
1977
1975
1974
1974
1974
1975
1975
1976
1976
1976
1977
1977
1977
1974
1969
1962
1958
1967
1993
2035
2076
2099
2088
2048
1995
1952
1934
1942
1963
1983
1992
1992
1987
1982
1979
1979
1979
1980
1980
1981
1981
1981
1981
1982
1982
1983
1984
1985
1986
1986
1987
1987
1987
1988
1988
1989
1990
1992
1993
1994
1994
1995
1995
1996
1997
1999
2001
2003
2004
2006
2007
2009
2011
2013
2016
2019
2023
2027
2030
2034
2037
2040
2043
2046
2048
2051
2052
2053
2052
2048
2043
2035
2026
2017
2008
1999
1992
1985
1979
1974
1970
1967
1964
1962
1961
1961
1961
1961
1961
1961
1960
1959
1959
1959
1960
1961
1962
1963
1963
1963
1963
1963
1963
1963
1964
1965
1966
1967
1967
1968
1967
1967
1967
1967
1967
1968
1969
1969
1970
1970
1969
1969
1968
1968
1968
1969
1970
1971
1971
1970
1970
1969
1969
1969
1969
1969
1970
1970
1970
1971
1971
1970
1970
1970
1971
1971
1971
1972
1972
1972
1972
1972
1971
1971
1972
1972
1973
1973
1974
1974
1974
1973
1973
1973
1974
1974
1974
1974
1974
1974
1974
1974
1974
1974
1974
1975
1975
1976
1976
1976
1976
1976
1975
1975
1975
1975
1976
1977
1977
1977
1977
1976
1976
1975
1976
1976
1977
1977
1977
1977
1977
1977
1977
1977
1977
1977
1978
1978
1978
1978
1978
1978
1978
1978
1978
1978
1979
1979
1979
1979
1979
1979
1978
1978
1979
1979
1980
1980
1979
1977
1975
1974
1973
1974
1976
1980
1984
1987
1990
1992
1991
1990
1987
1985
1984
1984
1983
1982
1981
1980
1979
1979
1978
1978
1978
1979
1979
1980
1981
1981
1979
1974
1966
1960
1966
1990
2031
2073
2099
2093
2055
2002
1956
1934
1939
1960
1982
1995
1998
1994
1988
1985
1983
1982
1983
1984
1985
1986
1987
1987
1987
1986
1986
1987
1987
1989
1990
1991
1992
1993
1993
1993
1993
1994
1995
1996
1997
1999
2000
2001
2001
2002
2003
2004
2005
2008
2010
2013
2015
2017
2019
2021
2024
2027
2030
2035
2039
2044
2048
2050
2054
2056
2058
2059
2059
2058
2055
2050
2043
2034
2024
2014
2005
1996
1989
1983
1978
1975
1972
1970
1968
1966
1965
1964
1963
1963
1964
1964
1964
1964
1964
1964
1964
1964
1964
1965
1966
1967
1968
1968
1968
1968
1968
1968
1969
1970
1971
1972
1972
1972
1971
1971
1971
1971
1971
1972
1973
1973
1973
1973
1973
1972
1972
1971
1972
1972
1973
1973
1974
1973
1973
1972
1972
1972
1972
1972
1973
1973
1974
1974
1973
1973
1973
1973
1973
1973
1974
1974
1975
1974
1974
1974
1974
1974
1974
1975
1975
1976
1976
1976
1976
1975
1975
1975
1975
1976
1977
1977
1977
1977
1976
1976
1975
1975
1976
1976
1977
1977
1977
1977
1977
1976
1976
1975
1976
1976
1977
1977
1978
1978
1977
1977
1976
1976
1977
1977
1977
1978
1978
1978
1978
1977
1977
1977
1977
1977
1978
1979
1979
1979
1978
1978
1977
1977
1976
1976
1975
1975
1975
1976
1977
1978
1980
1982
1986
1989
1990
1990
1989
1987
1985
1984
1982
1980
1978
1977
1977
1977
1978
1978
1978
1977
1976
1976
1977
1979
1979
1977
1972
1964
1960
1971
1999
2042
2081
2098
2079
2033
1976
1935
1922
1935
1960
1982
1993
1995
1991
1986
1984
1982
1982
1981
1981
1981
1982
1983
1984
1986
1986
1987
1987
1986
1986
1987
1988
1989
1990
1991
1992
1993
1993
1993
1993
1994
1995
1997
1998
2000
2001
2002
2003
2004
2005
2007
2009
2012
2015
2018
2021
2024
2027
2030
2034
2037
2041
2046
2049
2053
2056
2058
2058
2057
2054
2050
2044
2036
2027
2018
2008
1999
1991
1983
1977
1972
1968
1965
1963
1962
1961
1960
1960
1959
1958
1958
1957
1957
1958
1959
1959
1960
1960
1960
1960
1960
1960
1961
1962
1963
1963
1964
1964
1964
1963
1964
1964
1965
1966
1966
1967
1967
1967
1967
1967
1967
1967
1967
1968
1968
1968
1968
1968
1968
1967
1967
1967
1967
1968
1969
1969
1969
1969
1968
1967
1967
1967
1968
1968
1969
1969
1969
1969
1968
1968
1968
1969
1969
1970
1971
1971
1971
1970
1970
1970
1970
1970
1970
1971
1972
1972
1972
1971
1971
1971
1971
1971
1972
1972
1973
1973
1973
1973
1973
1973
1972
1973
1973
1974
1974
1974
1974
1974
1974
1973
1973
1973
1974
1974
1974
1975
1975
1974
1974
1974
1974
1974
1974
1975
1976
1976
1976
1975
1975
1974
1975
1975
1976
1977
1977
1978
1977
1977
1975
1973
1972
1971
1971
1972
1975
1977
1979
1982
1984
1986
1986
1986
1985
1984
1984
1983
1982
1979
1977
1975
1974
1975
1976
1977
1977
1977
1977
1977
1977
1977
1977
1974
1968
1961
1961
1976
2009
2051
2087
2096
2071
2021
1968
1934
1928
1945
1969
1988
1995
1993
1988
1983
1981
1981
1982
1983
1984
1984
1984
1984
1984
1984
1985
1987
1988
1989
1989
1990
1990
1990
1990
1991
1992
1993
1995
1997
1998
1999
1999
1999
2000
2001
2003
2005
2007
2009
2010
2011
2013
2014
2017
2020
2024
2028
2032
2036
2040
2044
2047
2049
2053
2056
2059
2062
2064
2064
2061
2056
2048
2039
2029
2019
2010
2001
1993
1987
1981
1976
1971
1968
1965
1964
1963
1963
1963
1964
1963
1963
1962
1962
1962
1962
1963
1964
1964
1965
1965
1965
1965
1965
1965
1965
1967
1968
1968
1969
1968
1968
1968
1968
1968
1969
1970
1970
1971
1971
1971
1971
1971
1971
1971
1971
1971
1971
1971
1971
1971
1971
1971
1971
1970
1970
1970
1970
1972
1973
1974
1974
1973
1972
1971
1971
1971
1972
1972
1972
1973
1974
1974
1973
1973
1972
1972
1973
1974
1975
1975
1974
1974
1974
1974
1973
1973
1973
1973
1973
1974
1974
1975
1975
1976
1976
1976
1976
1976
1976
1976
1976
1976
1975
1975
1975
1975
1976
1977
1978
1978
1977
1977
1977
1976
1976
1975
1974
1974
1974
1975
1975
1975
1974
1974
1974
1977
1982
1986
1990
1990
1989
1985
1983
1981
1980
1980
1980
1979
1978
1978
1977
1977
1976
1976
1976
1976
1977
1978
1979
1979
1975
1968
1960
1961
1979
2018
2066
2100
2099
2056
1989
1926
1892
1896
1925
1960
1985
1996
1997
1994
1991
1988
1985
1984
1984
1986
1987
1988
1989
1989
1989
1990
1990
1991
1992
1994
1995
1996
1996
1995
1995
1995
1996
1998
1999
2001
2003
2004
2005
2006
2007
2008
2009
2011
2013
2015
2018
2020
2023
2025
2028
2032
2035
2039
2043
2048
2053
2059
2064
2068
2071
2074
2074
2074
2071
2066
2059
2049
2038
2026
2014
2003
1993
1985
1978
1972
1968
1965
1963
1962
1961
1959
1957
1956
1955
1955
1956
1957
1958
1958
1958
1957
1957
1957
1957
1958
1958
1958
1958
1959
1960
1961
1961
1961
1961
1961
1962
1962
1963
1963
1963
1963
1963
1964
1965
1966
1966
1966
1965
1964
1964
1964
1964
1965
1965
1965
1965
1966
1966
1966
1965
1965
1965
1965
1965
1965
1965
1966
1966
1966
1966
1966
1966
1966
1966
1966
1966
1966
1967
1968
1968
1967
1967
1966
1966
1966
1965
1965
1964
1964
1963
1964
1965
1967
1971
1975
1979
1981
1981
1979
1977
1976
1974
1974
1972
1971
1971
1970
1969
1968
1967
1966
1966
1967
1968
1970
1971
1971
1968
1963
1954
1950
1961
1992
2037
2077
2089
2062
2004
1941
1900
1894
1918
1952
1978
1990
1991
1987
1981
1978
1976
1975
1975
1976
1978
1979
1980
1981
1981
1982
1982
1982
1983
1984
1984
1985
1986
1986
1987
1988
1989
1990
1990
1991
1992
1993
1995
1996
1998
2000
2001
2003
2004
2006
2009
2012
2015
2019
2023
2026
2030
2034
2039
2044
2048
2052
2057
2061
2065
2067
2068
2066
2062
2055
2046
2035
2023
2011
2000
1990
1981
1973
1967
1962
1959
1957
1957
1956
1956
1955
1954
1953
1952
1952
1952
1953
1953
1954
1954
1954
1955
1955
1955
1956
1956
1956
1957
1957
1958
1959
1959
1959
1959
1960
1960
1961
1963
1963
1964
1963
1963
1962
1962
1962
1963
1964
1964
1965
1966
1966
1966
1965
1964
1963
1963
1964
1965
1966
1967
1967
1966
1966
1965
1965
1966
1966
1967
1967
1967
1968
1968
1968
1968
1968
1968
1969
1969
1970
1970
1971
1971
1970
1970
1969
1969
1970
1971
1972
1972
1972
1971
1969
1968
1967
1966
1967
1969
1971
1974
1978
1981
1983
1983
1982
1981
1980
1980
1979
1979
1977
1975
1973
1971
1971
1971
1972
1972
1973
1973
1973
1974
1973
1972
1968
1960
1953
1955
1976
2014
2058
2090
2089
2052
1996
1944
1918
1921
1945
1971
1988
1992
1989
1983
1979
1976
1976
1976
1977
1979
1979
1980
1980
1979
1980
1980
1981
1983
1984
1984
1985
1985
1985
1985
1985
1986
1987
1988
1989
1990
1991
1992
1993
1994
1995
1996
1998
2000
2002
2004
2006
2008
2010
2013
2016
2020
2024
2028
2033
2037
2040
2044
2047
2049
2052
2054
2056
2055
2051
2046
2037
2027
2016
2005
1995
1986
1978
1973
1968
1964
1961
1958
1956
1954
1953
1953
1953
1954
1954
1954
1954
1954
1953
1953
1953
1953
1954
1955
1956
1957
1957
1957
1957
1957
1957
1958
1959
1960
1961
1961
1961
1961
1961
1961
1961
1961
1962
1963
1964
1964
1964
1964
1963
1963
1962
1963
1963
1964
1965
1965
1965
1964
1964
1963
1963
1964
1964
1965
1965
1966
1966
1965
1965
1964
1964
1964
1965
1966
1967
1967
1967
1966
1966
1965
1966
1966
1967
1967
1968
1968
1968
1968
1968
1967
1967
1967
1968
1969
1970
1970
1970
1970
1969
1969
1968
1969
1969
1970
1971
1971
1971
1971
1971
1970
1970
1970
1970
1971
1971
1972
1972
1972
1972
1971
1971
1971
1972
1972
1973
1973
1972
1971
1969
1968
1967
1967
1968
1971
1974
1977
1980
1983
1984
1983
1982
1981
1980
1979
1979
1978
1976
1974
1973
1972
1972
1972
1973
1973
1974
1974
1974
1975
1975
1975
1972
1967
1959
1956
1966
1995
2038
2079
2100
2088
2046
1993
1952
1937
1946
1967
1985
1993
1992
1985
1980
1976
1976
1977
1978
1979
1979
1979
1979
1979
1980
1981
1982
1983
1984
1984
1985
1985
1985
1985
1986
1986
1987
1989
1990
1991
1991
1992
1992
1993
1994
1996
1997
1999
2001
2003
2005
2007
2009
2011
2013
2016
2020
2024
2028
2032
2036
2039
2042
2046
2048
2051
2053
2055
2055
2052
2048
2041
2033
2023
2014
2005
1996
1989
1983
1977
1973
1969
1966
1963
1962
1961
1960
1960
1961
1961
1961
1961
1961
1961
1960
1961
1961
1962
1963
1964
1965
1964
1964
1963
1963
1964
1965
1966
1966
1967
1967
1967
1967
1967
1967
1967
1968
1968
1969
1969
1969
1969
1968
1968
1968
1968
1969
1969
1970
1970
1970
1970
1970
1969
1969
1969
1970
1970
1970
1971
1971
1970
1970
1970
1970
1970
1971
1972
1973
1973
1973
1973
1972
1971
1971
1971
1972
1973
1973
1974
1974
1974
1973
1973
1974
1974
1974
1974
1975
1974
1974
1974
1973
1974
1974
1975
1975
1975
1975
1975
1975
1975
1975
1975
1975
1975
1975
1975
1975
1975
1975
1976
1976
1976
1975
1975
1975
1976
1976
1976
1977
1977
1977
1977
1976
1976
1976
1977
1978
1978
1978
1978
1977
1977
1977
1977
1977
1977
1977
1978
1978
1978
1977
1976
1975
1974
1975
1976
1977
1979
1980
1982
1984
1987
1989
1989
1989
1987
1986
1986
1985
1984
1982
1980
1978
1977
1978
1979
1980
1980
1980
1979
1979
1979
1980
1980
1979
1974
1967
1962
1972
2001
2045
2086
2104
2084
2033
1972
1928
1915
1930
1958
1982
1994
1996
1993
1989
1987
1985
1984
1983
1983
1984
1985
1986
1987
1987
1987
1988
1988
1989
1990
1991
1991
1991
1992
1992
1994
1995
1996
1997
1998
1998
1997
1998
1999
2001
2003
2005
2007
2009
2010
2011
2013
2015
2018
2022
2026
2030
2034
2038
2041
2045
2048
2052
2056
2061
2066
2069
2071
2071
2068
2063
2054
2045
2034
2023
2012
2002
1993
1985
1979
1973
1968
1965
1962
1960
1960
1959
1959
1958
1957
1955
1954
1954
1954
1955
1957
1958
1958
1958
1958
1957
1958
1958
1959
1960
1961
1961
1961
1961
1960
1960
1960
1960
1961
1962
1963
1965
1965
1965
1964
1963
1962
1962
1963
1964
1964
1965
1965
1965
1964
1963
1963
1963
1963
1963
1964
1964
1965
1965
1966
1966
1966
1965
1965
1965
1965
1965
1966
1967
1967
1966
1966
1965
1965
1965
1966
1966
1966
1966
1965
1963
1962
1962
1963
1965
1968
1972
1976
1978
1980
1979
1977
1976
1975
1975
1974
1973
1972
1970
1968
1968
1967
1967
1968
1968
1968
1969
1970
1971
1972
1970
1965
1957
1950
1955
1981
2024
2068
2092
2079
2031
1968
1918
1898
1911
1941
1970
1986
1991
1988
1983
1979
1977
1977
1978
1979
1980
1981
1982
1982
1982
1982
1982
1983
1984
1985
1986
1987
1988
1988
1988
1988
1988
1990
1991
1993
1994
1995
1996
1997
1997
1998
1999
2001
2004
2007
2010
2013
2016
2019
2021
2025
2029
2033
2039
2044
2048
2053
2057
2061
2065
2067
2068
2067
2063
2057
2048
2037
2025
2012
2000
1990
1981
1974
1968
1964
1961
1959
1957
1955
1954
1953
1952
1952
1953
1953
1954
1954
1954
1953
1953
1953
1954
1954
1955
1956
1957
1958
1958
1958
1958
1958
1958
1959
1960
1961
1962
1963
1963
1963
1962
1962
1962
1963
1964
1964
1965
1965
1965
1965
1965
1965
1965
1965
1965
1966
1966
1966
1966
1966
1966
1966
1966
1966
1967
1968
1968
1969
1969
1968
1968
1968
1968
1968
1969
1969
1970
1970
1970
1970
1970
1970
1970
1970
1970
1971
1972
1973
1973
1973
1973
1972
1972
1972
1973
1974
1974
1975
1975
1975
1974
1973
1972
1971
1970
1970
1970
1971
1973
1976
1979
1982
1985
1987
1988
1988
1987
1986
1985
1984
1982
1980
1978
1977
1977
1978
1978
1979
1979
1979
1978
1978
1978
1979
1980
1979
1975
1968
1962
1968
1992
2034
2077
2104
2099
2061
2008
1962
1940
1945
1965
1986
1997
1999
1995
1990
1987
1986
1986
1986
1986
1987
1987
1988
1989
1990
1991
1992
1992
1992
1993
1993
1993
1994
1995
1997
1998
1999
2000
2000
2001
2001
2002
2003
2005
2007
2008
2010
2011
2013
2014
2016
2018
2020
2023
2026
2030
2034
2038
2041
2045
2048
2052
2056
2060
2064
2067
2070
2070
2069
2065
2058
2050
2042
2032
2023
2014
2005
1998
1992
1986
1982
1978
1976
1975
1974
1974
1973
1973
1972
1972
1971
1971
1972
1972
1973
1974
1975
1975
1975
1974
1974
1975
1975
1976
1977
1977
1978
1978
1978
1978
1978
1978
1978
1978
1979
1979
1980
1980
1979
1979
1979
1979
1980
1980
1981
1981
1981
1981
1981
1980
1980
1980
1980
1980
1981
1982
1982
1982
1981
1981
1981
1981
1982
1982
1983
1983
1983
1983
1982
1982
1981
1982
1982
1983
1984
1984
1984
1984
1984
1984
1984
1983
1983
1984
1984
1985
1985
1985
1984
1984
1984
1983
1984
1985
1985
1986
1986
1985
1985
1984
1984
1984
1984
1985
1985
1986
1986
1986
1986
1985
1985
1985
1985
1986
1986
1987
1987
1987
1987
1986
1985
1985
1986
1986
1987
1988
1987
1986
1984
1982
1980
1980
1981
1983
1986
1989
1992
1995
1997
1998
1997
1995
1994
1992
1992
1991
1990
1989
1987
1986
1985
1984
1984
1985
1985
1985
1986
1987
1988
1988
1987
1983
1975
1968
1970
1990
2027
2071
2103
2104
2071
2019
1970
1943
1945
1964
1987
2001
2005
2001
1995
1991
1990
1989
1990
1991
1992
1992
1993
1994
1994
1994
1994
1995
1996
1996
1997
1997
1997
1997
1997
1998
1999
2000
2002
2004
2005
2006
2007
2007
2006
2007
2008
2009
2012
2014
2016
2018
2020
2022
2025
2028
2031
2035
2039
2043
2048
2051
2055
2058
2061
2065
2068
2070
2071
2070
2066
2059
2050
2041
2030
2020
2010
2002
1994
1987
1982
1978
1974
1971
1969
1968
1967
1967
1967
1966
1966
1966
1966
1966
1966
1965
1965
1966
1966
1967
1967
1967
1967
1966
1966
1967
1968
1969
1970
1970
1971
1970
1970
1969
1969
1969
1970
1970
1971
1971
1971
1971
1970
1970
1970
1970
1970
1970
1970
1971
1971
1971
1971
1971
1970
1970
1970
1970
1971
1971
1971
1971
1971
1970
1970
1970
1970
1970
1971
1971
1972
1971
1971
1970
1970
1970
1970
1971
1972
1972
1973
1973
1973
1972
1971
1970
1970
1971
1972
1973
1973
1973
1973
1972
1972
1972
1972
1972
1973
1973
1973
1972
1971
1969
1968
1968
1969
1971
1975
1979
1982
1984
1984
1983
1981
1980
1979
1979
1978
1977
1975
1973
1973
1972
1972
1972
1972
1972
1972
1972
1973
1974
1974
1971
1965
1956
1952
1963
1994
2039
2079
2095
2072
2020
1960
1917
1907
1924
1953
1978
1990
1992
1988
1983
1980
1978
1977
1978
1979
1981
1982
1983
1983
1983
1983
1983
1983
1984
1986
1987
1988
1988
1989
1989
1989
1990
1990
1991
1992
1994
1995
1996
1997
1998
1998
2000
2001
2003
2006
2008
2010
2013
2016
2019
2022
2025
2029
2033
2038
2043
2048
2051
2055
2058
2060
2062
2062
2060
2056
2048
2040
2029
2017
2005
1995
1986
1978
1973
1968
1965
1962
1960
1958
1956
1955
1954
1954
1954
1954
1955
1955
1955
1955
1955
1955
1955
1955
1955
1956
1957
1957
1957
1957
1957
1958
1958
1958
1959
1960
1961
1961
1962
1962
1962
1961
1961
1961
1962
1962
1963
1963
1963
1962
1962
1962
1962
1962
1962
1963
1964
1964
1964
1964
1963
1963
1963
1963
1964
1965
1965
1965
1965
1965
1964
1964
1964
1965
1965
1966
1966
1966
1966
1965
1965
1965
1965
1966
1966
1967
1967
1968
1968
1968
1967
1967
1967
1967
1967
1968
1969
1969
1969
1969
1969
1968
1968
1968
1969
1969
1970
1970
1970
1970
1969
1969
1969
1969
1970
1970
1971
1971
1971
1971
1971
1970
1971
1971
1971
1972
1972
1973
1972
1972
1972
1971
1971
1972
1973
1973
1974
1973
1972
1970
1968
1968
1968
1970
1972
1975
1979
1982
1984
1985
1984
1982
1981
1980
1979
1979
1978
1977
1975
1973
1973
1972
1973
1973
1974
1974
1975
1975
1976
1976
1974
1969
1962
1955
1959
1982
2021
2064
2093
2092
2057
2006
1959
1935
1939
1958
1979
1992
1994
1990
1984
1980
1978
1978
1979
1980
1980
1981
1981
1982
1982
1982
1982
1983
1984
1985
1986
1987
1988
1988
1988
1988
1989
1990
1991
1992
1994
1995
1996
1996
1997
1998
1999
2000
2002
2004
2006
2008
2010
2012
2015
2017
2020
2023
2027
2031
2035
2039
2043
2046
2048
2051
2053
2055
2056
2056
2053
2048
2041
2032
2022
2012
2003
1995
1989
1984
1979
1976
1972
1969
1966
1964
1963
1963
1963
1963
1963
1963
1963
1963
1963
1963
1963
1963
1964
1965
1966
1967
1968
1967
1967
1967
1967
1967
1968
1969
1970
1970
1970
1970
1970
1970
1970
1970
1971
1971
1972
1972
1972
1972
1971
1971
1971
1971
1972
1972
1973
1973
1973
1973
1973
1973
1973
1973
1973
1974
1975
1975
1975
1975
1975
1974
1974
1975
1976
1977
1977
1977
1977
1976
1976
1975
1976
1976
1977
1977
1978
1978
1978
1978
1978
1978
1978
1979
1979
1980
1981
1981
1981
1980
1979
1978
1978
1978
1979
1980
1982
1982
1982
1981
1980
1980
1980
1980
1981
1982
1982
1983
1983
1983
1982
1982
1981
1982
1982
1983
1984
1984
1984
1984
1983
1983
1983
1983
1984
1984
1985
1985
1985
1985
1985
1984
1984
1984
1984
1984
1984
1984
1984
1983
1983
1982
1982
1982
1983
1984
1986
1988
1990
1993
1995
1996
1996
1995
1994
1992
1991
1989
1988
1987
1986
1985
1984
1984
1985
1985
1986
1986
1986
1987
1987
1987
1985
1979
1972
1968
1978
2008
2051
2093
2108
2086
2033
1973
1931
1921
1939
1969
1993
2004
2004
1999
1995
1992
1991
1992
1992
1993
1993
1992
1992
1993
1994
1996
1997
1999
2000
2000
2000
1999
2000
2000
2001
2002
2002
2002
2003
2004
2006
2007
2008
2009
2010
2011
2013
2015
2016
2018
2020
2021
2023
2025
2028
2031
2035
2040
2045
2048
2052
2056
2059
2063
2066
2070
2073
2074
2075
2073
2069
2062
2053
2043
2032
2021
2011
2002
1994
1988
1982
1977
1973
1970
1968
1967
1966
1966
1966
1966
1966
1965
1965
1965
1965
1966
1967
1968
1968
1968
1968
1968
1968
1968
1968
1969
1970
1971
1972
1972
1972
1972
1972
1972
1972
1972
1972
1974
1975
1976
1976
1974
1973
1972
1972
1973
1975
1975
1975
1975
1974
1974
1974
1974
1974
1974
1974
1974
1974
1974
1975
1974
1974
1973
1973
1974
1975
1976
1976
1977
1976
1976
1975
1975
1974
1974
1975
1976
1977
1977
1977
1976
1976
1975
1975
1975
1976
1977
1977
1978
1978
1977
1976
1976
1976
1977
1978
1978
1977
1976
1975
1974
1973
1973
1973
1974
1977
1980
1984
1988
1990
1990
1988
1986
1984
1983
1982
1982
1981
1979
1978
1977
1976
1975
1975
1975
1976
1977
1979
1980
1980
1978
1973
1965
1960
1968
1995
2039
2081
2100
2080
2029
1965
1919
1906
1923
1956
1983
1997
2000
1996
1991
1987
1985
1984
1984
1985
1987
1988
1989
1989
1989
1989
1989
1990
1990
1991
1992
1993
1994
1995
1996
1996
1996
1997
1998
2000
2001
2003
2004
2005
2006
2006
2007
2009
2010
2013
2016
2019
2022
2025
2027
2030
2033
2037
2042
2047
2051
2056
2060
2064
2067
2069
2071
2071
2069
2066
2059
2050
2040
2029
2017
2006
1996
1987
1980
1975
1971
1969
1967
1965
1964
1962
1961
1960
1960
1961
1961
1962
1962
1962
1962
1961
1961
1961
1961
1962
1963
1963
1964
1964
1964
1964
1964
1965
1966
1967
1968
1969
1969
1969
1969
1969
1968
1968
1968
1968
1969
1970
1970
1971
1971
1970
1970
1969
1970
1970
1971
1972
1972
1972
1971
1970
1969
1969
1970
1971
1972
1972
1972
1972
1972
1972
1972
1972
1973
1973
1973
1973
1974
1974
1974
1973
1973
1973
1974
1974
1975
1975
1975
1975
1975
1975
1974
1974
1975
1975
1976
1976
1976
1976
1976
1976
1976
1976
1977
1977
1977
1976
1975
1973
1972
1972
1972
1974
1977
1980
1984
1987
1989
1989
1987
1985
1983
1982
1982
1981
1980
1979
1978
1977
1976
1976
1975
1975
1976
1977
1978
1979
1980
1979
1975
1967
1959
1962
1982
2022
2066
2095
2092
2054
1999
1950
1927
1933
1957
1981
1996
1999
1995
1989
1984
1982
1981
1982
1983
1984
1985
1986
1987
1987
1987
1987
1987
1988
1989
1990
1991
1991
1992
1993
1993
1993
1994
1994
1995
1996
1998
1999
2001
2002
2003
2004
2005
2006
2008
2010
2012
2014
2017
2020
2023
2026
2029
2033
2037
2041
2046
2049
2053
2057
2060
2062
2063
2062
2059
2054
2048
2039
2029
2018
2008
1998
1990
1982
1976
1972
1969
1967
1966
1965
1964
1963
1961
1961
1961
1961
1962
1962
1963
1963
1962
1962
1961
1962
1962
1963
1964
1965
1965
1966
1965
1965
1965
1965
1965
1966
1967
1968
1969
1969
1969
1969
1969
1968
1968
1969
1969
1970
1970
1970
1970
1970
1969
1969
1969
1970
1970
1971
1971
1971
1971
1970
1970
1970
1970
1970
1971
1971
1971
1971
1971
1971
1971
1971
1971
1972
1972
1973
1973
1972
1972
1972
1972
1972
1972
1973
1973
1974
1974
1974
1974
1973
1973
1972
1972
1973
1973
1974
1974
1974
1974
1974
1973
1973
1973
1974
1974
1975
1975
1975
1975
1974
1974
1974
1974
1975
1975
1976
1976
1976
1975
1975
1974
1974
1974
1975
1976
1976
1977
1976
1975
1973
1971
1970
1970
1971
1973
1975
1978
1981
1984
1986
1986
1986
1985
1984
1983
1983
1982
1981
1979
1977
1976
1975
1975
1975
1976
1976
1977
1976
1977
1977
1977
1975
1970
1963
1958
1965
1989
2029
2071
2097
2092
2055
2005
1962
1942
1948
1967
1986
1995
1995
1989
1983
1979
1978
1979
1980
1981
1982
1982
1981
1981
1981
1982
1983
1984
1985
1986
1987
1987
1987
1987
1987
1988
1989
1990
1991
1992
1993
1993
1994
1994
1995
1997
1998
2000
2002
2003
2005
2006
2007
2009
2011
2014
2018
2021
2025
2029
2033
2036
2039
2042
2046
2048
2051
2053
2054
2052
2048
2043
2035
2026
2017
2008
1999
1992
1985
1979
1975
1971
1967
1964
1962
1960
1960
1960
1960
1961
1961
1961
1960
1960
1960
1960
1961
1961
1962
1963
1963
1963
1963
1963
1963
1964
1964
1965
1966
1966
1966
1966
1966
1966
1966
1966
1967
1968
1968
1969
1969
1969
1969
1968
1968
1968
1969
1969
1970
1970
1970
1970
1969
1969
1969
1969
1969
1970
1970
1971
1971
1971
1970
1970
1969
1970
1970
1971
1972
1972
1972
1972
1971
1971
1971
1971
1972
1972
1973
1973
1973
1973
1972
1972
1972
1972
1973
1973
1974
1974
1974
1974
1973
1973
1973
1973
1974
1974
1975
1975
1975
1975
1974
1974
1974
1974
1975
1975
1976
1976
1976
1975
1975
1975
1975
1975
1975
1976
1976
1976
1976
1976
1975
1975
1975
1975
1976
1976
1977
1977
1976
1976
1976
1975
1976
1976
1977
1977
1978
1977
1977
1977
1977
1977
1977
1977
1977
1978
1978
1978
1977
1975
1973
1972
1972
1973
1975
1978
1981
1985
1987
1988
1987
1986
1984
1984
1983
1983
1982
1981
1979
1977
1976
1976
1976
1976
1977
1977
1977
1978
1979
1979
1978
1974
1968
1960
1959
1974
2008
2052
2090
2102
2080
2034
1983
1949
1941
1955
1976
1992
1996
1993
1987
1982
1980
1979
1980
1981
1982
1982
1983
1983
1983
1983
1983
1984
1986
1987
1988
1989
1989
1989
1988
1988
1989
1990
1991
1993
1994
1996
1996
1997
1997
1998
1998
2000
2001
2003
2005
2007
2009
2011
2013
2015
2018
2021
2025
2029
2033
2036
2040
2043
2046
2048
2050
2052
2054
2055
2055
2051
2046
2039
2029
2020
2010
2001
1994
1987
1982
1977
1974
1971
1968
1966
1965
1964
1963
1963
1963
1963
1963
1963
1963
1963
1963
1963
1964
1965
1966
1967
1967
1967
1967
1967
1968
1968
1969
1969
1969
1969
1969
1970
1970
1970
1970
1971
1971
1972
1972
1972
1972
1972
1972
1972
1972
1971
1971
1971
1972
1973
1974
1974
1973
1972
1972
1971
1972
1973
1974
1975
1974
1974
1973
1973
1973
1973
1974
1975
1976
1976
1976
1975
1975
1975
1975
1976
1976
1977
1977
1977
1976
1976
1975
1975
1975
1976
1977
1978
1978
1978
1978
1978
1977
1977
1978
1978
1978
1978
1978
1978
1978
1978
1978
1978
1978
1979
1979
1979
1979
1979
1979
1979
1979
1978
1978
1978
1978
1978
1979
1979
1980
1980
1979
1978
1976
1975
1975
1975
1976
1978
1979
1981
1983
1985
1988
1989
1990
1989
1988
1987
1986
1985
1983
1981
1979
1977
1977
1978
1979
1979
1979
1978
1978
1978
1979
1980
1979
1974
1967
1961
1967
1992
2033
2075
2097
2082
2036
1976
1929
1912
1925
1953
1978
1993
1996
1993
1989
1987
1985
1985
1985
1985
1985
1985
1986
1987
1988
1989
1990
1990
1991
1991
1991
1991
1992
1993
1994
1995
1996
1997
1998
1998
1998
1999
2000
2001
2002
2004
2006
2008
2009
2010
2012
2013
2015
2017
2021
2024
2028
2033
2037
2040
2044
2048
2050
2054
2058
2062
2065
2066
2066
2064
2059
2051
2042
2031
2020
2010
2000
1992
1985
1978
1973
1968
1965
1963
1962
1961
1961
1960
1960
1959
1959
1958
1958
1958
1959
1959
1960
1961
1961
1961
1961
1961
1962
1962
1963
1964
1965
1965
1966
1965
1965
1965
1965
1965
1966
1967
1968
1969
1969
1968
1968
1968
1968
1968
1968
1969
1969
1969
1969
1968
1968
1968
1968
1968
1968
1969
1969
1970
1970
1970
1969
1969
1969
1969
1970
1970
1971
1971
1971
1971
1970
1970
1970
1970
1971
1972
1972
1972
1972
1972
1972
1971
1971
1971
1972
1973
1973
1974
1974
1974
1974
1973
1973
1973
1974
1974
1975
1975
1975
1975
1974
1974
1974
1974
1974
1975
1976
1976
1976
1976
1975
1975
1975
1975
1975
1976
1977
1977
1977
1977
1976
1976
1976
1976
1975
1974
1974
1974
1974
1975
1976
1978
1981
1984
1987
1989
1989
1988
1986
1985
1984
1982
1981
1979
1978
1977
1977
1978
1978
1978
1977
1977
1977
1978
1979
1980
1978
1973
1966
1960
1968
1993
2035
2076
2098
2088
2047
1994
1951
1933
1942
1964
1985
1995
1997
1993
1988
1985
1984
1984
1983
1984
1984
1984
1985
1987
1988
1988
1989
1989
1989
1989
1989
1990
1991
1992
1994
1994
1995
1995
1996
1996
1997
1998
2000
2001
2003
2004
2005
2006
2007
2008
2009
2011
2014
2017
2021
2024
2027
2030
2033
2036
2040
2044
2048
2052
2056
2059
2061
2062
2062
2059
2054
2048
2041
2031
2022
2012
2002
1994
1986
1980
1975
1971
1969
1967
1966
1965
1964
1963
1962
1962
1962
1962
1962
1963
1964
1964
1964
1964
1964
1964
1964
1965
1966
1967
1967
1968
1968
1968
1968
1968
1968
1968
1968
1969
1970
1970
1971
1971
1971
1971
1971
1971
1972
1973
1973
1973
1973
1973
1972
1972
1972
1972
1972
1973
1973
1973
1973
1973
1973
1972
1972
1973
1973
1973
1973
1973
1974
1974
1974
1973
1973
1973
1974
1974
1975
1976
1976
1975
1975
1975
1975
1975
1976
1976
1977
1977
1977
1976
1976
1975
1975
1976
1976
1976
1977
1977
1977
1977
1976
1976
1976
1976
1977
1977
1978
1978
1978
1978
1977
1977
1977
1977
1978
1978
1979
1979
1979
1979
1978
1978
1977
1978
1978
1979
1980
1980
1980
1979
1978
1978
1978
1979
1980
1980
1981
1981
1980
1979
1977
1977
1977
1978
1980
1982
1985
1988
1991
1992
1992
1990
1989
1987
1987
1986
1985
1984
1982
1980
1979
1979
1979
1980
1980
1981
1981
1982
1983
1983
1981
1977
1970
1963
1966
1985
2022
2065
2097
2100
2070
2019
1969
1940
1939
1958
1981
1996
2000
1997
1990
1986
1984
1983
1984
1985
1986
1987
1987
1988
1988
1988
1988
1989
1990
1991
1992
1993
1993
1993
1993
1994
1994
1995
1996
1998
1999
2001
2002
2002
2002
2002
2002
2003
2006
2008
2011
2014
2016
2017
2019
2021
2023
2027
2031
2035
2039
2043
2047
2049
2053
2056
2059
2061
2062
2062
2059
2054
2048
2039
2028
2018
2008
1999
1992
1986
1981
1977
1973
1969
1967
1965
1964
1964
1964
1964
1963
1963
1963
1963
1963
1963
1963
1964
1964
1965
1966
1966
1966
1967
1967
1967
1967
1968
1968
1969
1969
1970
1971
1971
1971
1971
1971
1971
1972
1973
1974
1974
1974
1974
1973
1973
1973
1973
1974
1975
1975
1975
1975
1975
1974
1974
1973
1973
1974
1974
1974
1975
1975
1975
1975
1975
1975
1976
1976
1977
1978
1979
1978
1978
1976
1975
1975
1976
1977
1978
1979
1979
1978
1978
1978
1978
1978
1978
1978
1978
1979
1979
1979
1979
1978
1978
1979
1979
1980
1980
1980
1981
1981
1981
1980
1979
1979
1979
1979
1979
1980
1981
1981
1981
1981
1980
1979
1979
1980
1980
1981
1982
1982
1981
1981
1980
1980
1979
1980
1980
1981
1981
1981
1980
1978
1977
1976
1976
1977
1979
1981
1983
1986
1988
1990
1990
1990
1989
1988
1988
1987
1986
1984
1981
1978
1977
1977
1977
1978
1979
1979
1980
1980
1980
1981
1980
1977
1971
1964
1962
1976
2008
2052
2088
2097
2069
2014
1957
1921
1916
1936
1964
1986
1995
1996
1991
1987
1985
1984
1984
1985
1985
1986
1986
1986
1986
1987
1987
1988
1989
1990
1991
1991
1992
1992
1992
1993
1993
1994
1996
1997
1998
1999
2000
2000
2000
2000
2002
2003
2006
2008
2010
2012
2014
2015
2018
2020
2023
2027
2031
2035
2040
2044
2048
2051
2054
2058
2061
2064
2066
2066
2064
2059
2051
2042
2030
2019
2008
1999
1991
1983
1977
1972
1968
1964
1961
1959
1958
1958
1958
1958
1958
1958
1957
1956
1956
1956
1956
1957
1957
1958
1959
1960
1960
1960
1960
1960
1960
1960
1961
1962
1963
1964
1964
1964
1964
1964
1964
1965
1965
1966
1967
1967
1967
1966
1966
1965
1965
1965
1966
1967
1967
1967
1967
1966
1966
1966
1966
1967
1967
1968
1968
1968
1968
1967
1967
1967
1967
1968
1969
1970
1970
1970
1969
1969
1969
1969
1969
1970
1970
1970
1971
1970
1970
1970
1970
1970
1970
1971
1971
1972
1972
1972
1972
1972
1972
1972
1972
1972
1973
1973
1973
1973
1973
1973
1972
1972
1972
1973
1973
1974
1975
1975
1975
1974
1973
1973
1973
1973
1974
1974
1975
1975
1974
1974
1974
1974
1974
1975
1974
1974
1973
1972
1971
1970
1971
1972
1975
1978
1982
1985
1987
1987
1986
1984
1982
1981
1980
1979
1978
1976
1975
1974
1974
1973
1973
1973
1973
1974
1975
1976
1977
1975
1971
1962
1955
1959
1980
2020
2063
2093
2092
2056
2003
1954
1928
1931
1951
1975
1989
1994
1991
1985
1981
1979
1978
1978
1978
1979
1981
1982
1982
1983
1983
1983
1983
1983
1984
1985
1986
1987
1987
1988
1988
1988
1988
1989
1990
1991
1993
1994
1996
1997
1998
1998
1998
1999
2001
2003
2006
2009
2012
2014
2016
2019
2021
2025
2029
2033
2037
2042
2046
2049
2052
2054
2056
2056
2055
2052
2048
2041
2032
2022
2012
2001
1992
1984
1977
1972
1968
1965
1963
1961
1959
1957
1956
1955
1955
1955
1956
1956
1957
1957
1957
1957
1957
1957
1957
1958
1959
1960
1960
1961
1961
1961
1961
1961
1961
1962
1962
1963
1964
1964
1964
1964
1964
1964
1964
1965
1965
1965
1966
1966
1965
1965
1965
1965
1965
1966
1967
1967
1967
1967
1966
1966
1965
1965
1965
1966
1967
1967
1968
1968
1967
1967
1967
1967
1967
1968
1968
1969
1969
1969
1968
1968
1968
1969
1969
1969
1970
1970
1970
1971
1970
1970
1970
1970
1971
1971
1972
1972
1973
1972
1972
1971
1971
1971
1972
1973
1973
1974
1973
1973
1972
1972
1972
1972
1973
1973
1974
1974
1974
1974
1974
1974
1974
1974
1974
1974
1975
1975
1975
1975
1973
1972
1971
1970
1971
1972
1975
1977
1981
1984
1986
1987
1986
1985
1984
1983
1982
1982
1981
1980
1978
1976
1975
1975
1976
1976
1977
1977
1978
1979
1980
1979
1977
1971
1964
1959
1968
1996
2039
2080
2099
2083
2036
1978
1935
1921
1934
1960
1984
1996
1998
1994
1989
1985
1984
1984
1985
1987
1988
1988
1988
1987
1987
1987
1988
1990
1991
1993
1993
1993
1993
1993
1993
1994
1996
1997
1999
2000
2000
2001
2002
2003
2004
2005
2006
2008
2010
2012
2014
2016
2018
2020
2023
2026
2030
2034
2039
2044
2048
2051
2055
2058
2062
2066
2069
2071
2072
2070
2065
2058
2048
2038
2027
2016
2006
1997
1990
1983
1978
1974
1970
1967
1964
1962
1961
1960
1960
1960
1960
1960
1960
1959
1959
1959
1959
1960
1960
1961
1962
1963
1963
1963
1963
1964
1965
1965
1965
1965
1966
1967
1967
1967
1967
1966
1966
1966
1967
1968
1968
1969
1969
1968
1968
1968
1967
1968
1968
1969
1969
1969
1968
1968
1968
1968
1968
1968
1969
1969
1969
1969
1969
1969
1969
1969
1969
1970
1970
1970
1971
1971
1971
1970
1969
1969
1969
1970
1971
1971
1972
1972
1971
1971
1970
1970
1970
1971
1972
1973
1973
1973
1972
1971
1970
1969
1968
1968
1968
1968
1970
1971
1974
1977
1980
1982
1984
1984
1983
1981
1980
1979
1977
1975
1974
1972
1971
1972
1972
1973
1973
1973
1973
1973
1973
1974
1973
1970
1964
1957
1958
1976
2014
2060
2092
2089
2048
1985
1927
1898
1903
1931
1963
1984
1991
1991
1986
1983
1981
1981
1981
1982
1983
1983
1982
1983
1983
1985
1986
1987
1988
1988
1988
1988
1988
1989
1990
1991
1992
1994
1995
1996
1997
1997
1998
1999
2000
2002
2004
2006
2008
2010
2011
2013
2014
2017
2021
2025
2030
2034
2039
2043
2047
2050
2053
2057
2061
2066
2070
2073
2073
2070
2064
2055
2045
2033
2022
2011
2001
1991
1983
1976
1970
1965
1962
1959
1958
1957
1956
1956
1956
1956
1955
1955
1954
1955
1955
1956
1956
1957
1957
1957
1957
1957
1957
1957
1958
1958
1959
1960
1961
1962
1962
1962
1961
1962
1962
1963
1965
1966
1966
1966
1965
1965
1964
1964
1964
1965
1965
1966
1966
1966
1966
1965
1965
1965
1965
1965
1966
1967
1967
1967
1967
1966
1966
1966
1967
1967
1968
1969
1969
1968
1968
1968
1967
1968
1968
1968
1969
1970
1970
1970
1969
1969
1969
1969
1969
1970
1970
1971
1971
1971
1971
1971
1970
1970
1970
1969
1969
1968
1967
1967
1967
1968
1970
1973
1977
1980
1982
1983
1982
1981
1980
1978
1977
1975
1974
1973
1972
1972
1972
1972
1971
1971
1970
1970
1971
1973
1974
1973
1969
1961
1954
1957
1977
2017
2060
2089
2085
2047
1989
1938
1914
1920
1944
1970
1986
1991
1989
1984
1981
1979
1978
1978
1978
1979
1980
1981
1982
1982
1983
1983
1983
1983
1984
1984
1985
1986
1987
1987
1988
1989
1989
1990
1990
1991
1992
1993
1994
1996
1998
2000
2001
2002
2003
2004
2006
2009
2012
2015
2019
2022
2025
2029
2032
2036
2041
2045
2049
2053
2056
2059
2060
2059
2056
2051
2045
2036
2026
2016
2006
1996
1987
1979
1972
1967
1964
1961
1959
1958
1957
1956
1955
1954
1953
1953
1953
1954
1954
1955
1956
1956
1955
1955
1954
1955
1955
1956
1958
1959
1960
1960
1961
1961
1960
1960
1960
1961
1962
1963
1963
1963
1963
1963
1963
1963
1963
1964
1964
1964
1965
1964
1964
1963
1963
1963
1963
1964
1965
1965
1965
1965
1964
1964
1964
1964
1964
1965
1965
1966
1966
1966
1966
1966
1965
1965
1966
1966
1967
1968
1968
1968
1968
1968
1967
1967
1967
1967
1968
1969
1969
1970
1970
1969
1969
1969
1969
1969
1970
1970
1971
1971
1971
1970
1970
1970
1970
1971
1971
1972
1972
1972
1971
1971
1971
1971
1971
1971
1972
1973
1973
1973
1973
1972
1972
1972
1972
1972
1971
1970
1969
1969
1968
1969
1970
1971
1974
1978
1981
1984
1985
1984
1982
1980
1979
1978
1977
1976
1975
1974
1974
1974
1973
1973
1973
1972
1972
1973
1975
1976
1975
1972
1965
1956
1956
1970
2004
2048
2085
2097
2074
2029
1979
1945
1939
1953
1973
1988
1992
1990
1984
1979
1977
1976
1976
1976
1977
1978
1979
1980
1980
1981
1981
1981
1981
1982
1982
1983
1984
1985
1986
1987
1987
1987
1988
1989
1989
1991
1992
1993
1994
1995
1996
1997
1998
1999
2000
2002
2005
2007
2010
2012
2015
2017
2020
2024
2027
2031
2036
2040
2043
2046
2048
2050
2051
2051
2049
2046
2041
2034
2025
2016
2006
1996
1988
1981
1975
1970
1967
1965
1963
1961
1960
1958
1957
1957
1957
1958
1958
1959
1959
1959
1959
1959
1959
1959
1960
1960
1961
1962
1962
1963
1963
1963
1962
1963
1963
1964
1965
1966
1966
1966
1966
1965
1965
1965
1965
1965
1966
1966
1966
1966
1966
1965
1965
1965
1965
1966
1966
1967
1967
1967
1967
1966
1965
1965
1965
1966
1967
1967
1967
1967
1967
1966
1967
1967
1967
1968
1969
1970
1970
1971
1971
1971
1971
1970
1969
1969
1968
1967
1968
1968
1969
1970
1970
1969
1968
1967
1968
1969
1971
1972
1972
1972
1972
1972
1972
1972
1972
1973
1973
1973
1972
1972
1971
1971
1971
1971
1972
1973
1973
1973
1973
1973
1973
1973
1973
1973
1973
1973
1973
1973
1973
1973
1973
1973
1973
1974
1974
1974
1974
1974
1974
1974
1974
1974
1974
1974
1973
1973
1972
1971
1970
1971
1972
1974
1976
1979
1983
1986
1987
1986
1985
1983
1981
1980
1978
1977
1975
1974
1974
1974
1975
1976
1976
1975
1975
1975
1976
1977
1977
1974
1967
1960
1958
1971
2003
2048
2086
2099
2079
2033
1980
1943
1934
1947
1969
1986
1994
1993
1988
1984
1981
1980
1980
1980
1980
1981
1982
1983
1983
1984
1984
1985
1985
1986
1987
1988
1990
1991
1991
1991
1991
1991
1991
1992
1994
1995
1996
1996
1997
1998
1999
2001
2003
2005
2006
2007
2009
2012
2014
2017
2020
2023
2025
2028
2032
2036
2041
2045
2048
2051
2054
2056
2057
2058
2057
2054
2049
2044
2035
2026
2016
2006
1996
1988
1982
1978
1976
1973
1970
1966
1963
1961
1960
1960
1960
1961
1961
1961
1961
1961
1961
1961
1961
1962
1963
1964
1965
1966
1966
1966
1965
1965
1964
1964
1964
1965
1966
1967
1968
1968
1968
1968
1968
1968
1968
1968
1969
1970
1971
1970
1969
1968
1968
1969
1970
1971
1971
1971
1970
1969
1970
1970
1971
1971
1972
1972
1972
1972
1972
1971
1971
1971
1972
1974
1974
1974
1973
1972
1971
1972
1972
1973
1973
1973
1972
1972
1972
1973
1974
1974
1974
1974
1973
1973
1972
1972
1972
1973
1973
1972
1971
1970
1970
1971
1972
1973
1974
1974
1974
1973
1973
1972
1972
1972
1971
1970
1969
1969
1969
1970
1970
1972
1974
1978
1982
1985
1987
1986
1984
1981
1979
1979
1979
1979
1978
1976
1975
1975
1975
1975
1975
1974
1973
1973
1975
1976
1976
1973
1966
1958
1958
1974
2010
2055
2089
2093
2059
2002
1945
1912
1911
1934
1963
1984
1992
1992
1988
1984
1982
1980
1980
1980
1981
1981
1982
1983
1984
1984
1985
1985
1986
1986
1986
1986
1987
1988
1989
1990
1991
1992
1992
1992
1992
1993
1994
1997
1999
2002
2003
2004
2004
2005
2006
2007
2010
2013
2016
2020
2024
2027
2030
2034
2037
2041
2045
2049
2053
2058
2061
2064
2064
2063
2059
2053
2046
2037
2028
2017
2007
1997
1988
1981
1975
1970
1967
1965
1963
1962
1961
1960
1959
1958
1958
1958
1958
1958
1958
1959
1960
1960
1960
1960
1961
1961
1962
1962
1963
1964
1964
1965
1964
1964
1964
1964
1965
1965
1966
1966
1966
1966
1966
1966
1966
1965
1965
1965
1966
1967
1967
1967
1967
1966
1966
1966
1966
1967
1968
1968
1968
1968
1967
1967
1967
1966
1966
1966
1966
1967
1967
1968
1968
1967
1967
1967
1967
1968
1969
1970
1971
1971
1970
1969
1968
1968
1968
1969
1970
1971
1971
1970
1970
1970
1969
1970
1970
1971
1972
1972
1971
1971
1969
1968
1967
1966
1966
1967
1969
1972
1976
1979
1982
1983
1982
1981
1979
1978
1978
1978
1976
1975
1973
1971
1970
1970
1971
1971
1971
1972
1972
1973
1974
1973
1969
1962
1955
1955
1973
2010
2055
2089
2090
2052
1992
1933
1902
1904
1930
1962
1984
1992
1992
1987
1983
1981
1980
1980
1981
1982
1983
1984
1984
1984
1984
1985
1986
1987
1988
1989
1990
1990
1991
1991
1991
1992
1993
1994
1996
1997
1998
1999
1999
1999
2000
2001
2003
2005
2007
2009
2010
2012
2014
2016
2018
2021
2025
2029
2034
2038
2043
2046
2049
2052
2055
2058
2060
2061
2061
2057
2051
2044
2034
2023
2011
2001
1992
1985
1979
1974
1970
1967
1963
1961
1959
1957
1957
1957
1957
1958
1958
1958
1958
1958
1958
1958
1958
1959
1960
1961
1962
1962
1962
1962
1962
1962
1963
1964
1965
1966
1966
1967
1966
1966
1966
1966
1966
1967
1967
1968
1968
1968
1967
1967
1967
1967
1967
1968
1969
1969
1969
1970
1970
1969
1969
1969
1969
1969
1970
1971
1971
1971
1970
1970
1970
1970
1971
1972
1972
1973
1973
1973
1973
1972
1972
1972
1972
1973
1974
1975
1975
1975
1975
1975
1974
1975
1975
1976
1976
1977
1977
1977
1977
1977
1977
1976
1976
1977
1978
1979
1979
1980
1980
1979
1977
1976
1974
1974
1974
1975
1977
1980
1982
1985
1988
1990
1991
1991
1990
1989
1989
1988
1987
1985
1982
1981
1980
1980
1981
1982
1982
1982
1982
1982
1982
1982
1981
1978
1972
1965
1967
1985
2021
2064
2098
2102
2072
2021
1969
1940
1939
1958
1982
1998
2002
1999
1994
1990
1988
1988
1989
1990
1990
1990
1991
1991
1991
1992
1993
1994
1995
1996
1996
1996
1996
1996
1997
1998
2000
2001
2002
2003
2003
2003
2003
2005
2006
2008
2010
2011
2012
2013
2014
2016
2018
2020
2023
2026
2029
2032
2036
2040
2044
2048
2050
2053
2057
2060
2063
2066
2068
2067
2064
2059
2052
2044
2035
2025
2016
2008
2000
1993
1987
1982
1978
1975
1973
1972
1972
1971
1971
1970
1969
1969
1969
1969
1970
1971
1972
1973
1973
1973
1972
1972
1972
1972
1973
1973
1974
1974
1974
1975
1975
1975
1975
1975
1975
1976
1976
1977
1977
1976
1975
1975
1975
1975
1975
1975
1976
1976
1977
1978
1978
1977
1976
1975
1975
1975
1976
1976
1977
1977
1977
1977
1976
1976
1976
1977
1977
1978
1979
1979
1978
1978
1977
1977
1978
1979
1980
1980
1980
1980
1980
1980
1980
1980
1980
1981
1981
1981
1981
1981
1981
1981
1980
1981
1981
1981
1981
1982
1983
1983
1983
1982
1981
1980
1980
1980
1981
1981
1980
1979
1978
1978
1978
1978
1980
1983
1987
1991
1994
1995
1995
1993
1991
1989
1988
1987
1986
1985
1984
1983
1982
1981
1981
1981
1981
1982
1983
1984
1985
1984
1981
1974
1967
1967
1982
2014
2056
2091
2100
2074
2023
1968
1932
1924
1941
1968
1990
2000
2001
1997
1992
1989
1987
1987
1987
1988
1989
1990
1991
1991
1991
1991
1991
1992
1993
1994
1996
1997
1997
1998
1998
1998
1998
1999
2000
2001
2003
2005
2006
2007
2007
2008
2008
2010
2011
2014
2016
2019
2022
2024
2026
2028
2030
2033
2037
2041
2045
2048
2052
2055
2057
2060
2061
2063
2063
2061
2057
2051
2045
2036
2026
2016
2006
1998
1990
1985
1980
1977
1974
1972
1970
1968
1967
1966
1966
1966
1966
1967
1967
1967
1968
1968
1968
1968
1968
1968
1969
1970
1970
1971
1971
1970
1970
1970
1970
1971
1971
1972
1972
1973
1973
1973
1973
1973
1973
1972
1972
1973
1973
1973
1974
1974
1974
1973
1973
1974
1974
1974
1974
1974
1973
1972
1972
1972
1973
1973
1974
1974
1974
1974
1974
1974
1974
1974
1974
1975
1975
1976
1976
1977
1977
1977
1977
1977
1977
1977
1977
1977
1978
1978
1978
1977
1977
1978
1978
1979
1980
1979
1979
1977
1975
1974
1974
1975
1977
1979
1982
1986
1989
1991
1991
1990
1988
1986
1986
1985
1985
1984
1982
1981
1980
1980
1980
1980
1979
1979
1979
1980
1982
1982
1980
1975
1966
1962
1972
2002
2048
2088
2102
2078
2024
1961
1917
1907
1925
1956
1982
1996
1999
1996
1993
1990
1988
1988
1989
1989
1990
1992
1992
1993
1993
1993
1993
1993
1994
1995
1997
1998
1999
1999
2000
2000
2000
2001
2002
2004
2006
2007
2008
2009
2009
2010
2010
2012
2014
2016
2019
2022
2025
2027
2030
2032
2035
2038
2042
2046
2050
2054
2059
2062
2065
2067
2069
2070
2069
2067
2063
2056
2047
2037
2026
2015
2005
1996
1989
1983
1979
1976
1974
1972
1970
1969
1968
1967
1966
1965
1966
1966
1966
1967
1967
1966
1966
1967
1968
1969
1969
1970
1971
1971
1971
1971
1971
1971
1972
1973
1974
1975
1975
1974
1974
1973
1973
1973
1973
1973
1974
1974
1974
1974
1974
1974
1973
1973
1973
1974
1974
1975
1975
1975
1974
1974
1974
1974
1975
1976
1976
1976
1976
1976
1976
1976
1975
1975
1976
1976
1976
1975
1975
1974
1974
1974
1975
1977
1980
1984
1987
1990
1990
1989
1988
1987
1986
1984
1983
1981
1980
1979
1979
1980
1980
1980
1979
1979
1979
1981
1982
1982
1978
1969
1962
1966
1988
2028
2070
2096
2088
2046
1989
1941
1921
1930
1955
1981
1996
2000
1998
1993
1990
1989
1988
1988
1988
1988
1989
1989
1990
1992
1993
1993
1993
1993
1993
1994
1995
1997
1998
1999
2000
2000
2001
2001
2002
2003
2004
2005
2007
2008
2010
2011
2012
2014
2015
2017
2019
2022
2025
2028
2031
2034
2038
2041
2045
2048
2052
2056
2060
2064
2066
2068
2067
2065
2060
2052
2044
2035
2024
2014
2005
1997
1989
1983
1978
1974
1971
1969
1968
1967
1967
1966
1966
1965
1964
1964
1964
1965
1966
1967
1967
1968
1968
1968
1968
1968
1969
1969
1970
1971
1972
1972
1972
1971
1971
1971
1971
1972
1973
1974
1974
1974
1974
1974
1974
1973
1973
1973
1973
1973
1974
1975
1975
1975
1975
1975
1975
1976
1976
1976
1977
1977
1977
1976
1976
1976
1976
1976
1977
1977
1978
1978
1978
1978
1978
1978
1977
1976
1975
1974
1974
1974
1975
1976
1978
1981
1984
1987
1990
1991
1991
1989
1988
1986
1985
1983
1982
1981
1980
1980
1980
1980
1980
1980
1980
1980
1981
1981
1981
1978
1972
1965
1964
1979
2011
2052
2086
2094
2067
2018
1967
1935
1932
1950
1975
1992
1999
1998
1993
1990
1988
1987
1987
1987
1988
1989
1990
1991
1992
1992
1993
1993
1994
1994
1995
1996
1997
1997
1998
1998
1999
2000
2001
2002
2002
2003
2004
2005
2007
2008
2009
2011
2012
2014
2015
2016
2018
2021
2024
2027
2031
2034
2037
2041
2044
2048
2050
2054
2058
2061
2064
2065
2064
2060
2054
2048
2039
2029
2019
2010
2001
1993
1986
1980
1975
1972
1969
1968
1967
1966
1966
1965
1964
1963
1963
1963
1964
1965
1965
1966
1967
1967
1967
1967
1967
1967
1967
1968
1970
1970
1971
1971
1970
1970
1970
1970
1970
1970
1970
1971
1971
1971
1971
1971
1970
1970
1970
1970
1970
1971
1971
1971
1971
1970
1970
1970
1970
1970
1971
1972
1972
1972
1972
1971
1971
1971
1971
1972
1972
1973
1973
1973
1972
1972
1972
1972
1972
1973
1974
1974
1973
1972
1970
1968
1967
1967
1968
1970
1974
1977
1981
1983
1984
1984
1982
1981
1980
1979
1979
1978
1976
1974
1973
1973
1972
1972
1972
1972
1973
1974
1975
1976
1975
1971
1964
1957
1958
1976
2012
2054
2086
2089
2058
2005
1953
1923
1922
1943
1969
1988
1995
1994
1989
1984
1982
1981
1981
1982
1984
1985
1986
1987
1987
1987
1987
1987
1988
1989
1990
1991
1992
1993
1993
1993
1994
1994
1995
1997
1998
1999
2001
2002
2002
2003
2004
2005
2007
2009
2011
2013
2016
2018
2020
2022
2025
2028
2031
2035
2039
2043
2046
2048
2051
2053
2055
2056
2055
2053
2049
2044
2035
2026
2016
2006
1997
1989
1983
1978
1974
1971
1969
1967
1965
1963
1962
1961
1961
1962
1963
1964
1965
1965
1964
1964
1964
1964
1964
1965
1966
1967
1968
1968
1968
1968
1967
1967
1968
1968
1969
1969
1970
1970
1969
1969
1969
1968
1969
1969
1970
1970
1970
1970
1969
1969
1969
1968
1969
1969
1970
1970
1971
1971
1970
1970
1970
1969
1970
1970
1971
1972
1972
1972
1971
1971
1970
1970
1970
1971
1972
1972
1973
1973
1973
1972
1972
1972
1972
1973
1973
1973
1973
1971
1970
1969
1968
1969
1971
1973
1977
1981
1984
1986
1986
1984
1982
1980
1980
1980
1979
1978
1976
1975
1974
1973
1973
1973
1973
1973
1974
1975
1976
1976
1974
1969
1961
1957
1968
1995
2037
2074
2090
2072
2027
1971
1930
1917
1930
1956
1979
1992
1995
1991
1986
1983
1981
1982
1983
1984
1985
1986
1986
1987
1987
1988
1988
1989
1990
1991
1991
1992
1993
1994
1995
1995
1996
1996
1996
1997
1998
2000
2002
2003
2004
2005
2006
2007
2009
2011
2014
2016
2018
2021
2023
2026
2028
2031
2034
2038
2041
2045
2048
2051
2054
2056
2057
2058
2057
2054
2050
2044
2035
2025
2015
2005
1996
1989
1983
1979
1975
1972
1970
1968
1967
1966
1965
1965
1965
1965
1966
1966
1967
1967
1967
1967
1967
1967
1967
1968
1969
1970
1970
1970
1970
1970
1970
1970
1970
1970
1970
1971
1971
1971
1971
1971
1970
1970
1970
1971
1971
1972
1972
1971
1971
1971
1971
1971
1971
1971
1971
1972
1972
1972
1972
1971
1971
1971
1971
1972
1972
1973
1974
1974
1973
1973
1972
1972
1972
1973
1973
1974
1974
1974
1974
1973
1973
1973
1972
1972
1971
1970
1969
1969
1970
1971
1973
1976
1980
1983
1985
1985
1984
1983
1981
1980
1978
1976
1974
1973
1972
1972
1972
1972
1972
1971
1971
1971
1972
1973
1973
1969
1962
1955
1956
1975
2010
2052
2081
2079
2045
1990
1939
1912
1915
1937
1964
1982
1990
1989
1985
1982
1979
1979
1979
1979
1979
1980
1980
1981
1982
1984
1985
1985
1985
1985
1984
1985
1985
1987
1988
1990
1991
1992
1992
1993
1994
1994
1996
1997
1999
2000
2002
2003
2004
2005
2006
2007
2009
2012
2015
2018
2022
2025
2028
2030
2032
2035
2038
2042
2046
2048
2051
2052
2050
2048
2043
2036
2027
2018
2009
2000
1992
1984
1977
1972
1967
1964
1962
1960
1959
1958
1958
1957
1957
1957
1957
1958
1958
1959
1959
1960
1961
1961
1961
1961
1961
1961
1961
1962
1962
1963
1963
1963
1963
1964
1964
1964
1964
1965
1965
1965
1966
1966
1965
1965
1964
1964
1964
1965
1965
1966
1966
1966
1966
1966
1966
1966
1966
1967
1968
1969
1969
1969
1968
1968
1968
1968
1968
1968
1969
1970
1971
1972
1972
1972
1971
1970
1970
1970
1970
1970
1969
1968
1968
1967
1968
1969
1972
1976
1980
1984
1985
1985
1984
1982
1981
1980
1979
1978
1976
1974
1974
1974
1974
1973
1973
1972
1972
1973
1975
1976
1975
1971
1964
1956
1959
1980
2021
2065
2092
2082
2035
1970
1914
1890
1900
1931
1964
1984
1993
1993
1989
1986
1984
1983
1982
1982
1983
1984
1986
1987
1988
1988
1989
1990
1990
1991
1991
1991
1992
1993
1995
1996
1997
1997
1997
1998
1998
2000
2002
2004
2006
2007
2007
2008
2009
2010
2012
2015
2018
2021
2024
2027
2030
2033
2036
2039
2043
2047
2050
2054
2057
2060
2062
2062
2060
2056
2050
2043
2033
2022
2011
2001
1992
1984
1977
1972
1968
1965
1963
1962
1961
1960
1959
1958
1957
1957
1957
1958
1959
1960
1960
1959
1958
1958
1958
1960
1961
1962
1962
1963
1963
1963
1963
1963
1963
1963
1963
1964
1964
1964
1964
1963
1963
1963
1962
1962
1963
1963
1964
1965
1965
1965
1964
1963
1963
1963
1963
1964
1964
1965
1965
1964
1964
1963
1963
1963
1963
1964
1965
1965
1964
1964
1962
1961
1959
1959
1959
1961
1964
1969
1973
1976
1977
1977
1975
1974
1973
1972
1971
1970
1968
1966
1966
1965
1965
1965
1965
1965
1966
1967
1968
1969
1967
1962
1953
1947
1954
1980
2023
2064
2083
2065
2017
1956
1912
1898
1914
1944
1970
1985
1988
1985
1980
1976
1974
1974
1975
1976
1977
1978
1979
1979
1980
1980
1980
1981
1982
1983
1984
1985
1986
1986
1987
1987
1988
1988
1989
1990
1992
1993
1995
1996
1997
1998
1999
2001
2002
2004
2007
2009
2012
2015
2017
2020
2022
2026
2029
2033
2037
2041
2045
2048
2050
2051
2052
2051
2048
2043
2036
2026
2016
2006
1995
1986
1978
1972
1967
1964
1961
1959
1958
1956
1955
1954
1953
1953
1953
1954
1955
1956
1956
1957
1957
1957
1956
1957
1957
1958
1959
1960
1961
1962
1962
1961
1961
1961
1962
1962
1963
1963
1964
1964
1964
1963
1963
1963
1963
1964
1964
1965
1965
1965
1964
1964
1964
1964
1964
1965
1966
1966
1967
1967
1967
1966
1966
1966
1967
1967
1968
1968
1968
1968
1967
1967
1967
1967
1968
1969
1969
1970
1971
1971
1971
1969
1967
1965
1964
1964
1966
1968
1971
1974
1977
1979
1981
1981
1981
1980
1980
1979
1979
1977
1975
1973
1971
1970
1970
1971
1972
1972
1972
1972
1973
1973
1973
1971
1967
1960
1955
1961
1984
2023
2064
2089
2083
2045
1991
1945
1925
1932
1955
1978
1991
1994
1990
1984
1981
1980
1980
1981
1983
1983
1984
1984
1984
1984
1985
1986
1987
1989
1990
1990
1990
1991
1991
1991
1992
1993
1994
1996
1997
1998
1999
1999
2000
2001
2002
2004
2006
2008
2010
2011
2013
2014
2016
2018
2021
2024
2028
2032
2035
2038
2041
2044
2046
2048
2051
2053
2054
2052
2049
2044
2036
2027
2017
2007
1999
1991
1985
1980
1976
1972
1969
1966
1964
1963
1963
1962
1962
1962
1962
1963
1963
1963
1963
1963
1964
1965
1965
1966
1966
1966
1966
1966
1966
1966
1966
1967
1968
1969
1970
1970
1969
1969
1969
1969
1969
1970
1971
1972
1972
1972
1972
1971
1971
1971
1971
1971
1971
1972
1972
1972
1973
1972
1972
1972
1973
1973
1974
1974
1975
1975
1974
1974
1973
1974
1974
1975
1976
1976
1976
1976
1976
1976
1975
1975
1976
1976
1977
1977
1978
1978
1978
1977
1977
1977
1977
1978
1978
1978
1978
1977
1975
1974
1972
1972
1973
1975
1979
1982
1986
1989
1990
1989
1988
1986
1985
1984
1984
1983
1981
1980
1978
1977
1976
1975
1975
1976
1976
1977
1978
1979
1978
1976
1970
1962
1957
1964
1988
2028
2069
2092
2083
2042
1987
1942
1922
1931
1955
1979
1992
1994
1990
1984
1980
1978
1978
1979
1980
1981
1981
1982
1982
1982
1982
1982
1983
1984
1985
1986
1987
1988
1988
1987
1987
1987
1988
1989
1991
1992
1993
1994
1995
1996
1998
1999
2001
2002
2004
2006
2008
2011
2013
2015
2017
2020
2023
2026
2030
2034
2037
2040
2042
2044
2046
2047
2048
2047
2045
2041
2034
2026
2016
2007
1998
1989
1983
1977
1972
1969
1965
1963
1960
1959
1957
1957
1957
1958
1958
1959
1960
1960
1960
1960
1960
1959
1959
1960
1960
1961
1962
1962
1962
1962
1962
1962
1962
1963
1963
1964
1964
1964
1964
1963
1963
1963
1963
1964
1964
1964
1965
1965
1964
1964
1964
1964
1964
1965
1966
1967
1967
1968
1967
1967
1966
1966
1966
1967
1968
1969
1969
1969
1969
1968
1968
1968
1969
1969
1970
1970
1971
1971
1971
1971
1970
1970
1970
1971
1971
1972
1972
1972
1972
1971
1971
1970
1970
1971
1972
1972
1973
1973
1972
1970
1969
1969
1969
1971
1973
1976
1979
1983
1986
1987
1986
1985
1983
1982
1982
1981
1979
1977
1976
1975
1975
1975
1976
1976
1976
1976
1976
1977
1978
1977
1974
1967
1959
1961
1981
2019
2063
2091
2084
2040
1976
1922
1898
1908
1939
1970
1990
1997
1996
1991
1988
1986
1984
1984
1985
1986
1987
1988
1990
1990
1991
1991
1992
1993
1993
1994
1994
1995
1996
1997
1997
1998
1998
1999
2000
2002
2005
2006
2007
2007
2007
2008
2010
2013
2016
2018
2020
2022
2023
2026
2029
2033
2036
2040
2044
2048
2051
2055
2058
2061
2063
2066
2067
2067
2064
2058
2050
2041
2029
2017
2006
1997
1989
1983
1978
1975
1971
1967
1964
1962
1961
1962
1962
1962
1962
1961
1961
1962
1963
1963
1963
1962
1962
1963
1964
1965
1965
1966
1966
1966
1966
1967
1968
1969
1970
1970
1969
1969
1968
1968
1968
1969
1968
1968
1967
1967
1968
1969
1970
1969
1969
1969
1969
1969
1968
1968
1967
1967
1968
1969
1969
1969
1968
1967
1968
1970
1971
1971
1971
1971
1970
1969
1967
1965
1964
1964
1965
1967
1969
1972
1975
1978
1981
1983
1983
1982
1981
1979
1978
1976
1974
1973
1972
1971
1971
1971
1972
1972
1973
1974
1974
1974
1973
1970
1964
1957
1957
1975
2011
2055
2086
2084
2043
1980
1925
1900
1910
1942
1974
1993
1998
1996
1991
1988
1986
1985
1984
1984
1983
1983
1984
1985
1985
1985
1986
1986
1987
1989
1992
1994
1994
1994
1993
1992
1992
1993
1996
1998
1999
2000
2001
2002
2004
2007
2008
2009
2010
2011
2014
2018
2021
2024
2026
2029
2033
2038
2043
2047
2050
2052
2055
2058
2063
2067
2069
2069
2064
2056
2045
2032
2019
2007
1996
1988
1981
1976
1972
1969
1965
1962
1959
1958
1957
1957
1958
1959
1960
1960
1959
1958
1956
1956
1956
1957
1957
1958
1960
1960
1961
1961
1961
1961
1961
1961
1961
1961
1962
1963
1965
1966
1965
1964
1963
1962
1962
1963
1964
1966
1967
1967
1967
1966
1965
1964
1963
1963
1963
1964
1964
1965
1966
1966
1966
1965
1965
1966
1967
1967
1966
1964
1962
1960
1960
1962
1967
1972
1976
1977
1978
1977
1976
1975
1976
1975
1975
1974
1972
1970
1969
1968
1968
1968
1968
1969
1968
1969
1970
1971
1970
1966
1959
1952
1954
1973
2008
2047
2067
2059
2022
1974
1939
1931
1949
1976
1996
2001
1997
1988
1982
1980
1978
1978
1977
1977
1977
1979
1980
1980
1981
1981
1980
1980
1980
1981
1982
1984
1985
1987
1988
1988
1987
1988
1989
1990
1992
1993
1994
1995
1996
1998
2000
2002
2003
2004
2006
2009
2012
2015
2019
2021
2025
2029
2034
2038
2042
2044
2048
2050
2053
2055
2054
2050
2044
2034
2023
2012
2002
1993
1985
1977
1971
1965
1961
1960
1960
1961
1961
1959
1957
1954
1953
1953
1954
1955
1956
1957
1958
1958
1958
1957
1956
1955
1956
1957
1959
1960
1962
1963
1962
1962
1961
1960
1960
1961
1962
1963
1964
1963
1962
1961
1961
1962
1963
1963
1964
1964
1963
1963
1962
1962
1962
1963
1964
1964
1964
1964
1963
1963
1964
1964
1965
1965
1965
1965
1965
1965
1965
1966
1966
1966
1966
1965
1964
1962
1961
1961
1961
1962
1964
1967
1970
1973
1975
1977
1978
1978
1978
1976
1974
1972
1969
1967
1966
1966
1967
1967
1968
1968
1968
1967
1967
1968
1968
1967
1963
1956
1952
1959
1985
2025
2061
2075
2056
2013
1965
1935
1934
1954
1979
1995
1997
1991
1983
1978
1975
1975
1975
1975
1976
1976
1977
1978
1978
1979
1979
1979
1980
1981
1982
1982
1983
1983
1984
1985
1986
1987
1988
1989
1991
1992
1992
1992
1993
1994
1996
1998
2000
2002
2003
2004
2005
2007
2010
2013
2017
2020
2023
2026
2028
2031
2033
2036
2039
2042
2043
2043
2041
2036
2029
2021
2012
2003
1993
1985
1978
1972
1968
1965
1963
1961
1959
1957
1956
1955
1955
1955
1956
1956
1957
1957
1958
1957
1957
1956
1956
1957
1959
1960
1960
1960
1960
1961
1962
1963
1963
1964
1964
1963
1963
1963
1963
1963
1963
1963
1963
1963
1964
1964
1964
1964
1964
1963
1963
1963
1964
1965
1966
1966
1966
1965
1964
1963
1964
1965
1966
1967
1967
1967
1966
1965
1965
1966
1966
1967
1968
1968
1968
1968
1968
1968
1968
1968
1968
1969
1969
1968
1969
1969
1969
1969
1968
1968
1968
1968
1969
1971
1971
1971
1970
1970
1970
1970
1970
1970
1970
1971
1971
1972
1973
1972
1971
1970
1970
1971
1972
1973
1974
1974
1973
1972
1972
1971
1971
1972
1973
1973
1974
1974
1974
1973
1973
1973
1973
1973
1974
1975
1975
1975
1975
1974
1973
1974
1975
1976
1977
1977
1977
1976
1976
1975
1975
1975
1976
1976
1977
1978
1978
1977
1976
1976
1976
1976
1976
1977
1977
1977
1977
1977
1977
1977
1977
1977
1978
1978
1978
1978
1978
1978
1977
1977
1977
1977
1977
1978
1978
1978
1977
1976
1975
1974
1974
1974
1975
1977
1981
1986
1989
1990
1989
1987
1985
1983
1983
1983
1983
1981
1980
1978
1978
1977
1977
1977
1977
1978
1980
1981
1981
1978
1971
1961
1958
1972
2005
2050
2089
2102
2081
2035
1986
1955
1951
1967
1987
2000
2002
1998
1991
1986
1983
1981
1980
1980
1981
1982
1983
1984
1985
1985
1985
1984
1984
1985
1986
1988
1989
1990
1990
1991
1991
1992
1993
1993
1993
1994
1995
1996
1997
1999
2000
2001
2001
2002
2003
2004
2006
2008
2010
2012
2013
2015
2017
2020
2023
2026
2029
2031
2034
2036
2037
2039
2040
2040
2041
2041
2039
2035
2030
2023
2015
2007
1999
1992
1986
1981
1977
1974
1972
1970
1969
1967
1966
1965
1965
1965
1966
1966
1967
1967
1966
1966
1966
1966
1967
1968
1969
1969
1969
1969
1969
1969
1970
1970
1971
1971
1972
1973
1973
1973
1973
1972
1972
1972
1973
1973
1973
1973
1973
1973
1973
1973
1973
1973
1973
1973
1974
1974
1975
1975
1974
1974
1973
1973
1974
1974
1975
1975
1975
1975
1975
1975
1975
1975
1975
1976
1976
1976
1977
1977
1977
1977
1977
1977
1977
1978
1978
1979
1978
1978
1978
1978
1978
1979
1979
1979
1980
1981
1981
1981
1980
1980
1980
1980
1980
1980
1981
1982
1982
1982
1982
1981
1981
1981
1982
1982
1983
1983
1983
1983
1983
1983
1983
1983
1983
1983
1984
1985
1985
1985
1984
1984
1983
1983
1983
1984
1985
1986
1986
1986
1986
1985
1985
1985
1985
1985
1986
1987
1987
1987
1987
1987
1987
1986
1986
1986
1985
1985
1984
1984
1984
1984
1986
1988
1992
1995
1998
1998
1998
1996
1995
1994
1993
1992
1990
1989
1988
1988
1988
1988
1988
1987
1986
1986
1987
1989
1989
1987
1981
1972
1967
1976
2005
2048
2090
2110
2097
2057
2009
1973
1962
1972
1991
2004
2008
2005
1998
1993
1991
1990
1990
1990
1990
1990
1991
1992
1993
1993
1994
1994
1995
1995
1995
1995
1996
1996
1997
1998
1999
1999
2000
2000
2001
2001
2002
2003
2004
2006
2007
2008
2009
2010
2011
2012
2014
2016
2018
2021
2024
2026
2029
2031
2034
2036
2040
2043
2047
2049
2052
2054
2055
2054
2052
2048
2045
2038
2031
2023
2015
2006
1999
1991
1985
1981
1977
1975
1973
1972
1971
1970
1969
1968
1968
1967
1968
1968
1969
1969
1969
1969
1969
1969
1969
1969
1969
1969
1970
1971
1971
1971
1971
1971
1971
1970
1971
1971
1972
1973
1973
1973
1973
1972
1972
1971
1971
1972
1972
1973
1973
1973
1973
1973
1972
1972
1972
1972
1973
1973
1974
1974
1973
1973
1973
1972
1973
1973
1974
1974
1974
1974
1974
1973
1973
1973
1973
1973
1974
1974
1975
1975
1975
1974
1974
1974
1974
1974
1974
1975
1976
1976
1976
1975
1975
1975
1975
1975
1976
1976
1976
1976
1976
1975
1975
1975
1975
1975
1976
1976
1976
1976
1976
1975
1975
1975
1975
1975
1976
1976
1976
1976
1976
1976
1975
1975
1976
1976
1976
1977
1977
1977
1976
1976
1976
1976
1976
1976
1976
1976
1975
1973
1972
1971
1971
1972
1975
1978
1982
1985
1987
1987
1986
1984
1983
1982
1981
1980
1978
1977
1976
1976
1975
1975
1975
1974
1974
1974
1976
1977
1978
1975
1970
1961
1956
1963
1989
2031
2073
2098
2090
2052
2002
1960
1943
1949
1969
1986
1994
1993
1987
1982
1979
1977
1977
1978
1979
1980
1980
1981
1982
1982
1983
1983
1983
1983
1984
1984
1985
1987
1987
1988
1988
1989
1989
1990
1991
1992
1993
1995
1996
1997
1998
1999
2000
2001
2003
2005
2007
2009
2012
2015
2017
2020
2023
2027
2030
2034
2038
2041
2045
2048
2050
2051
2052
2051
2049
2046
2041
2033
2025
2015
2006
1996
1988
1981
1976
1972
1969
1967
1965
1963
1962
1961
1960
1960
1960
1960
1961
1961
1961
1961
1961
1961
1961
1961
1962
1962
1963
1964
1965
1965
1964
1964
1964
1964
1964
1965
1966
1966
1966
1966
1966
1966
1966
1966
1967
1967
1968
1968
1968
1968
1968
1968
1967
1967
1967
1968
1968
1969
1969
1969
1969
1968
1968
1968
1968
1969
1970
1970
1970
1970
1970
1970
1969
1969
1970
1970
1971
1971
1972
1972
1972
1971
1971
1971
1971
1972
1973
1973
1974
1974
1973
1973
1973
1972
1973
1974
1974
1975
1975
1975
1975
1974
1974
1974
1974
1974
1975
1976
1976
1976
1975
1975
1975
1975
1975
1976
1976
1977
1977
1977
1977
1977
1976
1976
1976
1976
1977
1977
1977
1977
1976
1976
1976
1976
1976
1976
1977
1977
1978
1978
1978
1977
1977
1977
1977
1977
1977
1977
1975
1974
1973
1972
1973
1974
1976
1980
1983
1986
1988
1988
1987
1986
1984
1983
1982
1981
1979
1978
1977
1977
1977
1976
1976
1975
1975
1975
1977
1978
1979
1977
1971
1962
1956
1964
1990
2032
2074
2097
2087
2047
1995
1953
1937
1946
1967
1986
1995
1995
1990
1985
1982
1980
1980
1980
1979
1980
1980
1981
1982
1983
1983
1984
1984
1985
1986
1987
1988
1989
1990
1991
1991
1991
1991
1991
1992
1994
1995
1997
1998
1999
2000
2001
2002
2003
2005
2007
2009
2011
2014
2017
2019
2022
2026
2029
2033
2037
2041
2045
2048
2051
2054
2056
2057
2057
2054
2050
2045
2038
2029
2019
2010
2000
1991
1984
1978
1973
1970
1968
1965
1963
1961
1960
1959
1959
1959
1959
1959
1960
1960
1961
1961
1960
1960
1960
1960
1961
1962
1963
1963
1963
1962
1962
1962
1962
1963
1964
1965
1965
1965
1965
1964
1964
1964
1964
1965
1965
1966
1966
1966
1966
1966
1965
1965
1965
1964
1965
1965
1966
1967
1967
1967
1966
1966
1966
1966
1966
1967
1967
1968
1968
1968
1967
1966
1966
1966
1966
1967
1968
1968
1968
1968
1968
1968
1968
1968
1968
1969
1969
1969
1969
1968
1968
1968
1968
1968
1968
1969
1969
1970
1970
1970
1969
1969
1968
1968
1969
1970
1970
1971
1971
1970
1970
1970
1969
1969
1970
1970
1971
1971
1971
1971
1970
1969
1969
1970
1971
1971
1972
1972
1972
1972
1971
1970
1969
1968
1967
1967
1968
1969
1970
1971
1972
1974
1977
1980
1982
1982
1982
1980
1979
1978
1977
1975
1973
1972
1971
1971
1972
1972
1972
1972
1972
1972
1973
1974
1972
1966
1958
1953
1962
1990
2033
2072
2089
2069
2020
1961
1919
1908
1925
1953
1977
1989
1991
1987
1983
1980
1979
1979
1980
1980
1980
1981
1981
1982
1982
1983
1983
1984
1984
1985
1985
1986
1986
1987
1989
1990
1991
1992
1993
1993
1994
1995
1995
1997
1998
2000
2001
2003
2004
2005
2006
2008
2011
2014
2017
2020
2024
2028
2032
2036
2040
2043
2047
2050
2054
2058
2061
2063
2063
2060
2054
2046
2037
2026
2016
2006
1997
1988
1981
1974
1969
1965
1962
1960
1959
1958
1957
1957
1956
1956
1955
1955
1955
1955
1956
1956
1957
1957
1958
1958
1958
1958
1958
1958
1959
1960
1960
1961
1961
1961
1961
1961
1961
1961
1962
1963
1963
1964
1964
1963
1963
1963
1963
1963
1963
1963
1963
1963
1963
1963
1963
1963
1963
1963
1964
1964
1964
1964
1964
1964
1964
1964
1963
1964
1964
1965
1965
1966
1966
1965
1964
1964
1964
1964
1965
1965
1966
1966
1966
1965
1965
1965
1965
1965
1966
1967
1967
1967
1967
1967
1966
1966
1966
1966
1967
1967
1968
1968
1968
1968
1968
1968
1968
1967
1968
1968
1969
1969
1969
1969
1969
1968
1968
1968
1969
1969
1970
1970
1970
1970
1969
1969
1969
1969
1969
1970
1970
1970
1970
1970
1970
1969
1969
1969
1970
1970
1971
1971
1971
1970
1969
1967
1966
1966
1966
1967
1969
1970
1973
1975
1978
1980
1981
1981
1980
1979
1978
1977
1976
1975
1973
1971
1970
1969
1969
1970
1970
1971
1971
1971
1972
1972
1970
1966
1959
1953
1957
1979
2018
2061
2088
2084
2048
1993
1946
1925
1930
1953
1975
1988
1990
1986
1980
1976
1974
1975
1976
1977
1978
1978
1978
1978
1978
1979
1980
1981
1982
1983
1983
1983
1984
1984
1984
1985
1986
1987
1989
1990
1990
1991
1991
1992
1993
1994
1996
1998
2000
2001
2003
2004
2006
2008
2010
2013
2016
2020
2023
2027
2031
2034
2038
2041
2044
2048
2050
2053
2054
2053
2049
2045
2037
2028
2018
2009
2000
1992
1985
1979
1973
1969
1965
1962
1960
1958
1958
1957
1957
1957
1957
1957
1956
1956
1956
1957
1957
1958
1959
1959
1959
1960
1960
1960
1960
1960
1961
1962
1963
1963
1963
1963
1963
1963
1963
1963
1964
1964
1965
1965
1965
1965
1964
1964
1964
1964
1964
1965
1965
1966
1966
1965
1965
1964
1964
1964
1965
1965
1966
1966
1966
1966
1965
1965
1965
1965
1966
1966
1967
1967
1967
1967
1967
1966
1966
1967
1967
1968
1968
1969
1969
1968
1968
1968
1968
1968
1969
1969
1970
1970
1970
1970
1969
1969
1969
1969
1970
1971
1971
1972
1972
1972
1971
1971
1970
1971
1972
1972
1973
1973
1973
1973
1972
1972
1972
1972
1973
1973
1974
1974
1974
1973
1973
1973
1973
1973
1974
1974
1975
1975
1975
1975
1975
1974
1974
1974
1975
1976
1976
1977
1976
1976
1975
1975
1975
1975
1976
1977
1977
1978
1978
1978
1977
1977
1976
1976
1976
1976
1977
1978
1979
1979
1979
1978
1976
1975
1975
1975
1976
1977
1979
1981
1983
1986
1988
1990
1990
1990
1989
1988
1987
1985
1984
1982
1980
1979
1979
1979
1980
1981
1981
1981
1981
1982
1982
1982
1980
1974
1967
1964
1976
2007
2049
2088
2104
2087
2043
1992
1956
1946
1959
1980
1996
2002
2000
1994
1990
1988
1989
1989
1990
1990
1990
1990
1991
1992
1993
1994
1995
1996
1996
1996
1996
1996
1997
1998
1999
2000
2002
2003
2003
2004
2004
2004
2005
2006
2008
2010
2012
2014
2015
2016
2017
2019
2021
2023
2027
2030
2033
2037
2040
2043
2046
2049
2052
2056
2059
2063
2066
2069
2069
2068
2065
2059
2053
2046
2037
2029
2020
2012
2004
1997
1992
1987
1984
1982
1981
1980
1979
1979
1978
1977
1977
1976
1976
1976
1977
1978
1978
1979
1980
1980
1980
1980
1980
1980
1981
1982
1983
1984
1984
1984
1983
1983
1983
1983
1984
1984
1984
1984
1985
1984
1984
1984
1984
1984
1985
1986
1986
1986
1986
1986
1986
1985
1985
1984
1985
1985
1986
1987
1987
1986
1985
1985
1985
1986
1987
1987
1988
1988
1987
1987
1986
1986
1987
1987
1988
1989
1989
1990
1989
1988
1988
1987
1987
1987
1987
1988
1988
1989
1989
1989
1989
1989
1989
1989
1989
1989
1990
1990
1990
1989
1989
1989
1989
1989
1989
1989
1989
1990
1990
1991
1991
1991
1991
1990
1990
1990
1990
1991
1991
1991
1990
1990
1990
1990
1991
1992
1993
1993
1992
1991
1990
1990
1990
1990
1991
1992
1993
1993
1993
1992
1991
1991
1990
1990
1990
1990
1991
1992
1993
1992
1991
1990
1990
1990
1990
1991
1991
1990
1990
1990
1990
1990
1989
1989
1988
1989
1991
1993
1997
2000
2003
2003
2001
1999
1997
1997
1997
1997
1995
1993
1991
1989
1989
1990
1990
1990
1990
1990
1990
1990
1991
1990
1987
1981
1974
1978
1999
2039
2083
2110
2101
2055
1992
1937
1914
1925
1955
1985
2003
2009
2007
2003
2000
1997
1996
1996
1997
1998
1999
2000
2000
2000
2000
2001
2002
2002
2003
2004
2005
2006
2007
2007
2007
2007
2008
2009
2010
2012
2013
2013
2014
2015
2016
2017
2018
2020
2021
2023
2026
2029
2032
2034
2036
2039
2043
2048
2053
2059
2063
2066
2069
2072
2075
2079
2082
2085
2086
2083
2076
2067
2057
2047
2036
2025
2016
2007
2000
1993
1987
1981
1976
1972
1970
1969
1969
1969
1969
1968
1968
1969
1969
1969
1969
1968
1967
1967
1968
1969
1970
1971
1970
1970
1970
1971
1972
1973
1974
1974
1975
1974
1974
1974
1974
1974
1974
1974
1974
1975
1975
1975
1975
1975
1975
1975
1975
1975
1975
1975
1974
1974
1974
1975
1975
1975
1975
1975
1976
1976
1976
1976
1975
1974
1974
1975
1976
1977
1977
1976
1976
1976
1976
1976
1976
1977
1977
1977
1977
1977
1976
1976
1976
1976
1976
1977
1978
1979
1979
1979
1978
1978
1977
1976
1976
1976
1977
1978
1979
1980
1980
1979
1978
1977
1977
1977
1977
1977
1977
1976
1975
1974
1974
1973
1974
1976
1978
1982
1986
1989
1991
1990
1988
1986
1984
1983
1983
1982
1980
1979
1978
1977
1976
1976
1976
1976
1977
1978
1979
1979
1979
1976
1970
1962
1962
1978
2013
2058
2092
2093
2054
1992
1933
1902
1906
1935
1969
1991
2000
1999
1994
1990
1987
1985
1984
1984
1985
1986
1987
1987
1988
1988
1988
1989
1990
1991
1992
1993
1993
1994
1993
1993
1994
1995
1997
1998
2000
2001
2002
2002
2004
2005
2006
2007
2009
2010
2013
2016
2019
2023
2025
2028
2031
2035
2039
2044
2049
2054
2059
2064
2068
2071
2074
2076
2076
2074
2069
2062
2052
2041
2030
2018
2007
1996
1987
1980
1974
1970
1968
1966
1964
1963
1961
1960
1960
1960
1960
1961
1961
1960
1960
1959
1959
1958
1959
1960
1961
1963
1963
1964
1963
1963
1963
1963
1964
1965
1966
1967
1968
1969
1969
1969
1969
1969
1969
1969
1970
1970
1970
1970
1971
1970
1970
1970
1970
1971
1972
1972
1973
1973
1972
1972
1971
1971
1971
1971
1972
1973
1973
1974
1974
1974
1973
1973
1973
1974
1974
1975
1976
1976
1976
1976
1976
1976
1975
1976
1976
1976
1976
1977
1977
1976
1976
1975
1975
1975
1976
1977
1979
1979
1980
1979
1978
1978
1978
1978
1979
1980
1980
1980
1979
1979
1978
1978
1979
1980
1981
1982
1982
1982
1982
1981
1981
1980
1980
1980
1980
1981
1982
1982
1983
1982
1981
1980
1978
1977
1977
1978
1979
1979
1980
1982
1985
1988
1991
1993
1993
1992
1991
1989
1988
1987
1985
1983
1982
1981
1981
1981
1982
1982
1981
1981
1980
1981
1982
1983
1982
1978
1970
1964
1970
1996
2038
2080
2101
2086
2041
1984
1941
1927
1941
1968
1991
2001
2001
1996
1991
1989
1987
1987
1987
1987
1987
1988
1989
1989
1990
1990
1991
1992
1993
1993
1994
1994
1994
1994
1995
1996
1997
1998
1998
1999
1999
2000
2001
2002
2003
2005
2006
2007
2009
2010
2012
2014
2017
2019
2022
2025
2029
2033
2037
2042
2046
2049
2053
2057
2061
2065
2069
2070
2070
2068
2063
2056
2048
2038
2027
2017
2007
1997
1989
1982
1976
1971
1968
1966
1964
1963
1962
1961
1960
1960
1959
1959
1959
1959
1959
1959
1959
1960
1960
1960
1960
1960
1960
1961
1962
1963
1963
1963
1963
1963
1963
1963
1964
1965
1965
1965
1965
1966
1966
1965
1965
1965
1964
1964
1965
1966
1966
1966
1966
1966
1965
1964
1964
1964
1965
1965
1966
1966
1966
1966
1965
1965
1964
1964
1964
1964
1965
1965
1966
1966
1966
1965
1965
1965
1965
1965
1966
1966
1966
1966
1966
1966
1966
1966
1966
1966
1967
1967
1967
1967
1967
1967
1967
1967
1968
1968
1969
1969
1969
1968
1967
1966
1966
1967
1968
1969
1969
1969
1969
1968
1968
1968
1968
1968
1969
1969
1969
1969
1969
1969
1968
1967
1967
1967
1968
1969
1969
1969
1968
1968
1967
1966
1966
1966
1967
1967
1968
1968
1969
1969
1968
1968
1967
1967
1968
1969
1970
1970
1970
1970
1969
1969
1969
1969
1970
1970
1970
1970
1970
1970
1969
1969
1969
1969
1969
1970
1971
1971
1971
1971
1970
1970
1969
1970
1970
1970
1969
1968
1967
1966
1966
1966
1967
1970
1973
1977
1980
1982
1981
1979
1977
1975
1974
1974
1973
1972
1971
1970
1969
1969
1969
1969
1969
1969
1969
1971
1972
1972
1970
1964
1955
1948
1954
1978
2021
2065
2093
2089
2053
2003
1960
1941
1947
1966
1983
1991
1990
1984
1978
1974
1973
1972
1972
1973
1973
1974
1975
1976
1977
1977
1977
1977
1977
1978
1979
1980
1980
1981
1982
1983
1983
1983
1983
1983
1984
1985
1987
1988
1989
1989
1990
1990
1992
1993
1995
1998
2000
2003
2005
2007
2010
2012
2015
2019
2023
2027
2031
2035
2039
2043
2046
2048
2049
2049
2048
2046
2041
2034
2026
2017
2007
1998
1990
1982
1977
1972
1968
1965
1963
1960
1958
1957
1956
1956
1956
1957
1957
1958
1957
1957
1957
1957
1957
1958
1959
1959
1960
1961
1961
1961
1961
1960
1960
1961
1961
1962
1963
1963
1963
1963
1963
1963
1964
1964
1964
1965
1965
1966
1966
1965
1965
1965
1965
1966
1967
1967
1967
1967
1967
1966
1966
1965
1965
1965
1966
1967
1967
1968
1968
1967
1967
1966
1966
1967
1968
1968
1969
1969
1969
1969
1968
1968
1968
1968
1969
1970
1971
1971
1971
1970
1970
1970
1970
1970
1970
1971
1971
1971
1971
1971
1971
1971
1971
1971
1972
1972
1973
1973
1973
1973
1973
1972
1972
1972
1972
1973
1974
1974
1974
1974
1973
1973
1973
1973
1974
1974
1975
1975
1975
1975
1974
1974
1974
1974
1974
1975
1976
1976
1976
1975
1975
1974
1974
1974
1975
1975
1976
1977
1977
1977
1976
1975
1975
1975
1976
1976
1977
1977
1976
1976
1976
1976
1976
1976
1976
1977
1977
1978
1978
1977
1977
1976
1976
1976
1976
1977
1978
1979
1979
1979
1979
1978
1977
1976
1975
1974
1974
1973
1973
1974
1975
1977
1980
1983
1986
1988
1988
1987
1986
1984
1983
1982
1981
1979
1978
1978
1978
1978
1978
1978
1978
1978
1977
1978
1979
1980
1979
1976
1968
1959
1958
1973
2008
2053
2093
2106
2086
2042
1994
1961
1954
1965
1982
1993
1996
1991
1985
1980
1978
1978
1979
1979
1980
1980
1981
1981
1982
1983
1983
1983
1983
1983
1984
1985
1986
1987
1988
1989
1989
1990
1990
1990
1991
1991
1992
1994
1995
1997
1998
1998
1999
2000
2002
2004
2006
2008
2010
2012
2015
2017
2020
2023
2027
2031
2035
2039
2043
2047
2049
2052
2054
2054
2054
2051
2048
2043
2036
2028
2019
2009
2000
1992
1986
1980
1977
1973
1971
1968
1966
1964
1963
1962
1962
1962
1962
1963
1963
1964
1964
1963
1963
1963
1963
1964
1964
1965
1965
1965
1965
1965
1965
1965
1965
1966
1966
1967
1968
1968
1968
1968
1968
1968
1968
1968
1969
1970
1970
1970
1970
1970
1969
1969
1969
1969
1970
1970
1970
1970
1970
1970
1970
1969
1969
1969
1970
1970
1971
1971
1971
1971
1970
1970
1970
1970
1971
1971
1972
1972
1972
1972
1971
1971
1971
1971
1971
1972
1973
1973
1973
1973
1972
1972
1972
1972
1973
1973
1974
1974
1974
1974
1973
1973
1972
1972
1973
1974
1974
1975
1975
1974
1974
1974
1973
1974
1974
1975
1975
1975
1975
1975
1975
1975
1975
1975
1975
1976
1976
1977
1977
1977
1977
1976
1976
1975
1976
1976
1977
1977
1977
1976
1976
1975
1975
1976
1976
1977
1977
1977
1977
1977
1976
1976
1976
1976
1977
1978
1978
1978
1978
1978
1978
1978
1978
1978
1978
1978
1979
1979
1979
1979
1978
1977
1976
1974
1974
1974
1975
1976
1977
1980
1982
1984
1987
1988
1989
1988
1987
1985
1984
1983
1982
1980
1979
1978
1977
1978
1978
1978
1978
1978
1977
1978
1978
1979
1977
1972
1965
1959
1965
1989
2030
2073
2100
2096
2061
2011
1966
1945
1949
1968
1986
1995
1995
1990
1985
1982
1981
1981
1981
1982
1982
1982
1983
1984
1984
1985
1986
1987
1988
1988
1988
1988
1988
1988
1989
1990
1991
1992
1992
1993
1994
1995
1996
1998
2000
2002
2003
2003
2004
2005
2007
2008
2010
2012
2015
2019
2022
2026
2030
2033
2037
2041
2045
2048
2052
2056
2059
2062
2063
2063
2061
2057
2052
2046
2038
2029
2019
2009
2000
1992
1985
1979
1975
1972
1970
1969
1969
1968
1967
1965
1964
1963
1962
1961
1961
1962
1963
1965
1966
1967
1967
1966
1966
1966
1967
1968
1969
1969
1969
1969
1969
1969
1969
1970
1971
1971
1972
1972
1972
1972
1972
1972
1972
1972
1972
1972
1973
1973
1974
1974
1973
1973
1973
1973
1974
1975
1975
1975
1975
1974
1974
1973
1973
1973
1974
1975
1975
1975
1974
1974
1974
1974
1974
1975
1975
1975
1974
1974
1974
1974
1974
1974
1974
1974
1974
1974
1975
1976
1976
1976
1976
1975
1974
1973
1973
1974
1975
1976
1976
1976
1975
1974
1974
1974
1975
1975
1975
1976
1976
1976
1975
1975
1975
1975
1975
1976
1976
1976
1976
1976
1976
1976
1976
1976
1975
1976
1976
1977
1977
1977
1977
1976
1975
1975
1974
1974
1974
1974
1974
1974
1974
1975
1978
1981
1985
1987
1987
1986
1985
1984
1983
1982
1980
1979
1977
1976
1975
1975
1976
1976
1976
1976
1975
1976
1977
1978
1977
1973
1965
1958
1962
1985
2026
2070
2095
2085
2040
1978
1927
1906
1917
1945
1973
1990
1994
1992
1987
1985
1984
1983
1983
1982
1982
1982
1983
1984
1986
1987
1988
1988
1988
1988
1988
1989
1990
1991
1992
1993
1994
1994
1995
1996
1997
1998
1999
2001
2002
2003
2004
2005
2006
2007
2009
2011
2014
2017
2021
2024
2027
2031
2034
2038
2042
2047
2052
2057
2061
2066
2069
2071
2072
2071
2068
2062
2054
2046
2035
2023
2011
2000
1990
1981
1974
1969
1965
1962
1960
1959
1958
1957
1956
1955
1954
1954
1954
1955
1955
1955
1955
1955
1955
1954
1954
1955
1956
1957
1959
1960
1960
1960
1959
1958
1958
1959
1960
1961
1962
1963
1963
1962
1962
1962
1962
1962
1963
1964
1964
1964
1964
1964
1963
1963
1963
1963
1963
1964
1965
1966
1967
1966
1965
1964
1964
1964
1964
1965
1966
1966
1966
1965
1965
1965
1965
1965
1966
1966
1967
1967
1967
1967
1967
1966
1967
1967
1967
1968
1968
1968
1967
1966
1964
1964
1964
1965
1967
1970
1974
1977
1980
1980
1980
1978
1977
1976
1975
1975
1974
1972
1971
1969
1968
1968
1968
1968
1969
1970
1971
1972
1972
1970
1964
1956
1951
1960
1987
2031
2072
2091
2073
2024
1964
1919
1906
1921
1950
1975
1988
1991
1987
1981
1978
1976
1976
1976
1977
1979
1980
1981
1981
1981
1982
1982
1983
1984
1984
1985
1986
1986
1987
1988
1988
1988
1989
1990
1992
1993
1994
1995
1997
1997
1998
1999
2001
2003
2005
2008
2010
2013
2015
2018
2022
2026
2031
2035
2040
2044
2048
2052
2057
2060
2064
2066
2066
2065
2061
2055
2047
2036
2025
2013
2002
1992
1984
1977
1971
1967
1965
1962
1960
1958
1957
1956
1956
1956
1956
1956
1956
1956
1956
1956
1956
1955
1956
1956
1957
1958
1958
1959
1959
1959
1959
1959
1959
1960
1960
1962
1963
1963
1964
1964
1963
1963
1963
1963
1964
1965
1966
1966
1965
1965
1964
1964
1964
1964
1964
1965
1965
1965
1966
1965
1965
1965
1964
1964
1965
1966
1966
1966
1966
1966
1965
1965
1965
1965
1966
1967
1967
1967
1966
1964
1963
1963
1964
1966
1969
1972
1976
1979
1980
1980
1979
1977
1976
1976
1975
1974
1973
1971
1970
1969
1969
1969
1968
1968
1969
1969
1971
1972
1971
1968
1961
1952
1951
1967
2002
2047
2082
2090
2064
2014
1961
1928
1924
1942
1966
1985
1991
1989
1983
1978
1975
1975
1975
1976
1977
1977
1978
1978
1978
1979
1979
1979
1979
1980
1981
1982
1983
1984
1985
1985
1986
1986
1987
1988
1989
1990
1992
1993
1994
1996
1997
1997
1999
2000
2003
2005
2008
2011
2014
2017
2019
2023
2027
2031
2036
2041
2046
2049
2053
2056
2058
2059
2058
2055
2049
2042
2033
2022
2011
2000
1990
1981
1974
1968
1964
1961
1959
1957
1955
1953
1951
1950
1950
1951
1951
1952
1953
1953
1953
1953
1952
1952
1952
1953
1953
1954
1955
1956
1956
1956
1956
1956
1956
1956
1957
1957
1958
1958
1959
1958
1958
1958
1958
1958
1959
1959
1960
1960
1960
1960
1960
1959
1959
1959
1960
1961
1961
1961
1961
1961
1960
1960
1960
1960
1961
1961
1962
1962
1962
1962
1962
1961
1961
1962
1962
1963
1963
1964
1964
1964
1963
1963
1963
1963
1964
1964
1965
1965
1965
1965
1965
1964
1963
1962
1961
1961
1961
1962
1964
1966
1968
1971
1973
1975
1976
1977
1976
1975
1974
1973
1971
1969
1967
1966
1966
1966
1967
1967
1967
1967
1966
1966
1967
1968
1968
1965
1959
1952
1951
1966
1999
2043
2077
2086
2060
2011
1958
1924
1919
1937
1962
1980
1987
1986
1980
1975
1973
1973
1974
1975
1976
1976
1976
1976
1977
1977
1978
1979
1980
1981
1981
1981
1982
1983
1983
1985
1986
1987
1988
1988
1989
1989
1990
1991
1993
1995
1997
1999
2001
2002
2003
2005
2007
2009
2013
2017
2021
2025
2029
2032
2034
2038
2041
2046
2050
2054
2057
2059
2059
2058
2054
2048
2041
2032
2022
2012
2002
1994
1986
1979
1973
1968
1964
1962
1960
1959
1959
1958
1957
1956
1956
1956
1956
1957
1957
1957
1958
1958
1959
1959
1959
1959
1960
1960
1961
1961
1962
1962
1962
1962
1961
1961
1960
1961
1961
1962
1963
1963
1963
1963
1962
1962
1962
1962
1962
1963
1964
1965
1964
1963
1961
1960
1960
1961
1962
1964
1965
1965
1965
1965
1964
1963
1963
1963
1964
1964
1965
1965
1964
1964
1964
1964
1963
1963
1963
1964
1964
1964
1964
1964
1964
1964
1964
1964
1965
1965
1965
1965
1965
1965
1965
1964
1964
1965
1965
1966
1966
1966
1966
1965
1965
1964
1965
1965
1965
1966
1967
1967
1967
1966
1965
1963
1962
1961
1962
1963
1964
1966
1968
1971
1974
1976
1977
1977
1976
1975
1974
1973
1972
1971
1969
1967
1965
1965
1965
1965
1966
1967
1967
1967
1967
1968
1967
1966
1962
1955
1949
1955
1979
2020
2062
2086
2073
2025
1962
1911
1892
1905
1936
1965
1981
1985
1983
1979
1976
1975
1975
1975
1975
1975
1975
1975
1976
1976
1977
1978
1979
1980
1981
1982
1982
1982
1982
1983
1984
1985
1986
1988
1989
1989
1990
1991
1992
1993
1995
1997
1998
2000
2001
2003
2005
2007
2009
2012
2015
2018
2022
2026
2030
2034
2038
2042
2046
2049
2054
2058
2060
2061
2060
2056
2050
2042
2032
2022
2012
2002
1993
1985
1978
1971
1966
1961
1958
1956
1955
1954
1953
1953
1953
1953
1953
1953
1953
1953
1954
1954
1955
1955
1956
1956
1956
1956
1956
1956
1957
1958
1959
1959
1959
1959
1958
1958
1958
1959
1960
1961
1961
1961
1961
1961
1960
1960
1960
1960
1961
1961
1961
1962
1962
1961
1961
1961
1961
1961
1961
1962
1962
1962
1962
1962
1961
1961
1961
1961
1962
1963
1964
1964
1965
1964
1964
1963
1963
1963
1964
1965
1965
1966
1965
1965
1965
1964
1965
1965
1966
1967
1967
1967
1967
1967
1967
1967
1967
1967
1967
1967
1968
1968
1968
1968
1967
1967
1967
1967
1968
1969
1969
1969
1969
1969
1968
1968
1968
1969
1969
1970
1971
1971
1971
1971
1970
1969
1968
1967
1967
1967
1968
1969
1971
1973
1976
1979
1981
1982
1982
1981
1980
1979
1979
1977
1976
1973
1972
1971
1971
1972
1973
1973
1972
1972
1971
1972
1973
1973
1971
1966
1958
1955
1966
1996
2039
2077
2090
2068
2021
1968
1933
1926
1943
1968
1986
1993
1992
1986
1982
1979
1979
1979
1979
1980
1980
1980
1980
1981
1982
1983
1984
1985
1985
1985
1985
1985
1985
1986
1987
1988
1988
1989
1990
1991
1991
1992
1992
1993
1995
1996
1998
2000
2001
2003
2004
2005
2007
2009
2012
2015
2018
2021
2024
2027
2030
2034
2037
2040
2044
2047
2049
2051
2052
2050
2048
2043
2036
2028
2020
2011
2002
1994
1986
1979
1974
1969
1966
1963
1962
1961
1960
1960
1959
1958
1958
1957
1958
1958
1959
1960
1960
1961
1961
1961
1961
1960
1961
1961
1962
1963
1964
1964
1964
1964
1964
1964
1964
1964
1965
1965
1966
1966
1966
1966
1966
1965
1965
1966
1966
1967
1968
1968
1968
1967
1967
1966
1966
1966
1967
1968
1968
1968
1968
1968
1968
1968
1968
1968
1968
1968
1969
1969
1969
1969
1969
1969
1969
1969
1970
1971
1971
1971
1971
1971
1970
1970
1970
1970
1971
1971
1972
1972
1972
1972
1971
1971
1971
1972
1972
1973
1973
1973
1973
1973
1973
1973
1973
1973
1973
1974
1975
1975
1975
1974
1974
1973
1973
1974
1975
1975
1976
1976
1975
1975
1974
1974
1974
1974
1975
1975
1976
1976
1976
1975
1975
1975
1975
1975
1976
1976
1976
1975
1973
1972
1971
1971
1971
1973
1975
1979
1983
1986
1988
1987
1985
1983
1982
1981
1981
1980
1979
1978
1977
1976
1975
1975
1975
1975
1975
1976
1977
1978
1978
1977
1973
1965
1957
1958
1976
2012
2056
2091
2097
2070
2022
1973
1944
1942
1958
1979
1992
1995
1991
1985
1980
1978
1977
1978
1979
1980
1981
1981
1982
1982
1982
1982
1983
1983
1984
1985
1986
1988
1988
1989
1989
1989
1990
1991
1992
1993
1994
1996
1997
1997
1998
1999
2000
2001
2003
2005
2008
2010
2011
2013
2015
2017
2020
2023
2027
2031
2035
2038
2041
2044
2047
2049
2051
2053
2054
2054
2052
2048
2042
2035
2026
2016
2007
1999
1992
1987
1982
1978
1974
1971
1969
1967
1966
1966
1966
1966
1966
1966
1966
1966
1966
1966
1966
1967
1968
1969
1969
1969
1969
1969
1969
1969
1969
1969
1970
1971
1971
1971
1972
1972
1971
1971
1970
1971
1971
1972
1973
1973
1972
1972
1971
1971
1971
1971
1972
1972
1973
1973
1973
1973
1973
1972
1972
1972
1973
1973
1974
1975
1975
1975
1974
1973
1973
1973
1974
1974
1975
1975
1975
1974
1974
1973
1973
1974
1975
1976
1976
1976
1976
1976
1975
1975
1975
1975
1975
1976
1976
1977
1976
1976
1975
1975
1975
1975
1975
1976
1976
1977
1977
1976
1976
1975
1975
1975
1976
1976
1977
1977
1977
1976
1976
1975
1975
1975
1976
1976
1977
1977
1977
1976
1976
1975
1975
1975
1976
1977
1977
1977
1976
1974
1972
1971
1972
1973
1975
1977
1981
1984
1986
1987
1987
1985
1984
1982
1982
1981
1980
1979
1977
1976
1975
1974
1974
1974
1975
1975
1976
1977
1977
1977
1975
1969
1961
1956
1964
1990
2032
2074
2097
2087
2046
1993
1950
1933
1941
1963
1984
1994
1995
1989
1983
1980
1978
1978
1979
1981
1982
1982
1983
1983
1983
1983
1984
1984
1985
1985
1986
1987
1988
1989
1989
1989
1990
1990
1992
1993
1994
1995
1996
1997
1998
1998
1999
2001
2002
2004
2006
2008
2010
2012
2014
2016
2019
2022
2026
2029
2033
2037
2040
2043
2046
2048
2050
2053
2054
2054
2053
2049
2043
2035
2026
2016
2007
1998
1991
1984
1979
1974
1970
1967
1965
1963
1962
1961
1961
1961
1961
1961
1960
1960
1960
1960
1961
1961
1961
1962
1962
1963
1963
1964
1963
1963
1964
1964
1964
1965
1966
1966
1966
1966
1966
1965
1965
1965
1966
1967
1967
1968
1968
1967
1967
1967
1966
1966
1967
1967
1968
1968
1968
1968
1967
1967
1966
1966
1967
1968
1968
1968
1968
1968
1968
1968
1968
1968
1969
1969
1970
1970
1970
1969
1968
1968
1968
1969
1970
1970
1971
1971
1971
1970
1970
1970
1969
1969
1970
1971
1971
1971
1971
1971
1970
1970
1970
1970
1970
1971
1971
1972
1972
1971
1971
1970
1970
1970
1971
1972
1973
1973
1973
1972
1972
1972
1971
1972
1972
1973
1973
1973
1974
1973
1973
1973
1973
1973
1972
1972
1971
1970
1970
1970
1970
1971
1973
1976
1979
1982
1984
1985
1984
1982
1980
1979
1978
1976
1975
1974
1973
1973
1973
1973
1973
1972
1972
1972
1973
1974
1975
1974
1969
1962
1956
1961
1984
2024
2066
2092
2086
2048
1995
1949
1928
1934
1956
1978
1991
1994
1990
1985
1981
1979
1979
1979
1980
1981
1981
1982
1983
1983
1983
1984
1984
1985
1986
1987
1988
1989
1990
1990
1991
1991
1992
1993
1994
1995
1996
1997
1997
1998
2000
2001
2003
2004
2006
2008
2010
2013
2016
2018
2021
2023
2026
2029
2032
2036
2040
2045
2048
2052
2055
2058
2060
2060
2060
2057
2053
2048
2041
2031
2021
2011
2001
1992
1984
1978
1973
1969
1967
1965
1964
1962
1961
1959
1959
1958
1959
1959
1960
1960
1959
1959
1959
1960
1961
1962
1962
1963
1963
1964
1964
1964
1964
1963
1963
1963
1964
1964
1965
1965
1966
1966
1965
1965
1965
1965
1965
1966
1966
1966
1967
1966
1966
1965
1965
1965
1966
1967
1967
1967
1967
1966
1966
1966
1966
1967
1967
1968
1969
1969
1969
1968
1968
1968
1968
1968
1968
1969
1970
1970
1970
1969
1969
1969
1969
1969
1970
1971
1972
1972
1972
1971
1971
1970
1970
1970
1971
1972
1973
1973
1973
1973
1972
1972
1973
1973
1973
1973
1972
1971
1970
1969
1969
1969
1971
1973
1976
1980
1983
1986
1987
1985
1984
1982
1980
1979
1978
1977
1976
1975
1975
1974
1974
1973
1973
1973
1974
1975
1977
1977
1977
1973
1966
1958
1959
1978
2016
2062
2094
2092
2051
1989
1931
1901
1905
1933
1965
1986
1995
1995
1990
1986
1984
1983
1984
1985
1986
1987
1988
1988
1988
1989
1989
1989
1990
1990
1992
1993
1994
1995
1996
1996
1996
1996
1997
1998
2000
2001
2003
2004
2005
2006
2007
2008
2009
2010
2012
2015
2017
2020
2023
2026
2029
2032
2036
2040
2044
2048
2051
2056
2060
2064
2067
2068
2069
2068
2065
2059
2051
2042
2031
2020
2009
2000
1991
1984
1979
1974
1971
1968
1966
1964
1963
1962
1961
1961
1961
1961
1961
1961
1961
1962
1962
1962
1962
1962
1963
1964
1964
1965
1965
1965
1965
1965
1966
1966
1967
1968
1968
1968
1968
1968
1968
1968
1968
1968
1968
1969
1969
1969
1969
1969
1968
1968
1968
1968
1969
1969
1970
1970
1970
1969
1969
1968
1968
1968
1969
1969
1970
1971
1971
1971
1970
1970
1969
1970
1970
1971
1971
1971
1971
1971
1970
1970
1970
1971
1971
1972
1972
1972
1972
1972
1972
1971
1971
1971
1971
1972
1972
1973
1973
1973
1972
1972
1972
1971
1972
1972
1973
1973
1973
1973
1972
1972
1972
1972
1973
1973
1973
1973
1973
1973
1973
1973
1973
1972
1972
1971
1970
1969
1969
1969
1970
1971
1974
1977
1981
1983
1985
1984
1983
1981
1979
1978
1976
1975
1974
1973
1973
1973
1973
1972
1972
1971
1971
1972
1973
1974
1975
1972
1965
1957
1955
1968
2000
2044
2081
2093
2069
2020
1966
1929
1922
1938
1963
1982
1990
1990
1985
1981
1978
1976
1976
1976
1977
1977
1978
1979
1980
1980
1981
1981
1981
1981
1982
1982
1983
1984
1985
1986
1987
1987
1988
1988
1989
1990
1991
1992
1994
1995
1996
1997
1998
1999
2001
2002
2005
2007
2010
2013
2015
2018
2021
2024
2027
2031
2035
2039
2043
2046
2048
2050
2052
2052
2051
2048
2044
2038
2030
2021
2011
2002
1993
1985
1978
1973
1969
1966
1964
1962
1961
1959
1958
1957
1956
1956
1957
1957
1958
1959
1959
1959
1959
1959
1960
1960
1961
1961
1961
1962
1962
1962
1962
1962
1962
1962
1962
1963
1964
1964
1965
1964
1964
1964
1964
1964
1965
1965
1966
1966
1966
1965
1964
1964
1964
1964
1965
1965
1966
1966
1966
1965
1965
1965
1965
1965
1966
1966
1967
1967
1967
1967
1967
1967
1967
1967
1968
1968
1969
1969
1969
1969
1968
1968
1968
1969
1969
1970
1970
1970
1970
1970
1970
1970
1970
1971
1971
1971
1972
1972
1972
1972
1972
1971
1971
1971
1972
1972
1973
1973
1973
1973
1973
1972
1972
1973
1973
1973
1973
1974
1974
1974
1974
1974
1974
1975
1975
1975
1974
1973
1971
1971
1971
1972
1974
1976
1979
1982
1985
1987
1987
1986
1985
1984
1982
1981
1979
1976
1974
1973
1973
1973
1973
1973
1973
1973
1973
1975
1976
1977
1975
1969
1961
1957
1968
1997
2041
2080
2096
2077
2031
1977
1938
1927
1942
1966
1987
1997
1997
1993
1988
1984
1983
1983
1983
1984
1985
1987
1988
1988
1988
1988
1988
1988
1989
1989
1990
1992
1993
1994
1995
1996
1996
1997
1998
1999
2000
2001
2002
2003
2003
2004
2006
2007
2009
2010
2012
2015
2017
2020
2022
2025
2028
2031
2034
2038
2042
2047
2051
2055
2059
2062
2064
2065
2065
2064
2061
2056
2050
2042
2032
2022
2011
2002
1994
1988
1983
1979
1975
1972
1970
1967
1966
1964
1963
1963
1964
1964
1965
1966
1966
1966
1965
1965
1965
1965
1966
1966
1967
1968
1968
1969
1969
1969
1970
1970
1970
1971
1971
1970
1970
1970
1970
1970
1970
1970
1971
1971
1971
1972
1973
1973
1972
1971
1970
1971
1971
1972
1973
1974
1974
1973
1972
1971
1971
1972
1973
1973
1974
1974
1973
1973
1973
1973
1973
1973
1974
1974
1975
1975
1975
1975
1975
1975
1975
1975
1974
1974
1975
1975
1976
1976
1976
1975
1975
1975
1975
1976
1976
1977
1976
1976
1976
1976
1976
1976
1976
1974
1973
1972
1972
1972
1973
1975
1978
1982
1985
1987
1988
1987
1985
1983
1982
1980
1979
1977
1976
1976
1976
1975
1975
1975
1975
1975
1975
1976
1977
1977
1975
1970
1962
1959
1971
2003
2048
2087
2096
2066
2006
1942
1902
1897
1921
1955
1981
1993
1995
1992
1988
1986
1985
1985
1985
1985
1985
1985
1986
1987
1988
1990
1990
1991
1991
1991
1991
1991
1992
1994
1996
1997
1997
1998
1998
1998
1999
2000
2002
2004
2006
2008
2009
2009
2010
2011
2013
2015
2018
2022
2026
2029
2033
2037
2041
2045
2048
2052
2057
2062
2067
2071
2074
2075
2073
2070
2064
2056
2047
2036
2025
2014
2004
1995
1987
1979
1973
1969
1966
1965
1964
1963
1962
1961
1960
1959
1959
1959
1959
1960
1960
1961
1961
1962
1961
1961
1961
1961
1961
1962
1963
1964
1965
1965
1965
1966
1966
1966
1967
1967
1968
1968
1969
1969
1969
1968
1968
1968
1968
1969
1969
1970
1970
1970
1969
1968
1968
1968
1969
1969
1970
1970
1971
1970
1970
1969
1969
1969
1969
1969
1970
1970
1970
1970
1970
1971
1971
1971
1972
1972
1973
1973
1974
1974
1973
1973
1973
1973
1973
1973
1973
1972
1972
1971
1971
1971
1972
1975
1978
1982
1985
1987
1987
1986
1985
1984
1983
1982
1981
1979
1978
1976
1976
1976
1976
1976
1976
1976
1977
1978
1979
1979
1977
1972
1964
1959
1967
1995
2039
2079
2097
2079
2029
1970
1927
1915
1931
1960
1985
1998
1999
1995
1990
1987
1984
1984
1984
1985
1986
1987
1988
1989
1989
1990
1990
1990
1990
1991
1992
1993
1994
1995
1995
1996
1996
1996
1997
1998
2000
2002
2003
2004
2005
2006
2007
2008
2009
2011
2013
2016
2019
2022
2025
2027
2030
2034
2038
2042
2047
2051
2055
2060
2063
2066
2067
2068
2067
2064
2058
2050
2041
2030
2019
2009
1999
1991
1984
1978
1974
1971
1968
1966
1965
1964
1963
1962
1962
1962
1962
1962
1963
1963
1963
1963
1963
1962
1962
1963
1964
1965
1966
1966
1966
1966
1966
1966
1967
1967
1968
1969
1969
1970
1970
1970
1970
1969
1969
1969
1969
1970
1970
1971
1971
1971
1970
1969
1969
1969
1970
1970
1970
1971
1971
1970
1970
1970
1970
1970
1970
1971
1971
1972
1972
1972
1971
1971
1971
1971
1971
1972
1973
1974
1974
1974
1973
1973
1972
1973
1973
1974
1974
1974
1974
1974
1974
1974
1974
1974
1975
1975
1976
1976
1976
1976
1976
1976
1975
1974
1973
1972
1971
1971
1972
1973
1975
1978
1981
1984
1986
1987
1986
1984
1983
1982
1981
1980
1978
1977
1976
1976
1976
1977
1976
1976
1975
1975
1976
1977
1978
1977
1973
1966
1959
1962
1982
2021
2064
2096
2098
2066
2015
1966
1939
1939
1958
1980
1993
1996
1992
1987
1983
1982
1982
1982
1982
1982
1983
1983
1984
1985
1986
1987
1987
1988
1988
1988
1989
1989
1990
1991
1993
1994
1994
1995
1995
1995
1996
1997
1999
2000
2002
2003
2005
2005
2006
2007
2009
2011
2014
2017
2021
2024
2027
2030
2034
2037
2041
2045
2048
2052
2056
2059
2060
2060
2059
2055
2050
2043
2035
2026
2017
2007
1999
1991
1984
1978
1974
1971
1969
1967
1967
1966
1965
1964
1964
1963
1963
1963
1963
1964
1965
1965
1965
1965
1965
1964
1964
1965
1966
1967
1967
1968
1968
1968
1967
1967
1967
1967
1968
1969
1970
1970
1970
1970
1969
1969
1969
1969
1970
1970
1970
1970
1970
1970
1969
1969
1969
1969
1969
1970
1970
1970
1970
1970
1970
1969
1969
1970
1970
1971
1971
1971
1971
1971
1971
1971
1971
1971
1972
1972
1973
1973
1973
1973
1972
1972
1972
1972
1972
1973
1973
1974
1974
1974
1973
1973
1973
1973
1973
1974
1974
1975
1975
1974
1974
1974
1973
1974
1974
1975
1975
1975
1975
1975
1974
1974
1974
1975
1975
1975
1976
1976
1976
1976
1975
1975
1975
1975
1976
1976
1977
1977
1977
1977
1975
1973
1972
1972
1972
1974
1976
1979
1983
1985
1987
1987
1986
1985
1984
1984
1983
1982
1980
1978
1977
1976
1976
1976
1977
1977
1977
1977
1977
1978
1978
1977
1974
1967
1961
1961
1977
2011
2054
2090
2098
2074
2026
1975
1943
1938
1954
1976
1992
1996
1993
1987
1983
1981
1981
1982
1984
1984
1985
1985
1985
1985
1986
1986
1987
1988
1989
1990
1990
1990
1990
1991
1991
1992
1994
1996
1997
1998
1999
1999
1999
1999
2000
2001
2003
2005
2007
2009
2011
2013
2015
2017
2020
2022
2026
2029
2032
2036
2040
2044
2048
2050
2054
2056
2060
2062
2063
2063
2059
2052
2045
2035
2026
2017
2008
2000
1993
1986
1981
1976
1972
1969
1967
1966
1965
1965
1965
1965
1964
1963
1963
1963
1964
1964
1965
1966
1966
1967
1967
1967
1967
1966
1966
1966
1967
1968
1968
1968
1968
1968
1969
1969
1970
1970
1970
1970
1970
1970
1970
1970
1970
1969
1969
1969
1970
1971
1971
1972
1972
1971
1970
1969
1969
1969
1970
1971
1971
1971
1972
1972
1972
1972
1972
1972
1973
1973
1973
1972
1972
1972
1972
1972
1973
1973
1973
1974
1974
1975
1974
1974
1973
1973
1973
1973
1974
1974
1975
1975
1975
1975
1975
1974
1974
1974
1974
1975
1976
1976
1976
1975
1975
1975
1975
1975
1975
1975
1975
1975
1974
1973
1972
1971
1970
1971
1973
1975
1977
1980
1983
1985
1986
1986
1985
1983
1982
1981
1981
1980
1978
1976
1974
1973
1973
1973
1974
1975
1975
1975
1975
1976
1977
1976
1971
1963
1956
1963
1989
2034
2078
2099
2082
2029
1964
1914
1898
1914
1947
1975
1991
1994
1990
1985
1981
1980
1980
1982
1984
1985
1985
1985
1985
1984
1984
1985
1986
1988
1988
1989
1989
1990
1991
1991
1992
1993
1994
1995
1997
1998
1998
1999
1999
2000
2001
2003
2005
2006
2009
2011
2013
2015
2018
2020
2023
2026
2030
2034
2038
2042
2046
2049
2053
2058
2062
2065
2068
2069
2067
2063
2056
2047
2035
2023
2011
2000
1990
1982
1976
1971
1967
1963
1960
1957
1955
1954
1953
1953
1953
1953
1953
1953
1952
1952
1952
1953
1953
1954
1954
1954
1954
1955
1955
1955
1956
1956
1956
1957
1957
1958
1959
1959
1959
1959
1958
1959
1959
1960
1961
1961
1961
1961
1960
1960
1960
1961
1961
1962
1962
1961
1961
1961
1960
1960
1960
1961
1962
1963
1963
1964
1963
1962
1961
1961
1961
1962
1963
1964
1964
1964
1964
1963
1963
1963
1963
1964
1964
1964
1965
1965
1965
1965
1965
1965
1965
1965
1964
1964
1963
1963
1963
1963
1963
1965
1969
1973
1977
1979
1979
1978
1977
1975
1975
1974
1972
1970
1968
1967
1968
1968
1969
1969
1969
1968
1968
1968
1969
1970
1971
1969
1963
1954
1949
1959
1989
2034
2075
2090
2066
2013
1952
1911
1903
1922
1953
1977
1989
1990
1986
1982
1979
1977
1976
1977
1978
1979
1981
1982
1984
1984
1984
1984
1985
1985
1986
1987
1988
1989
1990
1990
1991
1991
1992
1992
1993
1993
1995
1996
1998
1999
2001
2002
2004
2005
2007
2009
2011
2013
2017
2020
2024
2028
2031
2035
2039
2044
2048
2053
2057
2061
2065
2067
2067
2065
2060
2053
2045
2035
2025
2014
2004
1995
1986
1978
1972
1968
1964
1962
1961
1961
1960
1959
1958
1957
1956
1956
1956
1957
1957
1957
1957
1957
1957
1957
1957
1958
1959
1960
1962
1962
1962
1962
1961
1961
1961
1962
1963
1964
1965
1966
1966
1965
1965
1965
1964
1965
1965
1966
1966
1967
1967
1966
1966
1965
1965
1965
1966
1967
1967
1967
1967
1967
1966
1966
1966
1967
1968
1969
1969
1969
1968
1968
1968
1968
1968
1968
1969
1969
1970
1970
1970
1970
1970
1969
1969
1969
1970
1971
1971
1972
1972
1971
1971
1970
1970
1970
1971
1972
1973
1974
1974
1973
1973
1972
1972
1972
1971
1971
1970
1970
1970
1970
1970
1972
1974
1978
1982
1984
1985
1985
1983
1981
1980
1979
1978
1976
1975
1974
1974
1974
1974
1974
1974
1973
1973
1974
1976
1977
1977
1973
1965
1957
1958
1976
2012
2057
2090
2093
2061
2009
1958
1930
1931
1951
1976
1991
1996
1994
1988
1984
1982
1981
1980
1980
1981
1981
1982
1983
1984
1985
1985
1985
1986
1986
1987
1987
1988
1989
1990
1990
1991
1991
1992
1992
1993
1994
1995
1997
1998
1999
2000
2001
2002
2004
2005
2007
2010
2012
2015
2018
2021
2024
2027
2030
2034
2038
2042
2047
2050
2054
2056
2058
2059
2058
2054
2049
2043
2034
2024
2014
2004
1995
1987
1980
1975
1971
1968
1965
1964
1962
1961
1960
1959
1959
1959
1959
1959
1959
1960
1960
1960
1960
1960
1960
1961
1961
1962
1963
1964
1964
1964
1964
1964
1964
1965
1965
1965
1966
1967
1967
1968
1967
1967
1967
1966
1967
1967
1968
1968
1969
1968
1968
1968
1967
1968
1968
1968
1969
1969
1969
1969
1969
1969
1968
1969
1969
1970
1971
1971
1971
1971
1971
1970
1970
1970
1970
1971
1971
1972
1972
1973
1972
1972
1972
1972
1972
1973
1973
1974
1975
1975
1974
1974
1973
1973
1974
1974
1975
1976
1976
1976
1976
1975
1975
1975
1975
1975
1976
1977
1977
1977
1977
1976
1976
1976
1976
1976
1977
1978
1979
1978
1977
1975
1973
1972
1972
1973
1975
1978
1981
1984
1987
1988
1988
1987
1986
1985
1985
1985
1984
1982
1980
1978
1977
1977
1977
1978
1978
1979
1979
1979
1980
1980
1979
1975
1969
1962
1963
1980
2015
2059
2095
2103
2078
2031
1981
1950
1945
1961
1982
1996
1999
1996
1989
1985
1983
1983
1984
1985
1986
1986
1986
1986
1986
1986
1987
1988
1990
1991
1992
1993
1993
1992
1992
1993
1993
1995
1996
1997
1998
1999
2000
2000
2001
2002
2003
2004
2006
2008
2010
2011
2013
2014
2016
2018
2021
2024
2028
2032
2036
2040
2044
2047
2049
2052
2055
2058
2060
2061
2059
2055
2048
2041
2031
2022
2013
2005
1998
1992
1987
1982
1978
1974
1971
1969
1968
1967
1967
1967
1967
1967
1967
1967
1967
1967
1967
1968
1969
1969
1970
1970
1971
1971
1971
1971
1971
1971
1971
1972
1973
1974
1975
1975
1974
1974
1973
1974
1975
1976
1976
1976
1975
1975
1974
1974
1975
1975
1976
1976
1977
1977
1977
1976
1976
1975
1975
1976
1977
1978
1979
1979
