1993
1994
1995
1997
1998
1999
1999
1998
1996
1994
1991
1988
1986
1984
1982
1980
1978
1976
1973
1971
1970
1969
1969
1969
1969
1969
1969
1969
1969
1968
1967
1967
1968
1969
1970
1970
1970
1970
1970
1969
1969
1969
1970
1970
1971
1971
1971
1971
1971
1971
1970
1970
1970
1971
1971
1971
1971
1970
1970
1970
1970
1970
1970
1970
1971
1972
1972
1973
1973
1972
1972
1971
1971
1972
1972
1973
1973
1973
1973
1974
1974
1975
1975
1976
1976
1976
1976
1976
1976
1976
1976
1975
1976
1976
1977
1978
1978
1978
1978
1977
1976
1976
1977
1978
1979
1979
1979
1979
1978
1978
1978
1978
1978
1978
1979
1979
1979
1978
1978
1977
1976
1975
1975
1976
1978
1979
1981
1982
1982
1982
1981
1980
1980
1980
1980
1980
1980
1980
1979
1978
1978
1978
1979
1979
1980
1980
1981
1981
1982
1981
1978
1972
1967
1964
1966
1977
1998
2027
2057
2083
2094
2088
2067
2040
2014
1995
1985
1981
1980
1978
1977
1977
1977
1977
1978
1978
1978
1978
1977
1977
1977
1978
1979
1980
1980
1980
1980
1980
1980
1980
1981
1981
1982
1982
1983
1983
1984
1984
1984
1984
1984
1985
1986
1987
1989
1990
1990
1991
1992
1993
1995
1996
1999
2001
2004
2006
2007
2008
2009
2010
2011
2012
2013
2013
2013
2012
2011
2009
2006
2002
1999
1995
1993
1990
1988
1986
1984
1982
1980
1978
1978
1978
1978
1978
1978
1977
1977
1976
1976
1975
1976
1977
1978
1979
1980
1982
1984
1986
1987
1988
1989
1989
1989
1989
1990
1990
1990
1990
1990
1990
1989
1990
1990
1990
1990
1991
1991
1991
1990
1990
1989
1989
1989
1989
1990
1991
1991
1990
1989
1988
1988
1988
1989
1989
1990
1990
1990
1990
1990
1990
1989
1988
1988
1988
1989
1990
1990
1989
1988
1987
1987
1986
1987
1988
1989
1989
1989
1989
1988
1987
1986
1986
1986
1986
1986
1986
1986
1986
1986
1987
1988
1989
1991
1991
1992
1992
1991
1991
1990
1989
1988
1987
1987
1988
1989
1989
1989
1989
1988
1987
1987
1987
1988
1988
1987
1982
1976
1971
1970
1977
1995
2023
2055
2085
2103
2102
2085
2056
2027
2004
1990
1984
1983
1983
1982
1982
1980
1980
1979
1978
1978
1978
1978
1978
1979
1980
1980
1980
1979
1979
1978
1978
1979
1980
1980
1981
1981
1980
1980
1980
1980
1980
1981
1982
1982
1983
1984
1984
1985
1985
1985
1986
1987
1989
1991
1993
1995
1997
1999
2000
2001
2002
2004
2005
2006
2007
2008
2008
2007
2006
2004
2001
1999
1996
1993
1990
1986
1983
1980
1977
1975
1974
1973
1973
1973
1972
1972
1971
1970
1969
1968
1968
1968
1969
1969
1970
1970
1969
1969
1968
1968
1968
1968
1968
1968
1968
1968
1968
1967
1967
1967
1967
1967
1968
1968
1969
1969
1968
1968
1968
1967
1967
1967
1968
1968
1968
1968
1968
1968
1967
1967
1967
1967
1968
1968
1969
1969
1968
1967
1967
1967
1967
1968
1968
1969
1969
1969
1969
1968
1968
1968
1968
1969
1969
1970
1971
1971
1970
1970
1969
1969
1969
1969
1970
1971
1971
1971
1971
1970
1969
1968
1967
1967
1968
1969
1971
1972
1973
1974
1974
1974
1974
1974
1974
1974
1974
1973
1973
1972
1972
1971
1971
1972
1972
1972
1972
1973
1973
1974
1973
1972
1968
1962
1956
1953
1954
1964
1982
2009
2041
2069
2086
2086
2069
2042
2012
1988
1974
1968
1966
1966
1965
1965
1964
1965
1965
1965
1964
1964
1963
1963
1963
1964
1964
1965
1965
1965
1965
1965
1965
1965
1965
1966
1966
1967
1968
1969
1969
1969
1969
1969
1969
1970
1970
1971
1972
1973
1973
1974
1975
1976
1977
1978
1980
1982
1984
1986
1987
1988
1989
1990
1991
1992
1993
1994
1994
1993
1991
1988
1985
1982
1980
1978
1976
1974
1972
1970
1968
1967
1966
1965
1964
1964
1964
1964
1964
1964
1964
1964
1964
1964
1965
1966
1967
1969
1970
1971
1973
1975
1977
1980
1982
1983
1984
1985
1986
1988
1989
1991
1993
1994
1996
1997
1998
1998
1998
1997
1997
1997
1998
1999
2000
2001
2002
2004
2005
2006
2006
2005
2005
2004
2005
2005
2005
2006
2006
2006
2006
2006
2005
2005
2005
2005
2005
2006
2006
2005
2004
2004
2003
2003
2003
2004
2004
2004
2004
2004
2004
2003
2003
2002
2001
2001
2002
2002
2002
2002
2002
2001
2000
1999
1998
1997
1997
1998
1998
1999
2000
2000
2000
2000
2001
2001
2001
2001
2000
1999
1998
1997
1996
1996
1995
1995
1995
1996
1996
1996
1995
1995
1995
1995
1995
1993
1988
1983
1979
1979
1985
2001
2026
2054
2083
2102
2105
2091
2065
2037
2012
1997
1990
1988
1988
1988
1987
1987
1987
1987
1986
1986
1985
1984
1984
1985
1985
1986
1987
1987
1987
1986
1986
1986
1986
1986
1987
1988
1989
1989
1989
1989
1989
1989
1989
1990
1991
1992
1993
1993
1993
1994
1994
1995
1996
1997
1999
2002
2004
2005
2007
2007
2008
2009
2010
2011
2013
2014
2014
2014
2013
2011
2009
2006
2004
2001
1999
1997
1994
1992
1990
1988
1987
1985
1985
1984
1984
1984
1984
1984
1983
1983
1982
1982
1983
1983
1984
1984
1984
1984
1984
1984
1984
1984
1984
1985
1985
1986
1986
1986
1986
1985
1985
1984
1984
1985
1985
1985
1986
1986
1985
1985
1984
1984
1984
1985
1985
1986
1986
1986
1986
1986
1986
1985
1985
1985
1986
1987
1987
1987
1987
1987
1986
1986
1986
1986
1987
1988
1988
1989
1989
1989
1989
1989
1989
1989
1989
1990
1990
1990
1989
1989
1989
1990
1990
1990
1991
1991
1992
1992
1992
1992
1992
1991
1991
1990
1990
1990
1990
1990
1991
1991
1992
1993
1994
1995
1996
1997
1997
1996
1995
1994
1993
1992
1993
1993
1994
1995
1995
1995
1995
1994
1994
1994
1994
1995
1995
1993
1989
1983
1979
1980
1989
2008
2035
2066
2092
2105
2101
2081
2053
2026
2007
1996
1993
1993
1993
1993
1992
1992
1991
1990
1990
1989
1989
1989
1990
1991
1992
1992
1992
1991
1991
1990
1990
1991
1992
1992
1993
1993
1993
1993
1993
1993
1994
1995
1996
1997
1998
1999
1999
1999
1999
2000
2001
2003
2005
2007
2008
2010
2011
2013
2014
2016
2017
2018
2020
2021
2023
2024
2024
2023
2021
2018
2016
2013
2011
2009
2006
2003
2000
1997
1995
1993
1991
1990
1990
1990
1990
1989
1989
1988
1988
1988
1988
1988
1989
1990
1990
1990
1990
1989
1988
1988
1987
1988
1988
1989
1990
1990
1990
1990
1989
1988
1988
1989
1989
1989
1990
1990
1990
1990
1990
1990
1990
1990
1990
1990
1991
1991
1990
1990
1989
1989
1989
1989
1989
1990
1991
1991
1991
1991
1991
1990
1990
1989
1990
1990
1990
1991
1991
1990
1990
1990
1989
1989
1990
1990
1991
1991
1991
1990
1989
1988
1988
1988
1988
1988
1988
1988
1988
1988
1989
1989
1990
1991
1992
1993
1993
1993
1992
1991
1990
1989
1988
1988
1989
1989
1989
1990
1989
1989
1988
1988
1988
1988
1990
1990
1988
1983
1977
1971
1971
1979
1997
2025
2056
2085
2100
2098
2079
2051
2023
2002
1991
1986
1986
1985
1985
1984
1983
1982
1982
1981
1981
1981
1982
1982
1983
1983
1983
1983
1982
1982
1982
1982
1983
1984
1984
1984
1984
1984
1984
1984
1985
1986
1986
1987
1987
1988
1988
1988
1988
1989
1989
1991
1993
1995
1997
1999
2000
2001
2002
2003
2005
2007
2009
2010
2011
2012
2012
2012
2012
2011
2009
2006
2004
2001
1999
1996
1992
1989
1986
1984
1982
1980
1979
1979
1978
1977
1977
1976
1975
1975
1975
1975
1975
1975
1976
1976
1976
1976
1976
1975
1975
1975
1976
1976
1977
1977
1977
1976
1975
1975
1976
1976
1977
1977
1978
1977
1977
1977
1976
1976
1976
1976
1977
1977
1978
1978
1977
1977
1976
1976
1976
1976
1977
1977
1977
1977
1976
1976
1975
1975
1975
1975
1976
1976
1976
1976
1976
1976
1975
1975
1975
1975
1975
1975
1975
1975
1974
1974
1974
1973
1973
1973
1973
1973
1973
1972
1971
1970
1969
1969
1969
1970
1971
1973
1974
1975
1975
1975
1975
1974
1973
1973
1972
1972
1972
1972
1972
1972
1972
1971
1971
1971
1971
1972
1973
1974
1974
1972
1968
1962
1956
1953
1957
1969
1992
2022
2052
2077
2087
2080
2057
2029
2001
1982
1972
1969
1968
1967
1967
1966
1965
1965
1965
1965
1966
1966
1966
1966
1966
1965
1966
1966
1967
1967
1967
1967
1967
1967
1967
1967
1967
1968
1968
1969
1970
1970
1970
1970
1970
1970
1971
1972
1973
1974
1976
1977
1978
1979
1980
1981
1983
1985
1987
1989
1991
1992
1993
1994
1994
1995
1995
1996
1996
1995
1994
1991
1988
1985
1981
1978
1976
1974
1972
1971
1969
1968
1967
1966
1965
1964
1964
1964
1964
1965
1965
1965
1964
1964
1963
1963
1964
1964
1965
1965
1966
1966
1965
1965
1964
1964
1964
1965
1965
1966
1966
1967
1966
1966
1966
1966
1966
1966
1967
1967
1967
1967
1967
1967
1966
1966
1966
1967
1967
1968
1968
1969
1969
1968
1968
1968
1967
1968
1968
1968
1968
1967
1967
1966
1966
1966
1966
1966
1967
1968
1968
1969
1968
1968
1967
1967
1967
1968
1968
1969
1969
1969
1969
1969
1968
1967
1967
1967
1967
1968
1969
1970
1970
1969
1968
1967
1967
1967
1967
1967
1968
1968
1969
1970
1971
1971
1972
1973
1973
1973
1973
1972
1971
1970
1970
1970
1970
1970
1971
1972
1972
1972
1971
1971
1971
1971
1972
1972
1969
1965
1959
1955
1955
1962
1979
2005
2036
2064
2083
2084
2069
2043
2013
1989
1974
1968
1967
1966
1967
1966
1966
1966
1965
1965
1965
1964
1964
1965
1965
1966
1966
1966
1966
1966
1966
1966
1966
1967
1967
1968
1969
1969
1969
1969
1969
1969
1970
1971
1971
1972
1973
1973
1974
1974
1974
1975
1976
1977
1979
1981
1983
1985
1986
1987
1988
1989
1990
1991
1992
1994
1995
1995
1995
1994
1992
1990
1988
1985
1983
1981
1979
1976
1973
1971
1969
1967
1967
1966
1966
1966
1965
1965
1965
1965
1964
1964
1964
1964
1964
1965
1965
1966
1966
1965
1965
1965
1965
1965
1966
1966
1967
1967
1966
1966
1965
1965
1965
1966
1966
1967
1967
1967
1967
1966
1966
1966
1966
1966
1966
1967
1967
1967
1967
1967
1966
1966
1966
1966
1967
1968
1968
1968
1968
1968
1967
1966
1967
1967
1968
1969
1969
1969
1969
1968
1968
1968
1968
1968
1968
1969
1969
1970
1970
1969
1969
1969
1969
1969
1970
1970
1971
1971
1971
1971
1970
1970
1970
1970
1970
1971
1971
1971
1971
1970
1970
1969
1969
1969
1970
1970
1970
1969
1969
1969
1970
1971
1972
1974
1975
1976
1976
1976
1975
1974
1973
1972
1971
1972
1973
1974
1974
1975
1974
1974
1973
1973
1974
1975
1976
1976
1974
1970
1964
1959
1958
1964
1979
2003
2033
2061
2081
2086
2073
2048
2020
1996
1980
1973
1972
1972
1972
1971
1970
1970
1969
1969
1969
1969
1970
1971
1971
1972
1972
1971
1971
1970
1970
1971
1972
1973
1973
1974
1973
1973
1973
1972
1973
1973
1974
1975
1976
1977
1978
1978
1978
1979
1979
1981
1982
1984
1985
1987
1989
1990
1991
1993
1994
1996
1998
2000
2001
2002
2003
2003
2003
2002
2002
2001
2000
1998
1995
1992
1989
1986
1983
1980
1978
1977
1976
1976
1976
1976
1975
1974
1973
1973
1973
1973
1974
1975
1976
1976
1976
1976
1975
1975
1975
1975
1976
1977
1977
1977
1977
1977
1977
1977
1977
1977
1977
1977
1978
1978
1978
1978
1978
1978
1977
1978
1978
1978
1979
1979
1979
1979
1978
1978
1978
1979
1979
1980
1980
1980
1980
1980
1979
1979
1979
1980
1981
1982
1982
1982
1982
1981
1981
1980
1980
1981
1981
1982
1982
1983
1983
1982
1982
1981
1981
1982
1982
1983
1983
1983
1983
1983
1983
1982
1982
1982
1983
1983
1984
1984
1983
1983
1982
1981
1982
1983
1984
1986
1987
1988
1988
1988
1988
1987
1986
1986
1985
1985
1985
1985
1985
1985
1985
1985
1985
1985
1986
1986
1987
1988
1988
1985
1981
1974
1969
1970
1977
1995
2021
2051
2078
2093
2091
2074
2048
2022
2002
1992
1987
1986
1985
1983
1981
1980
1979
1980
1981
1982
1982
1983
1982
1982
1982
1982
1982
1983
1983
1984
1984
1984
1984
1984
1984
1984
1984
1985
1986
1987
1988
1988
1988
1987
1987
1988
1989
1991
1992
1994
1995
1996
1997
1998
1998
2000
2002
2004
2007
2009
2011
2012
2012
2013
2014
2014
2015
2015
2016
2015
2014
2011
2008
2004
2001
1998
1995
1993
1991
1990
1988
1987
1985
1984
1984
1983
1983
1983
1983
1983
1983
1983
1982
1982
1982
1981
1981
1981
1982
1982
1982
1982
1982
1981
1981
1981
1981
1982
1983
1983
1984
1984
1984
1984
1983
1983
1983
1983
1983
1984
1985
1985
1984
1984
1983
1983
1982
1982
1983
1983
1984
1984
1984
1983
1983
1983
1982
1983
1983
1984
1984
1984
1983
1982
1982
1981
1982
1982
1983
1984
1984
1985
1984
1984
1983
1983
1982
1983
1983
1984
1984
1984
1984
1983
1983
1982
1982
1982
1982
1982
1982
1982
1982
1982
1983
1984
1986
1987
1987
1987
1987
1986
1986
1985
1984
1983
1983
1982
1983
1984
1984
1985
1984
1984
1983
1983
1984
1984
1982
1979
1973
1968
1968
1974
1990
2016
2047
2075
2092
2093
2076
2049
2022
2000
1987
1982
1981
1980
1980
1979
1979
1979
1979
1978
1978
1977
1977
1977
1978
1978
1979
1979
1979
1978
1978
1978
1978
1979
1980
1981
1981
1981
1981
1981
1981
1981
1981
1982
1983
1984
1985
1986
1986
1986
1986
1987
1988
1990
1992
1994
1996
1997
1998
1999
2001
2002
2003
2004
2005
2007
2007
2008
2008
2007
2005
2003
2001
1998
1995
1993
1990
1987
1984
1981
1978
1976
1975
1974
1973
1973
1973
1972
1972
1971
1971
1971
1971
1971
1972
1972
1972
1972
1972
1971
1971
1971
1971
1971
1971
1972
1972
1972
1972
1972
1971
1971
1971
1971
1972
1972
1973
1973
1973
1972
1972
1971
1971
1972
1972
1972
1973
1972
1972
1972
1972
1971
1972
1972
1972
1973
1973
1973
1973
1972
1972
1971
1971
1972
1972
1973
1973
1973
1973
1973
1972
1971
1971
1972
1972
1973
1973
1973
1973
1973
1972
1972
1972
1972
1972
1973
1973
1972
1971
1970
1970
1970
1971
1972
1974
1976
1977
1977
1977
1976
1975
1974
1974
1973
1973
1973
1973
1973
1973
1973
1972
1972
1972
1972
1973
1974
1975
1975
1973
1968
1962
1956
1954
1960
1974
1998
2028
2057
2079
2085
2073
2049
2021
1996
1979
1972
1970
1969
1968
1966
1965
1965
1965
1965
1966
1966
1967
1967
1967
1966
1966
1966
1966
1966
1967
1968
1968
1969
1969
1969
1968
1968
1968
1969
1970
1971
1971
1972
1972
1972
1972
1972
1973
1974
1975
1977
1978
1979
1981
1982
1983
1984
1986
1987
1990
1992
1993
1995
1996
1996
1997
1997
1997
1996
1996
1995
1993
1990
1987
1984
1980
1976
1974
1972
1971
1971
1970
1969
1968
1967
1966
1966
1965
1966
1966
1967
1967
1967
1967
1967
1966
1966
1966
1967
1967
1968
1968
1968
1968
1968
1967
1967
1967
1967
1968
1969
1969
1969
1969
1968
1968
1967
1967
1968
1968
1968
1968
1968
1968
1968
1968
1967
1967
1968
1968
1969
1969
1970
1970
1970
1969
1969
1969
1970
1971
1972
1973
1973
1973
1972
1972
1972
1972
1972
1973
1973
1974
1974
1974
1973
1973
1972
1972
1973
1974
1974
1975
1975
1975
1974
1974
1973
1973
1974
1974
1975
1975
1975
1974
1974
1973
1972
1971
1971
1972
1974
1975
1977
1977
1977
1977
1977
1977
1977
1977
1977
1977
1976
1976
1975
1975
1974
1975
1975
1975
1976
1976
1977
1976
1976
1976
1975
1973
1968
1963
1959
1960
1968
1984
2010
2040
2067
2084
2085
2070
2045
2017
1994
1980
1973
1971
1971
1970
1970
1970
1970
1970
1970
1969
1969
1968
1968
1969
1969
1970
1970
1971
1971
1971
1971
1971
1970
1971
1971
1972
1973
1973
1974
1973
1973
1973
1973
1974
1975
1976
1977
1978
1978
1978
1979
1979
1980
1982
1984
1986
1988
1990
1992
1993
1994
1995
1996
1997
1998
1999
1999
2000
1999
1998
1996
1993
1990
1988
1985
1983
1981
1979
1977
1975
1973
1971
1970
1970
1970
1970
1970
1970
1970
1970
1970
1969
1969
1969
1969
1970
1970
1971
1971
1971
1971
1970
1970
1970
1970
1971
1971
1972
1972
1972
1971
1971
1971
1971
1971
1972
1972
1972
1972
1971
1971
1970
1970
1970
1970
1971
1971
1972
1972
1972
1972
1971
1971
1971
1972
1972
1973
1973
1973
1973
1972
1972
1972
1972
1972
1973
1974
1974
1974
1974
1973
1973
1973
1973
1973
1974
1974
1975
1975
1975
1974
1974
1974
1974
1974
1975
1976
1976
1976
1976
1976
1975
1975
1975
1976
1976
1977
1977
1977
1977
1976
1975
1975
1974
1974
1974
1975
1976
1977
1977
1978
1978
1979
1979
1980
1980
1980
1980
1979
1978
1977
1977
1976
1976
1977
1977
1978
1978
1978
1978
1977
1977
1978
1979
1978
1976
1971
1966
1962
1962
1970
1988
2015
2045
2071
2086
2085
2069
2043
2015
1994
1981
1975
1974
1974
1974
1974
1973
1973
1973
1972
1972
1972
1972
1972
1973
1974
1975
1975
1975
1974
1974
1974
1974
1975
1976
1976
1977
1977
1977
1977
1977
1977
1977
1978
1979
1980
1981
1982
1982
1982
1982
1983
1984
1986
1988
1991
1993
1994
1996
1997
1998
1999
2000
2002
2004
2005
2006
2007
2006
2006
2004
2002
2000
1997
1995
1993
1991
1988
1985
1983
1980
1978
1978
1978
1978
1979
1979
1979
1978
1977
1976
1975
1976
1976
1977
1978
1978
1978
1978
1978
1978
1978
1978
1978
1979
1980
1980
1981
1980
1979
1978
1978
1978
1979
1979
1980
1980
1980
1980
1980
1980
1979
1979
1980
1980
1981
1981
1982
1982
1981
1981
1981
1981
1981
1982
1982
1983
1983
1983
1983
1983
1982
1982
1983
1984
1985
1985
1986
1985
1985
1984
1984
1984
1984
1985
1986
1986
1987
1986
1986
1986
1985
1985
1986
1986
1987
1988
1988
1988
1987
1987
1987
1987
1987
1988
1989
1989
1989
1989
1988
1987
1986
1986
1986
1987
1988
1989
1990
1991
1992
1992
1993
1993
1993
1993
1993
1993
1992
1991
1990
1990
1989
1989
1990
1991
1991
1991
1991
1991
1991
1992
1992
1990
1987
1982
1978
1976
1981
1995
2018
2048
2076
2096
2100
2086
2062
2035
2012
1999
1992
1990
1989
1988
1988
1987
1987
1987
1988
1990
1993
1996
1999
2000
2001
2001
2000
2000
2000
2000
2000
1999
1999
1999
1999
2000
2001
2001
2002
2002
2002
2002
2002
2002
2003
2003
2005
2006
2006
2007
2007
2008
2009
2010
2012
2015
2017
2019
2021
2022
2024
2024
2025
2026
2028
2029
2030
2030
2030
2028
2026
2023
2020
2017
2014
2011
2008
2005
2002
2000
1997
1996
1995
1993
1992
1991
1991
1990
1990
1991
1990
1990
1989
1989
1989
1989
1990
1990
1990
1990
1989
1988
1987
1988
1988
1989
1990
1990
1989
1989
1988
1988
1988
1988
1989
1989
1990
1990
1990
1990
1989
1989
1988
1988
1988
1988
1989
1989
1989
1989
1988
1987
1987
1987
1986
1987
1987
1988
1988
1987
1986
1985
1985
1985
1985
1986
1987
1986
1986
1986
1985
1985
1985
1985
1986
1986
1986
1986
1986
1986
1985
1985
1984
1985
1985
1986
1986
1986
1986
1985
1984
1982
1982
1982
1983
1985
1986
1987
1988
1988
1989
1988
1988
1987
1986
1986
1986
1986
1986
1986
1985
1984
1984
1984
1984
1985
1985
1986
1986
1987
1986
1983
1978
1971
1967
1967
1976
1994
2022
2052
2080
2096
2094
2076
2048
2021
2000
1988
1984
1982
1981
1980
1979
1978
1978
1978
1978
1978
1978
1978
1978
1978
1978
1978
1979
1979
1979
1979
1979
1978
1978
1978
1979
1979
1980
1980
1980
1980
1981
1981
1982
1982
1982
1982
1983
1984
1986
1988
1988
1989
1990
1991
1993
1995
1997
1999
2001
2003
2005
2006
2007
2008
2008
2009
2009
2009
2009
2009
2007
2004
2001
1997
1993
1990
1987
1985
1983
1981
1979
1977
1976
1974
1973
1973
1973
1973
1973
1973
1973
1973
1973
1972
1972
1972
1972
1973
1974
1974
1973
1973
1973
1972
1972
1972
1973
1973
1973
1974
1974
1974
1973
1973
1973
1973
1974
1975
1975
1975
1975
1974
1974
1973
1973
1974
1974
1975
1976
1976
1976
1976
1975
1974
1974
1974
1974
1974
1975
1975
1975
1975
1975
1974
1974
1974
1975
1975
1976
1976
1975
1975
1974
1975
1975
1975
1975
1976
1976
1976
1976
1977
1976
1976
1976
1975
1975
1975
1975
1975
1975
1974
1974
1973
1974
1974
1976
1977
1979
1980
1980
1980
1979
1977
1976
1976
1976
1976
1977
1977
1977
1976
1975
1973
1970
1968
1967
1968
1969
1969
1968
1964
1957
1952
1950
1955
1970
1995
2027
2058
2080
2085
2072
2046
2016
1990
1974
1967
1966
1965
1965
1964
1963
1962
1962
1962
1962
1962
1963
1963
1964
1964
1963
1963
1963
1963
1964
1964
1965
1965
1965
1966
1966
1965
1965
1965
1966
1966
1967
1968
1969
1969
1970
1970
1971
1971
1972
1974
1976
1977
1978
1980
1981
1982
1983
1985
1987
1989
1991
1993
1994
1995
1995
1996
1995
1995
1994
1993
1991
1988
1985
1982
1978
1975
1972
1970
1969
1968
1967
1966
1965
1964
1963
1962
1961
1961
1961
1962
1962
1963
1963
1963
1962
1962
1962
1961
1962
1962
1963
1964
1964
1964
1963
1962
1962
1962
1963
1963
1964
1964
1964
1964
1964
1963
1962
1962
1962
1963
1964
1964
1964
1964
1964
1963
1963
1963
1963
1964
1964
1965
1965
1964
1964
1963
1963
1964
1964
1964
1965
1965
1965
1965
1965
1964
1964
1964
1965
1966
1966
1967
1967
1967
1966
1966
1966
1965
1966
1966
1966
1967
1967
1967
1966
1966
1966
1966
1967
1967
1968
1968
1967
1967
1966
1965
1964
1964
1964
1965
1966
1967
1968
1969
1970
1970
1970
1970
1970
1970
1970
1969
1969
1968
1968
1967
1967
1967
1967
1968
1969
1969
1969
1969
1969
1969
1968
1965
1961
1955
1952
1953
1961
1979
2005
2036
2064
2081
2082
2066
2040
2010
1987
1973
1966
1964
1963
1963
1963
1963
1964
1964
1963
1963
1963
1962
1962
1962
1963
1963
1964
1964
1965
1965
1964
1964
1964
1965
1965
1966
1966
1967
1967
1967
1967
1967
1967
1968
1969
1970
1971
1972
1973
1973
1974
1974
1975
1977
1979
1981
1983
1985
1986
1987
1988
1989
1990
1991
1992
1993
1994
1995
1994
1993
1991
1988
1985
1982
1980
1978
1976
1974
1972
1970
1968
1966
1965
1964
1964
1964
1964
1964
1964
1964
1964
1963
1963
1963
1964
1964
1965
1965
1965
1965
1965
1965
1965
1964
1965
1965
1966
1967
1967
1967
1966
1966
1966
1966
1966
1966
1967
1967
1968
1968
1967
1967
1967
1967
1967
1968
1969
1969
1969
1969
1968
1968
1968
1968
1968
1969
1969
1970
1970
1970
1970
1969
1969
1969
1969
1970
1971
1971
1971
1971
1971
1971
1970
1970
1970
1971
1972
1972
1972
1972
1972
1971
1971
1971
1971
1972
1972
1973
1973
1973
1973
1972
1972
1972
1973
1973
1974
1974
1974
1974
1974
1973
1973
1973
1973
1974
1974
1974
1974
1973
1972
1971
1971
1972
1974
1976
1977
1978
1978
1978
1977
1977
1976
1975
1975
1975
1975
1975
1975
1975
1975
1974
1974
1974
1974
1975
1975
1976
1977
1976
1972
1967
1961
1957
1959
1970
1989
2016
2047
2071
2085
2082
2064
2038
2011
1990
1979
1974
1973
1973
1972
1971
1969
1969
1969
1970
1970
1971
1971
1971
1971
1970
1970
1970
1970
1971
1971
1972
1973
1973
1972
1972
1971
1971
1972
1973
1975
1976
1976
1976
1976
1976
1976
1977
1978
1980
1981
1982
1983
1984
1985
1986
1987
1989
1991
1993
1995
1997
1998
1999
2000
2000
2001
2001
2001
2001
2001
2000
1998
1995
1992
1989
1986
1984
1982
1980
1979
1977
1976
1975
1973
1973
1972
1972
1972
1973
1973
1974
1974
1974
1973
1973
1973
1974
1974
1975
1976
1976
1976
1976
1976
1975
1975
1975
1975
1976
1977
1977
1978
1978
1977
1976
1976
1976
1976
1977
1978
1979
1978
1978
1978
1977
1977
1977
1976
1976
1977
1977
1978
1978
1978
1977
1977
1977
1977
1978
1979
1979
1980
1980
1980
1979
1979
1979
1979
1980
1981
1981
1981
1981
1982
1982
1982
1982
1982
1983
1983
1983
1983
1983
1983
1983
1983
1983
1984
1984
1984
1985
1986
1986
1986
1985
1985
1985
1985
1986
1987
1987
1987
1986
1985
1984
1984
1984
1986
1988
1990
1991
1992
1991
1991
1990
1990
1989
1989
1989
1990
1990
1990
1989
1988
1987
1987
1988
1988
1989
1989
1990
1991
1990
1988
1984
1978
1973
1973
1980
1996
2022
2051
2080
2097
2097
2081
2055
2029
2008
1997
1993
1992
1992
1991
1990
1989
1988
1989
1989
1990
1990
1990
1990
1990
1990
1989
1989
1990
1991
1992
1992
1992
1992
1991
1990
1990
1991
1992
1993
1994
1994
1994
1995
1995
1995
1996
1996
1997
1998
1999
2000
2002
2003
2004
2006
2007
2008
2010
2012
2015
2017
2019
2020
2021
2021
2021
2022
2022
2022
2022
2020
2018
2015
2012
2009
2006
2002
1999
1997
1995
1993
1992
1990
1988
1987
1986
1985
1986
1986
1987
1987
1987
1986
1985
1984
1983
1984
1985
1986
1987
1987
1987
1986
1986
1985
1985
1985
1985
1986
1986
1987
1987
1987
1987
1986
1986
1987
1987
1987
1987
1987
1987
1986
1986
1986
1986
1986
1986
1986
1986
1987
1987
1987
1986
1986
1985
1985
1985
1985
1986
1987
1987
1987
1987
1986
1985
1985
1985
1986
1986
1987
1987
1986
1986
1985
1985
1985
1985
1986
1987
1987
1987
1986
1985
1984
1984
1983
1983
1984
1984
1985
1986
1987
1988
1988
1989
1989
1989
1989
1988
1988
1988
1987
1986
1985
1985
1985
1985
1986
1987
1987
1986
1986
1986
1986
1986
1984
1980
1975
1971
1971
1979
1997
2025
2055
2083
2098
2095
2076
2048
2021
2000
1989
1985
1984
1983
1982
1981
1980
1980
1980
1980
1980
1979
1979
1979
1979
1979
1980
1980
1980
1981
1981
1981
1981
1981
1981
1981
1981
1982
1983
1983
1983
1983
1983
1983
1984
1985
1986
1987
1988
1989
1989
1989
1990
1991
1993
1995
1997
1999
2001
2003
2005
2006
2008
2009
2010
2011
2012
2013
2013
2012
2011
2008
2005
2002
1998
1996
1993
1991
1988
1985
1982
1980
1978
1977
1976
1976
1976
1976
1975
1975
1975
1975
1974
1974
1974
1974
1975
1975
1976
1976
1976
1975
1975
1974
1974
1974
1974
1975
1976
1976
1976
1976
1975
1975
1975
1976
1977
1977
1978
1978
1977
1977
1976
1976
1976
1977
1977
1977
1977
1976
1975
1974
1973
1973
1973
1973
1974
1974
1974
1974
1974
1973
1972
1972
1972
1972
1973
1973
1974
1973
1973
1972
1972
1972
1972
1973
1973
1973
1973
1973
1973
1972
1971
1970
1970
1970
1970
1971
1972
1974
1975
1976
1976
1976
1976
1976
1976
1976
1976
1975
1974
1974
1973
1973
1973
1973
1974
1974
1974
1975
1975
1975
1975
1973
1970
1965
1959
1957
1959
1969
1989
2017
2048
2074
2088
2084
2065
2037
2009
1989
1977
1972
1970
1969
1968
1968
1968
1968
1968
1968
1968
1967
1967
1967
1967
1968
1969
1970
1970
1970
1969
1969
1968
1968
1969
1969
1970
1971
1971
1971
1971
1971
1971
1971
1972
1972
1974
1975
1976
1977
1977
1978
1978
1979
1981
1983
1985
1987
1989
1991
1992
1993
1994
1995
1996
1997
1999
1999
1999
1999
1997
1994
1991
1988
1985
1983
1980
1978
1976
1974
1972
1970
1968
1967
1966
1966
1966
1966
1966
1966
1966
1965
1965
1964
1965
1965
1966
1967
1967
1967
1966
1966
1966
1966
1966
1966
1967
1967
1968
1968
1968
1967
1967
1966
1966
1966
1967
1968
1968
1968
1968
1967
1967
1966
1966
1967
1967
1968
1968
1968
1968
1967
1967
1967
1967
1968
1968
1969
1969
1969
1969
1968
1968
1968
1968
1968
1969
1969
1969
1970
1969
1969
1969
1969
1968
1969
1970
1970
1971
1970
1970
1970
1969
1968
1968
1967
1967
1968
1968
1969
1970
1971
1972
1972
1972
1973
1973
1974
1973
1973
1972
1971
1970
1970
1969
1969
1970
1970
1971
1971
1970
1970
1969
1969
1970
1970
1968
1965
1960
1955
1954
1960
1975
1999
2030
2059
2080
2084
2072
2047
2018
1993
1977
1969
1967
1967
1968
1968
1967
1967
1967
1966
1966
1965
1965
1966
1966
1967
1968
1968
1968
1968
1968
1968
1969
1969
1970
1971
1972
1972
1972
1972
1971
1971
1972
1973
1974
1975
1976
1976
1977
1977
1978
1979
1980
1981
1983
1985
1987
1989
1991
1992
1993
1995
1996
1998
2000
2002
2003
2004
2004
2003
2001
1999
1997
1994
1992
1990
1987
1984
1982
1979
1977
1975
1974
1974
1973
1973
1973
1972
1972
1971
1971
1971
1971
1972
1972
1973
1973
1973
1973
1973
1973
1973
1973
1973
1974
1975
1975
1975
1975
1975
1974
1974
1974
1974
1975
1975
1976
1976
1976
1975
1975
1975
1975
1975
1976
1977
1977
1977
1977
1977
1976
1976
1976
1977
1977
1978
1978
1979
1979
1979
1979
1979
1979
1980
1980
1981
1981
1981
1981
1981
1981
1981
1981
1981
1982
1982
1983
1983
1983
1982
1981
1980
1980
1980
1981
1983
1985
1986
1987
1987
1988
1987
1987
1987
1987
1987
1987
1987
1986
1986
1985
1985
1985
1986
1987
1988
1988
1989
1989
1990
1990
1988
1985
1980
1975
1973
1976
1988
2009
2038
2068
2093
2104
2098
2077
2049
2022
2002
1991
1986
1984
1983
1982
1982
1981
1982
1982
1982
1982
1981
1981
1981
1981
1981
1981
1982
1982
1982
1982
1982
1981
1981
1981
1981
1982
1982
1983
1983
1982
1982
1981
1981
1982
1983
1984
1985
1986
1986
1986
1987
1987
1988
1989
1991
1993
1995
1997
1999
2000
2001
2002
2003
2003
2004
2005
2006
2006
2005
2003
2001
1998
1994
1991
1988
1985
1983
1981
1979
1977
1975
1973
1972
1971
1971
1971
1972
1972
1972
1971
1971
1970
1970
1970
1970
1971
1971
1972
1972
1972
1972
1971
1971
1970
1971
1971
1972
1972
1972
1972
1972
1971
1970
1970
1970
1971
1971
1971
1971
1971
1971
1970
1970
1970
1970
1971
1971
1971
1971
1971
1971
1971
1971
1971
1972
1972
1972
1972
1972
1972
1972
1972
1972
1972
1972
1973
1973
1973
1973
1974
1974
1974
1975
1975
1976
1976
1977
1977
1977
1977
1977
1977
1977
1978
1979
1980
1981
1982
1982
1982
1982
1983
1983
1985
1987
1989
1990
1991
1991
1991
1990
1989
1988
1988
1988
1989
1989
1990
1990
1990
1989
1989
1989
1989
1990
1990
1992
1992
1992
1988
1983
1977
1974
1977
1988
2010
2038
2068
2093
2103
2096
2075
2047
2021
2002
1992
1989
1988
1988
1987
1985
1984
1984
1984
1984
1985
1986
1986
1986
1986
1986
1986
1986
1986
1987
1987
1988
1988
1988
1988
1987
1987
1987
1987
1988
1988
1989
1990
1991
1991
1991
1991
1991
1992
1992
1994
1995
1997
1998
1999
2000
2001
2002
2004
2006
2008
2009
2011
2012
2013
2013
2013
2012
2012
2011
2010
2009
2006
2004
2001
1997
1994
1991
1989
1987
1985
1984
1983
1983
1982
1981
1980
1979
1979
1979
1979
1979
1979
1979
1979
1978
1978
1977
1977
1978
1978
1979
1979
1979
1979
1979
1978
1977
1977
1977
1977
1977
1977
1977
1976
1975
1974
1974
1973
1973
1973
1974
1974
1974
1974
1974
1973
1973
1973
1973
1973
1974
1974
1974
1974
1974
1974
1973
1973
1973
1973
1974
1974
1974
1974
1974
1973
1973
1972
1972
1973
1973
1974
1974
1974
1973
1972
1972
1972
1972
1973
1973
1973
1973
1973
1973
1972
1972
1972
1972
1972
1972
1972
1972
1971
1970
1970
1970
1970
1972
1973
1975
1976
1977
1977
1976
1974
1973
1972
1972
1972
1973
1973
1973
1973
1973
1972
1972
1971
1972
1972
1973
1974
1974
1973
1969
1963
1958
1956
1959
1971
1993
2021
2048
2070
2076
2067
2046
2020
1996
1981
1973
1971
1971
1970
1969
1968
1967
1967
1967
1967
1968
1969
1969
1969
1969
1968
1968
1969
1970
1971
1972
1973
1973
1972
1972
1971
1972
1972
1973
1974
1975
1975
1975
1976
1976
1976
1977
1977
1978
1980
1981
1983
1984
1985
1987
1988
1990
1991
1994
1996
1998
2000
2001
2001
2001
2002
2003
2004
2004
2004
2003
2001
1999
1996
1993
1990
1987
1985
1983
1982
1981
1979
1978
1977
1976
1975
1974
1974
1974
1974
1975
1975
1976
1975
1975
1975
1974
1975
1975
1976
1977
1978
1978
1978
1977
1977
1977
1977
1977
1977
1977
1978
1978
1978
1978
1977
1977
1977
1977
1977
1978
1978
1978
1978
1977
1977
1976
1976
1977
1977
1978
1979
1978
1978
1977
1977
1977
1977
1977
1978
1978
1979
1979
1979
1978
1978
1978
1978
1978
1978
1979
1980
1980
1980
1980
1979
1979
1978
1978
1978
1979
1979
1979
1979
1979
1979
1980
1981
1983
1984
1985
1985
1985
1984
1983
1982
1981
1981
1981
1981
1982
1982
1982
1981
1981
1980
1980
1980
1980
1981
1982
1980
1976
1970
1965
1965
1972
1989
2016
2047
2073
2086
2083
2063
2037
2010
1991
1982
1979
1979
1979
1978
1978
1977
1976
1975
1975
1975
1975
1976
1976
1977
1977
1977
1976
1976
1976
1976
1977
1977
1978
1978
1979
1978
1978
1978
1978
1978
1978
1979
1980
1981
1982
1982
1982
1982
1983
1984
1985
1987
1989
1991
1992
1994
1995
1996
1998
2000
2001
2003
2005
2007
2007
2007
2007
2007
2006
2005
2003
2001
1999
1996
1993
1989
1986
1983
1980
1979
1978
1977
1977
1976
1976
1975
1974
1974
1974
1974
1974
1974
1975
1975
1975
1975
1975
1974
1974
1974
1974
1974
1975
1975
1975
1975
1975
1974
1974
1974
1974
1974
1975
1976
1976
1975
1975
1974
1974
1975
1975
1976
1976
1977
1977
1976
1976
1976
1975
1975
1975
1975
1976
1976
1976
1976
1975
1975
1975
1974
1975
1975
1976
1976
1975
1975
1974
1973
1973
1973
1974
1974
1975
1975
1975
1975
1974
1974
1974
1973
1973
1974
1974
1973
1973
1972
1971
1971
1971
1972
1974
1976
1977
1978
1978
1978
1976
1975
1973
1973
1973
1973
1974
1974
1975
1974
1974
1973
1973
1972
1973
1973
1974
1975
1974
1971
1966
1960
1956
1957
1966
1985
2012
2043
2068
2083
2081
2063
2036
2008
1988
1976
1972
1971
1971
1970
1969
1968
1967
1967
1967
1967
1968
1968
1968
1968
1968
1968
1968
1969
1970
1970
1970
1971
1971
1971
1971
1971
1970
1970
1971
1971
1972
1974
1974
1975
1975
1975
1975
1975
1976
1978
1979
1980
1982
1983
1984
1985
1986
1988
1990
1992
1993
1995
1996
1997
1997
1998
1998
1998
1997
1996
1995
1993
1990
1987
1984
1981
1978
1976
1974
1973
1972
1971
1970
1970
1969
1968
1967
1967
1967
1968
1968
1968
1968
1968
1968
1967
1967
1967
1967
1968
1969
1969
1969
1969
1968
1968
1968
1967
1968
1968
1968
1969
1969
1968
1968
1968
1967
1968
1968
1969
1969
1970
1970
1970
1969
1968
1968
1968
1968
1969
1969
1970
1970
1970
1970
1969
1969
1969
1969
1969
1970
1970
1971
1971
1970
1970
1970
1970
1971
1971
1972
1973
1973
1972
1972
1971
1970
1970
1971
1972
1973
1974
1974
1974
1973
1972
1971
1971
1971
1972
1972
1973
1974
1974
1975
1976
1976
1977
1977
1978
1978
1978
1977
1977
1976
1975
1975
1975
1975
1975
1976
1976
1976
1975
1974
1974
1974
1975
1975
1975
1971
1967
1962
1960
1964
1978
2000
2029
2056
2076
2081
2070
2048
2021
1997
1982
1974
1972
1972
1972
1972
1972
1972
1972
1971
1970
1970
1970
1971
1972
1974
1975
1976
1976
1976
1976
1976
1977
1978
1979
1979
1980
1980
1981
1981
1981
1982
1982
1983
1985
1986
1988
1988
1989
1989
1989
1990
1991
1992
1995
1997
1999
2001
2003
2004
2005
2006
2008
2010
2012
2014
2015
2016
2016
2015
2014
2012
2010
2008
2005
2003
2000
1998
1995
1992
1989
1987
1986
1985
1986
1986
1986
1985
1985
1984
1983
1982
1982
1983
1983
1984
1984
1985
1985
1984
1983
1982
1982
1982
1983
1984
1984
1984
1984
1983
1982
1982
1982
1982
1983
1983
1983
1983
1983
1982
1982
1982
1981
1981
1982
1982
1983
1983
1983
1983
1982
1982
1982
1982
1982
1982
1983
1983
1982
1982
1981
1981
1980
1980
1981
1981
1982
1982
1981
1981
1980
1980
1980
1980
1981
1981
1981
1981
1980
1980
1979
1979
1979
1979
1979
1979
1979
1979
1979
1978
1977
1976
1975
1975
1976
1977
1978
1980
1981
1981
1981
1981
1981
1981
1980
1980
1980
1979
1978
1978
1977
1977
1977
1977
1977
1977
1977
1977
1977
1977
1977
1977
1975
1971
1966
1962
1961
1966
1978
1999
2026
2052
2073
2081
2072
2051
2025
2000
1984
1975
1972
1971
1971
1971
1971
1972
1972
1971
1970
1969
1968
1967
1967
1968
1969
1970
1971
1971
1971
1971
1970
1970
1970
1970
1972
1972
1973
1973
1973
1973
1973
1973
1973
1974
1975
1976
1977
1977
1978
1978
1979
1980
1981
1983
1985
1987
1989
1990
1992
1993
1994
1995
1996
1997
1999
2000
2002
2002
2000
1998
1995
1993
1990
1988
1986
1984
1981
1979
1977
1975
1973
1972
1971
1971
1971
1971
1971
1971
1970
1970
1970
1969
1969
1970
1971
1972
1973
1973
1973
1973
1972
1972
1972
1972
1972
1972
1973
1973
1973
1973
1973
1973
1973
1973
1974
1974
1975
1975
1975
1975
1975
1974
1974
1973
1973
1974
1975
1975
1975
1975
1974
1974
1974
1974
1975
1976
1976
1976
1975
1975
1975
1974
1974
1974
1974
1974
1974
1974
1973
1973
1972
1972
1971
1971
1972
1972
1973
1973
1973
1972
1971
1970
1969
1969
1970
1971
1971
1972
1973
1974
1975
1976
1975
1975
1975
1976
1976
1976
1975
1975
1974
1973
1973
1974
1974
1975
1976
1976
1976
1976
1976
1976
1976
1974
1971
1966
1962
1962
1969
1987
2013
2043
2068
2081
2078
2058
2032
2006
1988
1979
1976
1975
1975
1974
1974
1974
1974
1973
1973
1972
1971
1971
1971
1972
1972
1973
1974
1974
1974
1974
1973
1973
1974
1974
1975
1976
1977
1977
1977
1977
1977
1977
1978
1979
1980
1981
1982
1982
1983
1984
1984
1986
1987
1989
1991
1993
1994
1995
1996
1997
1998
1999
2001
2002
2003
2004
2005
2005
2004
2002
2000
1997
1994
1991
1989
1986
1984
1981
1978
1975
1973
1971
1970
1971
1971
1971
1971
1970
1969
1969
1968
1968
1968
1968
1969
1969
1969
1969
1969
1969
1968
1968
1968
1968
1968
1969
1969
1970
1970
1970
1969
1969
1969
1970
1971
1971
1972
1972
1972
1971
1971
1970
1971
1971
1972
1972
1973
1972
1972
1971
1971
1971
1971
1971
1972
1972
1972
1972
1972
1973
1972
1972
1971
1971
1972
1972
1973
1973
1973
1973
1972
1972
1971
1971
1971
1972
1972
1972
1972
1972
1972
1973
1974
1975
1976
1977
1977
1977
1976
1975
1974
1974
1974
1974
1975
1975
1975
1976
1975
1975
1975
1975
1975
1976
1975
1972
1967
1961
1958
1960
1971
1992
2020
2050
2075
2085
2078
2057
2029
2003
1984
1975
1971
1971
1970
1971
1970
1970
1969
1969
1968
1968
1968
1969
1969
1970
1970
1970
1970
1970
1969
1969
1970
1970
1971
1972
1972
1973
1973
1973
1972
1972
1973
1973
1974
1975
1976
1976
1977
1977
1978
1978
1979
1981
1982
1984
1985
1987
1988
1990
1991
1992
1993
1994
1996
1997
1999
1999
1999
1998
1997
1995
1993
1991
1989
1986
1984
1981
1979
1976
1974
1972
1971
1970
1969
1969
1968
1968
1967
1967
1966
1966
1966
1967
1967
1967
1968
1968
1968
1967
1967
1967
1968
1968
1969
1969
1970
1970
1969
1969
1968
1968
1968
1969
1969
1970
1970
1970
1970
1970
1969
1969
1969
1969
1970
1971
1971
1971
1971
1970
1969
1969
1969
1969
1970
1971
1971
1971
1971
1971
1970
1970
1970
1971
1971
1971
1972
1972
1972
1971
1971
1971
1970
1971
1971
1972
1972
1972
1972
1972
1972
1971
1971
1970
1970
1970
1970
1970
1969
1969
1969
1970
1971
1973
1974
1975
1976
1976
1975
1973
1972
1972
1972
1972
1972
1972
1972
1972
1971
1971
1970
1970
1970
1971
1972
1972
1969
1964
1959
1956
1958
1968
1987
2014
2043
2067
2079
2075
2056
2029
2003
1983
1972
1969
1969
1969
1969
1968
1968
1967
1966
1966
1966
1966
1967
1968
1968
1968
1968
1968
1968
1967
1967
1968
1968
1969
1970
1971
1971
1971
1970
1970
1971
1971
1972
1973
1974
1975
1975
1975
1975
1976
1976
1978
1979
1981
1983
1984
1986
1987
1988
1989
1991
1993
1994
1996
1997
1998
1999
1999
1998
1997
1996
1995
1993
1991
1989
1986
1983
1980
1978
1976
1974
1973
1972
1972
1971
1971
1970
1970
1969
1969
1968
1969
1969
1970
1970
1971
1970
1970
1970
1970
1970
1970
1971
1972
1972
1972
1972
1971
1971
1970
1970
1971
1971
1972
1972
1972
1972
1971
1971
1971
1971
1972
1972
1972
1972
1972
1972
1972
1972
1971
1972
1972
1972
1973
1973
1973
1973
1972
1972
1972
1972
1972
1973
1973
1973
1973
1973
1973
1972
1971
1971
1971
1971
1972
1972
1972
1972
1972
1973
1973
1974
1975
1976
1976
1976
1976
1975
1975
1975
1974
1974
1974
1974
1975
1975
1975
1975
1974
1974
1975
1974
1973
1970
1965
1961
1959
1963
1975
1996
2023
2050
2071
2078
2069
2048
2022
1998
1982
1974
1971
1971
1971
1971
1970
1970
1970
1970
1969
1969
1969
1970
1970
1971
1972
1972
1972
1972
1972
1971
1971
1971
1971
1972
1972
1972
1973
1973
1973
1973
1974
1974
1975
1975
1976
1977
1978
1978
1978
1979
1980
1981
1983
1985
1987
1989
1990
1991
1992
1993
1995
1996
1998
2000
2002
2003
2003
2001
2000
1998
1996
1994
1991
1989
1986
1984
1982
1979
1977
1975
1974
1972
1972
1972
1972
1973
1973
1972
1972
1971
1971
1971
1971
1972
1973
1973
1974
1974
1974
1973
1973
1973
1973
1973
1974
1975
1975
1975
1975
1975
1974
1974
1975
1975
1976
1976
1976
1976
1975
1975
1975
1975
1975
1975
1976
1977
1978
1978
1977
1977
1976
1976
1976
1977
1978
1978
1978
1978
1977
1977
1976
1976
1976
1976
1976
1977
1978
1979
1979
1979
1979
1979
1980
1980
1981
1981
1981
1981
1980
1979
1979
1979
1979
1980
1981
1981
1981
1981
1982
1982
1980
1978
1973
1969
1966
1969
1979
2000
2028
2057
2079
2085
2074
2050
2024
2002
1988
1983
1982
1981
1980
1979
1979
1979
1980
1980
1979
1978
1978
1978
1978
1979
1979
1980
1981
1982
1982
1981
1981
1981
1981
1982
1983
1984
1985
1985
1985
1985
1985
1986
1986
1987
1988
1989
1990
1991
1993
1994
1994
1995
1995
1997
1999
2002
2005
2007
2009
2010
2011
2011
2012
2013
2014
2015
2015
2015
2013
2011
2008
2005
2002
1999
1996
1993
1991
1989
1987
1985
1983
1981
1980
1979
1979
1979
1979
1979
1980
1980
1980
1980
1979
1978
1978
1979
1980
1982
1982
1982
1981
1980
1980
1980
1980
1981
1982
1983
1984
1983
1983
1983
1983
1983
1984
1985
1986
1986
1986
1986
1986
1986
1986
1985
1985
1986
1986
1987
1987
1987
1987
1986
1986
1986
1986
1987
1987
1988
1988
1987
1986
1985
1984
1984
1985
1986
1987
1988
1988
1989
1989
1988
1988
1988
1988
1988
1988
1988
1988
1988
1987
1987
1986
1986
1986
1987
1988
1989
1990
1989
1986
1980
1973
1968
1969
1980
2001
2030
2061
2087
2097
2090
2069
2041
2016
1999
1990
1987
1986
1985
1984
1983
1982
1981
1981
1981
1981
1981
1981
1981
1981
1980
1980
1980
1981
1981
1982
1983
1983
1983
1982
1982
1982
1982
1983
1983
1983
1984
1985
1985
1985
1985
1985
1986
1987
1988
1990
1991
1992
1994
1995
1997
1998
2000
2001
2003
2005
2007
2009
2010
2010
2010
2010
2010
2010
2009
2008
2006
2003
2000
1996
1992
1989
1986
1984
1982
1981
1980
1979
1978
1977
1976
1975
1975
1975
1975
1976
1976
1976
1976
1975
1975
1974
1974
1975
1975
1976
1976
1976
1976
1975
1975
1974
1974
1974
1975
1976
1976
1976
1976
1975
1975
1975
1975
1976
1976
1977
1977
1977
1977
1977
1976
1976
1975
1975
1976
1976
1977
1977
1976
1976
1975
1974
1974
1974
1974
1974
1974
1974
1973
1973
1973
1973
1974
1975
1976
1977
1978
1978
1978
1977
1976
1976
1976
1976
1976
1977
1977
1977
1977
1977
1977
1977
1977
1978
1979
1979
1976
1971
1965
1961
1962
1973
1994
2023
2055
2082
2096
2091
2069
2041
2012
1991
1980
1977
1977
1977
1977
1976
1975
1974
1973
1973
1973
1974
1974
1975
1975
1975
1975
1975
1974
1974
1974
1974
1975
1976
1977
1977
1977
1977
1976
1976
1977
1978
1979
1980
1981
1981
1982
1982
1982
1983
1983
1984
1986
1988
1989
1991
1993
1994
1995
1997
1998
1999
2001
2002
2003
2004
2005
2004
2003
2002
2000
1998
1996
1993
1991
1988
1985
1982
1980
1978
1976
1975
1975
1974
1974
1974
1973
1973
1972
1972
1972
1972
1972
1973
1973
1973
1973
1973
1973
1973
1973
1973
1973
1974
1974
1975
1975
1975
1974
1974
1974
1975
1975
1975
1975
1975
1975
1974
1973
1973
1973
1974
1974
1974
1974
1974
1974
1974
1974
1974
1974
1974
1975
1975
1976
1976
1975
1975
1974
1974
1974
1974
1975
1975
1976
1976
1975
1975
1975
1975
1975
1975
1975
1974
1974
1974
1974
1973
1974
1974
1975
1976
1978
1979
1980
1980
1980
1979
1977
1976
1976
1976
1977
1977
1977
1977
1977
1977
1976
1976
1976
1977
1978
1979
1978
1974
1968
1962
1959
1961
1972
1993
2021
2051
2077
2089
2084
2063
2035
2008
1988
1977
1974
1974
1974
1973
1972
1971
1970
1970
1970
1970
1971
1972
1972
1972
1972
1972
1971
1971
1971
1972
1972
1973
1974
1974
1974
1974
1974
1974
1974
1975
1975
1976
1977
1977
1978
1978
1978
1978
1978
1979
1981
1983
1985
1986
1987
1988
1989
1990
1991
1993
1995
1997
1999
1999
1999
1999
1999
1998
1997
1996
1994
1993
1991
1988
1985
1982
1979
1977
1975
1974
1973
1973
1972
1972
1971
1971
1970
1970
1970
1970
1970
1971
1972
1972
1972
1972
1971
1971
1971
1971
1972
1972
1973
1973
1973
1972
1971
1971
1971
1971
1972
1973
1973
1973
1972
1972
1971
1971
1970
1971
1971
1972
1972
1973
1973
1973
1972
1972
1972
1972
1972
1973
1974
1974
1974
1974
1973
1973
1973
1974
1974
1974
1975
1975
1974
1974
1974
1974
1974
1975
1975
1975
1975
1975
1975
1975
1975
1975
1975
1975
1975
1976
1976
1976
1976
1976
1976
1975
1975
1976
1976
1977
1977
1977
1976
1975
1974
1973
1974
1975
1976
1977
1979
1980
1980
1980
1980
1980
1979
1979
1978
1978
1979
1979
1979
1979
1978
1978
1978
1978
1979
1980
1981
1981
1982
1981
1978
1973
1968
1964
1964
1971
1987
2011
2041
2067
2084
2086
2073
2048
2022
2001
1987
1981
1979
1978
1977
1976
1976
1975
1976
1977
1977
1977
1977
1977
1976
1976
1976
1977
1977
1978
1979
1979
1979
1979
1979
1979
1979
1979
1980
1981
1982
1982
1982
1982
1983
1983
1984
1985
1986
1987
1988
1989
1990
1991
1992
1993
1995
1996
1999
2001
2003
2005
2006
2006
2007
2007
2009
2010
2011
2011
2011
2009
2006
2003
2000
1997
1994
1992
1990
1988
1987
1985
1984
1982
1981
1979
1979
1979
1980
1980
1981
1980
1980
1979
1978
1978
1978
1979
1980
1981
1981
1981
1981
1980
1980
1979
1979
1980
1980
1981
1982
1982
1982
1981
1980
1980
1979
1980
1980
1981
1981
1981
1981
1980
1980
1980
1980
1980
1981
1981
1981
1981
1982
1981
1981
1981
1981
1981
1981
1982
1982
1983
1982
1982
1981
1981
1981
1981
1982
1982
1982
1982
1982
1982
1982
1983
1983
1983
1982
1982
1981
1981
1980
1980
1980
1981
1982
1983
1984
1985
1986
1987
1987
1986
1985
1984
1983
1983
1983
1984
1984
1984
1983
1983
1982
1982
1982
1982
1983
1984
1984
1984
1981
1977
1970
1966
1966
1973
1990
2016
2047
2074
2090
2089
2072
2046
2019
1999
1988
1984
1983
1982
1980
1979
1978
1978
1978
1978
1978
1979
1979
1980
1980
1980
1980
1980
1980
1980
1980
1981
1981
1981
1981
1982
1982
1982
1983
1984
1984
1985
1985
1986
1986
1986
1986
1987
1987
1989
1990
1992
1993
1995
1996
1998
1999
2000
2002
2004
2006
2008
2010
2011
2012
2012
2013
2013
2013
2012
2011
2009
2007
2005
2002
1999
1995
1992
1989
1987
1985
1984
1983
1982
1980
1979
1978
1978
1978
1979
1980
1981
1982
1983
1985
1990
1997
2006
2014
2020
2024
2025
2024
2022
2019
2016
2014
2012
2011
2011
2011
2010
2010
2010
2010
2009
2008
2007
2007
2007
2007
2007
2008
2008
2007
2007
2006
2005
2005
2005
2005
2005
2006
2005
2005
2005
2004
2003
2003
2003
2003
2003
2003
2003
2003
2003
2002
2002
2002
2003
2003
2004
2004
2003
2002
2001
2000
1999
1999
2000
2001
2002
2003
2004
2004
2004
2004
2004
2004
2004
2003
2003
2003
2003
2003
2002
2002
2001
2000
2000
1999
1999
1999
2000
2001
2001
2000
1997
1992
1986
1982
1983
1993
2012
2040
2070
2097
2110
2106
2086
2058
2033
2013
2003
1998
1996
1995
1994
1993
1993
1993
1994
1994
1994
1993
1993
1993
1993
1993
1993
1994
1994
1994
1994
1994
1994
1994
1994
1994
1995
1995
1996
1997
1998
1997
1997
1997
1997
1998
1999
2000
2001
2002
2003
2004
2005
2007
2009
2010
2012
2014
2016
2018
2020
2022
2023
2024
2025
2026
2027
2028
2028
2027
2026
2024
2021
2017
2013
2010
2007
2004
2002
1999
1997
1994
1993
1991
1991
1990
1991
1991
1992
1991
1991
1990
1989
1989
1989
1989
1989
1990
1990
1991
1991
1991
1990
1989
1988
1988
1989
1989
1990
1990
1990
1990
1990
1990
1990
1990
1990
1991
1991
1992
1992
1992
1991
1990
1990
1990
1990
1991
1991
1991
1990
1990
1990
1990
1990
1990
1991
1991
1991
1991
1990
1989
1988
1988
1988
1988
1989
1989
1989
1989
1988
1987
1987
1986
1986
1986
1987
1988
1989
1990
1990
1991
1991
1991
1990
1990
1989
1989
1990
1990
1990
1990
1989
1988
1988
1988
1989
1989
1990
1991
1992
1990
1987
1980
1974
1970
1972
1984
2007
2038
2069
2096
2107
2100
2077
2048
2021
2002
1992
1989
1988
1986
1985
1983
1982
1981
1981
1981
1982
1983
1983
1983
1983
1983
1982
1982
1983
1983
1984
1985
1985
1985
1985
1985
1985
1985
1985
1986
1986
1987
1988
1988
1988
1988
1989
1989
1990
1991
1992
1994
1995
1997
1998
1999
2001
2003
2005
2008
2010
2012
2013
2013
2014
2014
2015
2015
2015
2014
2013
2011
2008
2005
2001
1997
1994
1991
1988
1986
1985
1984
1982
1981
1980
1979
1978
1978
1978
1979
1980
1980
1980
1980
1980
1980
1979
1979
1979
1979
1980
1980
1980
1980
1979
1979
1979
1980
1980
1981
1981
1981
1982
1981
1981
1980
1980
1980
1980
1981
1982
1982
1982
1981
1981
1981
1980
1980
1981
1981
1982
1982
1982
1982
1981
1981
1980
1980
1980
1980
1980
1980
1981
1981
1981
1981
1980
1980
1980
1981
1981
1982
1982
1981
1980
1979
1979
1979
1979
1979
1979
1980
1980
1981
1981
1982
1982
1982
1983
1984
1984
1983
1983
1982
1982
1982
1981
1981
1981
1981
1982
1982
1982
1983
1983
1983
1983
1981
1977
1972
1966
1965
1970
1983
2008
2039
2071
2096
2104
2093
2068
2038
2010
1992
1983
1979
1979
1978
1978
1978
1978
1978
1977
1977
1977
1976
1976
1977
1977
1978
1979
1979
1979
1978
1978
1978
1979
1979
1980
1980
1981
1982
1982
1982
1982
1982
1982
1982
1983
1984
1985
1987
1987
1988
1988
1989
1990
1991
1993
1996
1998
2000
2002
2004
2005
2006
2007
2008
2010
2012
2013
2013
2013
2011
2009
2006
2003
2000
1998
1995
1993
1990
1988
1986
1984
1983
1981
1980
1980
1980
1980
1980
1981
1980
1980
1979
1979
1979
1979
1980
1980
1981
1981
1981
1981
1981
1980
1981
1983
1985
1985
1980
1970
1957
1945
1936
1932
1931
1932
1932
1932
1933
1932
1932
1932
1931
1931
1932
1932
1933
1934
1934
1935
1935
1935
1935
1935
1935
1936
1937
1938
1938
1939
1939
1939
1939
1939
1939
1940
1941
1942
1942
1943
1943
1943
1942
1943
1943
1943
1944
1945
1946
1946
1947
1946
1946
1946
1946
1947
1948
1949
1949
1950
1950
1950
1950
1950
1949
1949
1949
1950
1950
1950
1951
1951
1952
1953
1955
1956
1957
1958
1958
1958
1957
1956
1955
1955
1955
1956
1956
1957
1957
1957
1957
1957
1956
1956
1957
1958
1959
1958
1955
1950
1944
1940
1941
1951
1972
2002
2037
2066
2082
2080
2059
2028
1997
1973
1960
1956
1956
1956
1956
1955
1954
1954
1953
1953
1954
1954
1955
1955
1955
1956
1956
1956
1956
1956
1956
1957
1957
1958
1959
1959
1959
1959
1959
1960
1960
1960
1961
1962
1963
1964
1964
1965
1965
1966
1967
1968
1970
1971
1973
1975
1976
1978
1979
1980
1982
1983
1985
1987
1988
1989
1990
1990
1990
1989
1988
1987
1985
1983
1981
1978
1975
1972
1969
1967
1965
1964
1964
1964
1963
1962
1961
1961
1960
1960
1960
1961
1961
1962
1962
1962
1962
1962
1962
1962
1962
1963
1963
1963
1963
1963
1963
1962
1962
1962
1962
1963
1964
1964
1964
1964
1964
1963
1963
1963
1963
1964
1964
1965
1966
1965
1965
1965
1964
1964
1964
1965
1966
1967
1967
1968
1968
1967
1966
1966
1966
1966
1967
1968
1969
1969
1969
1968
1967
1967
1967
1968
1969
1970
1970
1970
1970
1970
1970
1970
1970
1970
1971
1972
1972
1972
1972
1972
1972
1972
1971
1972
1972
1972
1973
1973
1972
1971
1970
1970
1970
1971
1973
1975
1976
1977
1977
1977
1976
1976
1975
1975
1975
1975
1975
1975
1975
1974
1973
1973
1973
1973
1974
1975
1975
1976
1976
1975
1972
1966
1960
1957
1960
1971
1993
2022
2054
2080
2092
2085
2064
2036
2008
1989
1978
1974
1973
1972
1971
1970
1970
1970
1970
1970
1970
1970
1970
1970
1970
1970
1970
1970
1971
1972
1973
1973
1973
1973
1972
1972
1973
1974
1975
1975
1976
1976
1976
1976
1977
1977
1977
1978
1979
1980
1981
1982
1983
1984
1986
1987
1989
1992
1994
1996
1997
1999
2000
2001
2001
2002
2003
2003
2004
2004
2003
2001
1998
1995
1991
1988
1985
1982
1980
1978
1976
1975
1973
1972
1971
1970
1969
1969
1970
1970
1970
1970
1970
1970
1969
1969
1969
1970
1970
1970
1971
1970
1970
1970
1969
1969
1969
1970
1971
1971
1972
1971
1971
1971
1970
1970
1971
1971
1972
1972
1973
1973
1973
1972
1972
1971
1971
1972
1972
1973
1973
1973
1973
1973
1972
1972
1972
1973
1973
1974
1974
1974
1974
1974
1973
1973
1973
1973
1974
1975
1975
1975
1975
1975
1974
1974
1974
1975
1975
1976
1976
1977
1976
1976
1975
1975
1975
1975
1975
1976
1977
1977
1977
1976
1976
1975
1975
1975
1975
1975
1975
1975
1975
1976
1977
1978
1979
1980
1981
1982
1982
1981
1980
1979
1978
1978
1978
1978
1979
1979
1979
1979
1979
1978
1978
1978
1979
1981
1981
1978
1974
1967
1961
1961
1967
1985
2013
2048
2080
2104
2109
2095
2066
2033
2004
1986
1977
1975
1975
1976
1975
1975
1974
1973
1972
1972
1972
1972
1972
1973
1973
1974
1974
1974
1973
1973
1973
1974
1974
1975
1976
1976
1976
1976
1976
1976
1976
1976
1977
1979
1980
1980
1981
1981
1981
1982
1982
1984
1985
1987
1988
1990
1992
1993
1994
1996
1997
1999
2000
2002
2003
2004
2004
2004
2003
2002
2000
1998
1997
1995
1992
1990
1986
1983
1981
1978
1977
1976
1976
1975
1975
1974
1973
1973
1972
1972
1972
1972
1973
1973
1974
1974
1974
1973
1973
1972
1972
1973
1973
1973
1974
1974
1974
1973
1973
1973
1973
1973
1973
1974
1974
1974
1974
1974
1973
1973
1973
1973
1973
1974
1974
1974
1974
1974
1973
1973
1973
1973
1974
1974
1974
1974
1974
1974
1973
1973
1973
1973
1974
1974
1974
1975
1974
1974
1974
1973
1973
1974
1974
1975
1976
1976
1975
1975
1974
1974
1974
1974
1975
1975
1976
1976
1976
1975
1975
1975
1975
1975
1976
1976
1977
1977
1976
1975
1974
1973
1972
1973
1974
1975
1977
1978
1979
1980
1979
1979
1979
1979
1979
1979
1979
1978
1978
1977
1976
1976
1976
1976
1977
1977
1978
1978
1978
1978
1978
1976
1973
1968
1962
1960
1963
1974
1994
2022
2052
2077
2090
2085
2065
2037
2010
1989
1978
1973
1972
1972
1971
1971
1971
1971
1971
1971
1971
1971
1970
1970
1970
1970
1971
1971
1972
1973
1973
1972
1972
1972
1972
1973
1973
1974
1975
1975
1976
1976
1975
1975
1976
1976
1978
1979
1981
1981
1982
1982
1983
1983
1984
1986
1988
1990
1992
1994
1995
1996
1997
1998
1999
2001
2002
2002
2002
2002
2000
1998
1996
1993
1991
1988
1986
1984
1982
1980
1978
1976
1974
1973
1973
1973
1973
1973
1972
1972
1972
1972
1972
1972
1972
1972
1972
1973
1973
1973
1973
1973
1972
1972
1972
1972
1973
1974
1974
1974
1974
1974
1973
1973
1972
1973
1973
1973
1974
1974
1973
1973
1972
1972
1972
1973
1974
1975
1975
1975
1975
1975
1974
1974
1973
1973
1974
1975
1976
1976
1976
1975
1974
1974
1974
1974
1975
1976
1976
1976
1976
1976
1975
1975
1975
1976
1977
1977
1978
1978
1977
1976
1976
1976
1976
1977
1977
1978
1978
1978
1978
1978
1978
1977
1977
1977
1978
1978
1978
1977
1977
1977
1977
1978
1979
1981
1983
1984
1985
1984
1983
1982
1981
1980
1980
1981
1981
1982
1982
1982
1981
1981
1981
1980
1981
1981
1982
1983
1981
1977
1971
1967
1966
1973
1991
2017
2048
2075
2091
2090
2072
2046
2018
1997
1986
1982
1981
1981
1981
1980
1980
1979
1979
1978
1977
1977
1978
1979
1980
1980
1980
1980
1979
1979
1978
1978
1979
1980
1981
1982
1982
1982
1982
1983
1983
1984
1985
1985
1986
1987
1987
1987
1988
1988
1989
1990
1992
1994
1996
1998
1999
2000
2002
2003
2005
2007
2008
2010
2011
2013
2014
2014
2014
2013
2011
2010
2008
2006
2004
2001
1998
1995
1992
1989
1987
1985
1984
1983
1982
1981
1980
1980
1979
1979
1979
1979
1979
1979
1980
1980
1979
1979
1978
1978
1978
1978
1978
1979
1980
1980
1980
1979
1979
1978
1979
1979
1980
1980
1980
1980
1980
1980
1980
1980
1980
1980
1980
1980
1980
1980
1980
1980
1980
1979
1979
1979
1980
1980
1981
1981
1981
1980
1980
1979
1979
1979
1980
1980
1980
1980
1980
1979
1979
1979
1978
1979
1979
1979
1980
1979
1979
1979
1978
1978
1977
1977
1977
1977
1977
1977
1978
1979
1980
1981
1982
1982
1983
1983
1983
1983
1982
1980
1979
1978
1978
1979
1979
1980
1980
1980
1980
1980
1980
1980
1980
1980
1979
1976
1971
1965
1963
1966
1979
2002
2032
2063
2086
2093
2083
2058
2030
2004
1987
1979
1976
1975
1974
1974
1974
1974
1973
1973
1973
1973
1973
1973
1974
1974
1975
1974
1974
1974
1974
1974
1974
1975
1975
1976
1976
1976
1976
1976
1976
1976
1976
1977
1978
1979
1980
1980
1980
1980
1980
1981
1982
1984
1986
1988
1990
1992
1993
1994
1995
1996
1998
2000
2002
2003
2004
2004
2004
2003
2002
2001
1999
1996
1994
1992
1989
1986
1983
1981
1978
1976
1974
1973
1972
1972
1972
1972
1972
1971
1970
1970
1969
1970
1970
1971
1971
1971
1971
1971
1971
1970
1970
1971
1971
1972
1972
1972
1972
1971
1971
1970
1970
1971
1971
1972
1972
1972
1972
1972
1972
1971
1971
1972
1972
1972
1973
1973
1973
1972
1971
1971
1971
1971
1972
1972
1972
1972
1972
1972
1972
1972
1971
1971
1971
1971
1972
1972
1972
1972
1971
1971
1971
1972
1972
1972
1973
1973
1973
1973
1973
1972
1972
1971
1972
1972
1972
1972
1971
1971
1971
1971
1973
1974
1976
1977
1978
1978
1977
1976
1976
1975
1974
1974
1974
1974
1975
1975
1974
1974
1973
1973
1973
1973
1975
1976
1975
1973
1968
1962
1957
1957
1964
1981
2007
2038
2066
2084
2085
2069
2044
2015
1992
1978
1972
1971
1971
1971
1971
1969
1968
1968
1968
1968
1969
1969
1970
1970
1970
1970
1969
1969
1969
1970
1971
1971
1972
1972
1972
1972
1972
1972
1972
1973
1974
1974
1975
1976
1976
1976
1976
1977
1978
1979
1980
1982
1983
1984
1986
1987
1988
1990
1991
1993
1994
1996
1998
1999
2000
2000
2000
2000
2000
1999
1998
1997
1995
1992
1989
1986
1983
1980
1978
1977
1976
1975
1975
1974
1973
1972
1971
1970
1970
1970
1971
1971
1972
1972
1972
1971
1971
1971
1971
1971
1972
1973
1973
1973
1973
1973
1973
1972
1972
1972
1973
1973
1973
1974
1974
1973
1973
1973
1973
1973
1974
1974
1974
1975
1974
1974
1974
1973
1973
1973
1973
1974
1975
1975
1975
1975
1974
1974
1974
1974
1975
1976
1976
1976
1976
1975
1975
1975
1975
1975
1976
1976
1976
1976
1976
1976
1976
1975
1975
1976
1976
1977
1977
1977
1977
1976
1975
1974
1974
1974
1975
1976
1978
1979
1980
1980
1980
1980
1980
1980
1980
1979
1979
1978
1978
1978
1977
1977
1977
1977
1977
1977
1978
1978
1978
1979
1979
1977
1974
1969
1964
1962
1965
1976
1996
2023
2052
2075
2086
2080
2061
2035
2009
1990
1980
1976
1975
1974
1974
1973
1973
1973
1973
1973
1973
1973
1973
1972
1973
1973
1974
1974
1975
1975
1975
1975
1975
1974
1975
1975
1976
1977
1978
1978
1978
1978
1978
1978
1978
1979
1981
1982
1983
1984
1985
1985
1986
1987
1988
1989
1991
1994
1996
1998
2000
2001
2001
2002
2003
2004
2005
2006
2006
2006
2005
2003
2001
1998
1995
1993
1991
1989
1986
1984
1982
1980
1979
1977
1976
1976
1976
1976
1977
1977
1977
1976
1975
1975
1975
1975
1977
1978
1979
1979
1979
1978
1978
1978
1978
1978
1979
1979
1979
1979
1979
1979
1979
1978
1978
1979
1979
1980
1980
1980
1980
1980
1980
1979
1979
1980
1981
1982
1982
1982
1981
1981
1981
1981
1981
1981
1982
1982
1983
1983
1983
1983
1983
1982
1982
1982
1983
1984
1984
1984
1983
1983
1982
1982
1982
1983
1983
1984
1984
1984
1984
1983
1982
1982
1982
1982
1982
1983
1984
1985
1986
1987
1988
1988
1988
1987
1987
1987
1987
1987
1986
1985
1985
1984
1984
1984
1984
1985
1985
1985
1985
1985
1985
1985
1984
1982
1978
1973
1971
1974
1986
2008
2037
2065
2086
2091
2080
2056
2029
2007
1993
1986
1984
1984
1983
1982
1982
1982
1982
1982
1981
1981
1981
1980
1981
1981
1982
1982
1983
1983
1983
1983
1983
1983
1983
1984
1985
1985
1986
1986
1986
1987
1987
1987
1987
1987
1988
1990
1991
1992
1992
1993
1994
1995
1996
1998
2000
2002
2004
2006
2008
2009
2009
2010
2011
2013
2014
2015
2016
2015
2014
2012
2010
2007
2005
2002
2000
1997
1995
1992
1990
1988
1986
1984
1983
1983
1982
1982
1982
1982
1981
1980
1980
1979
1979
1980
1980
1981
1981
1980
1980
1980
1979
1979
1979
1979
1980
1980
1981
1981
1981
1981
1980
1980
1980
1981
1981
1982
1982
1982
1982
1981
1981
1981
1981
1981
1982
1982
1982
1982
1982
1982
1981
1981
1981
1981
1982
1982
1982
1983
1982
1982
1981
1981
1980
1981
1981
1982
1982
1983
1982
1982
1982
1981
1981
1981
1981
1982
1982
1982
1981
1980
1978
1978
1978
1979
1981
1983
1985
1985
1986
1986
1985
1984
1984
1983
1983
1983
1983
1983
1983
1982
1982
1981
1981
1981
1982
1983
1984
1985
1984
1982
1977
1971
1965
1964
1969
1983
2007
2037
2067
2090
2099
2090
2066
2038
2011
1992
1982
1979
1978
1978
1977
1976
1976
1976
1976
1976
1976
1976
1976
1976
1975
1975
1975
1975
1975
1976
1977
1977
1977
1977
1977
1976
1977
1977
1978
1979
1980
1980
1980
1979
1979
1979
1979
1980
1982
1983
1984
1985
1986
1986
1987
1988
1989
1990
1992
1994
1996
1998
2000
2002
2002
2002
2002
2003
2003
2003
2002
2000
1997
1994
1991
1988
1986
1983
1981
1980
1978
1977
1976
1975
1973
1972
1972
1971
1971
1971
1972
1972
1972
1972
1971
1971
1971
1971
1972
1972
1973
1973
1972
1972
1971
1971
1971
1971
1971
1972
1972
1972
1972
1971
1971
1970
1970
1970
1970
1971
1971
1971
1970
1970
1970
1969
1969
1970
1970
1971
1971
1971
1971
1970
1970
1970
1969
1970
1970
1971
1971
1971
1971
1971
1970
1970
1970
1970
1970
1970
1970
1970
1969
1968
1968
1968
1969
1970
1972
1973
1975
1975
1975
1975
1974
1973
1972
1972
1972
1972
1973
1973
1973
1972
1972
1972
1972
1973
1973
1974
1975
1974
1972
1967
1961
1957
1957
1965
1982
2007
2035
2060
2075
2075
2060
2036
2010
1989
1977
1973
1972
1972
1971
1970
1969
1968
1968
1968
1969
1970
1970
1970
1970
1969
1969
1969
1970
1970
1971
1972
1972
1972
1972
1972
1972
1972
1973
1973
1974
1974
1975
1975
1976
1976
1976
1977
1977
1978
1980
1981
1983
1984
1985
1986
1988
1989
1991
1993
1995
1997
1998
2000
2001
2002
2002
2002
2002
2002
2001
1999
1997
1995
1993
1990
1987
1984
1982
1979
1978
1977
1976
1975
1974
1973
1973
1972
1972
1972
1973
1973
1974
1975
1975
1974
1974
1974
1974
1975
1976
1977
1977
1977
1976
1976
1976
1976
1977
1977
1977
1977
1978
1977
1977
1977
1976
1976
1976
1976
1976
1977
1978
1978
1978
1978
1978
1977
1977
1978
1978
1979
1980
1980
1980
1980
1979
1979
1979
1980
1980
1981
1981
1981
1981
1980
1980
1979
1979
1979
1979
1981
1982
1983
1984
1984
1984
1984
1984
1984
1984
1984
1984
1984
1984
1983
1983
1983
1983
1983
1984
1984
1984
1985
1985
1985
1984
1982
1978
1973
1969
1970
1979
1997
2024
2053
2078
2088
2080
2058
2032
2008
1992
1986
1984
1984
1983
1981
1980
1980
1980
1981
1981
1981
1981
1981
1980
1980
1981
1981
1982
1983
1983
1984
1984
1983
1983
1983
1983
1983
1984
1985
1986
1986
1986
1986
1986
1986
1986
1987
1988
1990
1991
1992
1994
1994
1995
1996
1998
2000
2003
2005
2007
2009
2010
2010
2011
2011
2012
2013
2014
2013
2012
2011
2008
2006
2003
2000
1997
1994
1991
1989
1987
1985
1983
1981
1979
1978
1977
1977
1977
1978
1978
1978
1978
1977
1977
1976
1976
1976
1977
1977
1977
1977
1977
1976
1976
1976
1976
1976
1977
1977
1978
1978
1978
1978
1978
1978
1978
1978
1979
1979
1979
1979
1979
1979
1979
1979
1978
1978
1978
1979
1979
1980
1980
1979
1979
1978
1978
1978
1978
1978
1978
1978
1977
1977
1976
1975
1976
1976
1978
1979
1980
1980
1981
1981
1980
1979
1978
1978
1977
1978
1978
1979
1979
1979
1978
1978
1978
1978
1979
1980
1980
1981
1980
1977
1971
1965
1962
1964
1975
1996
2024
2053
2076
2085
2078
2057
2030
2005
1988
1980
1977
1977
1976
1975
1974
1973
1973
1973
1973
1974
1975
1975
1975
1974
1974
1974
1974
1974
1975
1976
1976
1976
1976
1976
1976
1976
1976
1977
1978
1979
1979
1980
1980
1980
1980
1980
1981
1982
1983
1984
1986
1987
1988
1989
1990
1991
1993
1995
1998
1999
2001
2002
2003
2003
2004
2004
2004
2003
2003
2002
2000
1997
1994
1991
1987
1984
1981
1979
1978
1977
1976
1974
1973
1972
1971
1970
1970
1970
1971
1971
1972
1972
1972
1971
1971
1970
1970
1971
1971
1972
1972
1972
1972
1971
1971
1971
1971
1971
1972
1972
1973
1973
1973
1972
1971
1971
1971
1972
1972
1973
1973
1973
1973
1972
1972
1972
1972
1972
1973
1973
1974
1973
1973
1972
1971
1971
1972
1972
1973
1974
1974
1974
1974
1973
1973
1972
1972
1972
1972
1972
1972
1972
1972
1972
1972
1972
1973
1975
1976
1977
1977
1977
1977
1976
1975
1974
1973
1973
1974
1975
1976
1976
1976
1975
1974
1974
1974
1975
1976
1976
1974
1970
1964
1960
1960
1967
1985
2010
2039
2065
2080
2080
2065
2040
2013
1991
1978
1973
1973
1973
1974
1973
1972
1971
1970
1970
1970
1970
1971
1972
1972
1973
1973
1973
1973
1972
1972
1972
1973
1974
1975
1975
1975
1975
1975
1974
1974
1975
1976
1977
1978
1979
1979
1980
1980
1980
1981
1982
1983
1985
1987
1989
1990
1991
1992
1993
1995
1996
1998
2000
2001
2002
2003
2002
2002
2000
1999
1997
1995
1993
1990
1988
1985
1983
1980
1978
1976
1975
1975
1974
1974
1973
1973
1972
1971
1971
1971
1971
1972
1973
1973
1973
1973
1973
1973
1973
1973
1973
1973
1974
1974
1974
1974
1973
1973
1973
1973
1973
1974
1974
1974
1974
1974
1973
1973
1973
1973
1973
1974
1974
1975
1974
1974
1974
1974
1973
1974
1974
1974
1975
1975
1975
1975
1975
1975
1975
1975
1975
1976
1976
1977
1977
1977
1977
1977
1976
1976
1977
1977
1978
1978
1978
1978
1978
1977
1977
1977
1978
1979
1979
1979
1979
1978
1978
1977
1977
1977
1977
1978
1979
1981
1982
1983
1983
1983
1983
1983
1983
1984
1984
1983
1983
1983
1982
1982
1981
1981
1982
1982
1983
1984
1984
1984
1985
1984
1983
1980
1976
1972
1970
1975
1987
2009
2036
2062
2081
2086
2076
2054
2030
2008
1994
1987
1984
1983
1982
1982
1982
1982
1982
1982
1983
1982
1982
1981
1981
1981
1982
1982
1983
1983
1984
1984
1984
1984
1984
1984
1984
1985
1985
1986
1986
1986
1986
1985
1985
1986
1987
1989
1990
1992
1993
1993
1994
1994
1995
1996
1998
2001
2003
2005
2007
2008
2009
2011
2012
2013
2013
2014
2015
2015
2014
2013
2011
2008
2005
2002
1999
1997
1995
1993
1991
1989
1988
1986
1984
1983
1982
1982
1982
1982
1983
1983
1982
1982
1981
1981
1981
1982
1982
1982
1982
1982
1981
1981
1980
1980
1981
1981
1982
1982
1982
1982
1982
1981
1981
1981
1980
1981
1981
1982
1983
1983
1982
1982
1981
1981
1981
1982
1982
1983
1983
1983
1982
1982
1982
1981
1981
1982
1982
1982
1982
1982
1982
1982
1982
1982
1982
1982
1982
1982
1982
1982
1982
1981
1980
1980
1980
1981
1981
1981
1981
1981
1980
1980
1980
1981
1982
1984
1985
1986
1987
1986
1985
1984
1983
1982
1982
1982
1983
1983
1983
1983
1982
1982
1982
1982
1982
1983
1984
1985
1984
1981
1977
1971
1967
1969
1979
1998
2025
2054
2077
2088
2081
2061
2035
2010
1993
1985
1982
1982
1981
1980
1979
1978
1977
1977
1977
1977
1978
1978
1978
1978
1978
1977
1977
1978
1978
1979
1980
1980
1981
1980
1980
1980
1980
1980
1981
1981
1982
1983
1983
1983
1983
1983
1983
1984
1985
1986
1988
1989
1991
1992
1993
1994
1995
1997
1999
2001
2003
2005
2006
2007
2007
2007
2007
2006
2005
2004
2003
2001
1998
1995
1991
1988
1985
1982
1981
1980
1979
1977
1976
1975
1974
1973
1973
1973
1973
1974
1974
1974
1974
1974
1973
1972
1972
1972
1972
1973
1973
1974
1974
1974
1973
1972
1972
1972
1972
1973
1973
1974
1974
1974
1974
1974
1974
1974
1974
1974
1974
1974
1974
1974
1974
1973
1973
1973
1973
1974
1974
1975
1974
1974
1973
1973
1972
1971
1971
1971
1972
1973
1973
1974
1974
1973
1973
1973
1973
1973
1974
1974
1974
1974
1973
1973
1973
1973
1973
1974
1975
1975
1975
1974
1974
1974
1973
1973
1972
1972
1972
1972
1972
1971
1971
1972
1973
1974
1975
1976
1977
1977
1977
1977
1976
1975
1974
1974
1974
1974
1975
1975
1975
1975
1974
1974
1973
1973
1974
1975
1976
1975
1973
1969
1963
1959
1960
1968
1985
2011
2040
2064
2079
2079
2062
2038
2011
1990
1977
1972
1972
1972
1972
1971
1970
1969
1969
1969
1969
1969
1970
1971
1971
1971
1971
1970
1970
1970
1971
1971
1972
1973
1973
1973
1973
1973
1973
1973
1974
1975
1975
1976
1976
1977
1977
1977
1978
1978
1979
1981
1982
1984
1985
1986
1987
1988
1989
1991
1993
1995
1997
1999
2000
2000
2001
2001
2001
2000
1999
1998
1997
1995
1992
1989
1986
1983
1981
1979
1977
1976
1976
1975
1974
1973
1973
1972
1971
1971
1972
1972
1972
1973
1973
1973
1973
1972
1972
1973
1973
1973
1974
1974
1974
1973
1973
1973
1973
1973
1974
1974
1974
1974
1975
1974
1974
1974
1973
1973
1973
1973
1974
1974
1974
1974
1974
1973
1973
1973
1974
1974
1975
1975
1975
1975
1974
1974
1974
1974
1975
1975
1976
1976
1976
1976
1976
1976
1976
1976
1977
1978
1978
1979
1979
1978
1978
1977
1977
1977
1977
1978
1979
1979
1980
1979
1979
1979
1979
1979
1979
1980
1980
1980
1981
1981
1980
1980
1979
1978
1978
1978
1978
1979
1979
1980
1980
1981
1982
1983
1984
1985
1986
1986
1985
1984
1984
1983
1982
1981
1981
1981
1982
1982
1983
1983
1982
1982
1981
1981
1982
1983
1983
1981
1977
1972
1968
1969
1977
1995
2020
2048
2073
2085
2082
2063
2038
2013
1994
1984
1981
1981
1981
1981
1981
1980
1979
1978
1978
1978
1978
1979
1979
1980
1980
1980
1980
1980
1980
1981
1981
1982
1982
1983
1983
1983
1983
1983
1983
1983
1984
1985
1986
1987
1988
1989
1990
1990
1990
1991
1993
1994
1996
1998
1999
2000
2002
2003
2005
2007
2009
2011
2013
2014
2015
2016
2016
2016
2015
2013
2012
2010
2009
2007
2004
2001
1998
1995
1992
1990
1988
1987
1986
1986
1985
1984
1983
1982
1982
1982
1982
1983
1983
1984
1984
1983
1983
1983
1982
1982
1982
1983
1983
1984
1984
1984
1984
1983
1983
1983
1983
1984
1985
1985
1985
1985
1984
1984
1984
1984
1984
1985
1985
1986
1986
1985
1985
1984
1984
1984
1984
1984
1985
1985
1986
1986
1985
1984
1984
1984
1984
1985
1985
1985
1985
1985
1984
1984
1983
1983
1983
1984
1985
1986
1986
1986
1985
1984
1984
1984
1984
1984
1985
1985
1985
1984
1983
1982
1982
1983
1984
1986
1988
1989
1989
1989
1989
1988
1987
1987
1987
1987
1987
1986
1986
1985
1985
1984
1985
1985
1985
1986
1986
1987
1987
1987
1984
1980
1974
1969
1969
1976
1991
2016
2046
2073
2090
2092
2078
2052
2026
2004
1991
1985
1984
1983
1981
1980
1979
1979
1979
1979
1980
1980
1980
1980
1980
1979
1979
1979
1980
1980
1981
1982
1982
1982
1982
1982
1982
1982
1982
1983
1983
1984
1985
1985
1985
1985
1986
1986
1987
1988
1989
1991
1992
1993
1994
1995
1996
1997
1999
2001
2003
2005
2007
2007
2008
2008
2009
2009
2010
2010
2009
2008
2006
2003
2000
1996
1993
1990
1988
1986
1985
1983
1982
1980
1979
1978
1978
1977
1977
1978
1978
1978
1978
1977
1977
1976
1976
1976
1977
1977
1977
1977
1977
1977
1977
1976
1976
1976
1977
1977
1978
1978
1978
1978
1977
1977
1977
1977
1977
1978
1978
1979
1979
1978
1978
1977
1977
1978
1978
1979
1979
1979
1979
1979
1978
1978
1978
1978
1978
1978
1979
1980
1980
1980
1979
1979
1978
1978
1978
1979
1979
1980
1980
1980
1979
1979
1978
1978
1979
1980
1980
1980
1980
1980
1979
1979
1979
1979
1980
1980
1981
1981
1981
1981
1980
1980
1979
1979
1979
1978
1978
1978
1978
1979
1979
1980
1981
1982
1982
1983
1984
1984
1984
1983
1982
1981
1980
1979
1979
1980
1980
1981
1981
1981
1980
1979
1979
1979
1980
1981
1981
1978
1973
1968
1964
1966
1976
1996
2023
2051
2075
2087
2082
2062
2036
2010
1990
1980
1976
1977
1977
1977
1976
1975
1974
1974
1973
1974
1974
1975
1975
1976
1976
1976
1976
1976
1976
1975
1976
1976
1977
1978
1978
1978
1978
1978
1978
1978
1979
1980
1981
1982
1982
1982
1982
1983
1983
1984
1985
1986
1988
1990
1991
1993
1994
1995
1997
1998
2000
2002
2004
2005
2006
2007
2007
2007
2006
2005
2004
2002
2000
1998
1995
1992
1989
1986
1984
1982
1981
1981
1980
1980
1979
1978
1977
1977
1976
1976
1976
1977
1977
1978
1978
1978
1977
1977
1977
1977
1977
1978
1978
1978
1978
1978
1978
1978
1978
1978
1978
1979
1979
1979
1979
1979
1978
1978
1978
1978
1978
1979
1979
1980
1980
1979
1979
1979
1979
1979
1979
1979
1979
1980
1980
1980
1980
1980
1979
1979
1980
1980
1981
1981
1981
1981
1981
1980
1980
1981
1982
1983
1983
1984
1983
1982
1982
1981
1982
1982
1983
1983
1984
1984
1984
1983
1983
1982
1982
1982
1982
1982
1982
1982
1983
1984
1985
1985
1986
1986
1987
1988
1989
1988
1988
1986
1985
1984
1984
1985
1985
1986
1986
1986
1985
1983
1982
1981
1981
1983
1983
1981
1976
1971
1966
1967
1974
1991
2017
2046
2070
2083
2079
2061
2036
2011
1993
1984
1981
1980
1980
1979
1979
1978
1978
1978
1978
1978
1978
1978
1978
1979
1979
1980
1980
1980
1980
1980
1979
1980
1981
1982
1984
1984
1984
1984
1983
1983
1983
1984
1985
1986
1987
1988
1989
1989
1990
1990
1991
1991
1993
1995
1997
2000
2002
2004
2005
2006
2007
2009
2010
2012
2013
2014
2014
2014
2013
2012
2010
2008
2006
2004
2001
1999
1996
1993
1990
1987
1984
1983
1982
1982
1982
1982
1982
1981
1981
1980
1980
1980
1980
1980
1981
1981
1981
1981
1981
1980
1980
1980
1980
1981
1981
1982
1982
1982
1982
1981
1981
1980
1980
1981
1982
1983
1983
1983
1982
1982
1982
1982
1983
1983
1983
1983
1983
1982
1982
1981
1981
1981
1982
1982
1982
1982
1982
1982
1982
1982
1982
1982
1981
1981
1981
1982
1982
1982
1982
1982
1981
1981
1981
1982
1983
1983
1983
1982
1981
1980
1980
1980
1979
1980
1981
1982
1983
1984
1985
1985
1985
1985
1985
1985
1984
1983
1983
1982
1982
1981
1981
1981
1981
1982
1982
1983
1983
1982
1983
1983
1983
1981
1977
1972
1967
1966
1972
1987
2011
2040
2067
2086
2088
2074
2049
2023
2001
1987
1981
1979
1978
1977
1977
1977
1977
1977
1977
1976
1976
1976
1976
1976
1976
1977
1978
1978
1978
1978
1978
1977
1977
1977
1978
1978
1979
1979
1979
1979
1979
1980
1980
1980
1980
1980
1981
1983
1984
1985
1985
1986
1987
1988
1990
1992
1994
1996
1998
1999
2000
2001
2001
2002
2003
2004
2005
2006
2006
2004
2002
2000
1997
1994
1992
1989
1986
1984
1981
1979
1977
1974
1973
1972
1971
1971
1972
1972
1971
1971
1970
1970
1970
1970
1970
1970
1971
1971
1971
1971
1971
1970
1970
1970
1971
1971
1971
1972
1972
1971
1971
1970
1970
1971
1971
1972
1973
1973
1973
1973
1973
1973
1973
1973
1973
1973
1974
1974
1974
1974
1974
1974
1973
1974
1974
1975
1975
1975
1975
1975
1974
1973
1973
1973
1974
1974
1975
1975
1975
1975
1975
1974
1974
1974
1975
1975
1976
1976
1976
1975
1975
1974
1974
1974
1973
1974
1974
1974
1974
1975
1975
1976
1977
1978
1979
1979
1980
1980
1979
1978
1977
1976
1975
1975
1975
1975
1976
1976
1976
1976
1975
1975
1974
1975
1976
1976
1975
1971
1965
1960
1959
1966
1983
2009
2040
2067
2085
2086
2071
2045
2016
1993
1979
1973
1972
1972
1972
1971
1971
1970
1970
1969
1969
1969
1970
1970
1971
1971
1972
1972
1971
1971
1970
1970
1971
1971
1972
1973
1973
1973
1972
1972
1972
1972
1973
1974
1975
1976
1976
1976
1977
1977
1978
1978
1980
1981
1983
1985
1987
1989
1990
1991
1992
1993
1994
1996
1997
1999
2000
2000
2000
1998
1997
1995
1993
1992
1990
1988
1985
1982
1979
1977
1975
1973
1972
1972
1971
1971
1970
1970
1969
1969
1969
1968
1968
1968
1968
1969
1969
1969
1969
1969
1969
1969
1969
1970
1971
1971
1971
1971
1971
1970
1970
1970
1970
1971
1971
1971
1972
1971
1971
1971
1971
1971
1971
1972
1972
1972
1973
1972
1972
1972
1971
1972
1972
1973
1973
1974
1974
1973
1973
1972
1972
1972
1972
1973
1973
1974
1974
1974
1974
1973
1973
1973
1974
1975
1975
1975
1975
1975
1974
1974
1974
1975
1975
1976
1977
1977
1977
1976
1975
1974
1974
1973
1973
1973
1974
1975
1976
1977
1978
1978
1979
1979
1980
1980
1981
1980
1980
1979
1978
1977
1977
1977
1977
1978
1978
1978
1978
1978
1978
1978
1978
1978
1977
1973
1968
1964
1964
1970
1985
2009
2038
2064
2081
2083
2070
2047
2021
1999
1984
1978
1976
1976
1977
1977
1977
1977
1977
1976
1976
1976
1975
1976
1976
1977
1978
1978
1978
1978
1978
1978
1978
1978
1979
1980
1981
1982
1982
1982
1981
1981
1981
1981
1982
1983
1984
1985
1986
1986
1987
1987
1988
1990
1991
1993
1995
1997
1998
2000
2001
2003
2004
2005
2007
2008
2009
2010
2010
2009
2008
2007
2005
2002
2000
1998
1996
1993
1991
1989
1986
1984
1982
1981
1980
1980
1980
1980
1979
1978
1978
1978
1978
1978
1978
1979
1980
1980
1981
1981
1981
1981
1980
1980
1979
1980
1981
1981
1981
1981
1981
1980
1980
1980
1980
1981
1982
1982
1982
1982
1981
1981
1981
1981
1981
1982
1983
1983
1983
1983
1983
1983
1983
1983
1983
1984
1984
1984
1983
1983
1983
1983
1983
1983
1983
1983
1984
1985
1985
1985
1985
1985
1984
1984
1984
1984
1985
1985
1986
1986
1985
1985
1984
1984
1983
1983
1985
1986
1988
1989
1989
1989
1989
1989
1989
1988
1988
1988
1987
1987
1987
1987
1987
1986
1986
1986
1986
1986
1986
1986
1987
1987
1987
1985
1982
1977
1973
1974
1982
2000
2027
2055
2079
2090
2083
2063
2038
2014
1998
1990
1987
1986
1985
1984
1983
1983
1983
1983
1984
1984
1984
1983
1983
1983
1984
1985
1985
1986
1985
1985
1985
1985
1985
1985
1986
1986
1987
1987
1988
1988
1988
1988
1988
1988
1989
1990
1992
1993
1994
1995
1995
1995
1996
1997
1999
2002
2005
2007
2008
2009
2010
2011
2012
2013
2014
2016
2017
2017
2016
2015
2012
2009
2006
2004
2001
1999
1996
1994
1992
1989
1987
1985
1983
1982
1982
1983
1983
1984
1983
1983
1982
1981
1981
1981
1981
1981
1982
1982
1982
1982
1981
1980
1980
1980
1980
1981
1982
1982
1982
1981
1981
1980
1981
1981
1982
1983
1983
1983
1983
1983
1983
1982
1981
1981
1981
1982
1983
1983
1983
1983
1982
1981
1981
1981
1982
1983
1983
1983
1983
1982
1981
1981
1980
1981
1981
1982
1983
1983
1983
1983
1983
1983
1982
1982
1981
1981
1980
1980
1981
1981
1982
1983
1984
1985
1985
1986
1986
1986
1986
1985
1984
1984
1983
1983
1983
1983
1983
1983
1983
1983
1983
1983
1984
1984
1985
1984
1980
1975
1970
1968
1973
1988
2013
2043
2071
2089
2091
2076
2050
2023
2001
1988
1983
1982
1982
1981
1981
1980
1979
1979
1979
1979
1979
1979
1979
1979
1980
1980
1980
1980
1980
1979
1978
1978
1979
1980
1980
1981
1981
1981
1981
1980
1981
1981
1981
1982
1983
1983
1984
1985
1985
1986
1987
1988
1989
1991
1993
1995
1997
1998
2000
2001
2002
2003
2004
2006
2008
2009
2010
2010
2009
2007
2005
2002
2000
1997
1995
1992
1989
1986
1983
1980
1978
1977
1976
1976
1976
1976
1975
1975
1974
1973
1973
1972
1972
1973
1973
1974
1974
1974
1974
1974
1973
1973
1973
1973
1974
1974
1974
1974
1974
1973
1973
1973
1974
1975
1976
1976
1976
1975
1974
1974
1973
1974
1974
1975
1976
1976
1976
1976
1975
1974
1974
1974
1974
1974
1975
1975
1975
1975
1974
1974
1974
1974
1975
1975
1976
1976
1976
1975
1975
1974
1974
1974
1974
1974
1974
1974
1974
1973
1972
1972
1972
1973
1975
1977
1979
1980
1980
1979
1979
1978
1977
1976
1976
1976
1977
1977
1977
1978
1977
1976
1976
1975
1976
1977
1978
1979
1978
1974
1969
1962
1958
1960
1970
1991
2019
2050
2076
2089
2085
2064
2037
2010
1990
1979
1975
1975
1974
1974
1973
1972
1972
1971
1971
1971
1972
1972
1972
1972
1972
1971
1971
1971
1972
1973
1973
1974
1974
1974
1974
1974
1974
1974
1975
1975
1976
1976
1977
1977
1978
1979
1979
1980
1981
1982
1983
1985
1986
1987
1988
1989
1990
1992
1995
1997
1999
2000
2002
2003
2003
2003
2004
2003
2003
2002
2000
1998
1995
1992
1989
1986
1984
1981
1979
1977
1976
1975
1974
1973
1972
1972
1971
1971
1971
1971
1972
1972
1972
1972
1972
1972
1971
1971
1971
1972
1973
1973
1973
1973
1973
1973
1973
1973
1974
1974
1974
1974
1973
1973
1973
1972
1972
1972
1972
1973
1974
1974
1974
1973
1973
1972
1972
1972
1972
1973
1973
1974
1974
1973
1973
1972
1972
1972
1973
1974
1974
1974
1974
1973
1973
1973
1972
1972
1973
1973
1974
1974
1974
1974
1973
1972
1972
1972
1973
1974
1974
1975
1975
1975
1974
1974
1973
1973
1973
1974
1974
1974
1973
1973
1974
1975
1976
1977
1978
1979
1979
1979
1978
1977
1976
1975
1975
1975
1975
1975
1976
1976
1976
1975
1975
1975
1975
1975
1976
1977
1977
1975
1971
1965
1960
1959
1966
1983
2009
2039
2067
2085
2087
2071
2046
2017
1994
1980
1974
1973
1973
1973
1972
1971
1971
1970
1970
1970
1970
1971
1972
1972
1973
1973
1973
1972
1972
1972
1972
1973
1973
1974
1974
1974
1974
1974
1974
1975
1975
1976
1977
1978
1978
1979
1979
1980
1980
1981
1982
1984
1985
1987
1989
1991
1992
1993
1993
1995
1996
1998
2000
2002
2003
2003
2003
2003
2003
2002
2001
1999
1997
1995
1992
1989
1987
1984
1982
1980
1979
1978
1977
1976
1975
1975
1974
1974
1973
1973
1973
1974
1974
1975
1975
1975
1975
1974
1974
1974
1974
1975
1975
1976
1976
1975
1975
1974
1974
1974
1975
1976
1976
1977
1977
1977
1976
1976
1975
1975
1975
1976
1977
1977
1977
1977
1977
1976
1976
1977
1977
1978
1978
1979
1979
1978
1978
1978
1977
1977
1978
1978
1979
1980
1980
1980
1979
1979
1978
1978
1978
1979
1979
1980
1980
1979
1979
1979
1979
1979
1979
1980
1981
1981
1982
1982
1981
1981
1981
1981
1981
1981
1982
1982
1982
1982
1982
1981
1981
1980
1981
1981
1982
1982
1982
1982
1981
1980
1980
1979
1980
1980
1981
1982
1983
1984
1984
1985
1985
1985
1985
1986
1986
1985
1984
1983
1982
1982
1981
1981
1981
1982
1982
1983
1983
1983
1983
1983
1984
1983
1981
1978
1972
1968
1967
1973
1987
2011
2040
2067
2086
2090
2078
2054
2027
2004
1988
1981
1979
1979
1979
1979
1978
1978
1978
1978
1977
1977
1977
1977
1978
1978
1978
1979
1979
1979
1979
1978
1978
1979
1979
1980
1981
1981
1981
1981
1981
1981
1981
1982
1983
1983
1984
1985
1985
1985
1986
1987
1988
1989
1991
1992
1994
1996
1998
1999
2000
2001
2002
2004
2005
2007
2009
2010
2011
2010
2009
2007
2004
2002
2000
1999
1997
1994
1992
1988
1985
1983
1981
1980
1980
1980
1980
1980
1980
1979
1978
1978
1977
1977
1977
1978
1979
1980
1980
1980
1979
1979
1979
1979
1979
1979
1980
1980
1980
1980
1980
1979
1979
1979
1980
1980
1981
1981
1980
1980
1980
1980
1979
1979
1980
1980
1980
1981
1981
1981
1980
1980
1980
1980
1981
1981
1982
1982
1982
1982
1982
1982
1982
1982
1982
1982
1983
1983
1983
1982
1982
1981
1981
1982
1982
1983
1983
1984
1984
1983
1983
1983
1982
1982
1983
1983
1983
1984
1985
1985
1985
1984
1983
1983
1983
1984
1985
1985
1986
1985
1985
1984
1984
1984
1984
1985
1985
1985
1984
1983
1982
1982
1983
1984
1986
1988
1989
1990
1990
1989
1988
1988
1987
1986
1986
1986
1986
1986
1986
1986
1986
1986
1985
1985
1986
1986
1987
1988
1988
1986
1982
1976
1971
1971
1979
1997
2025
2056
2082
2094
2088
2067
2040
2015
1998
1990
1987
1987
1986
1984
1983
1982
1982
1982
1983
1983
1984
1984
1984
1984
1983
1983
1983
1983
1984
1985
1986
1986
1986
1986
1986
1985
1985
1986
1986
1987
1987
1988
1989
1990
1990
1991
1991
1992
1993
1994
1996
1998
2000
2001
2002
2003
2004
2006
2009
2011
2014
2015
2017
2017
2018
2018
2018
2018
2019
2018
2017
2015
2012
2008
2005
2001
1998
1996
1993
1991
1989
1987
1985
1984
1983
1982
1981
1981
1981
1981
1982
1982
1982
1981
1981
1980
1980
1980
1980
1980
1980
1980
1980
1980
1980
1980
1980
1980
1980
1981
1982
1982
1982
1982
1981
1981
1981
1981
1981
1981
1982
1983
1983
1983
1982
1981
1981
1981
1982
1982
1983
1983
1982
1982
1981
1981
1981
1980
1981
1981
1981
1982
1982
1982
1982
1981
1981
1980
1980
1980
1981
1982
1982
1982
1981
1980
1980
1980
1980
1981
1982
1982
1982
1982
1981
1981
1981
1980
1981
1981
1981
1981
1981
1980
1979
1978
1978
1978
1979
1981
1983
1984
1985
1985
1985
1984
1982
1981
1981
1981
1982
1982
1982
1982
1981
1980
1980
1980
1980
1981
1982
1983
1983
1981
1977
1971
1965
1962
1966
1979
2002
2033
2062
2085
2092
2082
2058
2030
2005
1989
1982
1979
1978
1977
1976
1975
1974
1974
1974
1974
1975
1975
1975
1975
1974
1974
1973
1974
1974
1975
1975
1976
1976
1976
1976
1975
1975
1976
1976
1977
1977
1978
1978
1978
1978
1978
1978
1978
1979
1980
1981
1982
1984
1985
1986
1987
1988
1990
1992
1994
1996
1998
1999
2000
2001
2001
2002
2002
2003
2002
2001
2000
1997
1994
1990
1987
1983
1980
1977
1975
1973
1972
1971
1970
1969
1968
1967
1967
1966
1966
1967
1967
1967
1967
1966
1966
1966
1966
1966
1966
1967
1967
1967
1967
1967
1966
1966
1966
1966
1967
1967
1967
1967
1967
1967
1967
1967
1967
1967
1968
1968
1969
1969
1969
1968
1968
1967
1967
1967
1968
1968
1968
1969
1969
1969
1968
1968
1968
1968
1968
1969
1969
1969
1969
1968
1968
1968
1968
1969
1969
1970
1970
1970
1970
1970
1969
1969
1969
1969
1970
1970
1971
1971
1971
1970
1970
1970
1970
1970
1971
1972
1972
1973
1972
1972
1972
1971
1971
1971
1971
1972
1971
1971
1971
1971
1971
1972
1973
1975
1976
1977
1978
1978
1977
1976
1974
1974
1973
1973
1974
1975
1975
1975
1975
1974
1974
1973
1973
1974
1975
1976
1976
1972
1967
1961
1957
1959
1970
1991
2021
2052
2079
2091
2086
2065
2036
2008
1987
1976
1972
1972
1972
1971
1970
1969
1968
1968
1968
1969
1970
1970
1971
1971
1971
1970
1970
1970
1970
1970
1971
1972
1973
1973
1973
1973
1973
1973
1973
1974
1975
1975
1976
1976
1976
1977
1977
1977
1978
1979
1980
1982
1983
1985
1986
1987
1989
1990
1992
1994
1996
1998
2000
2001
2002
2002
2002
2001
2001
2000
1999
1998
1996
1993
1990
1987
1984
1981
1979
1977
1975
1974
1974
1973
1972
1971
1970
1969
1969
1969
1969
1970
1970
1970
1970
1970
1970
1970
1970
1970
1971
1971
1972
1972
1972
1972
1971
1971
1971
1971
1971
1972
1972
1972
1972
1971
1971
1971
1970
1971
1971
1972
1972
1972
1972
1971
1971
1971
1971
1972
1972
1973
1973
1973
1973
1972
1972
1972
1972
1972
1973
1973
1974
1974
1974
1973
1973
1972
1972
1972
1973
1974
1974
1974
1974
1974
1973
1973
1973
1973
1973
1974
1974
1975
1975
1974
1974
1973
1973
1973
1974
1974
1974
1974
1974
1973
1973
1973
1974
1974
1975
1975
1975
1975
1975
1974
1973
1972
1972
1972
1972
1973
1974
1976
1977
1978
1978
1978
1978
1977
1977
1977
1977
1977
1976
1975
1975
1974
1974
1974
1975
1975
1976
1976
1975
1975
1975
1975
1973
1970
1966
1961
1959
1962
1974
1994
2021
2050
2073
2084
2078
2058
2031
2005
1986
1975
1971
1971
1971
1971
1971
1971
1971
1971
1970
1970
1969
1969
1969
1970
1970
1971
1971
1972
1972
1971
1971
1971
1971
1971
1972
1973
1974
1974
1974
1974
1974
1974
1974
1975
1976
1977
1978
1979
1979
1980
1980
1981
1982
1983
1985
1987
1989
1991
1992
1994
1995
1996
1997
1998
2000
2001
2002
2003
2002
2001
1999
1997
1995
1992
1990
1988
1986
1983
1981
1979
1976
1975
1974
1973
1973
1973
1973
1973
1972
1972
1971
1971
1971
1971
1972
1972
1973
1973
1973
1973
1973
1973
1973
1973
1973
1973
1974
1974
1974
1974
1974
1973
1973
1973
1974
1974
1974
1974
1974
1974
1973
1973
1972
1972
1973
1973
1974
1974
1974
1974
1973
1973
1973
1973
1973
1973
1974
1974
1974
1974
1974
1974
1974
1974
1975
1975
1976
1976
1975
1975
1975
1974
1974
1975
1976
1976
1977
1977
1977
1976
1976
1976
1976
1976
1977
1977
1977
1977
1977
1977
1976
1976
1977
1977
1978
1978
1978
1978
1978
1978
1977
1977
1977
1977
1978
1979
1979
1979
1979
1979
1978
1977
1977
1977
1977
1978
1979
1980
1981
1981
1982
1982
1983
1983
1983
1982
1982
1982
1981
1981
1981
1980
1980
1980
1981
1981
1982
1982
1983
1983
1983
1982
1981
1977
1972
1968
1967
1971
1984
2007
2035
2062
2081
2087
2076
2053
2027
2004
1989
1982
1980
1979
1979
1979
1978
1979
1979
1979
1979
1979
1978
1978
1977
1977
1978
1979
1979
1980
1980
1980
1979
1979
1979
1980
1981
1981
1982
1982
1982
1982
1982
1982
1983
1984
1984
1985
1986
1987
1987
1988
1989
1989
1991
1992
1994
1996
1999
2001
2002
2003
2004
2005
2006
2007
2009
2010
2011
2011
2011
2010
2008
2006
2003
2001
1998
1996
1993
1990
1988
1985
1983
1981
1980
1979
1979
1979
1979
1979
1978
1977
1977
1976
1976
1976
1977
1978
1978
1978
1978
1977
1977
1976
1976
1977
1978
1978
1979
1979
1979
1978
1978
1978
1978
1979
1979
1980
1980
1980
1980
1979
1979
1978
1978
1977
1978
1978
1979
1979
1979
1979
1978
1978
1978
1978
1978
1978
1979
1979
1980
1979
1978
1978
1977
1977
1978
1979
1979
1980
1980
1980
1979
1978
1978
1978
1978
1979
1980
1980
1980
1979
1979
1978
1978
1978
1979
1980
1980
1980
1980
1980
1979
1979
1978
1978
1979
1979
1979
1980
1980
1981
1982
1982
1983
1984
1984
1983
1982
1981
1980
1980
1980
1980
1980
1980
1980
1980
1980
1981
1981
1980
1980
1981
1981
1980
1978
1974
1968
1966
1969
1980
2001
2029
2057
2079
2086
2076
2053
2027
2004
1989
1982
1980
1979
1978
1977
1977
1977
1977
1977
1976
1976
1975
1976
1976
1977
1978
1978
1979
1979
1978
1978
1978
1978
1978
1979
1980
1980
1980
1980
1980
1980
1980
1981
1982
1983
1984
1985
1985
1986
1986
1987
1987
1988
1990
1992
1994
1996
1998
2000
2001
2003
2004
2005
2007
2009
2010
2012
2012
2012
2011
2009
2007
2005
2003
2001
1999
1996
1993
1989
1986
1983
1980
1979
1978
1977
1977
1977
1977
1976
1975
1974
1974
1974
1974
1975
1975
1976
1976
1976
1975
1975
1974
1974
1974
1975
1976
1976
1977
1976
1976
1975
1975
1975
1975
1976
1977
1977
1977
1977
1977
1976
1976
1976
1976
1977
1977
1978
1978
1978
1977
1977
1976
1976
1975
1976
1976
1977
1977
1976
1976
1975
1975
1975
1976
1976
1977
1977
1976
1976
1975
1975
1975
1975
1975
1976
1976
1977
1976
1976
1976
1975
1975
1975
1975
1975
1975
1975
1975
1975
1975
1975
1975
1976
1977
1979
1980
1981
1981
1980
1979
1977
1976
1976
1976
1977
1977
1977
1977
1977
1976
1976
1976
1976
1977
1978
1978
1977
1974
1968
1963
1960
1964
1976
1999
2029
2058
2081
2088
2077
2053
2025
2000
1985
1978
1976
1975
1974
1973
1972
1972
1971
1971
1971
1971
1972
1972
1973
1973
1973
1973
1973
1972
1973
1973
1974
1975
1975
1975
1975
1975
1974
1974
1975
1975
1976
1977
1978
1979
1979
1980
1980
1980
1981
1982
1984
1986
1987
1989
1990
1992
1993
1994
1996
1998
2000
2002
2004
2005
2006
2006
2006
2006
2005
2004
2003
2001
1999
1996
1993
1990
1986
1983
1981
1979
1978
1977
1976
1975
1974
1973
1972
1971
1971
1971
1972
1973
1973
1973
1973
1972
1972
1972
1972
1972
1973
1973
1974
1974
1974
1973
1972
1972
1972
1972
1973
1974
1974
1975
1974
1974
1973
1973
1973
1973
1974
1975
1975
1975
1975
1974
1974
1973
1973
1974
1974
1975
1975
1975
1975
1974
1974
1973
1973
1974
1974
1975
1975
1975
1975
1974
1974
1973
1973
1974
1974
1975
1975
1975
1975
1975
1974
1974
1974
1975
1975
1976
1976
1976
1976
1976
1975
1975
1975
1975
1975
1975
1975
1975
1974
1974
1974
1974
1976
1978
1979
1980
1981
1981
1980
1979
1978
1977
1977
1977
1977
1978
1978
1979
1978
1978
1977
1977
1977
1977
1978
1979
1980
1978
1974
1968
1962
1960
1965
1979
2003
2033
2062
2084
2091
2080
2055
2027
2002
1986
1978
1976
1975
1975
1974
1973
1972
1972
1972
1972
1973
1974
1974
1975
1975
1974
1974
1973
1974
1974
1975
1975
1976
1976
1976
1976
1976
1976
1976
1977
1978
1978
1979
1979
1980
1980
1980
1980
1980
1981
1983
1984
1985
1987
1988
1989
1990
1991
1993
1995
1997
1999
2001
2002
2003
2003
2004
2004
2005
2005
2004
2003
2001
1998
1995
1992
1989
1986
1983
1981
1980
1978
1977
1976
1976
1975
1974
1973
1973
1973
1973
1974
1974
1974
1974
1973
1973
1973
1973
1973
1974
1974
1975
1975
1974
1974
1973
1973
1973
1974
1975
1975
1976
1976
1975
1975
1974
1974
1973
1974
1974
1974
1975
1975
1974
1974
1973
1973
1973
1974
1974
1975
1975
1975
1975
1975
1975
1974
1974
1975
1975
1976
1976
1976
1976
1976
1975
1975
1975
1975
1976
1977
1977
1977
1977
1976
1976
1975
1975
1976
1976
1977
1977
1977
1977
1977
1976
1976
1976
1977
1977
1978
1978
1978
1978
1977
1977
1977
1977
1977
1977
1978
1978
1978
1978
1977
1977
1976
1976
1976
1976
1976
1976
1976
1975
1975
1976
1977
1978
1979
1980
1981
1982
1982
1981
1980
1979
1978
1977
1978
1978
1979
1979
1979
1979
1978
1978
1978
1978
1978
1979
1980
1978
1975
1969
1964
1962
1966
1979
2002
2032
2061
2083
2090
2081
2058
2030
2004
1986
1978
1976
1976
1976
1976
1974
1973
1972
1972
1972
1972
1972
1973
1973
1973
1974
1974
1974
1974
1974
1975
1975
1976
1976
1977
1977
1977
1976
1976
1976
1976
1977
1978
1979
1980
1980
1980
1981
1981
1982
1983
1984
1985
1987
1988
1989
1991
1992
1993
1995
1996
1998
2000
2002
2003
2004
2004
2004
2004
2003
2003
2002
2001
1999
1997
1994
1991
1988
1985
1983
1982
1980
1980
1979
1978
1977
1976
1975
1974
1974
1974
1975
1975
1976
1976
1976
1975
1975
1975
1975
1975
1976
1976
1977
1977
1977
1977
1976
1976
1976
1976
1976
1977
1977
1977
1977
1977
1977
1977
1977
1977
1977
1978
1978
1978
1978
1977
1977
1976
1976
1976
1976
1977
1977
1978
1978
1977
1977
1976
1976
1977
1977
1978
1978
1978
1978
1977
1977
1976
1977
1977
1978
1979
1980
1979
1979
1978
1978
1978
1978
1979
1979
1980
1980
1980
1980
1979
1979
1979
1979
1979
1980
1980
1981
1981
1981
1981
1980
1980
1980
1980
1981
1981
1982
1982
1982
1982
1981
1981
1981
1981
1981
1982
1982
1981
1981
1980
1979
1979
1979
1981
1982
1984
1985
1986
1986
1985
1985
1984
1984
1983
1983
1983
1983
1983
1982
1982
1982
1982
1982
1983
1983
1984
1985
1985
1985
1984
1980
1975
1970
1967
1969
1979
1998
2025
2053
2078
2089
2085
2066
2041
2015
1997
1987
1983
1982
1981
1980
1980
1979
1979
1979
1979
1980
1980
1980
1980
1979
1979
1978
1978
1978
1979
1979
1979
1979
1979
1979
1979
1979
1980
1981
1982
1983
1983
1983
1983
1984
1984
1984
1985
1987
1988
1989
1990
1990
1991
1992
1993
1995
1997
1999
2002
2004
2005
2006
2007
2008
2009
2010
2011
2012
2012
2012
2010
2008
2006
2003
2001
1998
1996
1994
1992
1990
1988
1985
1983
1981
1980
1980
1980
1980
1980
1980
1980
1980
1979
1979
1978
1978
1979
1979
1980
1980
1980
1979
1979
1979
1979
1980
1980
1980
1981
1981
1981
1981
1981
1981
1980
1980
1981
1981
1981
1981
1981
1981
1981
1980
1980
1980
1980
1981
1982
1982
1982
1982
1981
1981
1980
1981
1981
1982
1982
1982
1982
1982
1981
1981
1981
1981
1981
1981
1982
1982
1983
1983
1982
1981
1980
1980
1981
1981
1982
1983
1983
1983
1983
1982
1982
1982
1982
1983
1983
1984
1983
1983
1982
1981
1980
1980
1980
1981
1982
1982
1983
1984
1984
1985
1985
1986
1986
1986
1985
1985
1984
1983
1983
1983
1983
1983
1983
1983
1983
1983
1984
1984
1983
1983
1983
1982
1980
1976
1971
1968
1970
1981
2002
2030
2060
2083
2091
2082
2059
2032
2008
1993
1986
1983
1983
1981
1981
1980
1980
1980
1980
1980
1980
1979
1979
1978
1979
1980
1981
1982
1982
1982
1981
1981
1981
1981
1982
1983
1983
1984
1985
1985
1985
1984
1984
1984
1984
1985
1987
1988
1990
1990
1991
1991
1992
1993
1995
1996
1998
2001
2003
2004
2006
2007
2008
2009
2011
2012
2014
2015
2015
2015
2013
2011
2009
2006
2004
2001
1999
1996
1993
1990
1987
1985
1983
1981
1980
1980
1979
1978
1978
1977
1977
1977
1976
1976
1976
1976
1977
1978
1978
1978
1977
1976
1976
1975
1976
1977
1978
1978
1979
1979
1978
1978
1977
1978
1978
1979
1979
1979
1979
1979
1979
1978
1978
1978
1978
1978
1979
1979
1979
1979
1979
1978
1978
1978
1979
1979
1979
1980
1980
1979
1979
1979
1978
1978
1978
1979
1979
1980
1980
1980
1979
1979
1978
1978
1979
1979
1980
1980
1980
1979
1979
1978
1978
1978
1979
1979
1980
1980
1980
1979
1978
1977
1976
1976
1977
1979
1981
1982
1983
1983
1983
1983
1982
1982
1981
1981
1981
1981
1981
1980
1980
1980
1979
1979
1979
1980
1980
1981
1982
1982
1981
1977
1971
1965
1962
1965
1977
1998
2027
2056
2081
2093
2087
2066
2039
2012
1994
1983
1980
1978
1977
1976
1975
1974
1974
1975
1975
1976
1976
1975
1975
1975
1974
1975
1975
1976
1976
1977
1977
1978
1977
1977
1977
1977
1977
1978
1979
1980
1980
1980
1980
1980
1980
1981
1982
1983
1984
1986
1987
1987
1988
1989
1990
1991
1993
1995
1997
1999
2001
2002
2003
2004
2005
2006
2007
2007
2008
2007
2006
2004
2001
1997
1994
1991
1988
1986
1984
1982
1981
1979
1977
1975
1974
1973
1973
1973
1973
1973
1974
1973
1973
1973
1972
1972
1972
1973
1974
1974
1974
1974
1974
1973
1973
1973
1973
1974
1975
1975
1975
1974
1974
1974
1973
1973
1974
1974
1974
1975
1975
1975
1974
1974
1974
1974
1974
1974
1975
1975
1975
1975
1974
1973
1973
1973
1973
1974
1974
1974
1974
1974
1973
1973
1973
1972
1973
1973
1974
1974
1974
1974
1973
1973
1973
1973
1974
1974
1975
1975
1975
1975
1975
1974
1974
1974
1975
1975
1975
1975
1975
1974
1973
1972
1972
1971
1972
1973
1975
1976
1978
1978
1978
1978
1978
1977
1977
1977
1977
1977
1977
1976
1976
1975
1974
1974
1974
1975
1975
1976
1976
1977
1976
1975
1972
1967
1962
1959
1960
1969
1988
2014
2044
2070
2086
2085
2069
2043
2015
1993
1980
1974
1972
1971
1970
1970
1969
1969
1970
1970
1970
1970
1970
1969
1969
1969
1970
1970
1971
1972
1972
1971
1971
1971
1971
1971
1972
1973
1973
1974
1975
1975
1975
1974
1974
1975
1976
1977
1978
1980
1981
1981
1981
1982
1983
1984
1986
1988
1990
1992
1994
1995
1996
1996
1997
1998
1999
2000
2001
2001
2001
2000
1998
1995
1993
1990
1988
1985
1984
1982
1980
1978
1976
1974
1973
1972
1971
1971
1972
1972
1972
1972
1971
1970
1969
1969
1969
1970
1971
1972
1972
1972
1972
1971
1971
1971
1971
1972
1972
1973
1973
1973
1972
1972
1971
1971
1971
1971
1972
1972
1972
1972
1971
1971
1970
1970
1971
1971
1972
1972
1972
1972
1972
1971
1972
1972
1972
1973
1973
1974
1974
1974
1973
1973
1972
1972
1972
1973
1973
1974
1974
1974
1974
1973
1973
1973
1973
1974
1974
1975
1975
1975
1974
1974
1973
1973
1973
1974
1975
1975
1976
1975
1974
1973
1972
1972
1972
1973
1974
1975
1976
1977
1978
1978
1978
1978
1978
1978
1977
1977
1977
1976
1976
1975
1975
1975
1975
1976
1976
1977
1977
1977
1977
1977
1977
1976
1973
1968
1963
1961
1964
1975
1995
2022
2050
2074
2084
2079
2059
2033
2007
1988
1978
1974
1973
1972
1972
1972
1972
1972
1972
1971
1971
1970
1970
1971
1971
1972
1973
1974
1974
1974
1973
1973
1973
1973
1974
1974
1975
1975
1975
1975
1976
1976
1976
1977
1977
1978
1979
1980
1981
1982
1982
1983
1984
1985
1987
1988
1990
1992
1994
1996
1997
1998
2000
2001
2002
2004
2005
2006
2006
2006
2004
2003
2001
1999
1997
1995
1992
1990
1987
1985
1982
1980
1978
1977
1977
1976
1976
1976
1976
1975
1975
1974
1974
1974
1975
1975
1976
1976
1976
1976
1976
1976
1975
1975
1975
1976
1977
1978
1978
1978
1977
1977
1977
1977
1977
1977
1977
1978
1978
1978
1978
1977
1976
1976
1976
1977
1978
1978
1978
1978
1977
1976
1976
1976
1977
1978
1978
1978
1978
1977
1977
1976
1976
1977
1977
1978
1979
1979
1979
1978
1978
1977
1976
1976
1976
1977
1977
1978
1979
1979
1979
1978
1977
1976
1976
1976
1977
1977
1977
1977
1978
1979
1980
1981
1982
1982
1983
1983
1982
1981
1980
1979
1979
1978
1979
1979
1979
1980
1980
1980
1979
1979
1979
1980
1980
1981
1979
1976
1971
1966
1964
1969
1984
2008
2039
2067
2084
2085
2068
2043
2015
1994
1983
1979
1978
1978
1978
1977
1976
1975
1974
1974
1974
1974
1975
1975
1976
1976
1977
1976
1976
1976
1976
1976
1976
1977
1978
1978
1978
1978
1978
1978
1977
1978
1979
1980
1981
1982
1982
1982
1983
1983
1984
1985
1986
1988
1990
1992
1993
1995
1996
1998
2000
2002
2003
2005
2006
2008
2009
2009
2009
2008
2007
2006
2004
2003
2000
1998
1995
1991
1988
1985
1982
1980
1979
1978
1977
1976
1975
1974
1974
1973
1972
1972
1972
1972
1973
1973
1973
1973
1972
1971
1971
1972
1973
1973
1974
1974
1974
1973
1973
1973
1973
1973
1974
1974
1975
1975
1975
1975
1974
1974
1974
1974
1975
1976
1976
1976
1976
1976
1975
1975
1974
1974
1975
1975
1976
1976
1976
1976
1975
1975
1975
1975
1975
1976
1976
1976
1976
1976
1975
1974
1974
1974
1975
1975
1976
1976
1977
1976
1976
1975
1974
1973
1973
1973
1974
1975
1977
1978
1979
1979
1979
1979
1979
1980
1980
1979
1979
1978
1977
1977
1976
1976
1976
1977
1978
1978
1978
1978
1978
1978
1978
1978
1975
1971
1966
1962
1963
1971
1988
2015
2045
2071
2086
2085
2067
2041
2014
1993
1981
1976
1975
1974
1974
1973
1973
1973
1973
1973
1973
1972
1972
1972
1972
1973
1974
1974
1974
1974
1974
1974
1974
1975
1975
1976
1976
1977
1977
1977
1977
1977
1977
1978
1979
1980
1981
1981
1982
1983
1983
1984
1985
1986
1988
1989
1991
1993
1995
1996
1998
1999
2000
2001
2002
2003
2005
2006
2006
2006
2005
2003
2001
1998
1996
1994
1991
1989
1986
1983
1980
1978
1976
1975
1975
1975
1975
1974
1974
1973
1973
1972
1972
1972
1972
1973
1973
1974
1974
1974
1974
1973
1972
1972
1972
1973
1973
1974
1974
1974
1973
1973
1973
1973
1973
1973
1974
1974
1974
1974
1973
1973
1973
1972
1972
1973
1974
1974
1974
1974
1974
1973
1973
1973
1973
1974
1974
1974
1974
1973
1973
1973
1973
1973
1973
1973
1974
1974
1974
1974
1973
1973
1973
1973
1973
1974
1974
1975
1975
1975
1974
1974
1973
1973
1973
1973
1973
1973
1973
1972
1972
1973
1974
1975
1977
1978
1979
1980
1979
1979
1978
1976
1976
1975
1975
1976
1976
1976
1976
1976
1975
1975
1974
1975
1976
1977
1978
1977
1974
1969
1963
1959
1961
1971
1991
2019
2049
2075
2088
2084
2064
2037
2010
1990
1978
1974
1974
1974
1973
1972
1971
1971
1970
1970
1971
1971
1972
1972
1972
1972
1972
1971
1971
1971
1972
1973
1974
1975
1975
1975
1975
1974
1974
1974
1975
1976
1977
1978
1978
1979
1979
1979
1979
1980
1981
1982
1984
1985
1987
1988
1989
1990
1992
1993
1995
1996
1998
2000
2001
2002
2002
2002
2002
2002
2002
2001
2000
1998
1996
1993
1990
1986
1984
1981
1980
1979
1978
1977
1976
1975
1974
1973
1973
1972
1972
1973
1973
1974
1974
1974
1973
1973
1973
1973
1973
1974
1974
1975
1975
1974
1974
1973
1973
1973
1973
1974
1974
1975
1975
1975
1974
1974
1973
1973
1973
1974
1974
1974
1974
1974
1973
1973
1973
1973
1973
1974
1974
1975
1975
1975
1974
1974
1973
1973
1974
1974
1975
1975
1975
1975
1974
1974
1974
1974
1974
1974
1975
1975
1975
1975
1975
1974
1974
1974
1974
1975
1975
1976
1976
1975
1975
1974
1973
1973
1973
1973
1974
1974
1975
1976
1977
1978
1978
1978
1979
1979
1980
1979
1979
1978
1977
1976
1976
1976
1976
1977
1977
1978
1978
1978
1977
1977
1977
1978
1977
1975
1971
1966
1962
1962
1969
1985
2009
2038
2064
2081
2083
2069
2046
2018
1996
1981
1975
1974
1974
1974
1974
1974
1973
1973
1972
1971
1971
1971
1972
1972
1973
1973
1974
1975
1975
1974
1974
1975
1975
1976
1977
1977
1978
1978
1978
1978
1977
1978
1978
1980
1981
1982
1983
1984
1983
1983
1984
1985
1986
1988
1990
1992
1994
1995
1996
1997
1999
2000
2002
2004
2005
2006
2006
2006
2005
2004
2003
2002
2000
1998
1996
1994
1991
1988
1986
1983
1981
1979
1978
1978
1977
1977
1976
1976
1975
1974
1974
1975
1975
1976
1977
1977
1977
1977
1976
1976
1976
1976
1977
1977
1978
1979
1979
1979
1978
1977
1977
1977
1978
1979
1979
1980
1980
1979
1978
1978
1978
1978
1978
1979
1979
1979
1979
1979
1979
1978
1978
1978
1979
1979
1980
1980
1981
1980
1980
1979
1979
1979
1979
1980
1981
1981
1981
1981
1980
1980
1979
1979
1980
1981
1981
1982
1981
1981
1980
1979
1979
1979
1979
1980
1980
1981
1982
1983
1984
1984
1985
1985
1985
1985
1985
1985
1984
1983
1983
1983
1983
1983
1983
1984
1984
1984
1984
1984
1985
1985
1985
1983
1980
1976
1971
1970
1974
1986
2009
2038
2066
2085
2088
2074
2050
2024
2003
1990
1984
1983
1982
1980
1980
1979
1980
1980
1980
1980
1980
1979
1979
1979
1979
1980
1980
1981
1981
1982
1981
1981
1980
1980
1981
1982
1983
1984
1984
1984
1984
1984
1985
1985
1986
1987
1988
1989
1990
1990
1991
1992
1993
1995
1996
1998
2001
2003
2005
2006
2007
2008
2009
2011
2012
2014
2015
2015
2015
2014
2012
2010
2007
2004
2002
2000
1998
1995
1993
1990
1987
1985
1983
1982
1981
1981
1981
1981
1981
1980
1979
1979
1978
1978
1978
1979
1979
1979
1979
1979
1978
1977
1977
1977
1977
1978
1979
1979
1979
1979
1979
1978
1978
1978
1979
1979
1980
1980
1980
1979
1979
1978
1978
1978
1978
1979
1979
1980
1980
1979
1979
1979
1978
1978
1978
1978
1979
1979
1979
1978
1978
1977
1977
1978
1978
1978
1978
1978
1978
1977
1977
1976
1975
1975
1976
1977
1978
1979
1981
1981
1982
1982
1981
1981
1980
1980
1980
1980
1980
1980
1980
1979
1979
1979
1979
1980
1980
1981
1982
1982
1980
1976
1970
1964
1962
1968
1983
2008
2039
2067
2086
2088
2074
2048
2022
2000
1988
1982
1981
1979
1978
1976
1975
1974
1974
1975
1975
1976
1976
1977
1977
1977
1976
1975
1975
1976
1977
1978
1979
1979
1979
1978
1978
1978
1978
1979
1980
1981
1981
1981
1981
1981
1982
1983
1984
1985
1986
1987
1988
1989
1990
1991
1992
1995
1997
2000
2002
2004
2005
2006
2007
2007
2008
2009
2010
2010
2010
2009
2007
2004
2001
1997
1994
1991
1988
1986
1984
1982
1980
1979
1978
1976
1975
1975
1974
1975
1975
1976
1976
1975
1975
1974
1974
1974
1974
1975
1975
1975
1975
1976
1975
1975
1974
1974
1975
1975
1976
1976
1977
1977
1977
1976
1976
1976
1976
1977
1978
1978
1978
1977
1977
1977
1977
1977
1977
1978
1978
1978
1978
1978
1978
1977
1977
1977
1977
1978
1978
1979
1978
1978
1977
1976
1976
1976
1976
1976
1977
1977
1978
1978
1979
1979
1980
1981
1981
1982
1982
1981
1981
1980
1980
1979
1979
1979
1979
1980
1980
1980
1980
1980
1980
1980
1980
1978
1974
1968
1964
1963
1969
1984
2009
2040
2069
2088
2092
2079
2054
2026
2002
1986
1979
1976
1975
1975
1975
1975
1975
1975
1975
1975
1974
1974
1973
1973
1974
1974
1975
1976
1976
1976
1975
1975
1975
1975
1976
1977
1977
1978
1978
1978
1978
1977
1978
1978
1979
1981
1981
1982
1983
1983
1984
1985
1986
1987
1988
1990
1992
1994
1996
1998
1999
2000
2001
2002
2003
2004
2005
2005
2005
2004
2002
2000
1997
1994
1991
1989
1986
1984
1982
1980
1978
1976
1975
1974
1973
1973
1973
1973
1973
1972
1972
1971
1971
1971
1972
1972
1973
1973
1973
1973
1973
1972
1972
1972
1973
1974
1974
1974
1974
1974
1973
1973
1972
1972
1972
1973
1973
1973
1973
1973
1973
1972
1972
1972
1972
1973
1973
1973
1973
1973
1973
1972
1972
1972
1972
1973
1973
1974
1974
1974
1974
1973
1973
1973
1973
1973
1974
1974
1975
1974
1974
1973
1972
1972
1972
1972
1972
1972
1972
1972
1972
1973
1974
1975
1976
1977
1977
1977
1976
1976
1975
1974
1973
1973
1974
1974
1974
1975
1975
1974
1974
1974
1974
1974
1974
1971
1966
1961
1957
1958
1968
1987
2014
2044
2070
2085
2083
2065
2038
2010
1988
1975
1971
1970
1970
1970
1970
1969
1969
1969
1968
1968
1967
1967
1968
1968
1969
1970
1970
1970
1969
1968
1968
1968
1969
1970
1971
1971
1972
1972
1972
1972
1972
1972
1973
1974
1975
1976
1977
1977
1977
1977
1978
1979
1980
1982
1984
1986
1988
1989
1990
1991
1992
1993
1995
1996
1998
1999
2000
1999
1998
1997
1995
1993
1991
1989
1987
1985
1983
1980
1977
1975
1973
1972
1971
1970
1970
1970
1970
1970
1969
1968
1968
1968
1968
1968
1969
1970
1971
1970
1970
1969
1969
1969
1969
1970
1970
1971
1971
1970
1970
1970
1969
1969
1969
1970
1970
1971
1971
1970
1970
1969
1969
1969
1969
1970
1970
1970
1971
1970
1970
1970
1970
1970
1971
1971
1972
1972
1972
1972
1971
1971
1971
1971
1971
1971
1972
1972
1973
1973
1972
1972
1972
1972
1972
1973
1973
1973
1973
1973
1973
1973
1973
1973
1973
1974
1974
1974
1974
1973
1972
1971
1971
1972
1973
1975
1976
1978
1979
1979
1978
1978
1977
1976
1975
1975
1976
1976
1976
1976
1976
1975
1974
1974
1974
1974
1975
1976
1977
1977
1976
1973
1968
1962
1959
1961
1971
1990
2016
2045
2069
2081
2078
2061
2036
2009
1990
1979
1974
1973
1972
1971
1970
1970
1970
1970
1971
1971
1972
1971
1971
1971
1970
1971
1971
1972
1973
1974
1974
1974
1974
1973
1973
1973
1974
1975
1976
1976
1977
1977
1977
1977
1977
1978
1979
1980
1981
1983
1984
1984
1985
1986
1988
1989
1992
1994
1996
1998
2000
2001
2002
2002
2003
2003
2004
2005
2006
2006
2004
2003
2000
1997
1993
1991
1988
1986
1985
1984
1983
1981
1980
1978
1977
1976
1976
1976
1977
1977
1977
1977
1977
1976
1976
1976
1976
1977
1978
1978
1978
1978
1978
1978
1977
1977
1978
1978
1979
1979
1979
1979
1978
1978
1978
1978
1978
1978
1979
1979
1979
1979
1979
1979
1978
1978
1978
1978
1978
1979
1979
1979
1979
1979
1979
1979
1980
1980
1981
1981
1981
1981
1980
1980
1980
1980
1980
1980
1981
1982
1982
1982
1982
1981
1981
1981
1981
1982
1982
1983
1983
1983
1982
1981
1980
1979
1980
1981
1982
1983
1985
1986
1986
1986
1986
1986
1986
1985
1985
1985
1985
1984
1984
1984
1984
1983
1983
1984
1984
1984
1984
1985
1985
1985
1984
1981
1977
1972
1970
1974
1986
2009
2038
2065
2085
2089
2076
2052
2027
2005
1992
1987
1985
1984
1982
1982
1981
1981
1981
1982
1982
1981
1981
1981
1981
1981
1981
1981
1981
1981
1981
1981
1981
1982
1982
1983
1983
1984
1984
1985
1985
1985
1985
1986
1986
1987
1987
1989
1990
1991
1992
1992
1993
1993
1994
1996
1998
2000
2002
2004
2006
2007
2008
2009
2010
2011
2012
2014
2015
2015
2015
2013
2011
2008
2005
2002
2000
1997
1995
1992
1990
1987
1985
1983
1982
1981
1980
1980
1980
1980
1980
1979
1979
1978
1978
1978
1978
1979
1979
1979
1979
1978
1978
1978
1978
1978
1978
1979
1980
1980
1980
1980
1980
1980
1980
1980
1980
1981
1981
1982
1981
1981
1981
1980
1980
1980
1981
1981
1982
1982
1982
1981
1981
1980
1980
1980
1980
1981
1981
1981
1982
1981
1981
1980
1980
1980
1980
1981
1981
1981
1981
1981
1980
1979
1979
1978
1978
1978
1979
1980
1981
1982
1983
1983
1984
1984
1985
1985
1985
1985
1985
1984
1983
1983
1982
1982
1982
1982
1983
1984
1983
1983
1983
1983
1983
1981
1978
1972
1967
1966
1971
1986
2010
2040
2068
2087
2091
2078
2054
2028
2005
1991
1984
1981
1980
1978
1978
1978
1979
1979
1979
1978
1977
1977
1977
1977
1977
1978
1979
1979
1979
1979
1978
1978
1978
1979
1979
1980
1981
1981
1982
1982
1981
1981
1981
1982
1983
1984
1985
1986
1987
1987
1988
1989
1989
1991
1992
1994
1997
1999
2001
2002
2003
2004
2005
2006
2007
2009
2010
2010
2010
2010
2008
2006
2003
2000
1997
1995
1992
1990
1988
1985
1983
1981
1979
1978
1978
1978
1978
1977
1977
1976
1976
1975
1975
1975
1976
1976
1977
1977
1977
1977
1976
1976
1975
1975
1976
1976
1977
1977
1977
1977
1977
1976
1976
1976
1977
1977
1978
1978
1978
1977
1977
1976
1976
1977
1977
1978
1978
1979
1979
1978
1978
1977
1976
1976
1976
1977
1977
1978
1978
1978
1978
1977
1977
1977
1977
1977
1978
1978
1978
1977
1977
1977
1976
1976
1976
1977
1977
1977
1977
1976
1975
1975
1974
1974
1975
1976
1977
1978
1978
1979
1979
1979
1979
1979
1978
1978
1978
1978
1978
1978
1977
1976
