2042
2043
2044
2044
2044
2043
2041
2040
2036
2029
2020
2011
2008
2012
2022
2034
2044
2046
2046
2043
2042
2042
2043
2045
2046
2047
2048
2049
2050
2051
2052
2052
2053
2054
2054
2053
2052
2051
2052
2055
2058
2060
2058
2054
2050
2048
2048
2050
2050
2049
2047
2045
2043
2041
2040
2040
2039
2038
2036
2035
2033
2033
2032
2032
2036
2033
2033
2031
2030
2032
2037
2041
2045
2046
2045
2042
2041
2041
2045
2045
2047
2047
2047
2047
2048
2048
2048
2048
2049
2049
2049
2051
2052
2053
2055
2057
2058
2059
2058
2057
2058
2061
2065
2069
2070
2069
2068
2067
2068
2070
2071
2073
2073
2073
2073
2073
2074
2074
2074
2074
2075
2076
2078
2079
2080
2080
2082
2083
2082
2079
2077
2076
2078
2083
2089
2091
2089
2084
2081
2078
2078
2077
2072
2065
2057
2052
2053
2060
2070
2081
2089
2092
2092
2090
2088
2086
2086
2088
2088
2088
2087
2085
2084
2086
2090
2093
2095
2094
2091
2089
2087
2089
2088
2089
2088
2088
2088
2087
2087
2086
2085
2085
2085
2086
2086
2086
2085
2085
2084
2084
2082
2081
2079
2078
2079
2081
2084
2086
2086
2084
2082
2082
2080
2083
2083
2084
2084
2085
2085
2085
2085
2085
2085
2086
2086
2087
2086
2086
2085
2086
2085
2086
2085
2084
2082
2082
2084
2086
2089
2090
2089
2087
2085
2083
2083
2084
2084
2084
2083
2083
2082
2081
2081
2081
2081
2081
2081
2081
2080
2080
2079
2080
2081
2081
2081
2080
2081
2082
2084
2085
2085
2083
2081
2080
2079
2080
2081
2081
2080
2077
2074
2069
2062
2054
2048
2046
2048
2056
2066
2075
2080
2080
2078
2075
2073
2071
2069
2067
2067
2069
2072
2073
2072
2069
2065
2063
2063
2063
2062
2062
2061
2060
2059
2059
2058
2058
2058
2058
2057
2056
2054
2053
2052
2050
2054
2051
2050
2047
2044
2044
2046
2050
2054
2054
2053
2049
2048
2045
2048
2048
2048
2049
2051
2052
2053
2054
2054
2054
2054
2055
2054
2055
2055
2055
2056
2055
2055
2055
2053
2051
2050
2050
2053
2056
2057
2056
2052
2048
2046
2046
2047
2047
2047
2046
2045
2044
2044
2045
2045
2043
2039
2036
2036
2039
2045
2048
2049
2047
2042
2037
2035
2038
2042
2046
2047
2048
2046
2042
2040
2039
2039
2039
2039
2038
2038
2038
2038
2038
2038
2036
2032
2027
2020
2012
2006
2003
2008
2017
2029
2039
2040
2036
2031
2028
2031
2037
2042
2042
2038
2034
2031
2030
2032
2032
2030
2029
2029
2029
2028
2028
2028
2028
2028
2028
2028
2028
2028
2027
2028
2029
2027
2026
2024
2022
2022
2024
2026
2027
2026
2023
2020
2018
2016
2018
2017
2018
2018
2018
2019
2019
2020
2020
2021
2021
2022
2023
2023
2024
2024
2024
2026
2026
2026
2024
2022
2022
2024
2028
2031
2031
2028
2024
2022
2021
2023
2023
2023
2023
2022
2022
2021
2020
2020
2019
2020
2020
2020
2020
2020
2019
2019
2020
2020
2020
2019
2017
2017
2018
2020
2021
2021
2019
2018
2017
2017
2018
2019
2019
2020
2020
2021
2021
2023
2023
2024
2023
2023
2022
2022
2022
2022
2020
2018
2012
2004
1995
1987
1988
1995
2009
2023
2031
2032
2027
2021
2017
2018
2020
2020
2022
2022
2022
2021
2021
2021
2022
2022
2022
2023
2023
2022
2021
2020
2018
2023
2023
2023
2020
2017
2015
2017
2019
2023
2024
2023
2021
2019
2016
2018
2017
2017
2017
2017
2016
2017
2016
2017
2017
2018
2019
2019
2019
2018
2019
2019
2020
2021
2021
2020
2018
2018
2019
2022
2025
2027
2026
2024
2022
2021
2022
2023
2024
2023
2023
2023
2023
2023
2023
2023
2022
2021
2020
2020
2019
2020
2019
2021
2022
2022
2020
2017
2014
2015
2019
2025
2029
2028
2024
2021
2018
2018
2019
2020
2019
2019
2019
2019
2019
2019
2018
2019
2019
2020
2021
2021
2022
2022
2023
2023
2024
2023
2022
2021
2021
2024
2026
2028
2027
2024
2019
2012
2004
1996
1991
1992
1998
2008
2018
2025
2026
2024
2021
2019
2019
2019
2020
2020
2020
2018
2022
2020
2020
2018
2016
2016
2018
2023
2027
2028
2026
2023
2021
2018
2021
2020
2021
2021
2021
2020
2020
2020
2020
2020
2020
2021
2021
2020
2020
2020
2019
2019
2019
2020
2019
2018
2018
2019
2021
2023
2024
2024
2021
2020
2019
2020
2021
2024
2024
2025
2025
2025
2025
2025
2025
2025
2025
2025
2025
2025
2024
2022
2022
2023
2022
2021
2020
2020
2021
2022
2024
2025
2023
2022
2022
2022
2023
2024
2023
2023
2023
2024
2024
2024
2023
2023
2022
2022
2023
2023
2024
2023
2023
2023
2024
2024
2024
2022
2021
2020
2022
2025
2027
2027
2025
2023
2021
2021
2022
2022
2022
2022
2022
2022
2022
2022
2022
2022
2022
2021
2023
2022
2020
2015
2010
2004
1996
1993
1992
1996
2005
2017
2027
2032
2032
2025
2019
2015
2013
2017
2017
2018
2018
2019
2019
2019
2019
2019
2019
2019
2019
2018
2017
2016
2017
2016
2017
2016
2016
2013
2011
2009
2010
2011
2013
2013
2011
2008
2005
2004
2004
2003
2004
2003
2003
2003
2004
2004
2005
2005
2005
2006
2006
2007
2007
2008
2008
2010
2012
2012
2013
2010
2009
2010
2015
2023
2028
2028
2024
2018
2014
2014
2015
2017
2020
2019
2019
2019
2020
2020
2020
2020
2020
2020
2020
2020
2021
2020
2023
2023
2022
2020
2017
2015
2017
2022
2026
2027
2026
2023
2022
2022
2025
2026
2027
2026
2026
2026
2026
2025
2026
2026
2026
2027
2026
2026
2026
2026
2027
2027
2028
2028
2027
2026
2026
2027
2030
2033
2035
2035
2033
2030
2027
2022
2016
2008
2002
2000
2004
2013
2024
2030
2031
2028
2022
2020
2020
2021
2024
2025
2025
2025
2024
2024
2021
2020
2019
2022
2025
2029
2030
2029
2028
2026
2024
2025
2026
2026
2025
2026
2027
2028
2028
2028
2028
2028
2028
2029
2028
2028
2028
2026
2027
2027
2027
2024
2021
2021
2024
2029
2031
2029
2025
2022
2023
2029
2034
2036
2033
2027
2024
2023
2025
2025
2024
2024
2022
2024
2022
2023
2023
2023
2022
2022
2022
2022
2021
2019
2017
2018
2021
2028
2033
2035
2033
2030
2026
2026
2027
2027
2030
2031
2033
2034
2035
2035
2035
2035
2035
2036
2037
2036
2035
2034
2034
2037
2039
2041
2039
2036
2034
2035
2040
2044
2047
2044
2040
2038
2035
2037
2038
2040
2040
2041
2042
2042
2042
2042
2043
2044
2045
2045
2046
2046
2046
2045
2047
2048
2047
2040
2031
2023
2020
2025
2036
2048
2055
2059
2059
2056
2057
2056
2056
2055
2055
2056
2057
2058
2059
2059
2059
2059
2060
2061
2064
2066
2066
2070
2072
2076
2076
2076
2076
2077
2083
2089
2094
2094
2092
2088
2086
2087
2089
2091
2091
2091
2091
2091
2090
2089
2088
2087
2088
2087
2087
2087
2087
2088
2088
2091
2090
2088
2084
2081
2081
2087
2094
2099
2099
2096
2091
2088
2086
2090
2091
2093
2092
2093
2094
2094
2095
2095
2095
2095
2095
2095
2096
2097
2097
2097
2097
2096
2095
2091
2087
2087
2090
2098
2103
2105
2102
2097
2094
2093
2095
2096
2097
2096
2095
2096
2097
2097
2098
2096
2094
2093
2092
2091
2092
2092
2091
2092
2093
2094
2092
2091
2091
2091
2096
2099
2103
2101
2100
2095
2092
2094
2094
2097
2096
2096
2095
2094
2097
2096
2098
2099
2098
2097
2096
2096
2095
2095
2097
2098
2098
2096
2092
2088
2086
2085
2083
2078
2076
2075
2081
2089
2099
2103
2103
2100
2097
2095
2096
2096
2097
2097
2097
2098
2098
2097
2097
2096
2094
2094
2096
2098
2098
2095
2091
2091
2093
2098
2103
2104
2100
2094
2088
2086
2085
2085
2086
2085
2084
2084
2084
2084
2084
2085
2085
2084
2084
2085
2085
2084
2082
2084
2084
2086
2084
2082
2080
2081
2084
2089
2091
2091
2087
2084
2083
2086
2088
2090
2088
2085
2083
2083
2083
2083
2085
2085
2085
2085
2085
2085
2085
2085
2086
2088
2088
2085
2083
2082
2085
2090
2096
2098
2096
2092
2088
2086
2087
2089
2089
2088
2088
2088
2088
2088
2089
2089
2089
2088
2088
2087
2087
2086
2085
2086
2089
2087
2086
2082
2080
2081
2086
2093
2096
2094
2090
2085
2083
2083
2087
2085
2085
2085
2084
2084
2083
2083
2083
2082
2082
2082
2082
2080
2077
2072
2065
2058
2055
2055
2059
2067
2077
2085
2090
2091
2089
2085
2082
2081
2081
2082
2084
2083
2082
2082
2081
2081
2080
2080
2080
2080
2079
2079
2079
2079
2079
2078
2078
2077
2076
2074
2074
2074
2076
2078
2079
2079
2077
2075
2073
2072
2073
2073
2073
2073
2073
2073
2074
2075
2075
2076
2076
2077
2077
2078
2079
2079
2079
2079
2078
2079
2079
2078
2078
2078
2080
2082
2084
2083
2081
2078
2076
2076
2077
2078
2078
2078
2078
2077
2077
2076
2076
2076
2076
2076
2076
2076
2076
2075
2077
2075
2074
2072
2071
2072
2074
2077
2079
2078
2076
2073
2072
2072
2074
2074
2073
2073
2072
2072
2072
2072
2073
2074
2074
2075
2075
2074
2073
2073
2070
2072
2072
2074
2073
2069
2067
2068
2072
2080
2085
2086
2082
2077
2073
2073
2076
2077
2078
2077
2076
2074
2072
2069
2064
2058
2053
2050
2052
2058
2067
2076
2080
2083
2079
2075
2071
2070
2072
2076
2079
2081
2080
2077
2075
2073
2072
2074
2073
2073
2072
2072
2072
2072
2072
2072
2072
2071
2071
2071
2071
2070
2070
2069
2069
2070
2069
2066
2063
2061
2063
2067
2071
2072
2069
2065
2061
2060
2061
2063
2063
2063
2063
2064
2064
2065
2066
2068
2069
2069
2069
2069
2068
2068
2068
2070
2070
2071
2069
2066
2064
2064
2067
2071
2073
2073
2070
2067
2064
2065
2066
2066
2066
2066
2066
2066
2067
2067
2067
2064
2062
2062
2064
2069
2073
2073
2070
2067
2063
2060
2060
2060
2062
2065
2069
2071
2070
2067
2064
2063
2062
2065
2065
2065
2065
2065
2066
2066
2065
2065
2065
2064
2064
2064
2064
2064
2064
2064
2065
2065
2064
2062
2061
2061
2062
2064
2065
2065
2064
2062
2061
2060
2061
2061
2061
2061
2061
2061
2061
2061
2060
2059
2058
2056
2053
2047
2041
2034
2032
2035
2044
2053
2060
2063
2063
2062
2061
2061
2062
2061
2059
2058
2057
2057
2057
2058
2057
2057
2057
2056
2056
2055
2055
2055
2056
2056
2056
2056
2055
2054
2054
2054
2054
2053
2052
2051
2052
2054
2056
2056
2054
2052
2050
2048
2048
2049
2049
2049
2049
2049
2048
2048
2049
2049
2050
2050
2051
2052
2053
2053
2053
2053
2054
2053
2053
2053
2053
2055
2057
2060
2060
2059
2057
2055
2054
2055
2056
2055
2055
2054
2054
2053
2053
2053
2053
2052
2052
2052
2052
2051
2051
2050
2050
2052
2050
2050
2049
2048
2050
2055
2059
2062
2061
2058
2054
2052
2051
2054
2053
2055
2054
2054
2053
2054
2054
2054
2055
2056
2056
2056
2056
2056
2055
2054
2056
2056
2056
2053
2051
2050
2052
2056
2060
2061
2059
2056
2054
2053
2055
2055
2056
2055
2055
2054
2053
2053
2053
2054
2055
2056
2057
2057
2057
2057
2056
2057
2058
2056
2057
2053
2051
2051
2055
2061
2065
2065
2059
2051
2041
2033
2031
2029
2037
2043
2051
2059
2063
2063
2061
2059
2058
2057
2058
2059
2059
2058
2061
2061
2061
2059
2056
2055
2056
2060
2065
2067
2065
2061
2058
2057
2058
2059
2060
2059
2059
2058
2058
2057
2057
2056
2056
2055
2055
2055
2055
2055
2055
2055
2055
2054
2053
2051
2051
2052
2055
2058
2059
2058
2055
2053
2053
2054
2056
2056
2058
2058
2059
2059
2059
2059
2059
2059
2059
2060
2060
2061
2062
2061
2061
2061
2061
2060
2059
2058
2059
2060
2062
2063
2063
2061
2059
2057
2057
2058
2059
2061
2061
2061
2061
2061
2061
2061
2061
2062
2062
2062
2062
2062
2062
2061
2061
2061
2061
2060
2060
2061
2062
2064
2065
2065
2064
2062
2060
2059
2060
2061
2061
2062
2061
2061
2061
2062
2062
2061
2061
2060
2059
2059
2060
2061
2061
2061
2062
2060
2059
2058
2059
2060
2063
2065
2065
2063
2060
2059
2058
2059
2059
2056
2053
2048
2041
2035
2034
2037
2046
2055
2063
2068
2067
2064
2060
2058
2057
2060
2059
2059
2056
2054
2054
2058
2063
2066
2065
2062
2058
2056
2054
2056
2056
2056
2054
2054
2053
2053
2053
2052
2052
2052
2053
2052
2052
2052
2051
2050
2052
2052
2053
2051
2049
2048
2048
2051
2055
2058
2058
2055
2053
2051
2052
2053
2055
2055
2056
2057
2058
2060
2061
2062
2063
2063
2063
2064
2064
2064
2064
2065
2066
2065
2063
2061
2059
2061
2066
2071
2073
2072
2068
2065
2062
2062
2064
2064
2064
2064
2064
2064
2064
2064
2064
2064
2064
2064
2065
2066
2067
2067
2068
2068
2068
2067
2065
2064
2065
2068
2072
2073
2072
2069
2066
2065
2066
2067
2069
2069
2068
2068
2068
2067
2067
2066
2066
2065
2066
2066
2067
2068
2069
2067
2070
2068
2067
2065
2063
2063
2065
2069
2071
2071
2068
2065
2062
2058
2060
2055
2050
2045
2040
2039
2043
2050
2059
2066
2069
2069
2067
2065
2064
2064
2064
2065
2064
2063
2061
2059
2060
2061
2064
2066
2065
2063
2060
2058
2057
2059
2060
2060
2060
2060
2060
2059
2059
2059
2059
2058
2058
2058
2057
2056
2056
2054
2054
2054
2053
2052
2050
2050
2051
2053
2056
2057
2056
2054
2052
2051
2051
2053
2054
2056
2057
2057
2058
2058
2058
2059
2059
2059
2059
2059
2059
2060
2059
2061
2062
2061
2059
2056
2055
2057
2059
2061
2061
2060
2060
2062
2064
2065
2062
2058
2055
2054
2057
2059
2059
2059
2058
2058
2058
2058
2058
2058
2057
2058
2058
2060
2059
2056
2056
2053
2052
2053
2057
2061
2063
2064
2062
2060
2055
2057
2056
2056
2059
2058
2059
2059
2059
2059
2059
2059
2059
2059
2059
2059
2058
2056
2058
2056
2057
2055
2053
2052
2052
2054
2057
2059
2058
2056
2054
2052
2053
2053
2054
2053
2053
2053
2053
2054
2054
2054
2053
2052
2048
2045
2039
2034
2031
2034
2043
2050
2059
2059
2057
2055
2057
2063
2068
2070
2066
2060
2055
2053
2056
2055
2058
2057
2057
2058
2058
2058
2057
2057
2057
2057
2057
2057
2057
2057
2056
2057
2057
2055
2054
2052
2052
2054
2057
2060
2059
2056
2052
2050
2049
2050
2052
2052
2052
2053
2054
2056
2057
2058
2059
2060
2061
2061
2062
2063
2065
2064
2066
2064
2064
2062
2061
2062
2065
2068
2070
2070
2067
2064
2062
2058
2061
2059
2060
2060
2060
2059
2059
2058
2057
2057
2058
2059
2059
2058
2058
2058
2058
2059
2059
2060
2059
2059
2060
2062
2065
2067
2067
2065
2064
2063
2063
2064
2065
2067
2067
2066
2066
2066
2066
2067
2067
2068
2068
2068
2068
2067
2067
2066
2066
2067
2067
2067
2066
2065
2066
2068
2071
2071
2070
2067
2065
2064
2064
2064
2064
2064
2063
2062
2062
2061
2060
2060
2060
2061
2062
2062
2062
2061
2060
2061
2061
2061
2060
2058
2057
2058
2061
2065
2068
2068
2064
2059
2053
2048
2043
2039
2036
2038
2045
2053
2062
2068
2069
2067
2064
2062
2060
2059
2059
2061
2060
2064
2062
2060
2059
2056
2056
2058
2061
2065
2067
2067
2064
2062
2058
2059
2058
2057
2058
2057
2056
2056
2055
2055
2056
2055
2056
2055
2055
2054
2055
2054
2056
2055
2055
2052
2050
2049
2050
2054
2058
2059
2057
2055
2054
2054
2057
2057
2059
2058
2058
2058
2059
2059
2059
2060
2060
2059
2058
2059
2058
2058
2058
2058
2060
2059
2059
2056
2053
2054
2058
2062
2065
2065
2062
2059
2056
2054
2056
2055
2056
2055
2055
2054
2054
2054
2054
2053
2052
2052
2051
2051
2050
2049
2051
2051
2051
2050
2048
2047
2048
2050
2054
2056
2054
2051
2048
2048
2048
2048
2049
2050
2050
2051
2051
2051
2051
2050
2050
2050
2050
2051
2051
2051
2051
2050
2054
2052
2050
2048
2045
2045
2048
2052
2057
2057
2054
2050
2047
2040
2042
2035
2029
2027
2025
2029
2036
2045
2052
2056
2056
2054
2052
2050
2049
2050
2049
2052
2051
2051
2049
2047
2047
2048
2050
2053
2054
2052
2049
2047
2045
2046
2046
2047
2046
2045
2045
2045
2045
2045
2044
2044
2044
2043
2043
2043
2043
2042
2043
2042
2041
2040
2039
2039
2040
2042
2044
2045
2043
2042
2041
2041
2042
2043
2043
2044
2044
2046
2047
2048
2048
2048
2048
2047
2047
2048
2048
2048
2048
2048
2048
2048
2048
2046
2045
2045
2048
2052
2055
2056
2053
2049
2047
2046
2048
2048
2049
2048
2048
2048
2048
2048
2048
2049
2049
2050
2050
2050
2049
2049
2048
2050
2048
2046
2043
2042
2044
2048
2051
2054
2053
2051
2050
2049
2048
2052
2052
2053
2053
2055
2058
2061
2063
2064
2064
2064
2064
2063
2063
2062
2062
2061
2062
2060
2060
2057
2054
2050
2048
2048
2049
2049
2048
2044
2040
2038
2039
2038
2039
2036
2033
2028
2022
2016
2010
2008
2010
2017
2025
2034
2038
2039
2036
2035
2034
2032
2034
2031
2029
2029
2033
2039
2043
2044
2041
2036
2031
2030
2032
2032
2037
2036
2036
2036
2037
2038
2038
2038
2038
2037
2036
2036
2036
2036
2038
2039
2039
2038
2035
2033
2033
2037
2042
2044
2043
2038
2034
2032
2031
2033
2034
2034
2033
2031
2030
2028
2023
2016
2009
2003
2001
2000
1998
1992
1983
1970
1963
1955
1952
1949
1945
1942
1942
1944
1945
1945
1943
1940
1939
1935
1940
1941
1945
1949
1954
1959
1964
1968
1972
1974
1975
1976
1977
1978
1979
1980
1979
1983
1981
1980
1977
1973
1972
1973
1977
1980
1980
1975
1969
1963
1959
1960
1958
1958
1956
1955
1954
1954
1953
1954
1955
1957
1960
1963
1966
1970
1974
1977
1983
1989
1991
1998
1999
2002
2007
2013
2019
2022
2022
2019
2017
2016
2017
2020
2020
2023
2022
2022
2022
2022
2023
2025
2026
2028
2030
2032
2034
2036
2035
2038
2041
2038
2033
2024
2018
2018
2028
2044
2058
2067
2066
2062
2057
2056
2059
2058
2063
2063
2063
2063
2063
2064
2065
2064
2064
2064
2063
2064
2064
2066
2067
2072
2073
2075
2075
2074
2077
2082
2087
2090
2089
2085
2081
2080
2080
2086
2086
2086
2085
2083
2082
2083
2084
2083
2083
2082
2082
2081
2082
2082
2082
2080
2082
2081
2082
2081
2082
2083
2087
2091
2096
2099
2098
2097
2095
2094
2095
2094
2095
2094
2093
2093
2094
2094
2095
2095
2094
2093
2093
2094
2094
2095
2097
2100
2103
2105
2106
2107
2106
2108
2113
2119
2123
2124
2122
2119
2118
2117
2117
2117
2117
2115
2113
2112
2111
2110
2108
2106
2105
2104
2102
2101
2099
2098
2095
2096
2094
2092
2088
2086
2087
2091
2095
2096
2094
2090
2086
2084
2083
2086
2085
2084
2083
2084
2084
2084
2083
2083
2083
2083
2083
2085
2088
2089
2091
2090
2092
2088
2084
2077
2070
2065
2066
2072
2082
2091
2096
2097
2096
2090
2091
2088
2090
2090
2091
2091
2091
2093
2093
2095
2097
2099
2101
2102
2104
2106
2105
2108
2106
2105
2101
2098
2097
2099
2101
2102
2099
2095
2090
2086
2084
2086
2085
2086
2084
2084
2083
2083
2081
2080
2079
2079
2079
2079
2080
2081
2081
2082
2083
2085
2086
2087
2088
2090
2092
2094
2096
2097
2096
2093
2092
2091
2091
2092
2091
2091
2089
2087
2085
2084
2084
2082
2082
2081
2080
2080
2080
2080
2080
2080
2080
2080
2081
2081
2081
2082
2086
2091
2093
2094
2092
2089
2086
2085
2086
2086
2085
2083
2082
2081
2080
2078
2078
2077
2076
2075
2074
2074
2073
2074
2074
2076
2076
2074
2073
2073
2073
2073
2077
2077
2077
2075
2073
2073
2072
2075
2075
2075
2073
2071
2071
2071
2072
2073
2073
2075
2077
2076
2073
2068
2062
2056
2054
2056
2064
2071
2079
2084
2089
2091
2091
2090
2087
2084
2081
2079
2081
2081
2082
2080
2079
2078
2077
2076
2075
2075
2075
2074
2073
2073
2072
2071
2071
2072
2071
2071
2071
2067
2063
2062
2065
2072
2078
2081
2079
2074
2069
2066
2064
2063
2066
2066
2064
2063
2062
2061
2060
2059
2059
2058
2057
2057
2058
2059
2062
2065
2067
2067
2065
2062
2064
2071
2078
2082
2082
2078
2073
2068
2069
2070
2070
2069
2066
2065
2062
2060
2059
2057
2058
2057
2057
2057
2057
2057
2057
2061
2065
2068
2068
2063
2060
2059
2064
2074
2083
2085
2080
2072
2065
2062
2062
2064
2064
2062
2060
2058
2057
2056
2055
2055
2056
2056
2056
2055
2057
2058
2059
2063
2064
2066
2064
2061
2059
2063
2069
2075
2077
2075
2069
2062
2058
2057
2058
2058
2058
2056
2055
2050
2044
2037
2032
2032
2037
2046
2058
2067
2071
2071
2071
2069
2069
2068
2067
2066
2066
2069
2073
2074
2071
2065
2059
2056
2054
2053
2054
2052
2051
2049
2049
2048
2047
2046
2045
2047
2047
2048
2048
2048
2048
2048
2049
2051
2052
2048
2045
2044
2046
2050
2054
2055
2052
2047
2042
2040
2043
2045
2046
2046
2047
2048
2047
2048
2048
2049
2050
2050
2051
2051
2051
2051
2050
2052
2052
2049
2048
2046
2046
2044
2046
2050
2054
2058
2059
2057
2051
2048
2045
2044
2045
2045
2045
2045
2046
2048
2048
2048
2048
2048
2048
2048
2050
2049
2051
2051
2051
2049
2046
2045
2048
2051
2056
2058
2055
2050
2045
2041
2044
2043
2046
2044
2043
2043
2042
2041
2040
2040
2040
2038
2039
2039
2039
2037
2037
2038
2038
2039
2036
2034
2031
2030
2035
2041
2045
2044
2038
2031
2025
2021
2018
2014
2009
2005
2004
2009
2017
2023
2026
2024
2022
2018
2015
2014
2015
2015
2012
2013
2012
2009
2004
1999
2000
2003
2009
2013
2012
2009
2003
2000
1998
2002
2003
2003
2002
2003
2005
2004
2004
2004
2003
2001
2001
2002
2002
2002
2002
2002
2003
2003
2002
1999
1998
1999
2002
2008
2015
2017
2015
2011
2010
2009
2012
2016
2019
2021
2021
2023
2025
2025
2028
2029
2031
2032
2033
2035
2037
2039
2038
2042
2041
2042
2040
2036
2034
2037
2042
2048
2051
2051
2048
2043
2040
2043
2044
2044
2046
2045
2045
2045
2048
2048
2049
2049
2048
2048
2049
2053
2054
2057
2057
2056
2050
2047
2045
2047
2051
2059
2065
2066
2062
2057
2053
2052
2053
2056
2056
2058
2057
2057
2056
2056
2056
2056
2057
2058
2059
2058
2058
2058
2058
2059
2060
2061
2059
2056
2055
2057
2061
2066
2068
2065
2059
2053
2046
2043
2040
2037
2036
2040
2048
2057
2063
2066
2065
2062
2059
2058
2059
2060
2060
2058
2059
2059
2059
2056
2052
2049
2050
2055
2063
2069
2070
2065
2058
2054
2050
2053
2057
2059
2060
2059
2057
2057
2056
2056
2055
2057
2056
2055
2055
2055
2055
2054
2055
2055
2055
2054
2052
2051
2053
2056
2059
2060
2059
2057
2054
2053
2056
2056
2057
2057
2057
2057
2058
2058
2059
2059
2059
2059
2059
2060
2061
2061
2061
2062
2061
2061
2059
2059
2058
2060
2063
2067
2068
2066
2062
2060
2059
2059
2060
2062
2062
2061
2061
2061
2061
2061
2061
2061
2061
2061
2060
2060
2062
2062
2063
2062
2063
2061
2059
2058
2060
2062
2063
2064
2062
2060
2058
2057
2058
2059
2061
2060
2059
2060
2061
2060
2060
2061
2060
2059
2059
2059
2059
2058
2058
2057
2055
2051
2046
2039
2034
2033
2036
2044
2052
2060
2062
2062
2059
2056
2055
2054
2056
2056
2055
2055
2055
2055
2054
2054
2054
2054
2053
2053
2053
2053
2051
2051
2050
2049
2048
2048
2048
2048
2049
2049
2049
2048
2048
2045
2044
2045
2045
2046
2046
2046
2046
2045
2045
2046
2046
2046
2045
2046
2046
2047
2047
2047
2048
2047
2045
2044
2045
2046
2048
2051
2053
2052
2048
2047
2047
2047
2048
2049
2049
2049
2049
2048
2048
2048
2048
2048
2048
2049
2049
2048
2048
2049
2048
2047
2047
2047
2047
2044
2044
2045
2048
2049
2050
2050
2048
2044
2042
2041
2042
2043
2044
2043
2043
2044
2043
2043
2044
2044
2044
2044
2045
2045
2044
2045
2045
2047
2045
2045
2044
2044
2045
2047
2049
2050
2050
2049
2047
2048
2046
2047
2046
2047
2047
2048
2048
2048
2045
2040
2034
2029
2026
2027
2031
2038
2046
2049
2053
2052
2049
2045
2042
2042
2046
2049
2052
2053
2052
2048
2046
2046
2048
2048
2049
2048
2049
2049
2049
2049
2050
2050
2050
2050
2049
2050
2050
2049
2049
2050
2049
2049
2048
2045
2043
2044
2048
2057
2062
2061
2055
2049
2044
2043
2044
2047
2050
2049
2049
2050
2051
2051
2051
2052
2053
2053
2053
2053
2054
2055
2057
2057
2058
2056
2053
2051
2054
2059
2063
2065
2064
2060
2056
2052
2053
2055
2056
2055
2056
2056
2056
2056
2056
2057
2057
2056
2056
2057
2057
2057
2056
2057
2058
2057
2056
2053
2052
2053
2058
2065
2068
2067
2062
2057
2054
2052
2056
2057
2057
2057
2057
2058
2056
2053
2049
2049
2053
2060
2065
2066
2063
2058
2054
2053
2055
2057
2055
2053
2054
2056
2059
2061
2061
2058
2053
2048
2043
2039
2034
2032
2033
2039
2047
2053
2057
2059
2057
2054
2052
2052
2052
2052
2051
2051
2052
2051
2050
2048
2047
2047
2048
2050
2054
2056
2053
2049
2047
2044
2044
2045
2046
2047
2046
2045
2045
2045
2044
2044
2044
2044
2043
2042
2042
2042
2041
2040
2039
2040
2040
2039
2039
2040
2043
2045
2047
2047
2045
2041
2039
2039
2041
2042
2043
2042
2042
2042
2042
2042
2042
2042
2042
2042
2042
2042
2042
2042
2042
2044
2043
2042
2041
2040
2041
2043
2045
2046
2045
2044
2042
2040
2042
2042
2042
2042
2041
2041
2043
2046
2046
2045
2043
2042
2042
2041
2043
2043
2043
2041
2043
2044
2045
2043
2041
2040
2041
2043
2046
2048
2047
2045
2043
2043
2044
2044
2044
2044
2044
2044
2045
2045
2045
2045
2044
2044
2044
2045
2044
2043
2042
2040
2039
2032
2026
2021
2020
2027
2040
2053
2061
2060
2053
2048
2044
2043
2048
2048
2048
2048
2048
2048
2048
2047
2047
2047
2048
2047
2047
2047
2047
2048
2047
2049
2049
2048
2045
2044
2045
2048
2053
2056
2055
2050
2046
2043
2042
2045
2045
2045
2045
2045
2045
2045
2045
2045
2045
2045
2045
2046
2046
2046
2047
2047
2048
2048
2048
2048
2048
2048
2050
2053
2054
2053
2052
2050
2050
2049
2052
2051
2052
2051
2050
2050
2050
2050
2049
2048
2048
2048
2048
2048
2049
2049
2049
2050
2051
2050
2048
2048
2049
2051
2054
2056
2056
2054
2051
2048
2048
2049
2049
2049
2049
2049
2049
2049
2048
2049
2049
2048
2049
2049
2049
2049
2048
2048
2048
2048
2047
2046
2045
2046
2048
2052
2054
2054
2050
2048
2047
2046
2047
2048
2048
2048
2048
2047
2048
2047
2045
2042
2038
2032
2027
2024
2026
2032
2040
2048
2054
2053
2049
2044
2041
2045
2050
2055
2057
2055
2049
2045
2041
2042
2045
2045
2046
2045
2045
2044
2044
2044
2044
2044
2045
2045
2045
2044
2043
2042
2044
2044
2044
2042
2039
2037
2037
2040
2046
2048
2047
2044
2039
2036
2035
2037
2038
2037
2037
2036
2037
2040
2041
2042
2042
2042
2042
2042
2043
2044
2044
2043
2045
2046
2045
2042
2040
2040
2041
2044
2048
2049
2048
2044
2041
2039
2040
2041
2040
2040
2040
2041
2041
2042
2043
2043
2042
2042
2042
2043
2042
2043
2043
2043
2045
2044
2045
2040
2036
2036
2040
2048
2054
2056
2052
2046
2040
2037
2041
2041
2045
2043
2043
2044
2043
2043
2043
2043
2043
2042
2043
2043
2041
2041
2040
2041
2041
2039
2037
2037
2039
2043
2046
2047
2045
2042
2038
2037
2037
2039
2039
2039
2039
2039
2038
2036
2034
2029
2022
2016
2013
2014
2020
2028
2037
2042
2045
2043
2040
2037
2036
2036
2037
2040
2041
2040
2039
2037
2036
2034
2036
2036
2036
2035
2035
2035
2036
2035
2035
2035
2034
2033
2032
2032
2032
2032
2031
2030
2031
2030
2028
2027
2027
2027
2028
2031
2032
2031
2028
2025
2024
2025
2025
2026
2027
2027
2027
2027
2027
2027
2026
2026
2026
2026
2027
2026
2026
2026
2026
2025
2025
2025
2023
2023
2024
2027
2029
2029
2027
2025
2023
2022
2021
2022
2023
2024
2024
2025
2025
2025
2024
2024
2025
2024
2024
2024
2024
2023
2022
2021
2021
2021
2020
2018
2016
2016
2018
2021
2023
2023
2020
2015
2013
2012
2015
2014
2015
2015
2015
2015
2015
2016
2016
2015
2015
2015
2015
2015
2015
2016
2015
2017
2016
2015
2014
2013
2013
2016
2018
2020
2018
2016
2014
2014
2011
2015
2013
2011
2006
1999
1994
1991
1991
1995
2003
2011
2017
2020
2018
2018
2015
2012
2014
2013
2012
2010
2009
2010
2011
2012
2013
2013
2014
2014
2015
2015
2013
2008
2007
2006
2007
2008
2008
2008
2008
2008
2007
2006
2007
2007
2006
2006
2006
2007
2005
2006
2006
2001
1997
1997
2002
2009
2015
2017
2014
2008
2002
2001
2002
2005
2007
2006
2006
2008
2008
2009
2009
2009
2009
2008
2008
2009
2009
2009
2010
2010
2010
2006
2004
2003
2005
2010
2014
2017
2015
2012
2008
2004
2006
2008
2008
2008
2009
2009
2009
2009
2010
2010
2009
2009
2009
2009
2009
2009
2009
2010
2012
2010
2010
2008
2007
2008
2012
2017
2018
2016
2013
2011
2010
2008
2011
2011
2011
2011
2011
2011
2011
2009
2009
2010
2011
2012
2012
2013
2013
2013
2012
2014
2014
2014
2012
2011
2012
2013
2015
2017
2018
2016
2011
2006
2001
1997
1991
1990
1993
1999
2008
2016
2021
2022
2019
2016
2014
2014
2014
2014
2015
2015
2015
2014
2013
2013
2012
2011
2013
2015
2018
2018
2017
2015
2013
2012
2012
2013
2014
2014
2014
2013
2013
2012
2012
2012
2013
2013
2013
2012
2012
2012
2011
2010
2011
2012
2012
2011
2011
2011
2014
2017
2019
2020
2017
2015
2013
2014
2016
2017
2019
2019
2020
2019
2020
2021
2021
2020
2021
2022
2022
2021
2021
2021
2020
2022
2021
2021
2020
2018
2019
2021
2025
2028
2028
2027
2024
2021
2019
2019
2024
2024
2024
2023
2022
2023
2023
2025
2027
2027
2027
2025
2026
2025
2027
2025
2027
2027
2027
2025
2024
2024
2025
2027
2030
2032
2030
2027
2025
2025
2027
2027
2028
2028
2028
2028
2028
2028
2029
2029
2029
2029
2030
2030
2030
2030
2030
2032
2032
2033
2034
2030
2026
2025
2029
2036
2040
2040
2034
2024
2014
2007
2005
2008
2015
2023
2032
2037
2038
2036
2034
2032
2031
2031
2032
2033
2032
2032
2033
2035
2035
2033
2032
2031
2031
2034
2038
2041
2040
2036
2032
2030
2029
2031
2032
2032
2032
2032
2031
2031
2032
2031
2030
2030
2030
2030
2030
2030
2031
2029
2032
2030
2030
2029
2028
2030
2033
2036
2038
2038
2036
2035
2034
2033
2037
2037
2038
2037
2037
2037
2037
2037
2037
2038
2038
2039
2039
2039
2039
2039
2039
2041
2041
2040
2037
2036
2036
2039
2042
2045
2045
2043
2039
2037
2038
2040
2039
2040
2040
2040
2040
2040
2040
2040
2040
2040
2041
2042
2042
2043
2043
2043
2045
2045
2043
2042
2038
2037
2040
2046
2051
2054
2051
2048
2044
2040
2041
2044
2044
2046
2046
2046
2046
2044
2043
2043
2043
2043
2044
2045
2046
2046
2044
2046
2046
2047
2046
2045
2044
2046
2048
2051
2054
2053
2048
2046
2042
2042
2040
2037
2032
2026
2022
2023
2029
2039
2047
2051
2052
2050
2048
2046
2045
2046
2045
2048
2045
2045
2042
2040
2042
2046
2050
2051
2049
2048
2044
2042
2040
2043
2043
2044
2044
2043
2043
2044
2043
2043
2045
2045
2045
2043
2042
2041
2041
2038
2041
2041
2041
2039
2039
2038
2039
2042
2045
2047
2046
2043
2041
2041
2043
2043
2045
2045
2045
2044
2044
2045
2046
2046
2046
2046
2045
2045
2046
2046
2047
2048
2048
2047
2047
2044
2043
2044
2048
2051
2051
2050
2048
2045
2044
2044
2046
2045
2046
2046
2047
2047
2047
2048
2048
2048
2048
2048
2048
2048
2048
2048
2048
2048
2048
2047
2046
2046
2046
2048
2051
2054
2053
2051
2048
2047
2046
2046
2048
2048
2048
2048
2048
2048
2048
2048
2048
2048
2048
2048
2048
2048
2049
2047
2048
2046
2046
2045
2044
2045
2048
2050
2052
2052
2051
2049
2048
2047
2050
2050
2051
2051
2052
2052
2052
2050
2048
2046
2041
2035
2030
2029
2033
2040
2048
2056
2059
2059
2055
2052
2050
2052
2055
2058
2059
2057
2055
2053
2053
2054
2054
2055
2056
2057
2055
2052
2050
2050
2053
2059
2065
2065
2060
2054
2050
2049
2049
2053
2051
2049
2048
2047
2049
2054
2058
2059
2056
2051
2048
2046
2046
2050
2049
2050
2050
2050
2050
2050
2051
2052
2053
2053
2054
2054
2054
2054
2054
2054
2055
2055
2054
2052
2052
2053
2056
2059
2061
2060
2056
2052
2051
2050
2052
2052
2053
2053
2053
2053
2052
2053
2052
2053
2053
2054
2054
2053
2053
2053
2051
2055
2053
2052
2050
2048
2048
2051
2056
2059
2059
2056
2052
2048
2046
2049
2048
2048
2048
2047
2049
2049
2048
2048
2047
2047
2048
2048
2049
2049
2049
2049
2051
2051
2051
2049
2048
2048
2049
2053
2056
2057
2055
2052
2050
2052
2054
2054
2057
2057
2058
2058
2059
2059
2059
2059
2059
2060
2060
2060
2059
2059
2056
2052
2047
2041
2037
2036
2042
2053
2066
2075
2076
2071
2064
2058
2054
2057
2058
2058
2059
2059
2059
2059
2058
2058
2057
2057
2056
2055
2055
2055
2054
2052
2053
2052
2052
2050
2048
2048
2049
2052
2055
2056
2053
2049
2046
2044
2045
2046
2047
2047
2047
2047
2048
2048
2049
2050
2050
2050
2050
2050
2050
2050
2051
2051
2055
2053
2053
2050
2048
2048
2054
2060
2063
2062
2059
2055
2052
2051
2055
2055
2055
2055
2055
2055
2055
2054
2054
2054
2053
2054
2054
2055
2055
2055
2054
2055
2055
2054
2053
2052
2053
2054
2057
2060
2060
2058
2055
2053
2052
2054
2055
2056
2056
2055
2054
2054
2054
2053
2052
2052
2052
2052
2051
2052
2052
2052
2053
2053
2051
2050
2048
2048
2049
2053
2056
2057
2054
2051
2048
2048
2048
2051
2050
2051
2050
2049
2049
2048
2048
2048
2048
2048
2048
2048
2048
2046
2044
2041
2036
2029
2024
2020
2022
2030
2042
2053
2061
2061
2055
2049
2045
2044
2045
2046
2048
2047
2046
2044
2042
2041
2040
2042
2045
2045
2045
2043
2042
2041
2040
2042
2042
2042
2040
2038
2035
2037
2040
2043
2045
2044
2038
2031
2028
2030
2031
2033
2034
2034
2032
2030
2030
2029
2028
2027
2030
2032
2036
2037
2035
2031
2031
2031
2030
2028
2029
2028
2030
2035
2041
2043
2039
2034
2030
2028
2030
2031
2032
2032
2031
2031
2030
2030
2030
2030
2030
2030
2030
2030
2031
2031
2031
2032
2031
2033
2032
2030
2028
2029
2031
2036
2039
2038
2034
2030
2027
2027
2029
2030
2030
2030
2031
2031
2030
2030
2030
2030
2031
2030
2031
2031
2030
2031
2030
2033
2033
2032
2029
2026
2026
2029
2034
2038
2038
2035
2032
2029
2028
2031
2031
2033
2032
2031
2032
2033
2034
2033
2033
2032
2032
2032
2032
2033
2033
2030
2031
2026
2020
2011
2005
2005
2013
2027
2041
2048
2046
2039
2032
2026
2029
2032
2032
2031
2031
2031
2031
2031
2031
2031
2030
2030
2030
2030
2029
2029
2029
2031
2032
2031
2027
2024
2023
2026
2032
2038
2040
2036
2031
2026
2024
2024
2026
2027
2027
2026
2027
2026
2026
2026
2026
2027
2027
2027
2026
2025
2025
2026
2027
2027
2028
2026
2023
2024
2027
2033
2039
2041
2040
2035
2030
2028
2030
2031
2032
2033
2032
2032
2033
2033
2033
2034
2034
2034
2035
2037
2037
2037
2036
2035
2038
2036
2037
2033
2031
2033
2039
2048
2052
2051
2046
2039
2033
2033
2039
2041
2044
2042
2041
2041
2041
2042
2042
2042
2043
2043
2042
2042
2042
2042
2043
2045
2046
2046
2043
2041
2041
2044
2049
2053
2054
2053
2048
2046
2044
2046
2049
2049
2050
2050
2050
2050
2048
2052
2052
2051
2051
2050
2050
2051
2052
2051
2049
2045
2037
2030
2024
2027
2034
2046
2059
2066
2064
2058
2050
2046
2048
2048
2051
2051
2051
2050
2050
2050
2049
2048
2048
2048
2048
2048
2049
2049
2048
2049
2051
2052
2052
2051
2049
2050
2050
2050
2052
2054
2056
2058
2058
2056
2051
2048
2046
2047
2048
2050
2048
2048
2048
2047
2047
2048
2048
2048
2048
2049
2049
2050
2050
2050
2048
2048
2049
2052
2058
2063
2064
2062
2057
2053
2049
2049
2051
2052
2053
2055
2054
2054
2054
2053
2053
2053
2054
2053
2053
2053
2053
2051
2054
2053
2052
2050
2049
2051
2056
2059
2062
2061
2058
2054
2052
2050
2054
2054
2054
2054
2055
2055
2056
2055
2054
2054
2053
2054
2055
2055
2055
2055
2054
2055
2054
2054
2052
2050
2048
2050
2053
2058
2060
2057
2053
2050
2049
2050
2051
2054
2053
2052
2052
2053
2053
2052
2051
2048
2044
2038
2031
2028
2029
2035
2045
2053
2057
2058
2055
2052
2051
2053
2055
2056
2055
2053
2051
2049
2050
2051
2051
2052
2052
2052
2052
2051
2052
2051
2051
2050
2050
2049
2049
2048
2048
2047
2048
2047
2046
2044
2043
2042
2045
2049
2052
2051
2048
2044
2041
2039
2043
2044
2045
2045
2045
2045
2045
2044
2045
2045
2046
2047
2048
2048
2048
2049
2048
2050
2049
2050
2049
2048
2050
2052
2053
2055
2054
2052
2049
2048
2047
2050
2050
2051
2051
2051
2051
2051
2050
2050
2052
2050
2050
2049
2049
2051
2053
2056
2056
2053
2050
2048
2047
2045
2050
2054
2057
2057
2054
2052
2049
2049
2050
2050
2051
2050
2049
2049
2050
2050
2050
2051
2051
2051
2051
2051
2051
2051
2050
2052
2052
2052
2050
2048
2048
2048
2052
2056
2058
2057
2053
2048
2045
2043
2039
2033
2030
2031
2036
2044
2051
2058
2060
2057
2054
2051
2050
2049
2050
2050
2051
2051
2050
2048
2046
2045
2047
2051
2055
2056
2054
2050
2048
2046
2047
2048
2048
2048
2048
2048
2048
2048
2047
2046
2045
2046
2046
2046
2046
2045
2044
2043
2045
2044
2044
2042
2040
2042
2044
2047
2048
2049
2047
2045
2043
2042
2044
2044
2045
2046
2046
2047
2047
2047
2047
2047
2046
2046
2047
2047
2047
2048
2048
2048
2048
2048
2047
2047
2047
2048
2050
2052
2052
2050
2048
2047
2046
2048
2048
2050
2050
2049
2049
2049
2049
2049
2049
2049
2049
2049
2049
2050
2050
2050
2048
2051
2049
2049
2047
2046
2048
2050
2053
2055
2053
2049
2047
2045
2045
2048
2048
2049
2050
2050
2050
2050
2051
2052
2051
2051
2051
2051
2052
2051
2051
2050
2048
2045
2039
2032
2027
2028
2035
2047
2057
2062
2060
2055
2051
2048
2049
2050
2051
2050
2050
2050
2049
2049
2048
2048
2049
2050
2051
2052
2052
2051
2048
2051
2049
2048
2047
2045
2045
2048
2051
2055
2055
2053
2048
2046
2043
2047
2046
2046
2046
2047
2047
2047
2046
2044
2046
2044
2043
2042
2042
2042
2043
2046
2048
2048
2048
2048
2048
2047
2049
2051
2055
2056
2055
2053
2051
2050
2051
2051
2051
2050
2050
2049
2050
2050
2050
2050
2050
2050
2049
2050
2049
2049
2049
2049
2051
2049
2049
2048
2048
2049
2051
2055
2056
2056
2053
2052
2051
2051
2052
2051
2052
2052
2052
2052
2053
2054
2054
2054
2054
2055
2055
2055
2055
2055
2054
2054
2055
2055
2054
2054
2054
2056
2059
2060
2059
2057
2055
2055
2054
2057
2059
2060
2060
2060
2061
2060
2058
2053
2048
2041
2037
2038
2044
2052
2062
2064
2068
2064
2060
2055
2052
2054
2057
2061
2065
2065
2062
2058
2055
2053
2057
2057
2057
2057
2056
2055
2055
2054
2054
2053
2052
2053
2053
2053
2052
2051
2050
2050
2048
2048
2046
2045
2045
2048
2051
2053
2051
2048
2044
2042
2041
2043
2043
2044
2043
2043
2044
2045
2045
2044
2045
2045
2046
2046
2046
2047
2047
2046
2047
2048
2046
2045
2042
2042
2046
2051
2057
2060
2058
2052
2048
2046
2048
2050
2051
2054
2053
2050
2048
2047
2050
2056
2060
2060
2057
2053
2050
2048
2049
2053
2052
2051
2051
2050
2048
2050
2054
2059
2061
2060
2057
2054
2052
2052
2054
2055
2057
2056
2056
2057
2057
2056
2055
2055
2055
2054
2052
2053
2052
2052
2051
2055
2053
2051
2048
2047
2048
2050
2054
2056
2055
2052
2048
2047
2046
2048
2047
2045
2040
2033
2027
2025
2027
2034
2042
2049
2053
2053
2050
2048
2047
2047
2048
2049
2049
2048
2047
2044
2044
2047
2049
2049
2048
2048
2046
2045
2045
2047
2048
2047
2046
2047
2048
2048
2048
2048
2048
2048
2046
2046
2046
2045
2045
2044
2044
2046
2043
2042
2041
2042
2044
2048
2050
2049
2046
2043
2042
2042
2042
2045
2044
2045
2046
2046
2047
2048
2048
2048
2048
2048
2049
2049
2049
2050
2050
2049
2049
2048
2047
2045
2045
2047
2049
2051
2050
2048
2047
2045
2044
2044
2046
2047
2048
2048
2048
2048
2047
2047
2047
2048
2047
2047
2048
2048
2048
2047
2050
2048
2048
2047
2045
2045
2047
2050
2053
2054
2052
2049
2048
2046
2050
2048
2049
2049
2049
2049
2050
2051
2051
2050
2050
2051
2051
2052
2052
2052
2052
2053
2053
2053
2052
2050
2050
2052
2055
2056
2052
2046
2037
2030
2027
2032
2041
2050
2057
2060
2061
2058
2055
2053
2053
2053
2054
2054
2054
2054
2054
2053
2052
2055
2053
2052
2049
2048
2049
2053
2057
2060
2059
2055
2051
2050
2048
2051
2049
2051
2050
2049
2048
2048
2048
2048
2048
2048
2048
2047
2046
2046
2047
2047
2047
2048
2048
2047
2045
2045
2048
2052
2055
2055
2052
2049
2047
2046
2049
2050
2051
2050
2050
2050
2050
2051
2051
2052
2052
2051
2051
2051
2050
2050
2048
2051
2049
2048
2045
2043
2043
2045
2049
2054
2055
2052
2048
2046
2042
2047
2046
2046
2048
2047
2047
2047
2047
2047
2046
2046
2044
2045
2043
2043
2043
2043
2044
2044
2044
2043
2041
2039
2042
2047
2049
2050
2047
2044
2040
2039
2040
2041
2041
2040
2039
2040
2040
2039
2040
2040
2040
2038
2035
2033
2028
2023
2017
2016
2019
2023
2029
2033
2036
2037
2038
2039
2040
2038
2034
2031
2028
2030
2030
2029
2030
2029
2029
2027
2027
2027
2026
2025
2024
2023
2023
2023
2023
2022
2023
2021
2021
2019
2017
2015
2017
2021
2025
2025
2022
2018
2015
2012
2012
2014
2014
2013
2012
2012
2013
2013
2012
2012
2012
2012
2011
2011
2011
2011
2011
2010
2014
2012
2010
2006
2004
2004
2007
2012
2016
2015
2011
2005
2003
2001
2004
2003
2004
2003
2002
2001
2002
2002
2001
2000
2000
2001
2001
2001
2001
2002
2001
2000
2003
2001
1999
1996
1994
1996
2001
2006
2009
2007
2002
1998
1995
1994
1999
1998
1998
1998
2000
2000
1999
1999
1999
1999
1998
1998
1999
1999
1999
1999
1999
1999
1999
1998
1997
1997
1998
2000
2002
2003
2003
2000
1997
1996
1996
1995
1993
1990
1985
1979
1976
1978
1983
1991
1998
2003
2003
2001
1998
1996
1996
1996
1996
1996
1997
1995
1993
1992
1994
1998
2001
2001
1999
1996
1992
1989
1992
1994
1994
1993
1994
1994
1994
1994
1994
1994
1993
1993
1992
1993
1992
1992
1991
1994
1993
1992
1991
1989
1990
1991
1994
1998
1999
1997
1995
1995
1993
1996
1996
1998
1998
1999
2000
2002
2003
2003
2003
2003
2005
2005
2004
2005
2005
2005
2003
2004
2007
2008
2009
2008
2008
2008
2011
2013
2011
2012
2009
2007
2007
2008
2009
2008
2009
2010
2011
2011
2012
2013
2013
2012
2011
2013
2013
2013
2014
2015
2016
2015
2014
2013
2012
2013
2016
2022
2025
2026
2023
2019
2017
2018
2018
2019
2022
2022
2021
2021
2022
2023
2024
2025
2026
2027
2026
2026
2026
2027
2029
2028
2029
2026
2024
2024
2027
2032
2036
2037
2033
2027
2019
2011
2008
2005
2010
2015
2024
2033
2038
2039
2037
2035
2034
2033
2034
2035
2035
2036
2036
2034
2037
2037
2036
2033
2031
2030
2033
2038
2044
2045
2041
2036
2033
2030
2033
2035
2036
2036
2036
2035
2036
2037
2037
2036
2036
2036
2035
2035
2034
2034
2034
2034
2036
2036
2033
2030
2029
2033
2039
2044
2045
2042
2038
2034
2034
2036
2040
2040
2039
2040
2040
2040
2041
2041
2042
2043
2043
2044
2045
2046
2045
2044
2045
2045
2044
2043
2042
2042
2043
2045
2047
2047
2046
2043
2042
2041
2043
2043
2043
2044
2044
2044
2045
2046
2046
2045
2045
2045
2045
2046
2046
2046
2045
2044
2047
2047
2047
2043
2041
2042
2047
2053
2058
2059
2055
2049
2046
2044
2047
2048
2048
2047
2047
2047
2047
2048
2048
2048
2048
2048
2048
2048
2048
2048
2048
2051
2051
2050
2048
2046
2045
2046
2050
2054
2056
2052
2047
2039
2031
2028
2027
2031
2038
2046
2052
2057
2057
2054
2051
2050
2050
2050
2049
2048
2049
2049
2048
2049
2050
2049
2049
2049
2050
2053
2054
2055
2054
2050
2048
2047
2048
2049
2050
2050
2050
2050
2050
2049
2049
2049
2049
2048
2048
2049
2048
2048
2048
2048
2049
2047
2047
2046
2045
2045
2047
2052
2055
2056
2054
2052
2050
2050
2051
2051
2053
2053
2053
2054
2055
2055
2055
2054
2055
2055
2054
2054
2055
2057
2056
2056
2057
2055
2054
2052
2054
2056
2059
2060
2059
2057
2053
2051
2050
2052
2054
2054
2054
2055
2055
2054
2054
2055
2055
2055
2055
2056
2057
2057
2057
2055
2059
2058
2057
2054
2051
2050
2051
2055
2061
2063
2061
2057
2055
2051
2054
2055
2056
2057
2057
2057
2058
2058
2057
2057
2057
2057
2057
2056
2056
2056
2055
2056
2057
2058
2057
2055
2054
2055
2058
2061
2063
2062
2059
2056
2054
2056
2057
2056
2054
2052
2048
2043
2038
2035
2037
2042
2050
2058
2064
2065
2063
2060
2059
2060
2057
2057
2056
2054
2055
2058
2063
2066
2064
2061
2058
2056
2054
2058
2058
2060
2059
2058
2058
2058
2058
2058
2058
2059
2059
2058
2058
2058
2057
2056
2056
2057
2058
2056
2054
2053
2054
2056
2058
2059
2058
2056
2053
2051
2054
2055
2057
2057
2057
2057
2057
2057
2058
2060
2061
2061
2061
2061
2060
2060
2059
2062
2060
2060
2057
2054
2053
2055
2060
2064
2066
2065
2061
2058
2054
2056
2056
2058
2058
2057
2058
2059
2059
2057
2057
2057
2058
2057
2057
2057
2057
2056
2056
2055
2055
2053
2052
2054
2057
2059
2060
2058
2057
2054
2053
2053
2054
2055
2054
2053
2053
2053
2053
2053
2053
2053
2052
2052
2051
2051
2050
2050
2049
2051
2051
2051
2049
2048
2048
2048
2051
2055
2057
2056
2053
2051
2048
2051
2050
2051
2048
2045
2040
2034
2029
2027
2030
2037
2046
2052
2055
2055
2053
2049
2047
2046
2047
2047
2045
2044
2044
2046
2048
2050
2050
2048
2046
2044
2042
2043
2044
2044
2043
2043
2043
2043
2043
2043
2043
2041
2041
2041
2041
2040
2040
2039
2042
2038
2038
2035
2034
2034
2038
2043
2045
2045
2042
2039
2038
2036
2040
2038
2040
2040
2039
2039
2040
2041
2040
2040
2042
2043
2043
2042
2042
2042
2041
2042
2043
2044
2041
2039
2038
2039
2042
2046
2048
2047
2044
2041
2040
2041
2041
2041
2040
2041
2041
2040
2039
2040
2040
2040
2040
2041
2040
2040
2040
2040
2039
2043
2040
2039
2036
2033
2034
2038
2044
2048
2046
2042
2038
2035
2033
2038
2038
2039
2038
2037
2037
2037
2036
2036
2037
2038
2039
2039
2040
2040
2039
2039
2040
2041
2041
2038
2036
2036
2039
2043
2045
2045
2040
2032
2024
2018
2019
2021
2025
2029
2034
2039
2045
2050
2051
2049
2044
2039
2036
2035
2037
2038
2036
2040
2037
2036
2034
2032
2030
2033
2038
2043
2045
2042
2038
2034
2030
2034
2034
2034
2034
2033
2033
2034
2034
2034
2034
2034
2034
2032
2032
2032
2032
2030
2031
2031
2030
2028
2026
2026
2029
2034
2039
2041
2039
2036
2033
2033
2034
2036
2036
2036
2036
2036
2036
2036
2036
2036
2035
2035
2035
2035
2035
2035
2035
2036
2036
2036
2035
2032
2031
2031
2035
2040
2043
2042
2039
2035
2033
2034
2035
2036
2037
2036
2035
2036
2036
2036
2036
2037
2037
2038
2038
2038
2038
2039
2039
2040
2040
2037
2035
2033
2035
2039
2042
2044
2043
2040
2037
2036
2035
2037
2037
2037
2037
2037
2037
2038
2039
2039
2039
2039
2038
2039
2039
2040
2041
2041
2045
2042
2042
2039
2036
2033
2031
2031
2027
2023
2021
2024
2030
2036
2046
2048
2048
2046
2044
2044
2044
2045
2044
2043
2044
2045
2044
2043
2045
2045
2044
2045
2043
2041
2037
2036
2037
2042
2048
2050
2051
2047
2043
2040
2040
2043
2043
2044
2041
2041
2040
2040
2040
2040
2038
2037
2036
2036
2038
2038
2038
2040
2038
2042
2040
2039
2034
2030
2031
2037
2047
2052
2054
2048
2043
2038
2035
2039
2039
2042
2042
2042
2044
2044
2043
2043
2043
2044
2044
2044
2044
2042
2039
2040
2041
2042
2042
2039
2037
2038
2043
2048
2052
2052
2047
2041
2036
2036
2040
2041
2043
2042
2042
2041
2042
2043
2044
2043
2045
2045
2045
2045
2045
2045
2043
2047
2046
2043
2041
2037
2036
2038
2047
2053
2056
2054
2048
2044
2038
2043
2045
2046
2047
2046
2046
2046
2045
2046
2045
2046
2046
2045
2046
2047
2048
2046
2048
2046
2043
2035
2026
2019
2019
2026
2039
2051
2058
2056
2052
2046
2046
2045
2046
2047
2047
2048
2048
2048
2048
2048
2048
2048
2049
2050
2049
2048
2048
2048
2048
2048
2047
2045
2043
2044
2048
2052
2055
2054
2050
2046
2042
2041
2043
2043
2044
2043
2042
2043
2042
2041
2042
2041
2042
2041
2041
2042
2043
2043
2043
2044
2044
2043
2041
2039
2039
2042
2047
2051
2052
2049
2045
2042
2040
2042
2043
2045
2046
2047
2047
2047
2047
2047
2046
2045
2045
2045
2044
2044
2044
2042
2046
2045
2046
2042
2039
2038
2041
2048
2053
2056
2053
2048
2046
2041
2045
2047
2047
2046
2045
2045
2046
2045
2045
2045
2046
2046
2046
2047
2048
2048
2046
2047
2048
2048
2046
2044
2043
2046
2049
2054
2057
2054
2050
2046
2044
2047
2047
2048
2048
2047
2048
2048
2048
2049
2049
2049
2050
2049
2049
2050
2051
2051
2051
2048
2047
2043
2035
2028
2023
2027
2038
2048
2056
2058
2055
2050
2048
2047
2048
2048
2048
2048
2049
2048
2048
2049
2049
2049
2048
2048
2049
2049
2049
2048
2051
2050
2050
2047
2043
2042
2044
2050
2057
2060
2056
2050
2047
2043
2048
2046
2047
2046
2045
2045
2045
2046
2046
2044
2044
2045
2046
2046
2046
2046
2044
2046
2048
2048
2047
2044
2042
2046
2052
2059
2061
2059
2052
2046
2043
2046
2051
2053
2051
2051
2048
2049
2050
2052
2055
2057
2055
2052
2050
2047
2047
2046
2048
2049
2048
2048
2046
2046
2048
2053
2058
2061
2060
2056
2052
2050
2051
2050
2051
2052
2051
2050
2050
2050
2051
2051
2051
2051
2052
2052
2052
2053
2053
2052
2054
2051
2051
2049
2047
2048
2052
2058
2061
2061
2058
2054
2049
2047
2050
2049
2050
2050
2051
2052
2052
2052
2052
2052
2052
2051
2051
2052
2052
2051
2052
2052
2050
2045
2037
2031
2028
2032
2040
2050
2056
2059
2058
2056
2054
2053
2053
2053
2053
2053
2053
2053
2053
2052
2051
2051
2052
2052
2052
2050
2048
2046
2048
2050
2057
2060
2057
2053
2050
2050
2053
2056
2058
2056
2053
2048
2050
2050
2051
2052
2051
2052
2052
2051
2050
2051
2051
2050
2050
2050
2050
2050
2049
2049
2050
2050
2049
2048
2048
2049
2052
2057
2059
2059
2056
2053
2052
2052
2053
2054
2055
2056
2055
2055
2055
2056
2055
2055
2056
2056
2056
2055
2055
2055
2055
2055
2054
2054
2052
2051
2052
2055
2058
2059
2058
2057
2055
2052
2052
2054
2055
2055
2055
2055
2054
2054
2054
2054
2055
2055
2055
2055
2056
2056
2055
2054
2055
2054
2054
2052
2051
2051
2052
2056
2060
2061
2058
2055
2052
2050
2052
2052
2054
2053
2053
2053
2053
2053
2052
2048
2045
2040
2036
2034
2037
2044
2050
2060
2063
2064
2060
2054
2051
2053
2056
2059
2059
2058
2055
2053
2051
2055
2055
2056
2055
2054
2054
2055
2054
2054
2055
2055
2054
2053
2054
2053
2052
2051
2051
2053
2053
2052
2052
2050
2050
2052
2056
2059
2060
2058
2055
2053
2052
2053
2054
2053
2056
2054
2055
2055
2056
2055
2055
2056
2056
2056
2056
2057
2057
2057
2058
2059
2059
2059
2059
2060
2064
2067
2069
2069
2067
2066
2064
2065
2067
2069
2068
2068
2068
2068
2067
2066
2066
2065
2064
2063
2062
2061
2060
2060
2060
2061
2060
2058
2055
2054
2054
2056
2060
2063
2062
2060
2057
2057
2057
2057
2059
2059
2059
2058
2058
2058
2058
2058
2059
2059
2060
2060
2060
2059
2059
2057
2059
2057
2058
2056
2053
2053
2055
2059
2061
2060
2056
2049
2042
2034
2035
2036
2042
2050
2059
2065
2066
2064
2061
2058
2057
2056
2056
2057
2057
2056
2055
2058
2058
2056
2053
2050
2049
2051
2055
2060
2061
2057
2052
2048
2046
2048
2048
2049
2049
2049
2048
2048
2048
2048
2048
2047
2047
2047
2047
2047
2048
2048
2047
2049
2048
2048
2043
2041
2043
2047
2051
2054
2054
2051
2048
2045
2043
2048
2046
2047
2046
2046
2046
2046
2046
2047
2047
2047
2047
2047
2047
2046
2046
2047
2048
2048
2047
2044
2042
2042
2045
2050
2053
2053
2048
2045
2042
2041
2043
2045
2048
2048
2048
2048
2048
2048
2048
2047
2048
2048
2048
2049
2049
2050
2048
2051
2049
2048
2048
2043
2042
2044
2048
2054
2056
2056
2052
2048
2044
2048
2048
2048
2048
2048
2048
2048
2048
2048
2048
2047
2046
2044
2040
2035
2029
2024
2024
2027
2033
2040
2047
2048
2048
2048
2049
2050
2049
2049
2048
2047
2046
2045
2046
2046
2047
2046
2047
2047
2047
2047
2047
2048
2047
2047
2047
2047
2047
2047
2047
2047
2046
2045
2044
2045
2048
2051
2052
2052
2049
2047
2045
2046
2048
2048
2048
2048
2048
2049
2049
2049
2050
2051
2051
2052
2053
2054
2054
2055
2056
2058
2060
2060
2059
2059
2059
2062
2066
2069
2068
2065
2062
2061
2060
2061
2063
2063
2063
2063
2063
2064
2064
2063
2063
2063
2064
2064
2063
2064
2063
2061
2064
2063
2065
2064
2062
2062
2064
2067
2069
2070
2070
2067
2064
2061
2066
2064
2064
2064
2063
2062
2062
2063
2064
2065
2065
2066
2066
2067
2067
2067
2067
2068
2068
2068
2066
2065
2064
2064
2068
2072
2074
2070
2065
2057
2050
2045
2044
2047
2053
2061
2068
2072
2071
2069
2066
2065
2066
2067
2067
2067
2067
2067
2065
2068
2066
2065
2061
2058
2060
2064
2069
2072
2071
2067
2063
2060
2059
2064
2062
2062
2061
2061
2060
2060
2059
2060
2059
2058
2057
2058
2058
2057
2057
2057
2058
2057
2058
2056
2054
2054
2057
2060
2064
2065
2062
2060
2058
2057
2060
2060
2062
2062
2062
2062
2063
2063
2063
2063
2063
2064
2064
2065
2065
2065
2062
2066
2063
2063
2059
2056
2055
2058
2064
2068
2070
2068
2064
2058
2052
2055
2056
2060
2066
2070
2069
2066
2062
2060
2059
2061
2062
2061
2060
2059
2059
2059
2058
2058
2057
2057
2056
2054
2055
2056
2060
2062
2062
2061
2059
2058
2057
2056
2057
2058
2057
2059
2059
2058
2056
2053
2049
2045
2040
2038
2040
2046
2053
2059
2063
2062
2059
2054
2051
2051
2054
2057
2060
2061
2058
2054
2051
2050
2050
2050
2051
2050
2051
2051
2052
2052
2052
2052
2052
2052
2052
2052
2053
2054
2055
2056
2056
2054
2052
2050
2049
2051
2054
2057
2057
2055
2053
2051
2049
2049
2051
2051
2051
2050
2050
2051
2051
2051
2051
2051
2051
2051
2052
2052
2053
2052
2056
2054
2054
2051
2049
2050
2053
2058
2060
2060
2057
2053
2051
2050
2054
2053
2052
2052
2052
2052
2052
2052
2051
2051
2050
2050
2050
2050
2050
2050
2050
2051
2052
2053
2051
2049
2048
2048
2051
2055
2057
2057
2054
2051
2050
2050
2050
2051
2050
2050
2050
2051
2051
2051
2051
2052
2052
2052
2052
2052
2052
2052
2051
2055
2053
2051
2048
2045
2046
2050
2054
2054
2048
2038
2031
2030
2036
2048
2055
2059
2057
2054
2050
2049
2049
2051
2052
2052
2053
2054
2054
2054
2053
2053
2055
2054
2055
2053
2050
2049
2050
2054
2058
2058
2055
2051
2048
2047
2049
2050
2051
2050
2049
2049
2049
2049
2048
2048
2048
2048
2048
2048
2048
2048
2045
2048
2048
2048
2047
2044
2045
2048
2055
2061
2063
2061
2057
2054
2052
2056
2057
2057
2057
2057
2056
2056
2056
2056
2057
2056
2057
2056
2056
2055
2055
2055
2055
2056
2056
2056
2054
2052
2051
2053
2055
2056
2055
2052
2051
2051
2053
2055
2056
2054
2051
2051
2052
2052
2054
2054
2054
2054
2054
2055
2055
2056
2055
2055
2055
2055
2055
2054
2053
2053
2054
2056
2058
2058
2056
2054
2052
2052
2053
2053
2053
2054
2054
2054
2054
2055
2055
2055
2055
2055
2054
2054
2054
2054
2052
2048
2043
2034
2029
2030
2037
2048
2059
2066
2065
2060
2055
2052
2051
2052
2054
2053
2053
2053
2054
2054
2054
2054
2053
2053
2053
2053
2054
2054
2055
2053
2056
2055
2056
2054
2052
2051
2053
2056
2058
2059
2058
2055
2053
2050
2053
2051
2049
2048
2048
2047
2047
2048
2048
2048
2048
2048
2049
2049
2049
2050
2049
2051
2052
2052
2053
2052
2051
2051
2054
2059
2062
2063
2061
2059
2056
2055
2055
2056
2056
2056
2056
2056
2056
2056
2056
2056
2056
2054
2054
2053
2053
2053
2052
2054
2055
2053
2049
2047
2047
2050
2057
2063
2064
2061
2055
2052
2050
2054
2056
2057
2056
2056
2055
2056
2056
2056
2055
2055
2055
2056
2055
2055
2054
2054
2055
2055
2055
2052
2050
2049
2052
2057
2061
2063
2061
2058
2056
2053
2056
2056
2057
2056
2055
2056
2056
2056
2056
2055
2054
2050
2046
2041
2036
2034
2035
2046
2053
2057
2060
2055
2051
2051
2053
2059
2062
2061
2057
2053
2049
2052
2052
2052
2054
2053
2053
2053
2053
2053
2053
2052
2052
2052
2052
2051
2051
2051
2052
2052
2053
2051
2048
2046
2046
2048
2052
2055
2054
2050
2048
2046
2047
2048
2051
2050
2048
2047
2047
2048
2048
2049
2049
2049
2048
2048
2049
2050
2051
2051
2053
2053
2052
2051
2050
2051
2054
2058
2061
2061
2059
2055
2052
2053
2055
2055
2056
2056
2056
2055
2055
2055
2055
2054
2055
2056
2056
2056
2056
2057
2057
2058
2058
2057
2056
2055
2056
2059
2063
2065
2063
2061
2059
2058
2057
2058
2059
2059
2058
2058
2058
2059
2059
2059
2060
2060
2060
2059
2059
2059
2059
2057
2060
2059
2059
2057
2056
2056
2059
2062
2066
2067
2065
2062
2060
2057
2060
2060
2060
2060
2060
2059
2056
2052
2047
2041
2037
2039
2046
2052
2058
2062
2063
2066
2067
2067
2065
2060
2054
2053
2057
2063
2066
2064
2061
2058
2056
2057
2057
2059
2059
2059
2059
2059
2058
2057
2057
2058
2059
2059
2059
2059
2058
2057
2055
2058
2055
2054
2050
2048
2050
2053
2058
2061
2060
2056
2052
2050
2049
2054
2052
2054
2054
2054
2053
2053
2054
2054
2055
2055
2056
2057
2056
2056
2056
2056
2058
2058
2059
2058
2055
2054
2055
2060
2063
2064
2062
2058
2056
2053
2056
2056
2057
2056
2055
2056
2056
2056
2056
2056
2056
2056
2056
2057
2058
2058
2055
2059
2057
2057
2055
2052
2052
2055
2060
2065
2067
2065
2060
2056
2052
2056
2055
2056
2056
2056
2056
2056
2056
2057
2056
2056
2056
2056
2057
2057
2058
2057
2058
2057
2058
2058
2056
2054
2054
2056
2058
2059
2054
2050
2041
2032
2030
2032
2041
2051
2060
2065
2066
2062
2058
2056
2055
2058
2056
2056
2057
2056
2055
2055
2055
2055
2055
2053
2052
2052
2053
2056
2060
2061
2059
2055
2052
2051
2051
2051
2053
2053
2052
2051
2050
2050
2050
2049
2049
2049
2048
2048
2048
2048
2048
2048
2048
2047
2045
2044
2045
2048
2051
2054
2055
2054
2052
2050
2048
2049
2052
2052
2052
2052
2052
2053
2052
2052
2053
2053
2052
2051
2051
2051
2051
2050
2054
2052
2050
2050
2048
2048
2049
2052
2055
2057
2055
2052
2050
2048
2051
2050
2050
2052
2052
2051
2051
2051
2051
2051
2051
2051
2052
2052
2052
2052
2051
2052
2051
2051
2049
2048
2046
2047
2049
2053
2055
2054
2052
2050
2048
2048
2049
2050
2049
2050
2050
2050
2050
2049
2050
2050
2051
2050
2049
2048
2045
2039
2033
2033
2031
2034
2038
2045
2051
2057
2060
2061
2058
2053
2050
2049
2048
2052
2050
2051
2051
2050
2050
2050
2050
2050
2050
2050
2050
2050
2049
2048
2048
2047
2050
2050
2050
2047
2042
2041
2045
2051
2057
2058
2053
2048
2044
2041
2045
2047
2048
2046
2046
2046
2046
2046
2046
2047
2047
2047
2047
2047
2047
2048
2048
2049
2049
2049
2048
2048
2048
2049
2051
2053
2054
2053
2051
2050
2049
2051
2051
2051
2050
2050
2049
2049
2049
2050
2049
2049
2050
2049
2049
2048
2048
2048
2048
2050
2051
2050
2049
2047
2048
2049
2053
2054
2054
2053
2050
2048
2048
2048
2050
2051
2052
2053
2053
2051
2049
2049
2049
2050
2049
2048
2048
2048
2048
2048
2049
2049
2048
2048
2048
2048
2049
2052
2054
2054
2051
2049
2048
2048
2048
2049
2048
2048
2047
2044
2039
2033
2028
2025
2029
2037
2047
2052
2055
2055
2052
2050
2048
2048
2048
2047
2048
2049
2051
2051
2050
2048
2048
2047
2045
2047
2047
2046
2046
2046
2047
2047
2046
2046
2046
2046
2045
2045
2045
2046
2046
2044
2046
2045
2045
2043
2041
2040
2042
2045
2047
2048
2047
2044
2042
2040
2044
2043
2043
2044
2043
2043
2043
2044
2045
2045
2046
2047
2048
2047
2048
2048
2048
2048
2049
2048
2048
2043
2040
2040
2045
2052
2056
2056
2053
2048
2043
2042
2045
2044
2046
2045
2046
2046
2046
2046
2046
2046
2046
2046
2046
2047
2047
2046
2047
2048
2047
2045
2042
2041
2042
2047
2051
2054
2052
2048
2043
2040
2041
2044
2044
2045
2045
2045
2045
2046
2046
2046
2045
2044
2045
2045
2044
2044
2043
2046
2044
2045
2045
2042
2038
2037
2041
2046
2049
2050
2048
2045
2041
2039
2041
2042
2042
2039
2036
2031
2024
2019
2019
2024
2033
2042
2048
2050
2048
2045
2043
2044
2043
2043
2041
2040
2040
2043
2045
2047
2047
2045
2042
2040
2039
2041
2040
2041
2041
2041
2040
2041
2041
2041
2041
2040
2042
2042
2041
2041
2040
2040
2039
2039
2040
2038
2037
2035
2036
2036
2040
2041
2040
2035
2032
2028
2029
2034
2041
2044
2044
2042
2039
2035
2035
2037
2039
2037
2039
2039
2038
2038
2038
2039
2040
2041
2039
2038
2038
2038
2039
2042
2044
2044
2041
2040
2038
2038
2037
2036
2035
2035
2037
2040
2042
2042
2041
2039
2038
2039
2039
2039
2038
2039
2038
2041
2040
2039
2038
2036
2037
2041
2043
2044
2042
2039
2037
2036
2036
2040
2039
2039
2039
2039
2038
2038
2038
2038
2040
2040
2039
2039
2039
2041
2041
2040
2043
2041
2040
2037
2034
2034
2036
2041
2046
2048
2045
2041
2039
2036
2038
2039
2040
2040
2040
2040
2041
2041
2041
2039
2038
2036
2033
2028
2023
2019
2017
2021
2029
2037
2043
2044
2041
2040
2042
2047
2049
2048
2046
2042
2039
2039
2039
2040
2039
2038
2040
2041
2040
2040
2039
2039
2038
2038
2039
2039
2039
2039
2040
2042
2041
2040
2036
2034
2033
2037
2042
2047
2048
2042
2037
2034
2033
2035
2036
2037
2037
2036
2036
2037
2038
2039
2039
2039
2038
2038
2038
2038
2041
2038
2044
2043
2045
2042
2038
2037
2040
2048
2052
2055
2051
2046
2041
2037
2042
2042
2044
2043
2044
2045
2044
2045
2045
2045
2045
2044
2044
2044
2044
2044
2042
2046
2046
2046
2043
2040
2038
2039
2044
2050
2053
2051
2048
2043
2040
2042
2043
2044
2044
2043
2043
2046
2046
2047
2045
2043
2045
2045
2047
2046
2047
2046
2046
2046
2045
2043
2038
2037
2041
2048
2054
2057
2054
2049
2045
2044
2044
2046
2046
2044
2043
2045
2047
2048
2048
2047
2047
2045
2045
2046
2043
2037
2031
2026
2023
2025
2028
2034
2042
2048
2053
2057
2057
2055
2049
2046
2044
2045
2046
2047
2047
2047
2046
2047
2047
2046
2045
2044
2044
2045
2044
2045
2045
2044
2045
2045
2045
2044
2042
2039
2039
2044
2048
2050
2048
2045
2040
2036
2037
2038
2040
2042
2041
2042
2041
2039
2040
2040
2041
2039
2039
2040
2041
2042
2041
2041
2043
2043
2043
2040
2038
2038
2041
2047
2051
2053
2050
2046
2043
2041
2044
2045
2046
2046
2045
2044
2044
2044
2045
2045
2045
2046
2045
2044
2044
2045
2044
2045
2046
2046
2044
2040
2037
2039
2044
2050
2054
2053
2049
2045
2042
2043
2045
2046
2045
2044
2044
2044
2044
2044
2046
2047
2046
2046
2047
2047
2046
2046
2047
2048
2047
2045
2041
2039
2040
2047
2053
2057
2055
2048
2042
2039
2040
2043
2045
2046
2046
2045
2045
2045
2046
2046
2045
2045
2043
2038
2032
2027
2023
2021
2030
2038
2047
2050
2049
2048
2048
2050
2053
2055
2053
2048
2044
2040
2045
2045
2046
2046
2046
2046
2046
2045
2045
2045
2045
2045
2046
2046
2045
2045
2042
2047
2046
2046
2044
2042
2041
2042
2046
2049
2050
2048
2043
2040
2037
2039
2039
2040
2040
2039
2039
2040
2041
2041
2041
2041
2042
2042
2042
2042
2044
2044
2045
2046
2047
2046
2044
2042
2044
2048
2051
2054
2053
2049
2047
2046
2047
2047
2048
2046
2045
2047
2048
2048
2048
2048
2047
2045
2045
2046
2046
2045
2045
2046
2047
2048
2047
2046
2044
2044
2045
2048
2050
2051
2048
2047
2045
2045
2046
2047
2047
2048
2048
2048
2048
2048
2047
2047
2048
2048
2048
2048
2048
2048
2048
2048
2048
2047
2046
2045
2046
2048
2049
2050
2050
2049
2048
2046
2045
2046
2047
2047
2047
2048
2048
2048
2047
2048
2048
2047
2045
2043
2039
2034
2029
2023
2027
2030
2039
2046
2050
2052
2051
2051
2051
2051
2049
2048
2048
2046
2048
2047
2047
2047
2047
2048
2048
2048
2048
2048
2048
2048
2047
2047
2047
2047
2047
2047
2048
2047
2045
2042
2041
2043
2048
2050
2051
2049
2046
2042
2040
2042
2043
2043
2042
2042
2043
2043
2042
2042
2042
2043
2044
2041
2040
2038
2039
2043
2050
2055
2053
2049
2043
2040
2041
2047
2053
2055
2053
2050
2048
2046
2047
2048
2048
2049
2048
2048
2048
2048
2048
2048
2048
2049
2049
2048
2048
2048
2047
2047
2050
2049
2048
2046
2044
2045
2050
2056
2059
2059
2054
2049
2047
2045
2049
2048
2049
2049
2049
2049
2048
2048
2049
2049
2049
2049
2049
2050
2050
2050
2049
2053
2051
2051
2049
2047
2046
2047
2049
2054
2055
2054
2051
2049
2048
2049
2048
2050
2051
2050
2049
2050
2050
2050
2050
2050
2051
2049
2048
2047
2044
2039
2032
2027
2027
2029
2035
2044
2052
2058
2060
2059
2056
2053
2050
2049
2051
2050
2050
2048
2049
2050
2052
2053
2053
2052
2050
2049
2048
2048
2050
2049
2049
2048
2051
2048
2048
2045
2043
2043
2047
2053
2058
2057
2052
2048
2044
2041
2046
2046
2047
2046
2045
2045
2046
2046
2046
2046
2046
2046
2045
2046
2046
2048
2048
2048
2050
2049
2048
2048
2049
2051
2054
2056
2056
2054
2052
2051
2049
2052
2052
2052
2052
2052
2053
2052
2053
2053
2053
2052
2052
2052
2052
2052
2052
2051
2053
2051
2051
2049
2048
2048
2050
2054
2057
2058
2056
2053
2053
2050
2053
2053
2053
2054
2053
2053
2055
2055
2054
2054
2054
2054
2053
2054
2055
2055
2054
2054
2054
2054
2053
2052
2052
2053
2055
2057
2059
2058
2056
2053
2052
2054
2055
2056
2056
2056
2056
2055
2055
2056
2056
2055
2055
2056
2056
2057
2056
2056
2054
2055
2049
2044
2035
2029
2028
2036
2049
2061
2066
2066
2062
2058
2054
2056
2056
2057
2056
2056
2057
2058
2058
2058
2058
2058
2059
2058
2058
2058
2058
2056
2058
2059
2058
2055
2053
2053
2055
2059
2062
2063
2060
2056
2053
2050
2054
2054
2055
2054
2054
2053
2052
2053
2053
2053
2052
2052
2053
2054
2053
2053
2051
2056
2054
2054
2053
2052
2052
2056
2062
2067
2068
2065
2060
2058
2055
2058
2059
2060
2060
2059
2059
2061
2061
2060
2060
2060
2060
2059
2059
2059
2059
2059
2059
2059
2060
2058
2056
2054
2056
2059
2063
2065
2064
2062
2059
2057
2060
2059
2058
2057
2058
2060
2061
2062
2062
2061
2059
2058
2058
2059
2060
2060
2060
2061
2062
2062
2062
2061
2061
2062
2066
2070
2072
2071
2068
2065
2061
2062
2063
2063
2064
2063
2063
2064
2064
2064
2064
2064
2064
2064
2064
2064
2065
2063
2065
2065
2066
2064
2061
2058
2056
2054
2050
2048
2046
2046
2049
2056
2065
2069
2070
2068
2066
2064
2064
2063
2063
2063
2063
2063
2062
2063
2063
2062
2062
2061
2065
2061
2060
2058
2056
2056
2059
2063
2065
2065
2062
2059
2058
2057
2059
2058
2059
2058
2057
2056
2056
2055
2054
2053
2054
2054
2054
2053
2054
2053
2053
2052
2055
2055
2053
2051
2050
2052
2056
2060
2063
2062
2058
2054
2053
2053
2056
2057
2057
2057
2058
2057
2057
2058
2058
2057
2057
2057
2057
2057
2057
2057
2057
2058
2056
2057
2056
2054
2054
2056
2060
2062
2062
2060
2058
2056
2054
2056
2056
2057
2056
2055
2054
2054
2053
2053
2054
2054
2053
2053
2053
2054
2053
2052
2055
2055
2055
2052
2050
2050
2053
2058
2061
2063
2059
2054
2051
2049
2054
2053
2054
2054
2054
2053
2053
2054
2054
2054
2053
2053
2053
2053
2053
2054
2051
2054
2048
2044
2037
2030
2026
2031
2041
2053
2061
2064
2063
2058
2052
2052
2052
2053
2053
2052
2051
2052
2052
2051
2052
2052
2053
2051
2051
2051
2050
2050
2048
2051
2051
2048
2047
2044
2045
2048
2054
2058
2057
2052
2048
2045
2045
2048
2048
2046
2046
2045
2044
2044
2046
2046
2045
2045
2045
2046
2046
2046
2047
2047
2048
2048
2048
2046
2044
2043
2048
2052
2056
2054
2050
2047
2046
2048
2055
2058
2058
2053
2050
2048
2048
2049
2050
2049
2049
2049
2049
2050
2050
2050
2050
2051
2052
2051
2049
2048
2049
2051
2053
2055
2056
2054
2051
2050
2049
2051
2051
2050
2051
2051
2051
2052
2052
2052
2052
2051
2051
2052
2052
2051
2052
2050
2054
2053
2053
2051
2048
2048
2048
2053
2057
2058
2055
2052
2050
2048
2052
2052
2052
2052
2052
2052
2052
2052
2051
2051
2052
2052
2052
2052
2053
2051
2048
2047
2042
2037
2029
2025
2028
2036
2048
2059
2065
2064
2058
2052
2049
2050
2051
2052
2053
2052
2052
2051
2051
2051
2051
2050
2051
2051
2052
2051
2051
2050
2051
2054
2051
2050
2046
2044
2046
2051
2058
2061
2059
2053
2049
2047
2047
2050
2049
2050
2048
2048
2048
2048
2047
2047
2048
2048
2048
2048
2048
2048
2046
2048
2049
2050
2049
2047
2045
2046
2050
2056
2060
2061
2057
2053
2050
2050
2054
2053
2055
2054
2054
2054
2054
2055
2054
2053
2053
2053
2054
2054
2054
2053
2051
2055
2052
2052
2049
2047
2047
2050
2058
2064
2064
2060
2056
2051
2049
2051
2053
2054
2054
2054
2054
2055
2054
2054
2054
2054
2054
2053
2053
2054
2055
2055
2055
2056
2057
2055
2054
2052
2053
2054
2057
2058
2057
2055
2053
2052
2054
2054
2056
2055
2054
2053
2052
2052
2054
2056
2056
2056
2055
2053
2052
2050
2050
2046
2040
2034
2030
2029
2033
2043
2054
2065
2070
2067
2061
2055
2052
2052
2054
2056
2056
2055
2054
2055
2055
2054
2054
2054
2053
2052
2052
2053
2053
2052
2052
2053
2053
2052
2052
2051
2051
2052
2054
2055
2055
2053
2050
2049
2049
2050
2050
2049
2050
2049
2049
2049
2049
2050
2049
2049
2050
2050
2050
2049
2050
2049
2052
2050
2051
2051
2050
2051
2053
2057
2059
2060
2059
2058
2057
2055
2057
2057
2058
2056
2056
2057
2057
2057
2057
2057
2057
2057
2056
2056
2057
2057
2056
2056
2058
2057
2054
2051
2050
2053
2058
2064
2067
2065
2059
2055
2055
2055
2057
2057
2057
2057
2057
2056
2056
2056
2056
2056
2057
2058
2058
2057
2057
2057
2058
2058
2057
2057
2054
2053
2054
2058
2062
2063
2061
2059
2056
2053
2055
2058
2058
2059
2058
2058
2058
2058
2057
2057
2058
2058
2058
2059
2060
2060
2056
2054
2054
2048
2042
2034
2031
2035
2046
2060
2071
2075
2071
2064
2057
2054
2059
2059
2060
2060
2060
2059
2059
2059
2059
2059
2059
2059
2059
2059
2059
2060
2058
2062
2060
2060
2058
2055
2054
2057
2061
2064
2064
2062
2059
2056
2054
2056
2055
2056
2055
2054
2054
2055
2054
2055
2055
2055
2055
2054
2055
2055
2055
2055
2055
2057
2057
2056
2055
2056
2058
2063
2068
2070
2068
2063
2060
2059
2059
2061
2061
2061
2060
2059
2059
2059
2060
2060
2061
2061
2061
2060
2059
2058
2059
2058
2061
2060
2061
2059
2056
2055
2058
2061
2063
2063
2062
2059
2058
2057
2059
2059
2060
2059
2059
2059
2060
2060
2060
2061
2061
2060
2060
2061
2062
2061
2060
2062
2062
2060
2059
2058
2059
2061
2064
2067
2067
2064
2061
2059
2057
2060
2060
2061
2062
2063
2062
2063
2063
2063
2061
2061
2062
2062
2061
2062
2063
2062
2062
2059
2057
2052
2046
2040
2039
2042
2049
2057
2065
2069
2070
2066
2064
2063
2063
2062
2062
2063
2063
2062
2061
2062
2062
2061
2062
2062
2062
2062
2061
2062
2061
2062
2060
2059
2060
2061
2063
2065
2067
2065
2061
2058
2058
2059
2058
2059
2059
2059
2057
2057
2057
2057
2056
2055
2055
2056
2056
2056
2056
2056
2056
2057
2055
2056
2055
2054
2055
2059
2063
2064
2063
2061
2058
2057
2056
2060
2059
2060
2059
2058
2058
2058
2058
2059
2060
2058
2055
2053
2053
2057
2061
2063
2065
2061
2056
2051
2050
2051
2054
2057
2060
2061
2058
2055
2053
2052
2055
2055
2055
2055
2055
2055
2056
2057
2057
2056
2055
2056
2056
2057
2057
2057
2055
2058
2056
2056
2055
2052
2051
2054
2059
2063
2064
2061
2057
2054
2052
2054
2056
2056
2055
2055
2055
2056
2055
2055
2056
2056
2055
2055
2056
2055
2055
2054
2052
2048
2043
2035
2029
2029
2035
2047
2058
2066
2067
2062
2056
2053
2053
2052
2054
2055
2054
2054
2053
2053
2052
2052
2053
2055
2056
2057
2055
2054
2052
2051
2052
2053
2051
2049
2048
2050
2055
2060
2061
2059
2054
2049
2045
2045
2048
2048
2048
2048
2048
2048
2048
2048
2048
2048
2048
2047
2047
2048
2048
2047
2049
2050
2050
2048
2048
2048
2050
2053
2057
2059
2057
2054
2051
2050
2052
2052
2053
2053
2054
2053
2053
2054
2054
2054
2053
2053
2053
2053
2052
2053
2054
2054
2054
2052
2052
2051
2051
2053
2055
2057
2057
2056
2054
2053
2051
2051
2052
2051
2052
2052
2052
2053
2053
2052
2051
2051
2051
2051
2051
2051
2052
2051
2051
2052
2052
2053
2051
2051
2051
2052
2055
2058
2059
2057
2054
2052
2052
2053
2053
2054
2054
2054
2054
2053
2054
2054
2054
2053
2054
2054
2054
2054
2054
2054
2053
2055
2052
2051
2047
2041
2036
2034
2036
2040
2047
2052
2057
2059
2057
2058
2055
2053
2052
2053
2053
2053
2053
2053
2053
2053
2053
2053
2053
2053
2052
2050
2053
2054
2053
2051
2050
2049
2051
2055
2058
2059
2054
2050
2049
2048
2050
2050
2050
2050
2049
2049
2049
2050
2049
2049
2049
2049
2048
2048
2048
2048
2047
2049
2048
2048
2048
2046
2046
2049
2055
2059
2061
2059
2055
2052
2050
2052
2054
2054
2054
2053
2053
2054
2053
2053
2054
2054
2055
2054
2055
2055
2055
2055
2055
2054
2055
2053
2053
2051
2051
2053
2057
2059
2058
2056
2053
2052
2052
2051
2053
2053
2053
2053
2054
2054
2053
2051
2051
2054
2055
2056
2055
2055
2053
2051
2053
2050
2054
2051
2049
2050
2054
2059
2061
2061
2058
2054
2050
2048
2052
2052
2052
2051
2052
2052
2052
2053
2053
2053
2053
2053
2054
2054
2054
2053
2053
2053
2053
2053
2052
2052
2052
2052
2053
2052
2048
2040
2032
2029
2032
2041
2049
2057
2060
2059
2056
2055
2054
2054
2054
2054
2055
2054
2054
2054
2055
2053
2054
2053
2053
2052
2051
2051
2052
2054
2056
2055
2054
2052
2050
2048
2051
2051
2052
2051
2050
2050
2050
2050
2050
2050
2050
2049
2048
2049
2049
2049
2049
2050
2049
2048
2046
2045
2044
2046
2049
2054
2056
2054
2051
2049
2048
2051
2051
2053
2054
2054
2053
2054
2055
2055
2056
2056
2056
2056
2056
2055
2056
2055
2055
2056
2055
2055
2052
2052
2054
2058
2062
2063
2062
2059
2056
2052
2053
2056
2055
2056
2056
2056
2057
2056
2056
2056
2057
2057
2057
2057
2057
2057
2055
2057
2059
2059
2057
2054
2052
2053
2057
2062
2065
2064
2060
2057
2055
2055
2059
2060
2061
2061
2059
2058
2058
2058
2057
2057
2056
2058
2059
2059
2058
2055
2051
2054
2056
2059
2059
2057
2056
2059
2064
2070
2071
2068
2061
2053
2049
2047
2043
2037
2035
2035
2041
2050
2059
2065
2066
2063
2060
2057
2056
2056
2057
2058
2059
2059
2059
2057
2054
2052
2052
2056
2063
2068
2066
2062
2056
2054
2052
2053
2056
2057
2056
2054
2058
2056
2055
2054
2053
2053
2054
2056
2058
2058
2056
2051
2053
2051
2053
2049
2048
2049
2054
2059
2063
2063
2059
2053
2050
2048
2052
2053
2054
2055
2056
2056
2056
2056
2057
2057
2057
2058
2059
2059
2057
2057
2057
2059
2059
2058
2057
2053
2054
2057
2062
2063
2060
2055
2052
2055
2061
2067
2067
2063
2056
2051
2053
2055
2058
2056
2056
2055
2056
2056
2056
2055
2055
2054
2055
2054
2056
2053
2050
2050
2052
2056
2059
2061
2060
2057
2054
2051
2052
2053
2054
2054
2056
2056
2056
2055
2054
2054
2054
2054
2055
2055
2055
2056
2056
2057
2058
2057
2055
2053
2050
2050
2054
2061
2064
2063
2058
2052
2046
2041
2036
2031
2030
2033
2040
2049
2057
2060
2060
2058
2055
2054
2053
2053
2053
2052
2051
2052
2052
2053
2049
2048
2047
2050
2054
2058
2060
2056
2050
2048
2046
2048
2048
2048
2048
2048
2048
2047
2047
2047
2047
2046
2046
2047
2046
2045
2044
2043
2045
2045
2047
2044
2040
2037
2037
2043
2050
2054
2053
2048
2043
2037
2039
2040
2044
2045
2044
2044
2045
2046
2046
2046
2047
2048
2048
2047
2047
2047
2044
2048
2049
2050
2048
2042
2039
2040
2045
2051
2056
2057
2051
2045
2041
2042
2042
2043
2043
2043
2043
2044
2044
2044
2044
2044
2045
2045
2045
2044
2043
2044
2043
2045
2044
2042
2038
2036
2038
2044
2052
2056
2052
2048
2042
2040
2039
2041
2042
2042
2041
2042
2040
2043
2042
2042
2041
2041
2041
2043
2045
2045
2042
2040
2039
2041
2040
2038
2035
2036
2039
2043
2045
2043
2035
2026
2017
2014
2017
2021
2029
2038
2044
2046
2045
2043
2041
2039
2038
2038
2038
2039
2038
2039
2039
2040
2038
2036
2034
2031
2031
2036
2041
2046
2045
2041
2036
2032
2032
2034
2036
2037
2036
2035
2035
2037
2037
2035
2034
2031
2029
2027
2028
2030
2030
2029
2030
2029
2028
2026
2026
2027
2030
2033
2034
2034
2033
2031
2030
2030
2033
2033
2034
2035
2036
2037
2037
2038
2038
2038
2038
2038
2039
2039
2040
2039
2040
2039
2039
2039
2037
2036
2036
2037
2040
2044
2045
2042
2039
2038
2038
2039
2039
2040
2040
2040
2039
2040
2040
2039
2039
2039
2040
2039
2039
2040
2040
2040
2039
2042
2041
2040
2037
2035
2036
2041
2046
2048
2048
2045
2040
2038
2037
2041
2040
2040
2040
2040
2039
2039
2039
2039
2039
2039
2040
2041
2041
2040
2040
2039
2042
2042
2041
2038
2035
2033
2037
2045
2050
2051
2046
2036
2027
2017
2015
2017
2019
2026
2034
2042
2046
2047
2044
2042
2041
2040
2040
2039
2040
2040
2037
2041
2041
2041
2038
2036
2036
2037
2039
2042
2043
2042
2039
2037
2034
2036
2035
2036
2037
2037
2037
2036
2036
2036
2036
2036
2035
2035
2034
2033
2032
2033
2032
2031
2032
2032
2032
2031
2031
2033
2035
2036
2035
2034
2032
2032
2032
2033
2036
2037
2036
2037
2038
2037
2039
2038
2038
2037
2037
2038
2041
2042
2042
2040
2038
2038
2037
2036
2038
2038
2039
2042
2043
2044
2041
2038
2036
2035
2036
2037
2037
2038
2038
2038
2038
2039
2038
2038
2038
2038
2038
2038
2038
2039
2039
2039
2039
2037
2036
2036
2036
2038
2041
2043
2042
2040
2039
2038
2037
2037
2039
2039
2039
2039
2040
2040
2039
2038
2037
2037
2037
2037
2038
2039
2039
2037
2039
2038
2036
2035
2035
2038
2041
2043
2043
2042
2039
2036
2035
2034
2036
2032
2027
2021
2017
2014
2016
2024
2033
2041
2044
2044
2042
2040
2039
2039
2039
2042
2040
2039
2037
2035
2035
2037
2042
2046
2046
2043
2039
2037
2034
2038
2038
2039
2039
2039
2039
2039
2039
2038
2038
2039
2039
2039
2039
2040
2039
2038
2038
2040
2038
2036
2032
2031
2033
2037
2042
2044
2042
2038
2034
2032
2034
2040
2039
2040
2040
2041
2041
2041
2043
2043
2044
2044
2045
2046
2045
2045
2043
2045
2047
2047
2046
2044
2042
2043
2047
2051
2054
2052
2048
2045
2044
2042
2046
2047
2047
2046
2046
2045
2047
2047
2048
2047
2044
2042
2042
2047
2053
2058
2055
2053
2048
2043
2041
2039
2044
2048
2052
2056
2057
2054
2048
2046
2046
2048
2048
2048
2049
2048
2048
2049
2049
2050
2050
2049
2050
2050
2050
2050
2050
2052
2052
2051
2051
2050
2049
2048
2050
2053
2057
2058
2056
2053
2050
2048
2048
2048
2051
2051
2051
2051
2051
2051
2048
2047
2043
2037
2030
2026
2029
2037
2047
2054
2062
2061
2057
2051
2048
2048
2053
2057
2061
2061
2057
2052
2050
2048
2052
2052
2053
2053
2053
2053
2053
2054
2054
2053
2053
2053
2053
2053
2052
2053
2053
2053
2053
2052
2051
2051
2050
2052
2055
2056
2055
2053
2051
2050
2048
2049
2050
2050
2049
2050
2051
2052
2051
2052
2052
2053
2053
2053
2054
2055
2056
2056
2057
2057
2057
2056
2056
2057
2059
2060
2061
2062
2061
2060
2058
2058
2059
2058
2059
2060
2060
2060
2060
2060
2060
2059
2059
2059
2060
2060
2059
2059
2059
2060
2059
2059
2058
2057
2057
2058
2062
2065
2065
2063
2061
2059
2058
2059
2060
2062
2062
2061
2060
2060
2060
2060
2060
2061
2061
2060
2060
2060
2060
2059
2058
2061
2059
2059
2056
2056
2057
2060
2063
2065
2064
2061
2059
2058
2057
2061
2059
2060
2059
2059
2058
2057
2058
2056
2053
2049
2044
2040
2035
2035
2040
2047
2057
2063
2066
2064
2059
2055
2056
2060
2062
2062
2058
2055
2053
2051
2054
2056
2056
2056
2055
2056
2056
2055
2055
2055
2055
2055
2055
2056
2056
2055
2052
2055
2054
2053
2050
2048
2048
2051
2055
2058
2059
2056
2051
2048
2048
2048
2048
2048
2048
2048
2048
2049
2049
2049
2049
2048
2049
2050
2050
2050
2050
2052
2053
2052
2054
2053
2051
2050
2052
2056
2060
2060
2058
2055
2052
2051
2053
2053
2055
2053
2053
2053
2053
2054
2054
2054
2054
2053
2050
2050
2050
2052
2051
2053
2057
2054
2051
2048
2047
2048
2052
2057
2060
2060
2055
2051
2048
2048
2051
2051
2052
2052
2052
2052
2052
2052
2052
2051
2051
2052
2052
2052
2052
2051
2053
2052
2052
2052
2050
2049
2050
2053
2056
2058
2056
2054
2051
2049
2049
2049
2051
2050
2050
2051
2051
2051
2048
2046
2042
2036
2031
2029
2032
2039
2048
2054
2059
2059
2056
2051
2048
2049
2052
2055
2057
2058
2055
2052
2049
2049
2051
2050
2051
2051
2051
2050
2050
2050
2050
2049
2049
2049
2049
2049
2049
2049
2049
2050
2048
2048
2047
2046
2046
2046
2049
2051
2052
2050
2048
2046
2044
2044
2045
2047
2047
2047
2047
2047
2047
2047
2048
2048
2048
2049
2050
2051
2052
2052
2051
2054
2053
2052
2050
2049
2050
2052
2056
2059
2058
2055
2052
2050
2048
2052
2051
2053
2053
2053
2052
2052
2053
2053
2052
2052
2052
2053
2052
2052
2052
2051
2053
2053
2053
2051
2049
2048
2051
2055
2057
2057
2055
2052
2050
2049
2052
2053
2053
2052
2052
2053
2054
2054
2053
2054
2054
2054
2054
2056
2056
2055
2053
2055
2054
2052
2051
2050
2050
2052
2056
2060
2062
2060
2056
2053
2051
2052
2052
2053
2054
2054
2053
2054
2054
2054
2052
2050
2048
2042
2036
2032
2032
2037
2045
2052
2060
2062
2060
2056
2054
2056
2058
2059
2059
2057
2054
2052
2052
2052
2054
2052
2052
2052
2052
2052
2053
2052
2054
2052
2051
2051
2052
2053
2053
2053
2056
2053
2051
2048
2047
2048
2051
2057
2060
2060
2055
2049
2047
2044
2047
2047
2048
2047
2047
2048
2048
2048
2048
2048
2048
2049
2049
2050
2051
2052
2052
2053
2054
2053
2053
2052
2053
2056
2058
2059
2058
2057
2055
2053
2052
2054
2055
2055
2055
2055
2055
2054
2053
2053
2054
2054
2054
2054
2055
2055
2054
2054
2056
2056
2055
2053
2054
2055
2056
2055
2054
2052
2052
2055
2060
2063
2062
2057
2053
2050
2051
2053
2055
2055
2055
2054
2054
2055
2055
2055
2056
2057
2057
2058
2056
2056
2054
2053
2053
2056
2060
2063
2062
2059
2056
2054
2051
2054
2055
2056
2056
2056
2057
2057
2056
2055
2055
2055
2055
2055
2056
2056
2056
2055
2055
2057
2054
2051
2046
2040
2035
2034
2037
2042
2048
2051
2055
2057
2057
2058
2055
2055
2054
2054
2054
2054
2055
2055
2054
2055
2055
2055
2054
2053
2053
2052
2054
2054
2053
2051
2048
2049
2054
2059
2061
2060
2055
2051
2048
2048
2051
2052
2053
2052
2051
2051
2050
2050
2050
2050
2050
2050
2050
2050
2050
2048
2047
2049
2049
2047
2048
2046
2047
2048
2052
2058
2060
2060
2057
2054
2052
2053
2054
2054
2057
2057
2057
2058
2058
2058
2057
2057
2058
2058
2057
2057
2058
2058
2059
2058
2059
2058
2057
2055
2056
2058
2061
2062
2061
2059
2057
2055
2055
2056
2058
2057
2056
2057
2057
2057
2057
2057
2058
2058
2057
2056
2055
2055
2055
2055
2060
2060
2059
2056
2053
2053
2056
2062
2066
2067
2063
2058
2056
2054
2058
2057
2059
2058
2058
2058
2058
2058
2058
2057
2057
2057
2056
2056
2056
2057
2057
2057
2058
2058
2057
2055
2055
2058
2060
2061
2060
2059
2057
2055
2053
2053
2051
2047
2041
2036
2034
2037
2043
2051
2060
2065
2065
2063
2060
2059
2058
2058
2059
2059
2058
2057
2057
2057
2057
2059
2061
2061
2060
2058
2056
2055
2055
2055
2057
2057
2057
2057
2056
2056
2055
2054
2054
2055
2055
2054
2054
2055
2055
2053
2053
2053
2051
2050
2050
2051
2054
2056
2057
2056
2054
2051
2050
2050
2052
2054
2053
2054
2055
2056
2056
2056
2057
2058
2058
2058
2060
2060
2060
2059
2059
2061
2059
2059
2057
2058
2059
2062
2065
2067
2065
2061
2059
2058
2057
2060
2058
2060
2059
2058
2058
2059
2060
2059
2059
2059
2060
2060
2060
2061
2061
2060
2060
2060
2062
2060
2057
2054
2055
2058
2062
2066
2067
2064
2059
2055
2056
2057
2058
2058
2058
2058
2058
2057
2058
2058
2058
2057
2056
2056
2056
2056
2055
2058
2058
2058
2056
2055
2054
2054
2057
2060
2062
2061
2058
2056
2054
2053
2055
2055
2055
2052
2047
2041
2035
2032
2032
2038
2048
2056
2061
2062
2061
2059
2055
2055
2055
2055
2053
2052
2052
2054
2057
2060
2060
2058
2055
2051
2050
2051
2051
2051
2051
2052
2052
2052
2052
2053
2053
2052
2052
2053
2052
2050
2048
2048
2050
2049
2050
2048
2048
2047
2049
2052
2053
2053
2048
2046
2045
2044
2047
2046
2047
2047
2047
2048
2049
2050
2050
2050
2050
2051
2051
2052
2054
2054
2052
2053
2052
2050
2050
2049
2050
2054
2058
2060
2060
2058
2055
2053
2050
2053
2054
2053
2054
2054
2054
2053
2053
2053
2053
2053
2052
2053
2053
2053
2052
2051
2053
2052
2052
2051
2051
2050
2050
2051
2054
2057
2056
2055
2053
2051
2051
2050
2052
2053
2053
2053
2054
2054
2054
2053
2053
2053
2053
2053
2053
2054
2054
2054
2053
2054
2053
2052
2053
2056
2059
2061
2061
2060
2057
2054
2053
2053
2053
2055
2054
2054
2054
2053
2050
2047
2042
2036
2031
2031
2036
2044
2051
2058
2061
2061
2057
2054
2051
2050
2051
2054
2058
2061
2061
2057
2054
2053
2051
2054
2053
2055
2055
2054
2053
2054
2054
2054
2054
2054
2055
2054
2054
2054
2053
2051
2053
2053
2052
2051
2050
2050
2052
2055
2056
2055
2052
2049
2048
2047
2049
2049
2049
2048
2049
2050
2050
2050
2051
2052
2052
2052
2053
2055
2055
2055
2054
2057
2057
2055
2054
2053
2052
2054
2058
2063
2064
2062
2059
2056
2055
2054
2056
2056
2056
2054
2055
2057
2059
2056
2053
2051
2053
2057
2062
2065
2064
2060
2055
2052
2054
2055
2056
2055
2056
2059
2061
2063
2062
2059
2056
2054
2055
2055
2057
2056
2057
2057
2057
2057
2057
2057
2057
2056
2056
2056
2058
2057
2056
2056
2057
2058
2059
2057
2054
2052
2053
2060
2066
2067
2066
2059
2054
2052
2054
2056
2058
2057
2057
2057
2058
2058
2057
2056
2056
2055
2052
2049
2045
2040
2034
2034
2039
2046
2052
2059
2062
2064
2064
2061
2059
2058
2056
2054
2053
2056
2056
2055
2055
2055
2055
2054
2054
2055
2055
2054
2054
2055
2055
2055
2055
2055
2058
2057
2056
2055
2055
2055
2057
2059
2061
2061
2059
2057
2055
2054
2054
2052
2053
2054
2053
2053
2053
2053
2052
2052
2052
2052
2052
2052
2053
2054
2054
2055
2055
2056
2056
2055
2056
2058
2061
2063
2064
2064
2063
2060
2058
2059
2058
2060
2060
2060
2059
2058
2057
2057
2057
2057
2056
2056
2057
2057
2056
2055
2056
2056
2055
2056
2055
2054
2054
2055
2058
2061
2061
2060
2057
2054
2053
2053
2053
2057
2056
2056
2055
2055
2055
2055
2055
2057
2057
2057
2057
2057
2057
2055
2056
2056
2056
2056
2056
2056
2058
2060
2062
2062
2061
2057
2054
2050
2053
2054
2053
2055
2055
2055
2054
2054
2055
2055
2054
2054
2055
2055
2055
2054
2053
2057
2054
2051
2048
2041
2035
2031
2031
2038
2046
2053
2058
2061
2059
2057
2054
2052
2054
2053
2053
2054
2054
2053
2052
2052
2053
2053
2052
2052
2052
2052
2051
2051
2052
2051
2049
2049
2050
2053
2055
2055
2054
2052
2049
2048
2048
2049
2049
2049
2049
2049
2049
2048
2048
2048
2048
2048
2047
2047
2046
2048
2046
2045
2048
2047
2048
2047
2046
2046
2048
2054
2058
2059
2056
2054
2051
2048
2053
2053
2055
2054
2053
2053
2054
2055
2055
2054
2055
2054
2053
2053
2054
2054
2052
2053
2054
2053
2051
2050
2051
2053
2055
2057
2057
2055
2053
2051
2050
2052
2053
2053
2053
2053
2054
2053
2053
2053
2053
2052
2052
2053
2053
2053
2053
2052
2054
2053
2052
2051
2050
2051
2053
2057
2060
2061
2058
2055
2054
2052
2054
2054
2054
2054
2053
2053
2053
2054
2053
2054
2055
2055
2055
2054
2055
2055
2056
2055
2056
2057
2056
2054
2053
2054
2055
2058
2059
2058
2054
2048
2041
2035
2031
2032
2037
2044
2051
2058
2063
2063
2063
2060
2057
2057
2057
2058
2058
2056
2058
2058
2056
2056
2053
2053
2052
2057
2062
2066
2064
2060
2055
2052
2050
2052
2053
2054
2053
2053
2055
2056
2055
2054
2053
2053
2053
2053
2052
2051
2052
2049
2051
2052
2053
2050
2049
2049
2051
2054
2058
2058
2057
2053
2050
2048
2051
2052
2053
2053
2054
2055
2055
2056
2056
2057
2057
2057
2059
2058
2057
2057
2055
2060
2059
2059
2057
2053
2051
2053
2058
2064
2067
2065
2060
2057
2054
2056
2057
2056
2057
2055
2055
2057
2057
2056
2056
2055
2056
2055
2056
2057
2058
2058
2058
2058
2057
2057
2054
2052
2053
2056
2060
2065
2065
2063
2058
2053
2053
2053
2055
2058
2060
2060
2059
2056
2056
2057
2056
2056
2057
2057
2057
2058
2058
2056
2057
2057
2055
2055
2053
2051
2054
2062
2069
2072
2070
2064
2058
2050
2051
2049
2044
2040
2034
2033
2037
2045
2053
2061
2065
2065
2063
2060
2058
2057
2054
2057
2057
2056
2053
2051
2052
2056
2061
2066
2065
2062
2056
2052
2050
2054
2054
2056
2054
2055
2054
2054
2054
2055
2054
2053
2052
2052
2052
2051
2051
2050
2053
2052
2050
2048
2044
2043
2044
2050
2058
2061
2059
2053
2048
2045
2046
2047
2048
2050
2049
2049
2050
2050
2051
2051
2053
2054
2054
2054
2054
2055
2055
2055
2056
2056
2054
2052
2051
2050
2051
2052
2056
2059
2062
2062
2060
2057
2053
2050
2048
2050
2052
2052
2053
2052
2052
2051
2050
2051
2052
2053
2052
2051
2051
2052
2052
2051
2049
2048
2047
2050
2056
2060
2060
2056
2052
2050
2048
2050
2051
2051
2050
2050
2050
2050
2050
2049
2049
2049
2049
2050
2050
2051
2050
2047
2049
2050
2052
2049
2045
2043
2044
2048
2055
2059
2056
2048
2041
2031
2029
2026
2026
2028
2036
2044
2050
2054
2055
2053
2050
2048
2048
2048
2048
2048
2048
2050
2049
2049
2047
2044
2042
2044
2049
2055
2056
2053
2048
2044
2041
2043
2045
2047
2046
2043
2043
2044
2045
2044
2045
2045
2045
2042
2042
2042
2043
2043
2041
2043
2042
2040
2039
2038
2041
2043
2046
2046
2044
2041
2037
2037
2038
2042
2042
2042
2044
2044
2044
2045
2046
2046
2046
2046
2046
2046
2046
2045
2045
2045
2046
2047
2047
2044
2042
2041
2042
2047
2050
2051
2049
2047
2044
2041
2043
2044
2045
2044
2044
2045
2045
2046
2045
2045
2045
2044
2044
2044
2045
2045
2043
2044
2045
2043
2042
2041
2043
2046
2048
2050
2050
2048
2044
2042
2041
2043
2044
2044
2045
2046
2045
2045
2044
2044
2043
2043
2042
2043
2044
2044
2045
2045
2048
2045
2044
2042
2041
2041
2043
2046
2048
2048
2047
2044
2041
2037
2036
2030
2025
2021
2020
2024
2032
2041
2047
2049
2049
2047
2044
2042
2043
2043
2042
2043
2044
2044
2042
2040
2040
2042
2045
2047
2048
2047
2043
2040
2038
2041
2041
2042
2041
2042
2042
2042
2041
2042
2042
2041
2040
2041
2040
2040
2039
2039
2039
2039
2037
2038
2036
2035
2035
2036
2039
2041
2041
2040
2038
2036
2034
2036
2036
2040
2039
2040
2041
2041
2041
2042
2042
2044
2044
2045
2044
2044
2044
2043
2045
2046
2048
2044
2041
2041
2044
2048
2052
2055
2052
2048
2043
2039
2041
2041
2043
2043
2043
2043
2043
2044
2044
2044
2044
2044
2046
2045
2044
2044
2043
2047
2045
2045
2043
2042
2043
2045
2049
2051
2050
2048
2045
2043
2041
2045
2045
2046
2045
2044
2045
2045
2046
2045
2046
2047
2047
2046
2045
2045
2045
2045
2044
2048
2047
2044
2042
2040
2041
2046
2051
2055
2054
2049
2046
2043
2044
2047
2047
2046
2045
2044
2040
2035
2030
2025
2022
2024
2032
2041
2048
2052
2052
2050
2048
2047
2047
2047
2045
2044
2045
2049
2052
2053
2051
2048
2047
2043
2044
2045
2044
2047
2046
2047
2048
2048
2048
2047
2047
2045
2045
2046
2047
2047
2045
2046
2046
2044
2042
2041
2041
2043
2046
2047
2047
2045
2041
2039
2038
2041
2041
2041
2041
2041
2041
2041
2043
2043
2044
2044
2045
2046
2046
2047
2047
2047
2048
2048
2048
2048
2048
2048
2048
2051
2053
2053
2052
2050
2049
2048
2048
2048
2049
2049
2048
2048
2048
2048
2048
2047
2048
2048
2048
2048
2049
2049
2049
2049
2049
2049
2048
2047
2047
2048
2050
2053
2054
2053
2051
2048
2048
2048
2048
2048
2048
2049
2049
2049
2049
2049
2050
2049
2050
2051
2052
2051
2051
2052
2052
2053
2051
2051
2049
2048
2048
2049
2054
2056
2056
2054
2052
2051
2049
2051
2052
2053
2052
2052
2052
2051
2050
2051
2052
2053
2053
2052
2050
2047
2042
2034
2032
2030
2031
2035
2040
2047
2053
2057
2061
2062
2060
2056
2052
2048
2050
2051
2051
2053
2053
2052
2052
2052
2052
2052
2052
2052
2052
2052
2051
2051
2051
2054
2054
2053
2051
2048
2046
2047
2051
2056
2057
2055
2050
2047
2044
2045
2048
2047
2047
2046
2046
2047
2047
2047
2047
2047
2048
2047
2047
2048
2048
2047
2047
2051
2052
2051
2048
2045
2047
2052
2061
2067
2066
2060
2054
2050
2050
2053
2055
2055
2055
2056
2058
2056
2054
2052
2051
2054
2059
2063
2062
2058
2054
2053
2053
2054
2059
2055
2052
2052
2053
2056
2058
2058
2056
2055
2055
2054
2055
2054
2055
2054
2054
2057
2057
2057
2057
2058
2057
2056
2056
2057
2058
2058
2058
2058
2058
2057
2055
2053
2053
2054
2056
2058
2060
2059
2056
2054
2052
2053
2053
2054
2055
2055
2055
2055
2055
2055
2055
2055
2055
2056
2056
2054
2053
2049
2047
2039
2034
2031
2031
2036
2044
2055
2063
2066
2064
2060
2056
2051
2052
2052
2054
2054
2054
2054
2054
2054
2054
2054
2054
2054
2053
2052
2053
2053
2053
2053
2053
2052
2051
2050
2051
2053
2054
2054
2054
2052
2050
2048
2049
2049
2050
2049
2048
2048
2049
2048
2048
2048
2048
2048
2048
2048
2049
2049
2049
2050
2049
2050
2048
2050
2049
2048
2048
2051
2056
2059
2060
2059
2057
2055
2052
2054
2054
2056
2056
2056
2057
2057
2056
2056
2056
2056
2056
2056
2056
2056
2056
2053
2057
2058
2057
2054
2050
2049
2052
2058
2064
2067
2064
2058
2054
2052
2055
2057
2057
2057
2056
2055
2055
2056
2056
2056
2056
2056
2057
2056
2055
2055
2055
2057
2058
2057
2055
2051
2049
2051
2058
2064
2066
2064
2059
2055
2052
2053
2058
2056
2057
2056
2056
2057
2057
2057
2058
2058
2058
2057
2056
2056
2057
2057
2057
2058
2056
2053
2049
2045
2040
2037
2038
2041
2046
2051
2056
2060
2062
2060
2057
2056
2055
2056
2056
2056
2056
2056
2055
2055
2055
2055
2054
2053
2054
2054
2053
2054
2055
2053
2050
2049
2051
2056
2059
2059
2057
2052
2049
2048
2050
2052
2052
2049
2048
2048
2048
2048
2048
2047
2046
2045
2046
2047
2047
2046
2046
2046
2048
2047
2046
2045
2045
2046
2048
2051
2053
2053
2051
2050
2050
2051
2052
2052
2053
2054
2053
2053
2054
2054
2054
2053
2054
2053
2053
2053
2053
2052
2054
2052
2052
2051
2050
2049
2051
2054
2056
2057
2056
2055
2053
2051
2051
2052
2053
2053
2053
2054
2054
2054
2054
2054
2053
2053
2053
2053
2054
2054
2054
2054
2055
2054
2054
2052
2052
2052
2053
2057
2060
2061
2059
2055
2054
2053
2054
2054
2056
2056
2055
2054
2053
2054
2054
2054
2054
2055
2056
2055
2055
2056
2056
2056
2054
2056
2054
2051
2051
2053
2057
2060
2061
2059
2055
2050
2044
2041
2035
2032
2033
2038
2046
2053
2058
2060
2059
2056
2053
2052
2053
2053
2052
2051
2055
2056
2055
2052
2048
2047
2049
2055
2062
2065
2062
2055
2050
2048
2049
2050
2050
2052
2051
2051
2050
2051
2051
2050
2050
2051
2051
2050
2049
2049
2048
2050
2050
2049
2048
2045
2043
2046
2050
2054
2055
2054
2050
2048
2044
2046
2049
2049
2049
2050
2051
2053
2053
2053
2054
2054
2055
2054
2055
2055
2055
2054
2053
2056
2057
2056
2054
2051
2051
2054
2059
2063
2064
2059
2055
2053
2053
2053
2056
2057
2057
2057
2057
2057
2058
2057
2057
2057
2057
2058
2057
2057
2057
2057
2058
2057
2058
2057
2055
2054
2056
2058
2059
2061
2059
2057
2055
2053
2055
2056
2058
2058
2058
2058
2058
2057
2055
2058
2057
2056
2056
2057
2058
2058
2057
2057
2056
2054
2053
2053
2055
2056
2059
2062
2062
2061
2058
2056
2055
2055
2056
2056
2057
2057
2056
2056
2055
2054
2049
2045
2039
2035
2033
2037
2045
2052
2061
2063
2062
2058
2054
2053
2054
2057
2059
2060
2058
2057
2055
2053
2054
2054
2055
2054
2054
2054
2054
2054
2053
2053
2053
2053
2053
2053
2053
2053
2053
2053
2053
2052
2050
2049
2049
2051
2052
2053
2053
2051
2048
2048
2048
2048
2048
2048
2048
2048
2048
2048
2048
2048
2048
2048
2048
2048
2049
2050
2051
2052
2053
2053
2051
2052
2051
2050
2052
2052
2053
2053
2053
2056
2059
2059
2057
2055
2051
2050
2050
2051
2054
2053
2052
2053
2053
2054
2053
2054
2054
2054
2052
2050
2053
2054
2056
2053
2050
2048
2047
2050
2056
2060
2060
2056
2051
2048
2049
2049
2052
2051
2051
2050
2049
2051
2052
2051
2052
2052
2053
2052
2051
2052
2051
2054
2053
2053
2052
2050
2050
2051
2054
2056
2055
2054
2052
2050
2049
2051
2052
2052
2051
2051
2052
2052
2051
2051
2052
2052
2052
2052
2052
2052
2051
2049
2046
2044
2037
2029
2024
2025
2033
2047
2060
2069
2068
2061
2054
2049
2049
2051
2051
2052
2052
2052
2052
2052
2052
2052
2051
2052
2052
2052
2051
2050
2049
2051
2050
2050
2051
2048
2046
2046
2049
2054
2056
2056
2053
2048
2044
2042
2044
2045
2048
2048
2048
2047
2046
2044
2044
2044
2046
2044
2044
2046
2046
2046
2045
2047
2047
2044
2043
2044
2047
2050
2055
2057
2056
2052
2049
2049
2049
2051
2052
2052
2051
2051
2050
2050
2052
2053
2052
2052
2053
2053
2052
2052
2052
2052
2053
2052
2053
2051
2050
2050
2052
2056
2057
2057
2055
2052
2050
2049
2050
2050
2052
2051
2051
2052
2053
2053
2052
2053
2053
2052
2052
2052
2053
2053
2053
2053
2054
2053
2052
2051
2051
2052
2054
2057
2059
2059
2055
2052
2052
2052
2052
2053
2053
2053
2052
2053
2053
2053
2053
2053
2054
2054
2055
2054
2054
2054
2054
2054
2053
2053
2052
2051
2051
2052
2053
2051
2047
2040
2033
2029
2031
2040
2048
2056
2060
2060
2057
2054
2052
2052
2053
2053
2053
2053
2054
2053
2052
2049
2053
2053
2052
2050
2048
2048
2048
2052
2056
2058
2056
2053
2050
2047
2049
2049
2050
2050
2049
2048
2048
2048
2048
2048
2048
2048
2048
2047
2046
2047
2046
2047
2048
2047
2045
2042
2040
2042
2046
2050
2052
2052
2049
2047
2045
2045
2048
2049
2050
2050
2051
2052
2051
2051
2052
2052
2052
2051
2052
2052
2052
2052
2053
2054
2053
2051
2049
2048
2048
2051
2055
2058
2057
2053
2050
2049
2050
2050
2051
2052
2052
2051
2050
2051
2051
2051
2051
2052
2052
2052
2052
2052
2052
2050
2054
2052
2054
2050
2046
2045
2048
2054
2060
2064
2062
2058
2051
2047
2050
2049
2051
2051
2052
2054
2054
2053
2052
2051
2051
2051
2051
2051
2051
2050
2049
2051
2051
2050
2048
2048
2048
2049
2053
2056
2056
2053
2050
2049
2048
2050
2051
2051
2051
2051
2050
2049
2048
2046
2040
2033
2029
2029
2033
2042
2051
2056
2060
2058
2056
2052
2049
2049
2050
2053
2055
2056
2055
2053
2050
2048
2049
2049
2050
2050
2050
2051
2051
2051
2050
2051
2051
2050
2050
2051
2052
2051
2051
2050
2050
2048
2048
2047
2048
2049
2051
2054
2054
2051
2048
2045
2044
2046
2046
2046
2046
2046
2046
2046
2047
2047
2047
2048
2048
2049
2050
2050
2051
2050
2052
2053
2053
2053
2052
2051
2053
2056
2059
2059
2058
2056
2054
2051
2052
2054
2054
2054
2054
2054
2054
2053
2053
2053
2053
2053
2053
2053
2053
2053
2052
2050
2052
2053
2053
2051
2051
2052
2054
2058
2061
2062
2059
2055
2053
2050
2053
2053
2054
2053
2053
2053
2053
2053
2054
2053
2054
2054
2055
2055
2054
2055
2054
2056
2056
2055
2053
2050
2050
2053
2058
2061
2061
2059
2055
2052
2050
2052
2052
2051
2051
2052
2053
2054
2053
2053
2053
2054
2054
2054
2055
2055
2054
2054
2054
2055
2055
2053
2051
2048
2048
2046
2045
2042
2037
2033
2034
2041
2050
2057
2060
2060
2057
2054
2052
2053
2054
2053
2053
2053
2053
2052
2052
2053
2053
2051
2055
2053
2053
2050
2047
2046
2049
2055
2059
2060
2056
2052
2048
2046
2049
2048
2049
2050
2051
2049
2047
2045
2046
2049
2053
2055
2053
2050
2046
2043
2043
2046
2048
2046
2044
2043
2044
2046
2049
2053
2053
2051
2048
2048
2047
2048
2050
2051
2051
2051
2051
2052
2053
2053
2053
2053
2053
2053
2052
2052
2054
2052
2054
2053
2053
2051
2049
2049
2052
2055
2057
2058
2057
2055
2052
2050
2053
2053
2054
2054
2054
2053
2053
2052
2051
2052
2052
2052
2051
2052
2052
2051
2051
2051
2052
2052
2051
2050
2049
2050
2052
2055
2057
2056
2054
2052
2051
2051
2052
2053
2054
2054
2053
2053
2052
2052
2050
2050
2052
2052
2052
2052
2053
2053
2053
2053
2053
2053
2051
2050
2051
2053
2055
2057
2057
2056
2054
2051
2048
2048
2045
2040
2034
2030
2030
2034
2042
2051
2058
2061
2059
2057
2055
2053
2052
2050
2053
2053
2053
2052
2051
2050
2050
2053
2056
2058
2056
2052
2050
2048
2049
2049
2051
2051
2050
2050
2050
2050
2050
2049
2050
2050
2049
2048
2048
2048
2047
2050
2049
2048
2047
2043
2041
2044
2047
2049
2050
2049
2047
2044
2042
2045
2046
2046
2046
2046
2047
2048
2048
2049
2049
2050
2050
2050
2051
2051
2051
2052
2053
2054
2053
2051
2050
2049
2051
2055
2059
2059
2057
2052
2049
2048
2049
2050
2051
2051
2051
2050
2051
2051
2052
2051
2051
2051
2051
2050
2050
2051
2050
2049
2051
2051
2051
2048
2044
2044
2048
2056
2063
2065
2061
2054
2047
2044
2049
2050
2052
2050
2050
2050
2051
2052
2054
2055
2053
2052
2050
2048
2048
2049
2050
2054
2055
2054
2050
2048
2048
2051
2056
2061
2062
2057
2053
2050
2048
2050
2051
2052
2051
2050
2051
2051
2051
2048
2046
2040
2034
2029
2028
2032
2041
2048
2055
2058
2059
2055
2049
2048
2049
2053
2058
2059
2057
2052
2048
2046
2048
2049
2050
2050
2049
2049
2049
2048
2051
2051
2051
2050
2050
2050
2049
2048
2048
2048
2048
2048
2046
2045
2043
2043
2046
2050
2053
2051
2048
2043
2041
2040
2041
2043
2043
2044
2044
2045
2046
2046
2046
2046
2046
2047
2047
2047
2048
2048
2048
2049
2050
2050
2048
2048
2048
2052
2056
2059
2059
2056
2052
2049
2048
2050
2052
2052
2052
2052
2053
2051
2052
2052
2052
2052
2051
2052
2052
2051
2051
2048
2052
2052
2054
2051
2048
2048
2048
2053
2059
2061
2058
2054
2050
2047
2049
2050
2052
2051
2050
2050
2050
2051
2051
2052
2052
2052
2051
2050
2050
2050
2049
2053
2053
2054
2051
2047
2044
2046
2050
2055
2059
2059
2055
2050
2047
2048
2049
2048
2050
2050
2051
2052
2052
2052
2052
2051
2051
2050
2051
2050
2051
2051
2051
2050
2048
2043
2036
2028
2024
2027
2037
2048
2056
2059
2057
2054
2051
2049
2049
2050
2048
2048
2048
2049
2051
2053
2053
2053
2051
2050
2051
2052
2053
2050
2053
2051
2051
2047
2044
2043
2047
2053
2059
2062
2058
2052
2048
2044
2048
2048
2049
2049
2048
2048
2047
2047
2048
2049
2049
2048
2048
2047
2045
2044
2044
2047
2048
2048
2047
2045
2043
2047
2051
2057
2061
2058
2055
2051
2048
2050
2053
2056
2056
2056
2056
2056
2055
2055
2056
2056
2057
2057
2056
2056
2056
2053
2056
2055
2056
2052
2049
2048
2050
2054
2059
2062
2061
2057
2053
2050
2052
2054
2054
2054
2054
2054
2053
2053
2053
2053
2053
2053
2052
2053
2052
2052
2052
2052
2053
2051
2050
2048
2048
2048
2053
2058
2060
2057
2052
2048
2048
2049
2051
2053
2054
2051
2051
2051
2051
2051
2049
2050
2049
2049
2050
2051
2051
2050
2051
2050
2052
2051
2048
2047
2047
2049
2054
2056
2057
2053
2048
2046
2045
2045
2042
2039
2035
2031
2031
2030
2035
2042
2048
2051
2052
2053
2051
2048
2048
2047
2049
2048
2048
2047
2047
2048
2048
2049
2050
2050
2050
2053
2056
2055
2053
2048
2046
2045
2046
2048
2049
2049
2048
2048
2048
2048
2048
2048
2048
2048
2048
2050
2049
2048
2046
2043
2044
2047
2051
2054
2054
2051
2048
2046
2046
2048
2049
2049
2049
2049
2049
2050
2050
2051
2053
2053
2054
2054
2055
2056
2056
2056
2056
2057
2056
2055
2054
2053
2053
2055
2059
2061
2061
2059
2056
2055
2054
2054
2055
2054
2055
2055
2055
2055
2055
2055
2055
2056
2055
2055
2054
2054
2054
2052
2055
2055
2057
2052
2048
2046
2048
2055
2063
2067
2064
2056
2050
2046
2050
2051
2054
2053
2054
2054
2053
2052
2052
2053
2053
2054
2056
2055
2053
2052
2052
2051
2053
2052
2052
2051
2051
2053
2057
2059
2059
2057
2054
2053
2052
2054
2055
2056
2055
2055
2054
2054
2053
2049
2045
2040
2034
2031
2033
2040
2048
2054
2062
2063
2062
2058
2054
2052
2053
2055
2057
2059
2058
2057
2054
2052
2054
2054
2054
2054
2054
2054
2053
2054
2054
2054
2053
2053
2053
2053
2053
2053
2052
2052
2052
2051
2050
2049
2049
2049
2050
2053
2054
2053
2049
2048
2047
2046
2047
2048
2048
2047
2047
2048
2048
2048
2047
2047
2048
2048
2048
2049
2051
2051
2051
2052
2053
2053
2052
2052
2053
2055
2056
2058
2058
2057
2055
2053
2053
2055
2055
2056
2055
2056
2055
2054
2053
2054
2054
2054
2054
2056
2056
2055
2054
2052
2054
2054
2055
2053
2052
2051
2052
2057
2061
2062
2059
2055
2053
2050
2053
2054
2055
2055
2054
2053
2054
2054
2054
2054
2055
2055
2054
2053
2053
2052
2050
2053
2054
2054
2052
2048
2047
2048
2051
2055
2058
2058
2055
2050
2048
2050
2050
2050
2050
2051
2050
2049
2047
2042
2036
2029
2026
2026
2032
2040
2048
2054
2057
2057
2052
2048
2046
2044
2046
2048
2053
2054
2052
2048
2046
2044
2045
2046
2046
2046
2046
2046
2046
2046
2046
2045
2045
2045
2045
2045
2045
2046
2045
2042
2046
2044
2043
2039
2036
2037
2042
2048
2052
2052
2048
2041
2037
2035
2039
2040
2040
2040
2040
2040
2041
2041
2041
2042
2041
2043
2045
2048
2048
2047
2047
2048
2048
2045
2046
2044
2044
2047
2050
2053
2052
2050
2048
2048
2047
2047
2048
2048
2048
2048
2048
2048
2048
2048
2048
2048
2048
2048
2047
2048
2048
2047
2049
2048
2047
2045
2043
2044
2047
2050
2053
2054
2052
2049
2047
2044
2048
2048
2048
2048
2048
2048
2048
2048
2048
2048
2048
2048
2048
2048
2048
2047
2047
2047
2047
2047
2047
2047
2046
2046
2048
2051
2052
2050
2048
2047
2046
2045
2046
2048
2048
2047
2046
2044
2041
2036
2030
2026
2025
2027
2034
2043
2050
2053
2052
2051
2048
2047
2044
2043
2045
2048
2049
2050
2051
2049
2047
2046
2046
2048
2047
2048
2048
2047
2047
2046
2046
2047
2047
2047
2047
2048
2048
2046
2045
2043
2046
2045
2046
2044
2042
2040
2041
2045
2048
2048
2046
2043
2041
2038
2041
2041
2043
2042
2042
2042
2042
2043
2043
2044
2046
2047
2047
2047
2048
2048
2047
2049
2051
2051
2049
2046
2044
2045
2048
2054
2057
2057
2053
2049
2048
2049
2051
2051
2050
2049
2049
2049
2049
2050
2051
2050
2051
2051
2051
2050
2050
2051
2051
2052
2052
2051
2049
2048
2048
2050
2055
2057
2056
2053
2051
2049
2049
2050
2051
2051
2051
2051
2052
2053
2053
2053
2053
2053
2052
2051
2051
2052
2052
2049
2054
2053
2054
2049
2046
2044
2047
2054
2062
2067
2064
2056
2049
2045
2048
2049
2052
2052
2051
2049
2048
2042
2037
2031
2028
2031
2039
2048
2056
2059
2059
2056
2054
2051
2052
2050
2049
2050
2053
2055
2055
2053
2051
2050
2048
2048
2051
2051
2052
2049
2047
2045
2046
2049
2055
2059
2059
2054
2048
2046
2046
2046
2048
2048
2048
2046
2045
2045
2046
2047
2048
2049
2049
2048
2046
2044
2045
2044
2045
2046
2047
2047
2046
2046
2047
2048
2048
2048
2048
2049
2049
2050
2050
2052
2052
2051
2049
2048
2049
2051
2055
2059
2060
2057
2053
2051
2050
2051
2052
2054
2054
2053
2053
2054
2054
2053
2053
2053
2054
2053
2053
2054
2054
2054
2053
2055
2054
2052
2050
2050
2053
2057
2059
2059
2057
2053
2051
2050
2052
2055
2054
2053
2053
2054
2053
2053
2054
2054
2054
2054
2054
2054
2054
2053
2052
2051
2055
2054
2055
2053
2051
2050
2051
2056
2060
2060
2058
2055
2052
2049
2051
2052
2053
2052
2049
2045
2039
2034
2029
2031
2037
2046
2053
2058
2061
2060
2055
2057
2055
2054
2050
2048
2048
2049
2053
2058
2059
2057
2053
2049
2047
2050
2050
2049
2049
2048
2048
2049
2048
2049
2049
2048
2048
2048
2048
2047
2047
2048
2047
2048
2048
2047
2045
2042
2041
2043
2048
2049
2048
2047
2044
2042
2041
2041
2043
2043
2043
2043
2044
2044
2044
2045
2046
2046
2046
2047
2048
2048
2048
2047
2049
2050
2050
2048
2045
2045
2048
2052
2057
2059
2056
2050
2047
2044
2048
2048
2048
2048
2048
2048
2047
2049
2049
2048
2048
2047
2047
2048
2048
2049
2048
2049
2048
2048
2047
2046
2045
2046
2049
2051
2051
2050
2048
2047
2045
2046
2048
2047
2048
2048
2048
2048
2047
2047
2047
2047
2047
2047
2047
2048
2048
2046
2048
2049
2048
2047
2043
2042
2043
2047
2052
2056
2055
2051
2047
2042
2042
2039
2035
2030
2027
2028
2032
2040
2048
2053
2054
2053
2051
2048
2048
2048
2049
2048
2049
2049
2048
2048
2046
2046
2048
2051
2052
2051
2048
2047
2046
2045
2047
2048
2048
2048
2048
2048
2048
2047
2047
2048
2048
2048
2048
2048
2048
2047
2046
2047
2046
2045
2043
2042
2042
2043
2044
2046
2046
2044
2041
2039
2039
2040
2040
2041
2042
2042
2041
2042
2043
2044
2044
2045
2047
2047
2048
2048
2047
2045
2047
2047
2048
2047
2046
2043
2044
2048
2051
2052
2051
2049
2047
2042
2044
2045
2046
2046
2045
2046
2046
2046
2046
2046
2047
2047
2047
2047
2048
2048
2046
2048
2048
2048
2046
2042
2041
2042
2045
2048
2051
2051
2048
2046
2044
2045
2046
2045
2047
2046
2046
2047
2047
2047
2046
2046
2046
2046
2046
2045
2045
2046
2046
2048
2047
2046
2043
2040
2040
2045
2049
2052
2051
2048
2045
2043
2041
2043
2041
2037
2031
2026
2025
2027
2033
2042
2049
2053
2052
2050
2048
2047
2045
2046
2050
2049
2048
2044
2040
2040
2045
2051
2056
2057
2051
2046
2042
2041
2045
2045
2045
2046
2046
2046
2046
2046
2046
2046
2045
2045
2044
2043
2042
2043
2045
2046
2046
2043
2040
2037
2035
2040
2045
2049
2048
2046
2042
2040
2038
2039
2042
2043
2043
2043
2045
2046
2046
2046
2047
2048
2048
2048
2048
2048
2048
2048
2048
2048
2048
2047
2046
2047
2048
2049
2051
2053
2051
2049
2047
2047
2048
2047
2048
2048
2048
2048
2048
2048
2048
2048
2048
2048
2048
2048
2048
2048
2048
2048
2048
2048
2048
2047
2046
2047
2049
2052
2053
2052
2050
2048
2047
2047
2048
2049
2048
2048
2048
2048
2048
2048
2048
2049
2050
2050
2050
2050
2050
2049
2049
2050
2048
2048
2047
2047
2048
2048
2050
2052
2053
2052
2050
2048
2048
2050
2048
2049
2050
2050
2050
2049
2050
2049
2048
2046
2044
2039
2033
2028
2028
2031
2040
2049
2055
2054
2049
2045
2045
2050
2056
2059
2056
2052
2048
2044
2047
2048
2049
2048
2048
2048
2048
2048
2048
2048
2048
2048
2048
2048
2048
2047
2048
2047
2048
2048
2045
2043
2044
2046
2048
2051
2053
2051
2047
2043
2042
2042
2043
2044
2044
2044
2044
2044
2044
2044
2044
2044
2044
2045
2045
2044
2045
2047
2047
2048
2048
2048
2048
2046
2046
2048
2052
2054
2055
2054
2052
2050
2050
2050
2051
2051
2050
2050
2051
2051
2050
2050
2051
2051
2050
2049
2050
2051
2050
2049
2054
2052
2054
2048
2045
2043
2046
2054
2063
2067
2063
2054
2048
2044
2047
2048
2052
2052
2053
2052
2052
2053
2053
2053
2052
2053
2053
2053
2053
2054
2053
2055
2055
2053
2051
2049
2048
2051
2054
2056
2056
2054
2053
2051
2049
2050
2053
2053
2053
2053
2054
2055
2054
2053
2053
2052
2051
2051
2052
2053
2053
2051
2051
2048
2045
2037
2030
2028
2029
2036
2047
2056
2062
2060
2057
2053
2051
2050
2050
2052
2052
2051
2051
2051
2051
2052
2051
2051
2051
2051
2051
2050
2050
2052
2051
2050
2049
2048
2047
2048
2052
2055
2056
2053
2049
2047
2046
2046
2048
2048
2048
2047
2047
2047
2047
2046
2046
2046
2046
2045
2045
2046
2046
2045
2045
2045
2044
2043
2042
2043
2045
2048
2051
2053
2053
2051
2049
2048
2049
2050
2049
2050
2051
2051
2049
2049
2050
2050
2050
2050
2051
2051
2050
2050
2050
2048
2050
2049
2050
2049
2048
2046
2048
2052
2055
2057
2055
2052
2048
2046
2048
2048
2050
2050
2049
2050
2049
2049
2049
2050
2051
2050
2050
2049
2049
2049
2048
2052
2051
2051
2048
2046
2046
2048
2052
2055
2056
2054
2049
2047
2046
2050
2048
2049
2049
2048
2048
2048
2048
2048
2048
2048
2048
2048
2048
2046
2044
2040
2034
2030
2027
2029
2033
2038
2046
2053
2058
2058
2055
2051
2048
2046
2046
2048
2048
2048
2048
2048
2048
2048
2048
2048
2048
2048
2047
2047
2048
2047
2047
2045
2048
2048
2048
2044
2040
2039
2041
2048
2056
2059
2055
2047
2041
2036
2041
2041
2044
2043
2042
2041
2041
2042
2041
2041
2040
2042
2042
2041
2040
2040
2041
2042
2046
2047
2047
2045
2044
2045
2048
2051
2051
2049
2048
2047
2046
2046
2048
2048
2048
2048
2049
2049
2048
2048
2049
2049
2048
2048
2048
2048
2048
2047
2048
2048
2048
2047
2047
2047
2048
2048
2050
2052
2051
2049
2048
2047
2048
2047
2048
2048
2048
2048
2048
2048
2048
2048
2048
2048
2048
2048
2048
2048
2048
2049
2049
2048
2048
2046
2046
2047
2050
2053
2054
2052
2049
2048
2047
2047
2049
2050
2049
2048
2048
2048
2048
2048
2049
2049
2049
2049
2048
2048
2046
