2024
2022
2019
2016
2011
2007
2003
2001
1999
1998
1997
1996
1995
1995
1994
1994
1994
1994
1995
1996
1997
1999
2000
2000
2000
2000
2000
1999
1998
1998
1999
2001
2002
2003
2003
2003
2002
2001
2002
2002
2003
2004
2005
2005
2005
2005
2004
2003
2003
2003
2003
2005
2006
2006
2007
2006
2006
2006
2006
2006
2006
2007
2008
2009
2009
2009
2009
2008
2008
2009
2010
2011
2012
2013
2014
2013
2013
2012
2011
2011
2011
2011
2012
2012
2012
2012
2011
2010
2010
2010
2010
2011
2013
2014
2014
2014
2012
2008
2003
1999
1997
2001
2010
2024
2044
2064
2083
2092
2089
2073
2052
2033
2021
2016
2017
2020
2020
2019
2017
2016
2016
2017
2017
2018
2018
2018
2018
2018
2018
2017
2017
2018
2018
2019
2019
2020
2019
2019
2019
2019
2020
2021
2022
2023
2023
2023
2024
2024
2025
2026
2027
2028
2030
2032
2033
2035
2036
2036
2036
2037
2038
2039
2041
2042
2042
2042
2041
2038
2036
2032
2029
2026
2022
2019
2016
2013
2010
2008
2006
2004
2003
2003
2003
2003
2004
2003
2002
2001
2001
2001
2001
2001
2002
2002
2002
2002
2002
2002
2001
2001
2001
2001
2001
2002
2002
2002
2002
2001
2001
2001
2001
2002
2003
2003
2003
2003
2002
2002
2001
2001
2002
2002
2002
2002
2002
2001
2000
2000
2000
2000
2001
2002
2002
2002
2002
2002
2001
2000
1999
1999
1999
1999
2000
2002
2003
2004
2004
2003
2002
2002
2002
2002
2002
2001
2001
2000
1999
1999
1999
1999
1999
2000
2000
2001
2001
2001
2001
2000
2000
1998
1994
1989
1985
1984
1988
1996
2012
2034
2058
2081
2093
2089
2072
2047
2022
2006
1999
1999
2001
2002
2001
2000
1999
1999
2000
2000
2000
2000
2000
2000
2000
2000
2001
2001
2001
2001
2000
1999
1999
1999
1999
2000
2001
2002
2003
2003
2003
2003
2003
2003
2004
2005
2006
2007
2008
2009
2009
2010
2010
2011
2013
2015
2017
2019
2020
2020
2020
2020
2019
2018
2016
2014
2012
2008
2005
2001
1997
1994
1992
1989
1988
1986
1985
1984
1983
1983
1983
1982
1982
1982
1982
1982
1983
1984
1984
1984
1983
1983
1982
1982
1982
1982
1982
1982
1982
1981
1981
1981
1980
1980
1981
1981
1981
1982
1982
1981
1981
1980
1980
1980
1981
1981
1981
1981
1981
1980
1980
1979
1979
1979
1979
1980
1980
1981
1982
1982
1982
1982
1981
1981
1981
1981
1982
1982
1981
1981
1980
1979
1979
1980
1981
1982
1983
1984
1984
1984
1984
1983
1982
1982
1982
1982
1982
1982
1982
1981
1981
1981
1981
1981
1982
1982
1982
1983
1983
1982
1979
1974
1968
1964
1963
1968
1979
1997
2020
2045
2065
2073
2065
2045
2018
1996
1983
1979
1980
1982
1982
1981
1979
1978
1978
1979
1979
1979
1979
1979
1979
1979
1978
1978
1979
1979
1980
1980
1980
1980
1980
1980
1980
1981
1983
1984
1985
1985
1986
1985
1985
1985
1986
1987
1988
1990
1992
1993
1995
1996
1997
1998
1999
2000
2001
2003
2004
2005
2006
2005
2004
2001
1998
1995
1992
1990
1987
1984
1981
1978
1976
1974
1972
1971
1971
1971
1971
1971
1971
1970
1969
1969
1970
1971
1972
1973
1973
1974
1974
1974
1974
1973
1973
1972
1972
1972
1972
1973
1973
1972
1972
1971
1971
1970
1971
1971
1972
1972
1972
1971
1970
1970
1970
1972
1973
1974
1975
1975
1974
1974
1973
1973
1972
1972
1972
1973
1974
1974
1974
1974
1973
1972
1971
1971
1972
1972
1973
1973
1973
1972
1971
1971
1971
1972
1973
1974
1975
1976
1977
1977
1977
1976
1976
1975
1974
1974
1973
1973
1973
1973
1972
1972
1972
1972
1973
1974
1974
1975
1975
1974
1973
1971
1967
1963
1959
1958
1961
1970
1985
2005
2029
2048
2060
2057
2042
2018
1995
1980
1974
1975
1977
1978
1978
1977
1977
1977
1977
1977
1977
1976
1976
1976
1976
1976
1976
1977
1979
1980
1981
1981
1980
1979
1978
1977
1978
1979
1980
1981
1982
1983
1983
1982
1982
1983
1984
1985
1987
1989
1990
1991
1992
1993
1994
1996
1997
1998
1999
2000
2001
2001
2001
2000
1998
1996
1993
1990
1986
1983
1979
1976
1973
1970
1968
1966
1964
1964
1964
1964
1964
1963
1962
1962
1962
1962
1963
1963
1964
1964
1963
1962
1961
1961
1961
1962
1963
1964
1964
1964
1964
1964
1963
1963
1962
1962
1962
1963
1964
1964
1964
1964
1964
1963
1962
1961
1962
1962
1963
1963
1962
1962
1961
1961
1960
1960
1961
1961
1961
1962
1962
1962
1961
1960
1959
1959
1960
1960
1960
1960
1960
1959
1959
1958
1958
1958
1960
1961
1962
1962
1962
1961
1959
1958
1958
1958
1959
1959
1960
1960
1960
1960
1959
1958
1957
1957
1957
1958
1958
1959
1959
1958
1955
1950
1945
1942
1944
1951
1963
1981
2002
2023
2037
2038
2026
2005
1982
1966
1958
1958
1960
1961
1961
1959
1957
1957
1957
1957
1958
1958
1958
1958
1957
1957
1958
1958
1959
1959
1959
1960
1959
1959
1959
1959
1959
1959
1960
1961
1963
1964
1965
1965
1965
1966
1966
1967
1969
1970
1971
1973
1974
1975
1976
1976
1977
1978
1979
1980
1982
1983
1983
1983
1981
1979
1976
1973
1969
1966
1963
1960
1957
1954
1951
1949
1948
1947
1947
1947
1947
1947
1947
1947
1947
1947
1947
1947
1948
1948
1949
1949
1949
1949
1949
1949
1948
1948
1948
1949
1950
1950
1950
1950
1949
1949
1949
1949
1950
1951
1952
1952
1952
1951
1951
1950
1950
1950
1951
1951
1952
1952
1952
1952
1951
1951
1951
1951
1951
1952
1952
1953
1953
1953
1953
1953
1953
1953
1954
1954
1955
1956
1956
1956
1955
1954
1954
1954
1955
1957
1959
1960
1961
1961
1960
1959
1959
1958
1958
1959
1959
1959
1958
1958
1958
1958
1958
1958
1958
1959
1959
1960
1961
1962
1962
1962
1960
1956
1951
1947
1947
1950
1960
1975
1998
2023
2046
2057
2054
2037
2011
1987
1971
1965
1965
1967
1967
1967
1967
1966
1966
1967
1967
1966
1965
1964
1964
1964
1964
1965
1966
1967
1967
1967
1967
1966
1966
1967
1967
1968
1969
1970
1970
1970
1970
1971
1971
1972
1973
1974
1975
1977
1978
1979
1980
1981
1982
1984
1985
1987
1989
1990
1990
1991
1991
1991
1991
1990
1989
1986
1983
1980
1976
1972
1968
1965
1963
1961
1960
1960
1960
1959
1959
1958
1958
1957
1957
1957
1958
1959
1960
1961
1961
1961
1961
1960
1960
1960
1960
1960
1961
1961
1962
1961
1961
1960
1960
1960
1960
1960
1961
1961
1961
1961
1961
1960
1960
1960
1960
1961
1962
1962
1962
1962
1961
1961
1961
1962
1962
1963
1964
1964
1964
1964
1964
1963
1963
1962
1962
1963
1964
1965
1966
1966
1965
1965
1965
1965
1966
1967
1969
1970
1971
1971
1971
1970
1969
1968
1968
1969
1969
1970
1970
1969
1968
1968
1968
1968
1969
1969
1969
1969
1969
1969
1969
1969
1968
1966
1962
1957
1954
1955
1960
1971
1989
2013
2038
2056
2062
2053
2032
2007
1986
1975
1972
1973
1975
1975
1974
1973
1973
1973
1973
1973
1972
1973
1973
1973
1974
1974
1974
1974
1975
1974
1974
1974
1974
1975
1976
1977
1978
1978
1979
1979
1979
1980
1981
1982
1985
1987
1989
1990
1991
1992
1993
1994
1995
1996
1997
1999
2001
2003
2005
2006
2006
2006
2006
2005
2004
2003
2001
1998
1995
1990
1986
1982
1979
1977
1975
1975
1974
1974
1974
1973
1973
1973
1973
1973
1973
1973
1973
1973
1974
1974
1974
1973
1972
1972
1972
1973
1974
1975
1975
1975
1974
1973
1972
1971
1972
1973
1975
1975
1975
1975
1974
1973
1973
1974
1975
1976
1976
1977
1977
1977
1976
1976
1976
1977
1978
1979
1980
1980
1979
1979
1978
1978
1977
1977
1978
1978
1978
1978
1978
1978
1977
1976
1976
1977
1977
1979
1980
1981
1982
1981
1980
1979
1978
1977
1977
1978
1978
1979
1978
1978
1977
1975
1974
1974
1974
1975
1977
1978
1979
1978
1975
1970
1964
1959
1959
1964
1974
1989
2010
2031
2048
2056
2051
2034
2011
1991
1978
1975
1977
1979
1980
1978
1977
1977
1977
1977
1978
1978
1978
1978
1978
1978
1978
1978
1979
1979
1980
1981
1982
1982
1982
1982
1982
1983
1983
1984
1986
1987
1988
1988
1989
1989
1990
1991
1992
1994
1996
1997
1999
2000
2001
2002
2003
2004
2005
2006
2008
2009
2010
2010
2009
2007
2004
2001
1997
1994
1991
1988
1985
1982
1979
1977
1975
1974
1974
1974
1974
1974
1974
1973
1973
1972
1971
1971
1972
1972
1973
1973
1973
1973
1972
1971
1971
1971
1972
1972
1973
1973
1973
1973
1973
1972
1971
1971
1972
1973
1974
1975
1975
1975
1974
1974
1973
1973
1973
1974
1974
1974
1975
1975
1975
1975
1974
1974
1974
1974
1974
1974
1974
1974
1973
1973
1973
1973
1973
1973
1973
1973
1972
1972
1971
1971
1971
1972
1973
1975
1976
1976
1977
1976
1976
1974
1973
1973
1973
1973
1974
1974
1974
1974
1973
1973
1973
1973
1974
1975
1976
1977
1977
1976
1972
1967
1962
1959
1961
1969
1983
2005
2030
2054
2071
2073
2059
2036
2010
1990
1980
1979
1981
1982
1982
1980
1979
1979
1979
1980
1980
1981
1981
1980
1980
1979
1979
1980
1980
1981
1981
1982
1982
1983
1983
1983
1983
1983
1984
1984
1985
1986
1986
1987
1987
1987
1988
1989
1990
1992
1994
1996
1997
1998
1999
2000
2001
2003
2005
2006
2007
2007
2008
2007
2006
2004
2001
1997
1994
1992
1990
1988
1985
1982
1979
1977
1976
1975
1976
1976
1977
1977
1977
1976
1976
1975
1975
1976
1976
1977
1978
1979
1979
1980
1979
1979
1978
1978
1978
1978
1979
1979
1980
1980
1979
1979
1979
1979
1979
1980
1980
1980
1980
1980
1980
1980
1980
1981
1981
1982
1983
1983
1984
1984
1984
1984
1985
1985
1986
1987
1988
1988
1989
1989
1989
1988
1988
1988
1988
1989
1990
1990
1991
1990
1990
1990
1990
1991
1992
1994
1996
1997
1997
1997
1997
1997
1997
1998
1999
1999
1999
1999
1998
1997
1996
1995
1995
1995
1996
1997
1998
1998
1998
1998
1999
1999
1997
1994
1989
1984
1982
1984
1993
2008
2029
2053
2077
2092
2091
2076
2050
2025
2007
1998
1997
1999
2000
2000
1999
1998
1997
1997
1997
1996
1996
1995
1995
1995
1996
1996
1997
1997
1998
1999
1999
1999
1998
1998
1997
1998
1998
1999
1999
1999
1999
1999
1999
2000
2001
2002
2003
2004
2006
2007
2008
2008
2009
2010
2012
2014
2016
2018
2020
2021
2021
2020
2019
2019
2018
2016
2013
2009
2004
1999
1996
1993
1991
1989
1989
1988
1987
1986
1985
1985
1984
1984
1984
1985
1986
1987
1987
1987
1987
1986
1986
1985
1985
1985
1986
1987
1989
1990
1990
1990
1989
1988
1987
1988
1988
1989
1988
1987
1986
1985
1984
1984
1983
1983
1983
1983
1983
1984
1984
1984
1984
1983
1983
1983
1983
1984
1984
1985
1985
1985
1985
1984
1983
1982
1981
1982
1983
1985
1985
1985
1984
1983
1982
1983
1984
1986
1989
1990
1991
1991
1990
1989
1988
1987
1987
1988
1988
1989
1989
1989
1988
1988
1987
1986
1987
1987
1988
1988
1989
1990
1990
1989
1985
1979
1975
1975
1981
1992
2009
2031
2053
2071
2077
2069
2048
2025
2005
1994
1992
1995
1998
1999
1998
1996
1995
1994
1993
1993
1994
1994
1994
1993
1993
1994
1994
1995
1995
1996
1997
1997
1998
1998
1998
1998
1997
1997
1998
1998
1999
2000
2000
2001
2001
2002
2003
2005
2006
2008
2009
2010
2011
2011
2012
2013
2015
2016
2018
2019
2021
2021
2021
2019
2017
2014
2010
2006
2001
1997
1994
1991
1989
1987
1984
1982
1981
1980
1980
1980
1980
1979
1979
1978
1977
1977
1977
1978
1979
1979
1979
1979
1979
1979
1978
1978
1978
1978
1978
1979
1980
1980
1979
1978
1978
1978
1979
1980
1980
1980
1979
1978
1978
1977
1978
1978
1978
1979
1979
1980
1980
1980
1980
1979
1979
1979
1980
1981
1981
1982
1981
1980
1979
1978
1978
1977
1978
1979
1981
1982
1984
1984
1983
1982
1980
1979
1979
1979
1979
1980
1979
1979
1979
1979
1978
1978
1977
1978
1979
1980
1980
1980
1979
1976
1972
1967
1963
1961
1964
1971
1985
2006
2030
2052
2066
2066
2050
2027
2001
1984
1977
1977
1980
1981
1980
1978
1976
1975
1974
1974
1973
1973
1972
1971
1971
1971
1971
1970
1969
1968
1967
1966
1965
1965
1965
1965
1966
1967
1968
1968
1968
1968
1968
1968
1967
1967
1967
1968
1970
1973
1975
1977
1978
1977
1977
1978
1980
1982
1985
1987
1988
1988
1988
1986
1985
1983
1981
1979
1977
1973
1969
1966
1963
1960
1959
1958
1958
1957
1957
1957
1957
1957
1958
1958
1958
1958
1958
1958
1958
1959
1960
1960
1961
1961
1961
1961
1961
1962
1963
1963
1963
1963
1963
1962
1961
1960
1960
1961
1962
1962
1962
1962
1962
1961
1961
1961
1962
1962
1963
1964
1964
1964
1963
1962
1961
1962
1963
1965
1966
1966
1966
1965
1964
1963
1963
1963
1963
1964
1964
1964
1964
1964
1964
1963
1963
1964
1964
1965
1966
1967
1968
1968
1968
1967
1967
1966
1967
1967
1968
1968
1968
1968
1968
1969
1969
1969
1969
1969
1969
1969
1970
1969
1969
1967
1964
1960
1955
1953
1955
1962
1976
1996
2021
2045
2061
2064
2051
2028
2002
1982
1971
1969
1970
1971
1971
1971
1971
1972
1972
1971
1971
1970
1970
1970
1970
1970
1970
1970
1971
1972
1973
1973
1973
1973
1973
1973
1973
1974
1975
1977
1978
1979
1980
1980
1980
1980
1980
1981
1983
1985
1987
1989
1990
1992
1993
1994
1995
1996
1998
1999
2001
2002
2002
2002
2000
1998
1996
1993
1990
1987
1984
1981
1978
1974
1971
1968
1967
1966
1967
1967
1967
1967
1966
1965
1964
1965
1965
1966
1967
1967
1966
1966
1966
1966
1966
1966
1966
1967
1967
1968
1969
1969
1968
1966
1966
1966
1966
1967
1968
1969
1969
1969
1968
1968
1967
1967
1967
1968
1969
1970
1970
1970
1970
1969
1969
1969
1969
1970
1971
1971
1971
1970
1969
1969
1969
1969
1969
1969
1970
1970
1970
1970
1970
1969
1968
1968
1969
1970
1971
1971
1971
1971
1971
1971
1971
1971
1971
1970
1970
1969
1969
1969
1970
1970
1970
1970
1970
1971
1972
1973
1973
1973
1974
1973
1972
1968
1964
1960
1959
1962
1970
1984
2005
2029
2051
2065
2065
2049
2025
2000
1983
1975
1975
1978
1979
1978
1976
1975
1975
1976
1976
1976
1976
1975
1975
1974
1975
1976
1977
1977
1977
1976
1975
1974
1974
1975
1976
1978
1978
1979
1978
1978
1978
1978
1978
1979
1981
1983
1984
1985
1987
1988
1989
1991
1994
1996
1999
2002
2005
2007
2008
2008
2008
2007
2007
2007
2007
2006
2004
2002
1999
1996
1994
1992
1990
1989
1988
1988
1989
1989
1989
1988
1987
1985
1984
1983
1983
1984
1985
1986
1986
1986
1986
1985
1985
1984
1983
1983
1981
1980
1979
1977
1976
1974
1974
1974
1974
1975
1976
1976
1977
1977
1977
1977
1977
1977
1977
1978
1978
1978
1978
1977
1977
1976
1975
1975
1976
1976
1978
1979
1980
1980
1980
1980
1980
1980
1980
1980
1980
1979
1978
1977
1977
1977
1977
1977
1977
1976
1976
1976
1976
1976
1976
1976
1977
1978
1979
1980
1980
1980
1979
1978
1977
1976
1976
1977
1977
1979
1979
1980
1980
1980
1978
1977
1975
1974
1973
1970
1967
1962
1958
1959
1964
1976
1996
2020
2045
2061
2065
2055
2034
2010
1992
1983
1982
1985
1988
1989
1989
1988
1986
1986
1987
1989
1991
1992
1991
1988
1985
1983
1982
1981
1980
1979
1979
1979
1980
1981
1982
1982
1981
1980
1979
1978
1978
1980
1982
1984
1985
1984
1983
1983
1984
1986
1989
1992
1993
1994
1994
1995
1997
1999
2001
2002
2003
2003
2002
2001
1999
1996
1992
1989
1985
1981
1978
1975
1972
1971
1971
1971
1970
1969
1968
1966
1964
1963
1963
1965
1966
1968
1968
1968
1967
1966
1966
1966
1967
1967
1969
1970
1970
1970
1970
1968
1967
1967
1967
1968
1969
1971
1972
1972
1972
1972
1973
1973
1973
1973
1972
1972
1972
1972
1972
1971
1970
1969
1968
1968
1969
1969
1969
1968
1967
1967
1967
1968
1968
1968
1967
1966
1967
1968
1970
1972
1973
1974
1974
1974
1974
1973
1972
1971
1971
1970
1970
1970
1970
1971
1972
1974
1976
1977
1978
1978
1977
1977
1976
1977
1978
1978
1979
1978
1977
1976
1976
1976
1977
1979
1979
1978
1977
1976
1976
1975
1974
1971
1969
1968
1971
1978
1991
2011
2033
2051
2062
2061
2047
2026
2005
1991
1985
1984
1986
1986
1985
1984
1983
1983
1984
1985
1986
1987
1987
1986
1986
1986
1986
1987
1988
1988
1988
1988
1987
1987
1988
1989
1990
1991
1991
1992
1992
1991
1991
1991
1992
1995
1997
1999
2000
2000
2001
2002
2004
2007
2009
2011
2013
2015
2017
2019
2020
2021
2021
2021
2020
2019
2017
2014
2011
2007
2004
2000
1996
1992
1989
1986
1985
1985
1985
1985
1986
1986
1986
1986
1985
1984
1983
1983
1984
1986
1986
1986
1986
1985
1984
1984
1984
1985
1986
1987
1987
1987
1986
1985
1984
1983
1983
1984
1984
1985
1986
1986
1985
1984
1983
1984
1985
1986
1987
1987
1986
1985
1983
1982
1982
1982
1983
1985
1987
1989
1989
1988
1987
1986
1986
1987
1987
1988
1988
1987
1987
1986
1985
1983
1982
1982
1983
1984
1985
1986
1987
1986
1986
1985
1985
1985
1985
1985
1986
1986
1987
1986
1986
1985
1985
1985
1986
1988
1988
1986
1981
1975
1970
1970
1974
1984
2001
2022
2044
2061
2066
2057
2037
2012
1992
1982
1981
1984
1986
1987
1986
1985
1984
1983
1982
1982
1982
1982
1984
1986
1988
1988
1988
1986
1985
1985
1984
1985
1985
1986
1986
1986
1987
1987
1988
1989
1990
1991
1991
1992
1992
1993
1993
1995
1997
2000
2002
2004
2005
2007
2008
2009
2010
2011
2011
2012
2014
2015
2017
2017
2015
2013
2009
2006
2003
2000
1997
1994
1992
1989
1987
1985
1983
1981
1980
1981
1981
1982
1983
1983
1983
1982
1981
1980
1979
1978
1978
1978
1979
1980
1981
1982
1981
1980
1978
1978
1978
1979
1980
1980
1979
1978
1977
1977
1977
1978
1978
1978
1978
1978
1977
1977
1976
1975
1975
1975
1976
1978
1979
1979
1978
1976
1975
1975
1975
1976
1976
1977
1976
1976
1976
1975
1975
1975
1974
1974
1973
1974
1975
1977
1979
1980
1979
1978
1977
1976
1976
1977
1978
1978
1978
1977
1976
1974
1973
1971
1971
1971
1972
1972
1972
1972
1971
1969
1966
1963
1959
1958
1960
1967
1980
2000
2023
2045
2056
2056
2042
2020
1998
1983
1976
1976
1978
1979
1979
1978
1978
1978
1978
1978
1978
1978
1977
1976
1975
1976
1976
1976
1977
1978
1979
1980
1980
1981
1980
1980
1980
1980
1981
1981
1982
1983
1984
1985
1987
1988
1989
1989
1988
1988
1989
1991
1993
1995
1996
1997
1998
1999
2000
2002
2004
2004
2004
2003
2001
1999
1997
1995
1992
1989
1985
1982
1978
1975
1973
1971
1970
1969
1969
1968
1967
1966
1966
1966
1968
1969
1970
1971
1971
1971
1971
1971
1970
1969
1968
1967
1966
1967
1967
1968
1968
1969
1968
1968
1967
1966
1966
1965
1965
1965
1965
1964
1964
1963
1963
1963
1964
1966
1966
1966
1966
1965
1964
1963
1963
1963
1964
1964
1964
1964
1964
1963
1963
1963
1964
1965
1966
1966
1965
1964
1963
1963
1963
1963
1963
1964
1966
1968
1969
1970
1968
1966
1964
1962
1962
1962
1963
1963
1964
1965
1965
1965
1965
1964
1963
1963
1965
1966
1967
1966
1962
1957
1952
1952
1956
1967
1985
2007
2031
2048
2055
2048
2028
2003
1984
1973
1971
1972
1974
1972
1970
1968
1967
1966
1967
1967
1969
1970
1971
1972
1973
1973
1972
1972
1972
1973
1974
1975
1976
1976
1976
1976
1976
1977
1978
1978
1978
1979
1979
1980
1982
1983
1984
1985
1985
1986
1987
1989
1990
1992
1994
1995
1996
1997
1998
1999
2000
2001
2002
2002
2002
2000
1996
1991
1987
1983
1980
1978
1975
1973
1972
1970
1970
1970
1970
1970
1969
1968
1968
1967
1967
1968
1968
1968
1968
1969
1970
1971
1971
1971
1972
1971
1971
1971
1970
1971
1971
1972
1973
1974
1974
1974
1973
1973
1972
1971
1971
1971
1973
1974
1975
1975
1973
1971
1970
1969
1970
1971
1973
1974
1975
1975
1976
1976
1976
1976
1976
1976
1977
1977
1977
1976
1975
1974
1974
1975
1977
1978
1980
1981
1980
1979
1977
1975
1973
1973
1974
1975
1977
1977
1976
1974
1973
1972
1972
1973
1975
1975
1975
1975
1974
1970
1965
1959
1955
1955
1960
1971
1987
2009
2031
2048
2053
2047
2027
2004
1984
1973
1970
1972
1975
1974
1972
1971
1970
1970
1971
1972
1972
1972
1973
1973
1973
1974
1974
1974
1975
1975
1975
1975
1974
1974
1974
1974
1975
1975
1976
1977
1978
1978
1979
1979
1979
1979
1980
1981
1982
1984
1986
1988
1989
1990
1990
1991
1991
1993
1994
1996
1998
2000
2000
2000
1998
1995
1992
1989
1987
1984
1981
1979
1976
1973
1971
1968
1967
1966
1966
1967
1967
1968
1968
1968
1969
1968
1968
1968
1968
1968
1969
1969
1970
1971
1971
1970
1970
1970
1971
1972
1973
1974
1973
1972
1971
1971
1972
1974
1975
1975
1975
1975
1974
1974
1974
1974
1974
1974
1974
1975
1976
1977
1978
1978
1978
1976
1975
1974
1974
1975
1977
1978
1978
1977
1975
1974
1974
1975
1976
1976
1976
1976
1976
1976
1976
1975
1974
1973
1973
1974
1975
1975
1974
1972
1971
1971
1971
1971
1972
1973
1974
1975
1975
1975
1972
1968
1963
1959
1959
1964
1973
1987
2005
2024
2039
2047
2043
2029
2009
1991
1979
1975
1975
1977
1977
1976
1975
1975
1976
1976
1977
1976
1976
1975
1974
1974
1974
1974
1974
1975
1976
1977
1977
1977
1976
1975
1975
1975
1975
1976
1976
1977
1977
1978
1978
1978
1979
1979
1980
1981
1983
1984
1985
1986
1986
1987
1988
1990
1992
1993
1994
1994
1995
1995
1995
1993
1991
1988
1985
1982
1979
1976
1973
1970
1968
1965
1964
1963
1963
1963
1963
1964
1964
1964
1964
1964
1963
1963
1962
1963
1963
1965
1965
1966
1965
1964
1963
1963
1964
1965
1966
1966
1966
1965
1964
1964
1965
1965
1966
1966
1966
1966
1965
1965
1965
1965
1965
1965
1965
1965
1966
1966
1967
1968
1968
1968
1968
1967
1967
1967
1967
1967
1967
1967
1967
1967
1968
1969
1970
1971
1972
1973
1972
1972
1971
1970
1969
1968
1967
1968
1969
1970
1970
1970
1970
1969
1969
1969
1969
1970
1971
1972
1971
1967
1962
1956
1952
1953
1959
1970
1987
2009
2030
2046
2050
2041
2022
1999
1982
1973
1971
1973
1974
1973
1971
1970
1969
1969
1969
1970
1971
1972
1972
1971
1970
1970
1970
1971
1972
1974
1974
1975
1974
1973
1972
1972
1973
1974
1975
1976
1976
1977
1978
1978
1979
1979
1979
1979
1980
1981
1983
1984
1985
1986
1987
1988
1989
1990
1991
1992
1993
1993
1992
1992
1990
1988
1985
1982
1980
1978
1976
1973
1971
1969
1968
1966
1965
1964
1964
1964
1965
1967
1968
1968
1967
1966
1965
1964
1964
1965
1965
1966
1967
1967
1967
1967
1967
1967
1967
1968
1968
1969
1969
1969
1967
1966
1965
1965
1966
1967
1968
1969
1969
1968
1968
1967
1966
1965
1966
1967
1968
1968
1968
1968
1967
1967
1967
1967
1967
1968
1968
1968
1968
1968
1968
1967
1967
1967
1967
1968
1969
1971
1973
1973
1972
1971
1970
1969
1969
1970
1970
1969
1969
1969
1969
1969
1969
1969
1969
1970
1971
1972
1973
1973
1972
1969
1965
1960
1957
1958
1962
1972
1988
2008
2030
2048
2054
2048
2031
2009
1990
1978
1974
1975
1975
1975
1974
1973
1973
1973
1974
1974
1974
1973
1973
1972
1972
1973
1974
1976
1977
1978
1978
1978
1978
1977
1977
1977
1977
1977
1977
1978
1979
1980
1981
1982
1982
1982
1983
1985
1987
1989
1990
1990
1990
1990
1991
1992
1993
1995
1996
1997
1998
1998
1998
1998
1997
1995
1993
1990
1987
1985
1982
1980
1977
1975
1973
1972
1972
1972
1973
1974
1973
1972
1970
1969
1969
1970
1971
1973
1974
1974
1974
1973
1972
1971
1970
1970
1971
1971
1971
1970
1969
1969
1969
1968
1968
1969
1969
1970
1972
1972
1973
1973
1972
1971
1969
1969
1969
1970
1972
1973
1973
1972
1971
1970
1969
1969
1970
1970
1971
1972
1972
1972
1972
1971
1970
1970
1970
1971
1971
1972
1972
1972
1971
1971
1972
1973
1975
1975
1975
1974
1973
1972
1972
1972
1972
1972
1972
1973
1973
1973
1973
1972
1972
1971
1971
1971
1971
1970
1969
1966
1963
1961
1961
1966
1976
1992
2010
2029
2043
2045
2035
2017
1996
1980
1973
1972
1974
1977
1978
1978
1977
1976
1975
1975
1974
1974
1974
1975
1975
1976
1976
1976
1976
1976
1976
1976
1977
1978
1979
1980
1980
1980
1978
1977
1977
1977
1979
1981
1983
1985
1986
1986
1986
1986
1987
1987
1989
1991
1993
1995
1996
1996
1996
1996
1997
1998
1999
2000
2000
1998
1996
1993
1989
1985
1982
1980
1977
1975
1974
1973
1972
1972
1971
1970
1969
1969
1969
1969
1970
1971
1971
1972
1971
1970
1969
1969
1969
1971
1972
1974
1974
1973
1972
1971
1970
1970
1971
1972
1973
1973
1973
1973
1973
1973
1973
1973
1973
1973
1973
1974
1974
1974
1974
1974
1973
1973
1973
1974
1975
1976
1976
1976
1975
1974
1973
1973
1974
1975
1976
1977
1977
1977
1977
1978
1978
1978
1977
1977
1977
1977
1978
1980
1981
1981
1981
1981
1981
1981
1980
1980
1980
1979
1979
1979
1978
1978
1978
1979
1980
1981
1982
1983
1982
1982
1982
1981
1979
1976
1972
1969
1970
1975
1984
2000
2019
2041
2057
2063
2056
2039
2016
1997
1986
1984
1985
1988
1988
1988
1987
1987
1987
1987
1987
1986
1986
1986
1986
1987
1987
1988
1988
1989
1989
1989
1989
1990
1991
1992
1994
1995
1995
1994
1993
1993
1993
1994
1995
1996
1998
1999
2000
2002
2003
2004
2004
2005
2006
2007
2009
2010
2011
2012
2012
2012
2012
2013
2014
2013
2012
2009
2006
2002
1999
1997
1994
1993
1991
1991
1990
1990
1989
1989
1988
1987
1986
1986
1987
1988
1990
1991
1991
1991
1991
1990
1990
1990
1990
1990
1991
1991
1992
1992
1992
1991
1990
1990
1990
1991
1992
1992
1992
1992
1991
1990
1990
1990
1991
1992
1993
1995
1995
1994
1993
1992
1992
1992
1993
1994
1994
1994
1994
1993
1993
1992
1992
1992
1992
1993
1993
1994
1995
1995
1995
1994
1993
1992
1992
1993
1994
1995
1995
1995
1995
1994
1995
1995
1996
1997
1997
1997
1996
1995
1994
1993
1993
1993
1993
1992
1991
1991
1990
1990
1991
1991
1991
1991
1992
1992
1989
1985
1981
1979
1980
1985
1997
2014
2036
2059
2076
2082
2072
2051
2026
2006
1996
1993
1995
1997
1997
1995
1993
1992
1991
1990
1990
1990
1990
1992
1993
1993
1993
1992
1992
1992
1992
1993
1993
1993
1993
1993
1994
1994
1995
1995
1994
1994
1995
1996
1997
1999
2000
2000
2000
1999
2000
2000
2002
2003
2005
2006
2008
2008
2009
2009
2009
2009
2010
2010
2010
2009
2006
2004
2000
1998
1995
1994
1992
1991
1989
1988
1986
1985
1984
1982
1982
1982
1983
1984
1986
1987
1988
1989
1989
1989
1988
1988
1988
1990
1992
1992
1992
1991
1990
1989
1989
1989
1990
1991
1992
1993
1993
1993
1992
1992
1992
1992
1992
1993
1993
1993
1992
1991
1991
1991
1991
1993
1995
1997
1998
1999
1999
1998
1997
1997
1997
1997
1997
1997
1997
1997
1997
1997
1997
1997
1997
1996
1996
1996
1997
1998
1998
1998
1997
1996
1996
1997
1999
2002
2004
2004
2004
2004
2003
2002
2001
2001
2000
2000
2000
2000
2001
2002
2002
2001
2000
2000
2000
2002
2004
2005
2005
2002
1996
1990
1986
1985
1990
2000
2017
2039
2062
2082
2090
2083
2063
2039
2017
2004
2001
2002
2003
2003
2001
1998
1997
1997
1997
1997
1998
1997
1997
1996
1995
1995
1995
1996
1997
1998
1999
1999
1999
1998
1998
1998
1998
1999
1999
2000
2000
2001
2002
2002
2002
2002
2002
2002
2003
2004
2006
2007
2008
2009
2010
2011
2011
2012
2012
2013
2014
2015
2016
2015
2013
2011
2008
2005
2003
2000
1998
1995
1993
1991
1989
1987
1986
1985
1985
1985
1986
1987
1987
1987
1986
1986
1985
1985
1985
1985
1985
1985
1986
1986
1985
1985
1984
1983
1983
1984
1984
1984
1984
1983
1983
1983
1983
1983
1983
1984
1984
1984
1983
1982
1982
1981
1981
1981
1980
1981
1981
1981
1981
1981
1980
1979
1978
1978
1979
1979
1980
1980
1980
1979
1979
1978
1978
1977
1977
1978
1978
1978
1978
1978
1977
1976
1976
1976
1976
1977
1977
1977
1977
1977
1977
1978
1978
1977
1977
1977
1977
1977
1977
1977
1975
1974
1973
1972
1973
1973
1974
1975
1975
1974
1973
1972
1972
1972
1973
1971
1967
1962
1959
1960
1966
1977
1994
2015
2036
2049
2053
2043
2023
2000
1982
1972
1970
1971
1973
1974
1974
1973
1973
1972
1971
1970
1970
1971
1971
1972
1972
1972
1971
1971
1970
1970
1970
1971
1971
1972
1973
1973
1973
1973
1973
1973
1973
1973
1974
1975
1976
1977
1978
1978
1978
1978
1978
1979
1980
1981
1982
1984
1985
1985
1986
1985
1985
1986
1987
1988
1989
1988
1986
1983
1979
1976
1972
1970
1968
1967
1967
1968
1968
1968
1967
1965
1964
1963
1963
1964
1965
1967
1967
1967
1967
1966
1965
1964
1964
1964
1965
1966
1967
1967
1967
1967
1967
1966
1966
1966
1966
1966
1966
1966
1965
1965
1966
1967
1969
1969
1970
1970
1971
1971
1971
1970
1970
1970
1969
1970
1970
1970
1970
1970
1969
1969
1969
1969
1970
1971
1971
1971
1971
1970
1970
1971
1972
1973
1973
1973
1973
1972
1972
1972
1973
1974
1974
1974
1975
1975
1976
1976
1975
1973
1971
1969
1968
1968
1968
1969
1969
1970
1970
1970
1970
1970
1970
1970
1970
1969
1966
1962
1959
1957
1959
1965
1976
1990
2008
2026
2037
2037
2026
2006
1986
1971
1965
1965
1967
1968
1968
1966
1965
1963
1963
1962
1963
1963
1963
1964
1964
1964
1965
1965
1965
1964
1964
1964
1965
1966
1968
1969
1970
1970
1970
1971
1971
1972
1973
1975
1977
1980
1981
1983
1983
1984
1985
1986
1987
1989
1990
1992
1993
1993
1993
1992
1991
1991
1991
1991
1990
1989
1987
1984
1980
1976
1973
1970
1968
1967
1966
1966
1966
1966
1965
1965
1964
1964
1965
1966
1968
1969
1971
1972
1973
1973
1974
1974
1975
1975
1974
1973
1972
1971
1971
1971
1972
1973
1973
1974
1973
1973
1973
1973
1974
1974
1973
1973
1972
1972
1972
1972
1972
1971
1970
1970
1969
1969
1970
1970
1971
1972
1972
1972
1971
1971
1971
1971
1972
1972
1972
1971
1970
1969
1969
1969
1969
1970
1971
1972
1972
1971
1970
1968
1966
1965
1965
1965
1965
1964
1963
1962
1961
1961
1960
1960
1959
1959
1960
1961
1961
1959
1955
1950
1946
1945
1949
1958
1973
1991
2012
2028
2035
2030
2013
1992
1975
1965
1963
1966
1970
1972
1973
1973
1973
1974
1974
1975
1976
1977
1978
1978
1977
1976
1975
1975
1974
1974
1975
1975
1976
1975
1975
1974
1973
1972
1972
1972
1973
1974
1976
1976
1977
1976
1976
1976
1977
1977
1979
1980
1982
1983
1983
1982
1981
1979
1978
1978
1978
1978
1978
1977
1976
1973
1971
1968
1966
1964
1962
1961
1960
1959
1957
1956
1954
1953
1952
1951
1952
1952
1953
1954
1954
1955
1955
1955
1955
1955
1955
1955
1957
1958
1959
1960
1959
1959
1959
1959
1960
1961
1962
1963
1963
1963
1962
1962
1962
1963
1963
1964
1965
1966
1967
1967
1967
1967
1966
1966
1966
1966
1968
1969
1970
1971
1971
1970
1971
1971
1972
1973
1974
1974
1973
1974
1975
1977
1979
1980
1981
1981
1981
1981
1981
1980
1979
1977
1976
1974
1972
1971
1970
1969
1968
1966
1963
1960
1955
1950
1945
1940
1933
1925
1913
1899
1887
1878
1876
1881
1894
1911
1931
1945
1950
1941
1922
1900
1882
1872
1870
1872
1874
1873
1871
1869
1868
1867
1867
1867
1867
1868
1870
1872
1873
1875
1876
1877
1879
1880
1882
1884
1886
1887
1889
1890
1891
1892
1893
1894
1897
1899
1903
1906
1909
1912
1915
1917
1919
1922
1925
1928
1931
1933
1936
1939
1942
1945
1949
1953
1958
1963
1967
1970
1971
1972
1971
1971
1970
1970
1969
1968
1968
1968
1969
1970
1971
1972
1972
1973
1974
1975
1977
1978
1980
1982
1983
1983
1983
1983
1983
1983
1983
1983
1982
1982
1982
1981
1981
1981
1981
1983
1984
1986
1987
1987
1988
1989
1989
1989
1989
1990
1990
1990
1990
1989
1988
1988
1988
1988
1989
1989
1988
1987
1986
1984
1981
1977
1974
1971
1969
1969
1968
1967
1965
1961
1957
1953
1952
1952
1953
1956
1957
1959
1959
1959
1959
1958
1957
1957
1957
1958
1959
1960
1961
1961
1961
1961
1961
1961
1961
1961
1962
1961
1959
1954
1950
1947
1949
1957
1969
1987
2006
2022
2030
2027
2012
1992
1973
1961
1957
1958
1961
1961
1960
1956
1953
1950
1949
1950
1952
1955
1957
1958
1960
1961
1963
1965
1968
1971
1976
1981
1987
1992
1997
2001
2005
2008
2013
2018
2023
2028
2031
2033
2034
2034
2033
2034
2035
2037
2041
2044
2048
2049
2051
2052
2053
2054
2055
2056
2057
2058
2058
2058
2058
2057
2056
2054
2051
2048
2045
2042
2039
2037
2036
2035
2034
2033
2031
2030
2030
2030
2030
2030
2030
2029
2028
2027
2026
2026
2026
2026
2026
2025
2025
2024
2023
2023
2022
2021
2020
2020
2020
2019
2019
2018
2018
2018
2017
2017
2016
2016
2015
2015
2013
2012
2010
2009
2009
2008
2009
2009
2009
2009
2009
2009
2008
2008
2007
2007
2007
2006
2006
2006
2006
2006
2005
2004
2002
2001
2001
2001
2002
2003
2005
2005
2005
2003
2001
1999
1997
1995
1993
1992
1991
1990
1989
1989
1989
1988
1987
1986
1984
1983
1981
1979
1976
1971
1965
1961
1959
1962
1969
1980
1996
2013
2029
2038
2038
2027
2010
1993
1982
1977
1976
1977
1977
1976
1974
1974
1975
1976
1977
1979
1980
1980
1981
1981
1981
1981
1982
1983
1984
1985
1985
1985
1984
1983
1983
1983
1984
1985
1986
1987
1987
1987
1987
1986
1987
1988
1989
1991
1992
1994
1995
1995
1995
1996
1996
1997
1998
1999
2000
2001
2001
2001
2001
2000
1998
1995
1993
1991
1990
1988
1987
1985
1983
1982
1981
1980
1979
1979
1979
1979
1979
1979
1979
1979
1979
1979
1979
1979
1979
1979
1979
1979
1978
1977
1977
1976
1976
1977
1978
1979
1979
1978
1977
1976
1974
1974
1973
1974
1975
1975
1976
1976
1975
1974
1973
1972
1972
1972
1973
1973
1972
1972
1971
1971
1971
1972
1972
1973
1973
1973
1973
1973
1972
1972
1972
1972
1972
1973
1973
1973
1974
1974
1974
1975
1974
1974
1973
1973
1973
1973
1973
1973
1973
1972
1972
1973
1973
1974
1974
1974
1974
1975
1975
1975
1975
1973
1970
1966
1964
1965
1969
1978
1991
2008
2025
2038
2042
2035
2020
2001
1985
1976
1973
1973
1974
1974
1974
1974
1974
1974
1974
1974
1973
1972
1971
1970
1971
1972
1973
1974
1974
1974
1973
1972
1972
1972
1972
1973
1973
1974
1974
1975
1975
1975
1976
1976
1976
1977
1978
1978
1979
1980
1980
1980
1981
1981
1982
1982
1983
1985
1986
1986
1987
1987
1987
1986
1986
1985
1984
1983
1981
1979
1977
1975
1974
1973
1973
1972
1972
1972
1972
1971
1970
1970
1969
1969
1969
1970
1971
1972
1972
1971
1971
1970
1970
1971
1973
1974
1974
1974
1973
1972
1971
1970
1969
1969
1969
1970
1970
1970
1970
1970
1969
1969
1968
1968
1969
1970
1971
1972
1972
1971
1970
1969
1968
1968
1970
1971
1972
1972
1971
1970
1970
1969
1969
1969
1970
1971
1972
1973
1973
1972
1971
1970
1970
1971
1972
1974
1974
1974
1974
1973
1972
1971
1971
1971
1971
1972
1973
1974
1974
1974
1973
1972
1972
1972
1972
1974
1974
1973
1970
1966
1962
1961
1964
1972
1985
2001
2019
2035
2043
2039
2026
2006
1989
1978
1975
1977
1979
1980
1980
1979
1978
1977
1977
1977
1978
1978
1979
1979
1979
1979
1978
1978
1979
1980
1981
1982
1982
1982
1982
1982
1982
1982
1983
1984
1985
1986
1987
1987
1987
1987
1987
1987
1987
1987
1988
1989
1990
1991
1992
1993
1993
1993
1993
1994
1995
1996
1997
1998
1997
1995
1993
1990
1987
1985
1984
1982
1981
1980
1979
1978
1977
1976
1975
1974
1974
1975
1975
1975
1975
1974
1973
1972
1972
1972
1973
1974
1974
1975
1975
1975
1974
1974
1974
1974
1974
1974
1974
1974
1974
1973
1973
1972
1972
1973
1974
1975
1976
1976
1976
1975
1974
1973
1973
1973
1973
1974
1974
1974
1974
1975
1974
1974
1974
1974
1975
1976
1976
1977
1977
1977
1977
1976
1976
1975
1976
1976
1977
1978
1978
1979
1978
1978
1977
1977
1977
1977
1977
1977
1977
1976
1976
1976
1975
1975
1976
1977
1978
1979
1980
1980
1980
1979
1977
1974
1970
1968
1969
1973
1982
1995
2011
2028
2042
2048
2043
2029
2010
1994
1984
1981
1982
1983
1983
1982
1981
1981
1982
1982
1982
1982
1982
1981
1980
1980
1981
1982
1983
1984
1984
1984
1984
1984
1984
1984
1985
1986
1986
1986
1985
1985
1985
1985
1986
1986
1987
1988
1988
1989
1990
1991
1991
1992
1992
1993
1994
1996
1997
1998
1998
1998
1998
1998
1998
1998
1997
1996
1995
1994
1992
1990
1987
1985
1983
1982
1981
1980
1980
1980
1980
1980
1980
1979
1979
1979
1979
1979
1980
1981
1982
1982
1981
1980
1979
1979
1979
1979
1979
1980
1980
1980
1980
1978
1977
1976
1976
1976
1977
1977
1977
1977
1977
1976
1975
1975
1975
1975
1975
1975
1975
1975
1974
1974
1974
1974
1974
1974
1975
1975
1975
1974
1974
1974
1974
1974
1975
1975
1975
1975
1975
1975
1973
1972
1972
1972
1974
1975
1977
1977
1978
1977
1976
1974
1973
1972
1972
1973
1973
1973
1973
1973
1973
1972
1972
1972
1972
1973
1974
1975
1974
1971
1967
1962
1960
1963
1970
1982
1999
2016
2032
2040
2038
2025
2007
1989
1978
1973
1974
1976
1977
1977
1976
1974
1974
1974
1974
1974
1973
1973
1972
1972
1972
1972
1972
1973
1973
1973
1974
1974
1973
1973
1973
1973
1973
1973
1974
1974
1975
1976
1976
1976
1976
1976
1977
1977
1979
1980
1981
1982
1983
1983
1982
1982
1982
1983
1984
1986
1987
1987
1987
1986
1984
1982
1980
1978
1976
1974
1972
1971
1970
1968
1967
1967
1966
1966
1966
1967
1967
1968
1968
1968
1967
1967
1967
1967
1967
1967
1968
1968
1968
1968
1968
1968
1967
1967
1967
1968
1968
1968
1968
1968
1967
1966
1966
1967
1968
1968
1968
1968
1967
1966
1966
1965
1965
1966
1966
1966
1966
1966
1966
1965
1965
1964
1964
1964
1964
1965
1966
1966
1966
1966
1965
1964
1964
1964
1964
1964
1964
1964
1964
1965
1967
1968
1968
1969
1969
1970
1972
1974
1975
1976
1975
1973
1972
1971
1970
1971
1972
1973
1973
1973
1972
1971
1972
1972
1973
1972
1970
1966
1963
1961
1963
1969
1980
1996
2014
2030
2039
2038
2026
2008
1991
1980
1976
1977
1979
1980
1979
1978
1977
1977
1977
1977
1977
1977
1978
1978
1979
1980
1980
1981
1982
1982
1981
1981
1981
1981
1982
1983
1983
1983
1983
1983
1982
1982
1982
1983
1985
1987
1989
1991
1991
1991
1991
1991
1992
1993
1995
1997
1999
2001
2003
2004
2005
2006
2007
2009
2010
2010
2009
2007
2004
2001
1999
1997
1996
1996
1996
1995
1995
1995
1994
1992
1990
1989
1989
1990
1991
1992
1992
1992
1991
1991
1991
1991
1991
1992
1992
1992
1993
1993
1994
1994
1993
1993
1993
1993
1993
1993
1993
1992
1992
1993
1995
1997
1998
1999
1998
1997
1996
1996
1996
1995
1994
1993
1992
1992
1992
1992
1993
1993
1993
1993
1992
1992
1991
1991
1991
1991
1991
1991
1991
1991
1991
1992
1993
1994
1994
1993
1992
1991
1991
1990
1990
1990
1990
1989
1988
1987
1986
1986
1987
1987
1987
1987
1987
1988
1989
1989
1988
1985
1980
1976
1976
1979
1988
2002
2020
2040
2056
2063
2058
2043
2023
2005
1994
1991
1992
1994
1994
1994
1993
1992
1991
1990
1989
1989
1989
1990
1991
1992
1991
1990
1989
1989
1989
1990
1992
1992
1993
1992
1992
1993
1993
1993
1994
1995
1996
1997
1998
1999
1998
1998
1998
1999
2001
2003
2005
2006
2008
2009
2009
2010
2009
2009
2009
2010
2011
2012
2012
2012
2010
2008
2006
2003
2000
1998
1996
1995
1993
1992
1990
1989
1988
1988
1988
1988
1988
1988
1988
1989
1989
1988
1988
1988
1988
1989
1990
1991
1990
1990
1988
1986
1985
1986
1987
1988
1988
1988
1986
1985
1983
1982
1982
1981
1981
1981
1981
1982
1982
1982
1982
1981
1981
1981
1982
1982
1982
1982
1982
1982
1982
1982
1982
1982
1982
1983
1983
1984
1984
1983
1982
1981
1980
1981
1981
1982
1984
1985
1985
1985
1984
1983
1981
1979
1979
1979
1979
1979
1979
1978
1978
1978
1978
1978
1978
1978
1978
1980
1981
1980
1978
1973
1968
1967
1970
1979
1994
2011
2029
2042
2047
2042
2027
2008
1993
1984
1983
1985
1987
1987
1986
1984
1983
1984
1985
1987
1987
1987
1987
1986
1985
1985
1985
1985
1985
1985
1986
1986
1986
1986
1986
1987
1988
1989
1990
1991
1991
1991
1991
1991
1991
1991
1992
1993
1994
1996
1997
1999
2000
2001
2002
2001
2001
2001
2002
2003
2004
2005
2005
2004
2002
2000
1998
1996
1995
1993
1992
1990
1987
1985
1983
1980
1979
1978
1978
1978
1979
1980
1979
1978
1977
1976
1976
1976
1977
1977
1976
1976
1976
1975
1975
1974
1974
1973
1974
1975
1976
1977
1977
1976
1974
1973
1972
1972
1973
1973
1974
1975
1974
1974
1973
1972
1973
1973
1974
1975
1975
1974
1973
1972
1972
1971
1970
1970
1971
1972
1973
1974
1974
1973
1972
1971
1970
1970
1971
1973
1975
1976
1976
1975
1974
1974
1974
1974
1974
1974
1974
1973
1974
1974
1973
1973
1973
1972
1972
1973
1973
1974
1974
1974
1972
1969
1964
1961
1961
1966
1975
1989
2006
2022
2035
2039
2034
2019
2001
1986
1977
1975
1977
1979
1979
1979
1978
1978
1978
1978
1978
1978
1978
1978
1978
1977
1977
1978
1978
1979
1979
1979
1980
1981
1982
1982
1983
1983
1983
1984
1985
1985
1986
1986
1986
1986
1986
1987
1988
1990
1991
1992
1992
1992
1992
1993
1994
1995
1997
1998
1999
1999
1999
1999
1998
1996
1994
1991
1989
1988
1987
1986
1984
1981
1979
1977
1976
1976
1976
1975
1975
1975
1974
1974
1974
1973
1973
1973
1973
1974
1974
1975
1975
1975
1975
1974
1974
1973
1973
1974
1974
1974
1974
1973
1973
1972
1972
1972
1973
1973
1973
1974
1973
1973
1973
1972
1971
1970
1970
1971
1972
1973
1973
1973
1972
1971
1971
1971
1972
1972
1972
1972
1973
1973
1973
1972
1972
1971
1970
1970
1971
1972
1974
1975
1976
1975
1974
1972
1972
1972
1973
1974
1974
1974
1973
1972
1972
1971
1971
1972
1974
1974
1974
1974
1973
1973
1973
1972
1969
1965
1962
1960
1963
1969
1981
1996
2013
2029
2039
2039
2028
2010
1992
1980
1975
1975
1976
1976
1975
1975
1975
1976
1977
1976
1975
1974
1974
1974
1974
1974
1975
1977
1979
1979
1979
1979
1978
1978
1979
1980
1981
1981
1982
1982
1982
1981
1981
1981
1981
1982
1983
1985
1986
1988
1989
1989
1990
1991
1992
1994
1995
1996
1997
1998
1998
1998
1998
1998
1997
1995
1993
1991
1990
1988
1985
1982
1979
1977
1976
1975
1975
1974
1974
1972
1971
1971
1971
1971
1972
1972
1973
1973
1972
1972
1972
1972
1972
1972
1973
1973
1974
1974
1973
1972
1971
1970
1969
1969
1970
1970
1971
1971
1971
1971
1971
1970
1970
1970
1970
1970
1970
1970
1970
1970
1970
1970
1969
1969
1969
1970
1970
1971
1972
1972
1971
1970
1970
1970
1972
1973
1974
1973
1972
1971
1970
1970
1971
1972
1973
1973
1973
1973
1973
1972
1972
1971
1970
1970
1970
1970
1970
1970
1970
1970
1970
1969
1968
1968
1969
1970
1971
1969
1965
1960
1957
1957
1963
1975
1991
2010
2028
2039
2040
2030
2011
1992
1979
1972
1972
1973
1974
1974
1973
1972
1971
1971
1972
1972
1973
1973
1973
1973
1973
1972
1972
1971
1971
1971
1972
1972
1973
1974
1975
1975
1975
1975
1974
1974
1975
1977
1979
1980
1981
1981
1980
1980
1980
1981
1983
1985
1986
1987
1988
1989
1989
1990
1990
1991
1991
1992
1993
1992
1991
1989
1986
1983
1980
1978
1977
1976
1974
1973
1971
1970
1969
1968
1967
1967
1967
1967
1967
1968
1968
1969
1969
1968
1967
1967
1966
1967
1967
1968
1969
1969
1968
1968
1967
1967
1967
1969
1970
1970
1969
1968
1967
1966
1966
1966
1967
1968
1968
1968
1968
1967
1967
1968
1968
1968
1968
1968
1968
1968
1968
1968
1968
1968
1968
1968
1968
1968
1968
1968
1968
1968
1968
1966
1965
1965
1966
1968
1970
1972
1972
1972
1971
1970
1970
1969
1969
1968
1968
1968
1968
1969
1969
1969
1969
1969
1969
1969
1969
1969
1970
1971
1970
1968
1963
1957
1954
1954
1958
1968
1981
1998
2015
2030
2038
2035
2021
2002
1985
1973
1969
1969
1970
1971
1971
1971
1971
1971
1971
1970
1970
1970
1970
1970
1969
1969
1969
1969
1969
1969
1970
1971
1971
1972
1972
1973
1973
1973
1973
1973
1973
1974
1975
1975
1976
1976
1976
1977
1978
1979
1981
1982
1983
1983
1983
1983
1984
1985
1986
1987
1986
1986
1985
1984
1982
1980
1978
1976
1973
1971
1969
1967
1964
1962
1960
1958
1957
1957
1957
1956
1955
1954
1953
1952
1952
1952
1951
1951
1950
1950
1950
1950
1950
1950
1949
1949
1950
1951
1952
1952
1951
1950
1949
1948
1947
1947
1947
1947
1947
1947
1947
1947
1947
1947
1947
1947
1948
1947
1947
1947
1947
1947
1947
1948
1948
1947
1946
1945
1944
1944
1944
1945
1945
1944
1943
1942
1941
1941
1941
1942
1942
1942
1943
1943
1943
1942
1942
1941
1940
1939
1938
1937
1936
1935
1935
1935
1935
1936
1936
1936
1936
1936
1936
1935
1935
1936
1937
1939
1938
1934
1929
1925
1925
1929
1939
1954
1972
1989
2002
2005
1998
1981
1963
1948
1940
1939
1941
1944
1945
1944
1943
1942
1941
1941
1941
1942
1942
1943
1944
1945
1945
1945
1944
1944
1944
1944
1945
1945
1946
1946
1947
1947
1946
1946
1945
1946
1947
1949
1950
1951
1952
1952
1953
1954
1955
1956
1956
1955
1955
1956
1958
1960
1962
1964
1964
1965
1965
1966
1966
1966
1965
1963
1960
1957
1954
1951
1949
1948
1947
1946
1945
1944
1943
1942
1942
1943
1943
1944
1945
1945
1945
1944
1942
1941
1941
1941
1943
1944
1946
1946
1946
1944
1943
1943
1944
1946
1947
1948
1947
1947
1946
1946
1946
1946
1946
1946
1946
1947
1947
1947
1946
1946
1946
1946
1947
1947
1948
1949
1950
1950
1950
1949
1949
1948
1948
1949
1949
1950
1950
1950
1950
1950
1949
1950
1950
1951
1952
1953
1954
1954
1954
1954
1954
1954
1954
1954
1954
1955
1955
1955
1955
1955
1956
1956
1956
1956
1957
1958
1959
1959
1957
1953
1947
1944
1945
1952
1963
1979
1997
2014
2026
2028
2019
2003
1986
1974
1971
1974
1979
1982
1982
1981
1979
1978
1978
1979
1980
1981
1982
1982
1982
1981
1980
1980
1980
1981
1983
1985
1987
1987
1987
1987
1987
1988
1988
1989
1990
1992
1993
1995
1997
1999
2000
2001
2002
2003
2005
2007
2009
2010
2011
2012
2013
2013
2014
2016
2018
2020
2022
2023
2023
2021
2018
2015
2011
2007
2005
2003
2001
1999
1997
1995
1994
1994
1994
1994
1993
1993
1993
1993
1992
1992
1991
1991
1990
1990
1991
1992
1993
1994
1994
1993
1993
1993
1992
1992
1992
1992
1992
1993
1993
1993
1993
1993
1993
1993
1993
1994
1994
1995
1995
1994
1994
1993
1992
1992
1993
1993
1994
1994
1994
1994
1993
1993
1992
1992
1993
1994
1995
1995
1995
1994
1993
1992
1992
1992
1994
1995
1997
1999
2000
2000
1999
1998
1997
1997
1997
1997
1997
1997
1997
1997
1997
1997
1997
1997
1997
1998
1997
1998
1998
1999
1999
1998
1996
1992
1988
1986
1987
1992
2002
2017
2036
2054
2069
2075
2068
2051
2032
2016
2006
2004
2005
2006
2006
2005
2005
2005
2006
2007
2007
2006
2005
2004
2003
2004
2006
2008
2010
2011
2011
2010
2009
2008
2008
2009
2010
2011
2012
2012
2013
2013
2013
2013
2013
2014
2014
2015
2016
2017
2018
2020
2021
2021
2022
2024
2025
2027
2028
2029
2030
2030
2030
2030
2028
2027
2026
2025
2024
2022
2020
2017
2014
2011
2008
2006
2005
2004
2004
2004
2003
2002
2001
2001
2001
2001
2002
2003
2004
2004
2004
2004
2003
2003
2003
2003
2004
2005
2006
2006
2006
2005
2005
2005
2005
2005
2005
2005
2006
2006
2007
2007
2007
2006
2005
2005
2005
2006
2007
2008
2008
2008
2007
2006
2006
2006
2006
2007
2007
2008
2008
2008
2008
2009
2009
2010
2010
2011
2010
2010
2010
2009
2009
2009
2009
2010
2011
2012
2013
2013
2013
2012
2011
2011
2011
2012
2012
2013
2012
2010
2009
2008
2007
2007
2007
2008
2008
2008
2008
2007
2006
2003
2000
1995
1992
1991
1994
2001
2013
2029
2048
2065
2075
2073
2059
2039
2019
2005
2000
2000
2001
2002
2001
2000
1999
1998
1997
1997
1995
1994
1992
1992
1993
1995
1996
1997
1998
1998
1998
1999
1999
1999
1999
2000
2001
2002
2004
2005
2005
2005
2005
2005
2005
2005
2005
2005
2005
2006
2007
2008
2009
2009
2009
2010
2010
2012
2013
2014
2014
2013
2012
2011
2009
2007
2004
2000
1997
1994
1991
1988
1985
1983
1981
1980
1979
1979
1979
1978
1978
1978
1978
1977
1976
1974
1973
1971
1971
1971
1972
1972
1973
1973
1973
1972
1971
1969
1969
1968
1968
1967
1966
1966
1966
1966
1966
1967
1967
1968
1968
1968
1968
1967
1965
1964
1963
1963
1964
1965
1966
1966
1967
1967
1967
1966
1966
1966
1965
1965
1966
1966
1966
1967
1967
1966
1965
1965
1965
1965
1966
1967
1967
1967
1967
1968
1968
1969
1970
1971
1971
1971
1972
1971
1971
1970
1969
1968
1968
1968
1969
1969
1970
1969
1969
1968
1967
1967
1968
1970
1971
1969
1966
1961
1957
1957
1961
1969
1982
1999
2017
2030
2035
2028
2012
1993
1978
1970
1969
1971
1974
1975
1974
1973
1972
1972
1972
1972
1972
1972
1972
1973
1974
1974
1974
1973
1973
1972
1972
1973
1975
1976
1976
1976
1975
1975
1975
1976
1977
1978
1979
1979
1980
1981
1982
1983
1984
1985
1986
1988
1990
1992
1994
1995
1997
1997
1998
1998
1998
1999
1999
2000
2000
1998
1995
1992
1988
1984
1981
1980
1979
1979
1980
1980
1980
1980
1980
1981
1983
1985
1987
1989
1990
1989
1989
1988
1988
1988
1989
1990
1991
1992
1992
1992
1992
1991
1991
1992
1992
1993
1994
1994
1994
1994
1994
1994
1994
1994
1995
1995
1996
1997
1998
1998
1997
1997
1996
1996
1996
1997
1997
1998
1997
1997
1997
1996
1996
1995
1995
1995
1995
1996
1996
1996
1995
1994
1993
1993
1994
1995
1996
1997
1998
1997
1997
1996
1995
1995
1995
1996
1997
1997
1997
1997
1995
1994
1993
1993
1994
1995
1995
1996
1995
1995
1994
1994
1994
1993
1990
1986
1983
1982
1984
1991
2003
2019
2038
2057
2070
2071
2061
2043
2022
2006
1998
1996
1997
1998
1998
1997
1996
1996
1995
1995
1995
1995
1995
1995
1994
1995
1996
1997
1998
1998
1997
1996
1995
1995
1995
1996
1997
1997
1997
1996
1995
1995
1995
1996
1997
1998
1999
2000
2001
2002
2002
2003
2004
2005
2006
2008
2010
2011
2012
2012
2012
2012
2011
2011
2010
2010
2009
2007
2004
2000
1996
1994
1992
1990
1990
1990
1989
1989
1988
1988
1988
1988
1988
1988
1989
1989
1989
1989
1988
1987
1986
1986
1985
1985
1985
1985
1986
1986
1987
1988
1987
1986
1985
1983
1983
1983
1984
1984
1984
1984
1983
1982
1982
1982
1982
1983
1983
1983
1983
1982
1982
1982
1982
1983
1983
1983
1984
1985
1985
1986
1985
1985
1984
1984
1984
1984
1984
1984
1984
1984
1983
1982
1981
1981
1981
1981
1981
1982
1983
1984
1985
1986
1986
1986
1985
1985
1985
1984
1984
1982
1981
1981
1981
1981
1982
1983
1983
1983
1983
1983
1982
1981
1981
1982
1982
1981
1978
1974
1971
1971
1976
1987
2003
2024
2045
2059
2064
2055
2036
2013
1995
1985
1983
1985
1987
1988
1987
1986
1985
1985
1984
1983
1983
1982
1982
1983
1984
1985
1985
1985
1984
1983
1983
1983
1984
1985
1986
1986
1986
1986
1985
1986
1987
1988
1990
1992
1993
1993
1992
1992
1993
1994
1994
1995
1996
1997
1998
1999
2000
2001
2002
2003
2004
2004
2004
2004
2003
2001
1999
1996
1992
1988
1985
1982
1979
1978
1976
1975
1974
1973
1972
1970
1969
1969
1970
1972
1973
1974
1973
1972
1970
1968
1967
1966
1965
1965
1965
1964
1964
1962
1960
1958
1956
1954
1953
1953
1954
1955
1956
1955
1955
1954
1953
1954
1954
1954
1953
1952
1951
1950
1949
1948
1947
1946
1945
1945
1946
1947
1948
1947
1946
1945
1944
1944
1944
1945
1946
1946
1945
1945
1943
1942
1941
1940
1940
1940
1940
1941
1941
1941
1941
1941
1941
1942
1942
1943
1944
1944
1945
1945
1944
1943
1942
1941
1940
1941
1941
1943
1944
1944
1943
1942
1941
1941
1943
1944
1946
1947
1945
1941
1937
1934
1935
1940
1951
1967
1987
2007
2022
2026
2017
1999
1978
1961
1953
1952
1955
1957
1957
1955
1954
1952
1952
1951
1950
1950
1950
1950
1950
1949
1949
1947
1947
1947
1948
1949
1950
1951
1951
1950
1950
1950
1950
1951
1952
1953
1954
1955
1955
1956
1957
1958
1960
1962
1964
1967
1970
1972
1974
1975
1976
1977
1977
1977
1977
1977
1979
1980
1981
1982
1980
1978
1975
1972
1969
1966
1962
1959
1957
1955
1953
1951
1949
1947
1947
1948
1950
1950
1950
1948
1946
1944
1943
1943
1943
1943
1943
1944
1945
1946
1947
1947
1947
1946
1946
1946
1947
1948
1947
1946
1946
1946
1946
1947
1948
1948
1949
1950
1950
1950
1949
1948
1947
1947
1948
1949
1949
1950
1949
1949
1950
1950
1951
1952
1953
1954
1954
1954
1954
1953
1953
1953
1954
1955
1956
1957
1957
1957
1957
1956
1955
1954
1954
1954
1954
1956
1956
1957
1957
1956
1956
1955
1955
1955
1956
1958
1959
1958
1956
1952
1947
1945
1947
1953
1963
1979
1997
2015
2027
2028
2018
2000
1980
1966
1959
1960
1963
1966
1966
1966
1964
1963
1963
1962
1963
1963
1964
1964
1965
1965
1965
1965
1965
1966
1966
1967
1967
1968
1969
1969
1970
1970
1971
1971
1972
1972
1973
1974
1975
1976
1976
1977
1978
1980
1982
1984
1987
1989
1990
1991
1992
1993
1994
1995
1996
1997
1997
1997
1996
1995
1992
1989
1985
1981
1977
1974
1972
1969
1968
1967
1966
1965
1964
1963
1964
1964
1966
1967
1967
1967
1966
1965
1964
1964
1964
1965
1966
1966
1967
1967
1968
1968
1969
1969
1969
1969
1969
1969
1970
1970
1971
1971
1970
1969
1969
1968
1969
1970
1971
1972
1972
1972
1971
1971
1971
1972
1973
1974
1975
1975
1975
1974
1974
1973
1973
1974
1974
1975
1976
1976
1977
1977
1978
1978
1979
1980
1980
1980
1979
1977
1976
1975
1975
1976
1978
1979
1979
1979
1978
1977
1977
1977
1977
1977
1978
1979
1977
1973
1968
1964
1962
1965
1973
1987
2007
2030
2050
2063
2062
2048
2025
2002
1985
1978
1977
1980
1981
1981
1980
1979
1978
1977
1976
1976
1976
1977
1979
1980
1981
1980
1979
1978
1978
1978
1979
1980
1981
1981
1981
1981
1980
1979
1979
1980
1982
1984
1985
1986
1986
1986
1986
1986
1987
1988
1990
1991
1992
1993
1995
1996
1997
1998
1999
1999
2000
2001
2002
2002
2000
1997
1993
1989
1985
1982
1979
1978
1977
1976
1975
1974
1972
1971
1971
1971
1971
1972
1972
1971
1970
1969
1969
1969
1969
1970
1972
1973
1973
1973
1972
1971
1971
1971
1971
1971
1971
1971
1971
1971
1972
1972
1972
1972
1971
1970
1970
1971
1972
1972
1973
1972
1972
1973
1973
1973
1973
1973
1974
1974
1974
1973
1973
1972
1972
1973
1973
1973
1973
1973
1973
1974
1974
1974
1975
1975
1977
1978
1978
1978
1977
1976
1975
1974
1973
1972
1972
1973
1973
1974
1974
1974
1974
1973
1973
1974
1976
1977
1977
1973
1968
1963
1960
1963
1971
1986
2006
2031
2053
2067
2067
2052
2029
2004
1986
1978
1977
1979
1980
1980
1979
1978
1977
1976
1975
1975
1975
1975
1977
1978
1979
1979
1978
1977
1977
1977
1978
1980
1981
1982
1982
1982
1982
1981
1981
1981
1982
1984
1986
1988
1989
1989
1988
1988
1989
1990
1992
1994
1996
1998
1999
2001
2001
2002
2002
2003
2004
2004
2004
2004
2003
2001
1997
1993
1989
1985
1983
1981
1980
1979
1978
1977
1976
1975
1974
1973
1973
1973
1974
1974
1974
1974
1974
1974
1974
1974
1974
1975
1975
1976
1976
1975
1975
1975
1975
1976
1976
1977
1977
1977
1977
1976
1975
1974
1974
1974
1975
1976
1977
1977
1977
1976
1976
1975
1975
1975
1976
1976
1977
1978
1978
1978
1977
1976
1975
1975
1975
1976
1977
1977
1977
1977
1977
1976
1976
1976
1976
1978
1980
1981
1982
1982
1981
1979
1979
1978
1978
1978
1979
1979
1980
1980
1979
1978
1978
1978
1978
1979
1980
1981
1982
1980
1976
1971
1967
1966
1971
1981
1998
2019
2043
2062
2072
2068
2050
2027
2005
1991
1986
1986
1988
1989
1988
1987
1987
1987
1987
1988
1988
1989
1990
1990
1989
1989
1989
1990
1991
1991
1991
1991
1992
1993
1994
1995
1996
1996
1996
1997
1998
1999
2000
2000
2000
2000
2001
2003
2004
2005
2007
2008
2010
2012
2013
2014
2015
2016
2017
2018
2020
2020
2021
2020
2018
2016
2012
2009
2006
2004
2002
2000
1997
1995
1993
1992
1992
1992
1992
1992
1991
1990
1990
1990
1990
1990
1989
1989
1990
1991
1992
1993
1993
1993
1992
1991
1990
1989
1989
1990
1991
1992
1993
1994
1994
1993
1992
1992
1993
1994
1995
1995
1995
1995
1993
1992
1991
1991
1993
1994
1995
1995
1994
1992
1991
1991
1992
1992
1993
1993
1995
1996
1997
1997
1996
1994
1992
1991
1991
1993
1996
1998
1999
2000
1999
1999
1998
1998
1997
1997
1997
1996
1995
1994
1993
1993
1993
1993
1994
1994
1995
1995
1995
1994
1993
1990
1986
1982
1980
1982
1989
2000
2016
2036
2055
2069
2073
2064
2047
2025
2008
1999
1998
2000
2002
2001
2000
1998
1998
1998
1998
1998
1998
1998
1998
1997
1998
1998
1999
2000
2001
2002
2002
2001
2000
2000
2000
2000
2001
2002
2003
2004
2004
2005
2005
2005
2006
2007
2008
2010
2011
2013
2014
2015
2015
2016
2017
2019
2020
2022
2023
2024
2025
2025
2025
2025
2023
2021
2019
2017
2014
2012
2008
2005
2003
2001
2000
1999
1998
1998
1998
1998
1998
1997
1996
1995
1995
1996
1997
1998
1999
1999
1998
1998
1998
1998
1998
1998
1998
1999
1999
1999
1999
1999
1999
1999
1999
1999
2000
2001
2002
2003
2002
2002
2001
2000
1999
1999
1999
1999
1999
1999
1999
1999
1999
1998
1998
1997
1997
1998
1999
1999
2000
1999
1998
1997
1996
1996
1996
1997
1997
1998
1999
2000
2000
2000
2000
1999
1998
1998
1998
1999
1999
1999
1999
1998
1997
1997
1998
1998
1998
1998
1998
1999
2000
2000
1997
1992
1987
1983
1983
1989
1999
2015
2036
2057
2077
2085
2079
2061
2037
2016
2003
1999
1999
2001
2001
2000
1999
1998
1998
1998
1998
1998
1997
1997
1996
1996
1997
1997
1998
1997
1997
1997
1997
1997
1997
1997
1997
1998
1999
2000
2001
2002
2001
2001
2000
2000
2001
2002
2003
2004
2005
2006
2006
2007
2007
2008
2009
2011
2013
2014
2015
2015
2014
2012
2011
2010
2009
2007
2005
2003
2000
1997
1995
1992
1991
1989
1988
1987
1986
1986
1986
1986
1985
1985
1985
1985
1985
1986
1987
1987
1988
1988
1988
1987
1986
1985
1985
1985
1985
1985
1986
1986
1986
1985
1985
1984
1984
1984
1984
1984
1984
1984
1984
1984
1984
1985
1985
1986
1986
1986
1986
1985
1985
1984
1984
1985
1985
1985
1986
1986
1986
1985
1985
1984
1984
1984
1985
1986
1988
1989
1989
1987
1986
1985
1985
1986
1987
1989
1990
1990
1990
1989
1988
1987
1985
1985
1985
1985
1986
1987
1986
1986
1985
1984
1984
1983
1984
1986
1987
1987
1984
1979
1972
1967
1967
1972
1983
2001
2024
2048
2066
2074
2067
2048
2022
2001
1988
1985
1987
1990
1990
1990
1988
1987
1986
1987
1988
1989
1990
1990
1990
1990
1990
1989
1988
1988
1988
1988
1989
1991
1992
1992
1991
1991
1990
1990
1991
1991
1992
1993
1993
1994
1994
1994
1994
1995
1996
1998
1999
2001
2002
2003
2004
2005
2005
2006
2006
2007
2008
2008
2008
2007
2005
2002
1999
1995
1992
1989
1986
1984
1982
1981
1979
1978
1977
1976
1975
1975
1976
1976
1977
1978
1978
1977
1976
1976
1976
1976
1977
1977
1977
1977
1976
1975
1975
1975
1974
1974
1975
1975
1975
1975
1975
1975
1974
1973
1973
1973
1974
1974
1974
1974
1974
1973
1973
1972
1972
1973
1974
1975
1975
1975
1974
1973
1973
1973
1973
1974
1974
1974
1973
1972
1972
1972
1972
1973
1974
1974
1974
1973
1974
1975
1976
1976
1977
1977
1977
1977
1977
1977
1976
1976
1975
1974
1974
1974
1974
1975
1976
1976
1976
1976
1976
1976
1976
1975
1972
1968
1964
1962
1964
1971
1984
2003
2026
2048
2061
2061
2048
2026
2003
1986
1979
1979
1981
1982
1982
1981
1981
1980
1980
1979
1979
1978
1979
1979
1979
1980
1981
1981
1982
1982
1983
1983
1984
1985
1986
1987
1989
1990
1991
1991
1991
1990
1991
1991
1992
1994
1995
1995
1996
1997
1998
2000
2002
2004
2005
2006
2008
2009
2010
2011
2012
2012
2011
2010
2009
2008
2006
2004
2001
1997
1993
1989
1986
1983
1981
1980
1979
1978
1978
1977
1977
1976
1976
1976
1976
1978
1979
1980
1980
1980
1979
1978
1977
1978
1978
1979
1980
1980
1980
1979
1979
1978
1977
1977
1977
1978
1978
1978
1978
1977
1977
1976
1976
1977
1977
1977
1977
1977
1977
1977
1976
1976
1976
1976
1976
1977
1977
1978
1978
1978
1977
1977
1977
1976
1976
1976
1976
1976
1976
1977
1977
1978
1978
1978
1978
1979
1980
1980
1980
1980
1978
1977
1975
1974
1974
1975
1976
1977
1978
1978
1979
1979
1979
1980
1980
1980
1978
1974
1969
1967
1968
1975
1989
2009
2032
2053
2065
2064
2049
2025
2001
1984
1976
1976
1979
1982
1982
1981
1980
1979
1978
1978
1977
1977
1977
1978
1980
1981
1981
1981
1980
1979
1978
1978
1978
1980
1981
1981
1982
1981
1981
1981
1981
1981
1982
1983
1984
1985
1986
1987
1989
1990
1992
1993
1995
1996
1998
2000
2002
2004
2004
2004
2004
2004
2004
2004
2003
2002
1999
1996
1991
1987
1983
1980
1977
1975
1973
1972
1971
1970
1969
1969
1969
1970
1970
1971
1971
1971
1971
1971
1971
1970
1969
1968
1969
1969
1970
1971
1971
1970
1969
1968
1967
1968
1968
1969
1970
1970
1969
1969
1969
1969
1969
1969
1969
1970
1970
1970
1969
1968
1968
1967
1966
1966
1966
1967
1968
1969
1970
1970
1969
1969
1968
1967
1967
1968
1970
1972
1973
1973
1973
1972
1972
1971
1972
1973
1973
1973
1972
1971
1971
1971
1971
1971
1971
1972
1973
1973
1973
1973
1973
1972
1970
1965
1961
1958
1960
1967
1980
1998
2019
2039
2052
2054
2044
2024
2002
1985
1977
1976
1978
1980
1980
1979
1978
1978
1978
1978
1978
1978
1977
1977
1977
1978
1979
1980
1980
1981
1981
1981
1981
1981
1981
1981
1982
1983
1985
1985
1986
1986
1987
1988
1989
1990
1990
1991
1993
1995
1996
1998
1999
1999
2000
2001
2002
2004
2005
2006
2008
2008
2008
2008
2006
2004
2002
2000
1997
1993
1989
1986
1982
1980
1978
1976
1976
1976
1976
1976
1976
1975
1975
1974
1973
1973
1974
1975
1975
1976
1976
1976
1976
1976
1976
1976
1976
1977
1977
1978
1978
1978
1977
1977
1976
1976
1976
1976
1977
1977
1977
1978
1978
1978
1978
1978
1979
1979
1980
1980
1980
1979
1978
1977
1977
1978
1979
1979
1979
1979
1979
1979
1978
1979
1979
1981
1982
1983
1984
1984
1984
1983
1982
1981
1981
1980
1981
1982
1983
1983
1983
1983
1982
1981
1981
1982
1983
1984
1985
1984
1980
1975
1970
1968
1971
1979
1994
2016
2040
2061
2073
2071
2055
2032
2008
1992
1986
1987
1990
1991
1990
1988
1986
1986
1986
1986
1987
1987
1988
1988
1988
1988
1987
1987
1987
1987
1988
1989
1989
1990
1990
1991
1991
1990
1990
1991
1991
1992
1993
1995
1996
1997
1998
1999
2000
2001
2003
2005
2006
2007
2008
2008
2009
2010
2011
2013
2014
2016
2017
2017
2016
2014
2012
2008
2005
2002
1999
1996
1994
1993
1992
1991
1989
1987
1985
1984
1984
1985
1986
1987
1987
1986
1985
1985
1985
1986
1986
1986
1986
1985
1984
1984
1984
1984
1984
1984
1984
1984
1984
1984
1984
1983
1983
1982
1981
1981
1981
1982
1983
1983
1984
1983
1982
1981
1981
1980
1980
1981
1982
1983
1983
1982
1982
1981
1980
1980
1981
1981
1981
1981
1982
1982
1982
1983
1983
1984
1984
1984
1984
1984
1983
1983
1983
1983
1982
1982
1981
1982
1983
1983
1983
1983
1983
1983
1984
1984
1983
1980
1976
1972
1970
1972
1980
1994
2013
2036
2058
2072
2073
2059
2037
2012
1995
1986
1985
1987
1989
1989
1988
1987
1987
1986
1985
1984
1984
1984
1985
1986
1986
1987
1987
1986
1986
1986
1986
1987
1987
1988
1989
1990
1990
1990
1990
1990
1991
1992
1993
1995
1996
1997
1997
1998
1999
2000
2001
2002
2003
2005
2006
2008
2009
2010
2011
2011
2012
2012
2011
2011
2009
2007
2005
2001
1997
1993
1989
1986
1984
1983
1982
1981
1980
1979
1978
1978
1978
1979
1979
1979
1980
1980
1980
1980
1980
1979
1979
1979
1979
1980
1981
1982
1982
1982
1982
1981
1981
1981
1981
1982
1983
1983
1982
1982
1981
1980
1980
1980
1980
1981
1982
1983
1983
1982
1981
1980
1979
1979
1980
1980
1981
1981
1982
1981
1981
1981
1980
1980
1980
1981
1981
1981
1981
1981
1982
1982
1983
1983
1984
1984
1983
1983
1982
1981
1980
1979
1979
1979
1979
1979
1979
1979
1979
1980
1980
1980
1979
1979
1979
1978
1976
1971
1967
1964
1965
1972
1985
2006
2030
2052
2067
2066
2051
2027
2002
1985
1977
1977
1979
1980
1979
1979
1978
1978
1977
1976
1975
1975
1976
1978
1980
1981
1981
1980
1980
1980
1980
1980
1981
1981
1981
1980
1980
1980
1980
1980
1980
1980
1981
1982
1983
1984
1985
1986
1987
1987
1988
1989
1991
1994
1996
1998
1999
1999
1999
1998
1998
1999
1999
2000
2000
1998
1996
1992
1988
1983
1980
1977
1974
1973
1972
1971
1970
1968
1967
1966
1965
1965
1966
1967
1967
1967
1967
1967
1967
1967
1967
1967
1967
1968
1968
1968
1968
1968
1968
1967
1967
1967
1968
1968
1968
1969
1968
1968
1968
1968
1967
1967
1968
1968
1969
1969
1969
1969
1968
1968
1968
1969
1970
1971
1972
1974
1976
1976
1976
1976
1975
1975
1975
1975
1976
1976
1977
1977
1978
1978
1978
1979
1979
1980
1980
1979
1979
1979
1978
1978
1978
1977
1977
1977
1978
1978
1980
1981
1981
1981
1980
1980
1979
1978
1975
1971
1966
1964
1967
1975
1990
2011
2035
2056
2068
2065
2048
2025
2001
1986
1980
1980
1983
1984
1985
1984
1984
1984
1983
1982
1981
1981
1982
1983
1984
1985
1984
1982
1980
1979
1980
1982
1984
1986
1988
1988
1987
1986
1985
1985
1985
1985
1986
1986
1987
1987
1987
1987
1988
1989
1989
1990
1991
1992
1994
1995
1996
1996
1996
1996
1996
1997
1997
1997
1996
1994
1991
1987
1982
1978
1973
1970
1968
1966
1964
1963
1961
1960
1959
1958
1957
1957
1957
1959
1960
1961
1962
1962
1962
1961
1961
1961
1962
1962
1963
1963
1964
1964
1964
1964
1964
1965
1965
1966
1966
1966
1966
1966
1965
1964
1964
1964
1965
1966
1967
1969
1970
1970
1970
1969
1969
1969
1969
1970
1972
1972
1973
1973
1973
1972
1973
1973
1974
1975
1976
1976
1976
1976
1977
1978
1979
1980
1981
1982
1982
1982
1982
1982
1981
1981
1980
1980
1980
1981
1982
1983
1984
1984
1984
1983
1983
1983
1985
1987
1988
1986
1982
1977
1972
1970
1974
1983
2000
2022
2047
2068
2079
2074
2056
2031
2007
1993
1989
1991
1994
1995
1994
1993
1991
1990
1989
1989
1990
1990
1991
1991
1991
1991
1990
1989
1989
1989
1989
1990
1990
1991
1991
1992
1992
1992
1992
1992
1992
1993
1994
1995
1995
1996
1997
1997
1998
1999
2000
2002
2004
2005
2006
2007
2008
2008
2009
2011
2012
2013
2014
2014
2012
2009
2005
2001
1996
1992
1989
1987
1985
1983
1980
1978
1976
1975
1974
1973
1973
1973
1974
1975
1975
1974
1973
1971
1970
1970
1971
1972
1972
1972
1971
1971
1970
1970
1969
1969
1969
1969
1969
1969
1970
1971
1972
1972
1972
1972
1972
1971
1971
1971
1971
1971
1971
1970
1969
1969
1970
1971
1972
1972
1972
1972
1971
1970
1970
1970
1971
1972
1974
1975
1976
1976
1977
1977
1976
1976
1975
1975
1975
1975
1974
1974
1974
1974
1974
1974
1974
1975
1976
1976
1976
1975
1974
1973
1973
1972
1970
1968
1965
1963
1966
1972
1985
2004
2027
2048
2061
2061
2048
2025
2001
1985
1978
1978
1981
1983
1983
1983
1982
1983
1984
1984
1984
1982
1981
1980
1981
1982
1984
1985
1986
1985
1985
1985
1985
1986
1988
1989
1990
1990
1990
1990
1991
1992
1992
1993
1994
1996
1998
2000
2001
2002
2003
2004
2006
2009
2011
2013
2014
2014
2015
2016
2016
2017
2018
2019
2020
2019
2017
2014
2009
2004
2000
1997
1994
1992
1991
1991
1992
1994
1994
1993
1992
1990
1990
1990
1991
1991
1991
1992
1993
1993
1994
1993
1993
1993
1993
1994
1996
1998
2001
2004
2006
2007
2007
2006
2006
2006
2008
2011
2015
2017
2019
2018
2017
2015
2014
2014
2014
2014
2014
2015
2014
2014
2013
2011
2010
2010
2010
2009
2009
2008
2008
2008
2008
2008
2008
2006
2005
2005
2006
2007
2007
2007
2006
2004
2003
2002
2002
2002
2003
2003
2003
2003
2002
2001
2000
2000
2000
2001
2002
2002
2002
2001
2000
1998
1994
1990
1987
1988
1994
2005
2021
2043
2064
2081
2086
2075
2054
2030
2010
2000
1998
2000
2002
2003
2003
2003
2003
2002
2000
1998
1997
1997
1998
1999
2000
1999
1998
1998
1998
1998
1999
1999
1999
1999
1999
1999
1999
1999
1999
1999
1999
2000
2001
2002
2004
2005
2005
2006
2007
2008
2009
2010
2011
2012
2013
2015
2016
2017
2018
2018
2019
2018
2017
2015
2013
2010
2008
2006
2003
1999
1995
1991
1988
1986
1985
1984
1984
1983
1983
1982
1981
1980
1979
1978
1978
1979
1979
1980
1980
1979
1978
1977
1977
1978
1979
1980
1980
1980
1979
1978
1977
1976
1975
1974
1974
1974
1975
1976
1976
1976
1975
1975
1975
1974
1974
1974
1974
1974
1974
1975
1975
1974
1973
1972
1972
1972
1972
1972
1972
1972
1971
1970
1969
1968
1968
1970
1971
1973
1974
1974
1973
1972
1971
1970
1970
1970
1971
1972
1971
1970
1969
1968
1968
1969
1970
1972
1973
1973
1972
1972
1971
1970
1967
1963
1959
1957
1958
1964
1975
1991
2010
2030
2046
2051
2045
2027
2006
1988
1978
1975
1976
1978
1978
1976
1975
1974
1974
1974
1975
1975
1976
1976
1975
1975
1975
1975
1976
1977
1978
1979
1979
1979
1978
1979
1979
1980
1982
1983
1983
1983
1983
1983
1984
1985
1986
1988
1990
1992
1994
1995
1995
1995
1996
1997
1998
2000
2002
2004
2005
2005
2005
2004
2003
2001
1999
1997
1994
1991
1988
1985
1982
1979
1978
1977
1977
1977
1976
1976
1975
1974
1973
1973
1974
1975
1975
1975
1975
1975
1975
1975
1975
1975
1975
1975
1975
1975
1975
1975
1976
1977
1978
1979
1978
1977
1976
1976
1976
1978
1979
1980
1980
1979
1978
1977
1976
1976
1976
1977
1978
1979
1979
1978
1977
1976
1976
1977
1977
1978
1978
1978
1977
1977
1977
1976
1977
1977
1978
1979
1980
1980
1979
1977
1976
1976
1977
1979
1980
1980
1980
1979
1978
1978
1977
1977
1978
1978
1979
1979
1979
1979
1979
1979
1979
1978
1974
1970
1966
1965
1968
1976
1989
2008
2029
2050
2064
2065
2052
2031
2007
1990
1982
1981
1984
1986
1987
1985
1983
1982
1981
1980
1980
1981
1981
1982
1983
1984
1985
1984
1984
1983
1982
1981
1982
1983
1984
1985
1986
1986
1986
1986
1986
1986
1986
1987
1989
1991
1993
1994
1994
1994
1993
1994
1995
1997
1999
2002
2004
2005
2006
2006
2006
2006
2005
2005
2006
2006
2005
2004
2001
1997
1992
1988
1986
1984
1984
1985
1986
1987
1988
1988
1988
1987
1986
1986
1986
1987
1989
1990
1990
1989
1988
1988
1987
1988
1988
1988
1989
1989
1990
1990
1990
1989
1988
1988
1988
1988
1989
1990
1990
1990
1989
1988
1987
1986
1987
1989
1990
1991
1991
1990
1990
1989
1989
1989
1989
1990
1991
1992
1992
1992
1991
1990
1989
1988
1989
1989
1990
1991
1992
1992
1991
1990
1989
1989
1990
1991
1992
1992
1991
1990
1990
1990
1990
1991
1991
1991
1991
1991
1991
1990
1989
1988
1987
1987
1987
1987
1988
1987
1987
1987
1987
1987
1985
1982
1978
1974
1971
1972
1977
1987
2001
2021
2044
2062
2070
2064
2047
2022
2000
1987
1982
1983
1984
1984
1983
1982
1980
1980
1979
1979
1978
1978
1977
1978
1978
1978
1979
1979
1979
1979
1979
1978
1978
1979
1980
1981
1982
1982
1982
1981
1981
1981
1981
1981
1983
1984
1986
1987
1987
1987
1988
1988
1989
1991
1993
1994
1995
1996
1996
1996
1996
1996
1997
1997
1996
1995
1993
1991
1988
1985
1982
1979
1976
1974
1972
1971
1971
1971
1971
1971
1970
1969
1968
1968
1969
1970
1972
1973
1973
1973
1972
1971
1971
1971
1971
1971
1971
1972
1972
1972
1972
1971
1971
1971
1971
1972
1972
1973
1973
1973
1973
1972
1972
1972
1972
1972
1972
1973
1973
1973
1974
1974
1974
1973
1973
1973
1974
1975
1976
1976
1976
1975
1975
1974
1974
1975
1976
1976
1976
1976
1976
1975
1974
1974
1975
1975
1976
1976
1976
1976
1975
1974
1974
1973
1974
1975
1977
1978
1979
1979
1978
1978
1978
1977
1977
1976
1976
1976
1976
1977
1977
1977
1976
1976
1976
1976
1976
1977
1978
1978
1976
1972
1967
1963
1962
1966
1974
1989
2009
2031
2051
2063
2062
2048
2025
2002
1986
1980
1980
1983
1984
1984
1982
1980
1979
1979
1980
1980
1981
1981
1981
1981
1981
1982
1982
1983
1984
1984
1984
1984
1984
1983
1984
1984
1985
1985
1985
1986
1987
1987
1988
1989
1989
1989
1990
1991
1992
1993
1994
1995
1996
1997
1998
1999
2000
2001
2001
2002
2002
2002
2002
2001
1999
1997
1995
1992
1990
1988
1986
1983
1981
1979
1977
1975
1975
1975
1975
1976
1976
1976
1975
1974
1973
1974
1975
1976
1977
1978
1978
1977
1976
1975
1974
1974
1975
1976
1977
1977
1977
1977
1976
1976
1975
1975
1975
1976
1976
1976
1976
1976
1976
1976
1975
1975
1975
1975
1975
1975
1975
1974
1974
1973
1973
1973
1973
1973
1974
1974
1973
1973
1973
1972
1973
1973
1973
1973
1973
1973
1973
1973
1973
1973
1972
1972
1972
1972
1973
1973
1973
1972
1971
1971
1971
1972
1974
1975
1977
1977
1977
1977
1976
1974
1973
1972
1972
1972
1972
1973
1973
1973
1973
1973
1972
1972
1972
1972
1972
1973
1972
1972
1968
1964
1958
1954
1954
1959
1968
1985
2006
2028
2047
2054
2048
2029
2004
1983
1970
1966
1967
1969
1968
1967
1965
1963
1963
1962
1963
1963
1964
1964
1964
1964
1964
1964
1964
1964
1965
1965
1965
1965
1964
1964
1964
1964
1964
1964
1965
1965
1965
1966
1966
1967
1968
1968
1969
1969
1970
1971
1973
1975
1976
1977
1978
1979
1981
1982
1983
1984
1984
1985
1984
1983
1981
1978
1975
1972
1970
1967
1965
1962
1960
1957
1956
1955
1954
1954
1953
1953
1952
1951
1951
1950
1949
1950
1951
1952
1953
1953
1953
1952
1951
1950
1950
1950
1951
1952
1952
1953
1954
1953
1953
1952
1951
1951
1951
1952
1953
1953
1952
1951
1950
1949
1947
1946
1946
1946
1947
1948
1949
1948
1947
1946
1945
1945
1946
1946
1946
1946
1946
1946
1946
1946
1946
1945
1945
1946
1947
1947
1947
1947
1946
1945
1945
1945
1946
1947
1948
1950
1952
1953
1955
1955
1955
1954
1954
1954
1954
1955
1955
1955
1955
1954
1954
1954
1954
1955
1955
1956
1956
1956
1956
1957
1957
1956
1952
1948
1945
1945
1950
1960
1975
1994
2014
2030
2036
2030
2014
1993
1974
1964
1961
1962
1964
1965
1965
1966
1966
1967
1967
1967
1966
1966
1966
1966
1968
1969
1970
1970
1970
1970
1970
1970
1971
1972
1972
1973
1974
1974
1975
1976
1977
1977
1978
1978
1978
1979
1980
1982
1985
1987
1988
1988
1989
1989
1990
1992
1994
1996
1998
1998
1999
1999
1999
1999
1999
1998
1995
1992
1989
1985
1981
1977
1974
1971
1970
1969
1969
1969
1968
1967
1966
1965
1965
1965
1966
1966
1967
1968
1968
1968
1967
1967
1966
1967
1968
1970
1970
1970
1969
1968
1967
1967
1967
1967
1968
1969
1970
1970
1970
1970
1970
1969
1969
1969
1969
1970
1970
1971
1972
1972
1972
1971
1970
1970
1970
1970
1971
1971
1972
1972
1972
1973
1973
1972
1973
1973
1974
1974
1975
1975
1974
1973
1973
1972
1973
1975
1977
1978
1979
1978
1977
1976
1975
1974
1975
1975
1976
1977
1977
1977
1977
1976
1976
1976
1976
1977
1978
1979
1980
1980
1979
1976
1971
1966
1964
1966
1974
1987
2006
2029
2050
2065
2066
2053
2032
2008
1991
1984
1983
1985
1986
1985
1984
1983
1983
1983
1983
1984
1984
1984
1984
1983
1983
1983
1983
1985
1986
1987
1987
1986
1986
1985
1985
1986
1987
1989
1990
1991
1991
1991
1990
1990
1991
1991
1993
1994
1996
1998
1999
2000
2001
2002
2002
2003
2004
2005
2007
2008
2009
2010
2009
2008
2007
2005
2002
2000
1997
1994
1990
1987
1984
1982
1981
1980
1980
1980
1981
1980
1980
1979
1978
1977
1977
1978
1979
1979
1980
1981
1981
1980
1979
1979
1979
1979
1979
1980
1981
1981
1981
1980
1980
1979
1979
1979
1980
1981
1982
1982
1981
1980
1979
1979
1979
1979
1980
1980
1981
1982
1982
1981
1981
1981
1981
1981
1981
1981
1981
1981
1981
1981
1981
1981
1981
1981
1981
1981
1981
1981
1981
1981
1981
1982
1983
1983
1984
1984
1985
1984
1984
1983
1982
1982
1981
1981
1982
1982
1982
1983
1983
1982
1982
1982
1982
1983
1983
1983
1980
1976
1971
1970
1973
1981
1996
2017
2041
2061
2072
2069
2051
2028
2004
1989
1983
1984
1987
1988
1988
1987
1986
1985
1985
1984
1984
1984
1984
1985
1985
1986
1986
1986
1985
1985
1984
1985
1986
1987
1988
1989
1989
1990
1990
1989
1989
1989
1990
1991
1993
1994
1995
1996
1996
1997
1998
2000
2002
2004
2005
2007
2007
2008
2008
2008
2008
2009
2009
2009
2009
2008
2006
2003
1999
1995
1991
1988
1986
1984
1983
1982
1980
1979
1978
1978
1977
1978
1978
1978
1978
1979
1979
1979
1979
1979
1978
1979
1979
1980
1980
1981
1981
1981
1980
1979
1979
1978
1979
1979
1980
1980
1980
1979
1977
1977
1977
1978
1980
1981
1981
1981
1980
1979
1978
1978
1977
1977
1977
1977
1978
1979
1979
1979
1978
1978
1977
1977
1978
1979
1979
1980
1980
1979
1978
1977
1978
1979
1980
1982
1983
1983
1982
1981
1980
1979
1978
1978
1977
1978
1978
1978
1978
1978
1978
1978
1977
1977
1977
1978
1980
1981
1981
1978
1973
1967
1963
1963
1968
1980
1998
2020
2044
2060
2066
2055
2034
2008
1988
1977
1975
1977
1979
1978
1977
1975
1974
1974
1975
1976
1976
1975
1975
1974
1975
1976
1976
1976
1976
1977
1978
1979
1980
1980
1980
1979
1979
1980
1980
1982
1983
1984
1984
1984
1983
1983
1984
1986
1987
1989
1991
1992
1994
1995
1997
1998
1999
1999
2000
2000
2001
2002
2003
2003
2002
1999
1995
1991
1987
1984
1981
1979
1976
1974
1971
1969
1967
1966
1965
1965
1965
1966
1966
1966
1965
1965
1964
1964
1964
1964
1965
1965
1966
1966
1965
1964
1963
1962
1962
1963
1964
1965
1965
1964
1963
1961
1960
1960
1961
1962
1962
1963
1963
1962
1962
1962
1963
1963
1964
1965
1965
1964
1963
1962
1962
1962
1962
1963
1963
1963
1962
1962
1962
1962
1963
1963
1964
1965
1965
1966
1966
1965
1964
1963
1963
1963
1963
1962
1962
1962
1963
1963
1964
1965
1965
1965
1965
1965
1965
1963
1960
1956
1953
1953
1958
1968
1984
2005
2028
2046
2053
2047
2028
2003
1983
1971
1968
1971
1975
1976
1975
1974
1973
1972
1972
1971
1971
1972
1974
1975
1976
1977
1977
1977
1976
1977
1977
1977
1978
1979
1980
1980
1981
1981
1981
1982
1983
1985
1985
1986
1986
1987
1989
1990
1991
1992
1992
1993
1995
1998
2001
2004
2005
2006
2006
2007
2007
2008
2008
2008
2007
2005
2002
1998
1994
1990
1986
1983
1981
1980
1979
1978
1977
1976
1975
1974
1974
1974
1975
1975
1976
1977
1977
1977
1977
1977
1977
1977
1978
1978
1978
1979
1979
1979
1980
1980
1980
1980
1979
1980
1980
1980
1981
1981
1980
1980
1979
1979
1980
1980
1981
1981
1981
1981
1981
1980
1981
1981
1982
1982
1982
1982
1982
1981
1981
1981
1980
1980
1980
1980
1980
1981
1982
1982
1983
1983
1983
1983
1983
1983
1983
1983
1982
1982
1982
1981
1981
1981
1981
1981
1982
1983
1983
1983
1983
1983
1983
1982
1979
1975
1970
1968
1971
1979
1994
2015
2039
2059
2072
2070
2054
2031
2007
1991
1984
1983
1986
1988
1989
1988
1987
1986
1986
1985
1985
1985
1985
1985
1985
1985
1986
1986
1986
1986
1985
1985
1986
1987
1988
1989
1990
1990
1991
1991
1991
1990
1990
1991
1993
1995
1996
1998
1999
2000
2001
2002
2003
2004
2006
2007
2009
2010
2012
2013
2014
2014
2013
2012
2011
2010
2008
2006
2002
1998
1993
1990
1987
1985
1983
1982
1982
1981
1980
1979
1978
1978
1978
1978
1979
1980
1980
1979
1979
1979
1979
1979
1979
1979
1979
1979
1979
1980
1980
1981
1981
1981
1980
1979
1979
1979
1980
1981
1981
1981
1980
1979
1978
1977
1978
1979
1980
1980
1980
1980
1979
1978
1978
1978
1979
1980
1980
1980
1980
1979
1979
1979
1979
1978
1978
1978
1979
1980
1981
1982
1982
1982
1981
1981
1980
1980
1980
1981
1981
1981
1981
1981
1980
1980
1980
1981
1981
1982
1981
1981
1981
1981
1980
1977
1973
1968
1966
1968
1975
1988
2008
2032
2055
2070
2072
2059
2036
2011
1992
1983
1982
1983
1985
1984
1984
1984
1984
1984
1984
1983
1983
1982
1981
1981
1981
1982
1983
1983
1984
1984
1983
1983
1983
1984
1984
1985
1985
1985
1986
1986
1986
1986
1986
1987
1988
1989
1990
1991
1993
1994
1996
1997
1998
1999
2000
2002
2004
2006
2007
2009
2009
2009
2008
2007
2004
2002
1998
1995
1991
1988
1985
1981
1978
1975
1973
1973
1972
1973
1973
1972
1972
1971
1970
1971
1971
1972
1972
1972
1972
1971
1970
1969
1969
1970
1971
1972
1973
1973
1973
1972
1972
1971
1971
1971
1972
1972
1972
1973
1973
1973
1972
1970
1969
1969
1969
1969
1969
1969
1970
1970
1970
1970
1970
1969
1969
1970
1971
1972
1972
1971
1970
1968
1967
1966
1966
1967
1968
1969
1970
1970
1969
1969
1968
1967
1967
1966
1964
1963
1963
1962
1962
1962
1962
1962
1963
1964
1965
1966
1966
1967
1967
1967
1966
1963
1958
1953
1950
1950
1955
1966
1982
2002
2023
2040
2046
2039
2021
1998
1980
1969
1966
1968
1970
1971
1971
1970
1969
1969
1968
1968
1968
1969
1968
1968
1968
1969
1970
1970
1971
1971
1971
1970
1970
1971
1972
1973
1974
1974
1974
1974
1974
1974
1975
1976
1977
1979
1981
1983
1985
1986
1987
1988
1989
1990
1992
1994
1997
1999
2000
2001
2002
2001
2000
1999
1998
1996
1994
1990
1986
1981
1976
1973
1970
1969
1968
1967
1966
1965
1964
1963
1963
1963
1963
1963
1963
1964
1964
1965
1965
1966
1965
1965
1965
1964
1964
1965
1966
1967
1968
1967
1966
1965
1965
1965
1966
1967
1968
1968
1968
1968
1967
1966
1965
1965
1966
1967
1969
1970
1971
1970
1969
1968
1967
1967
1967
1967
1966
1966
1966
1967
1968
1969
1969
1970
1970
1971
1971
1972
1972
1971
1970
1969
1969
1969
1970
1971
1971
1972
1972
1972
1972
1972
1971
1972
1973
1974
1973
1970
1966
1961
1958
1961
1969
1983
2004
2027
2048
2059
2057
2043
2020
1997
1981
1975
1976
1979
1980
1979
1978
1976
1975
1975
1975
1976
1976
1977
1977
1977
1977
1977
1977
1977
1977
1977
1978
1978
1979
1979
1980
1980
1980
1981
1982
1984
1985
1986
1987
1988
1988
1988
1988
1989
1990
1991
1993
1995
1997
1999
2001
2003
2004
2004
2004
2005
2005
2006
2007
2007
2005
2001
1996
1991
1987
1984
1982
1980
1978
1976
1974
1973
1972
1972
1971
1971
1970
1970
1970
1970
1971
1971
1971
1971
1971
1970
1970
1971
1972
1973
1974
1974
1973
1972
1971
1971
1972
1974
1975
1976
1976
1974
1972
1971
1970
1971
1971
1971
1971
1971
1971
1972
1973
1974
1973
1971
1970
1969
1969
1971
1972
1972
1972
1971
1970
1970
1970
1971
1971
1971
1970
1969
1968
1968
1968
1969
1972
1974
1976
1977
1977
1976
1975
1974
1972
1971
1970
1970
1971
1972
1974
1975
1976
1975
1974
1973
1974
1976
1978
1978
1974
1968
1962
1959
1961
1968
1984
2007
2034
2057
2070
2068
2051
2027
2003
1986
1978
1977
1978
1978
1979
1979
1978
1977
1976
1976
1976
1976
1976
1976
1976
1976
1976
1976
1976
1976
1977
1977
1978
1979
1980
1980
1979
1979
1979
1981
1983
1985
1986
1986
1986
1986
1986
1987
1988
1989
1991
1993
1995
1996
1998
1998
1999
1999
2000
2002
2005
2006
2007
2006
2004
2002
1999
1996
1993
1990
1987
1984
1982
1979
1976
1975
1973
1973
1972
1973
1972
1972
1971
1971
1971
1972
1973
1974
1974
1974
1974
1973
1973
1974
1975
1976
1976
1975
1974
1973
1972
1973
1974
1975
1977
1977
1976
1975
1974
1974
1974
1976
1977
1977
1977
1977
1977
1977
1977
1977
1977
1978
1978
1979
1980
1981
1981
1981
1980
1978
1978
1978
1979
1980
1980
1980
1980
1978
1977
1977
1978
1981
1983
1984
1984
1984
1983
1982
1982
1981
1980
1979
1980
1981
1983
1983
1982
1981
1980
1980
1981
1983
1984
1986
1985
1982
1977
1971
1967
1967
1973
1985
2005
2029
2053
2070
2074
2062
2039
2014
1994
1985
1984
1986
1988
1988
1987
1986
1985
1985
1984
1984
1983
1983
1983
1984
1984
1983
1983
1983
1984
1985
1987
1987
1987
1986
1985
1985
1984
1985
1987
1988
1989
1989
1989
1988
1988
1988
1988
1990
1992
1994
1996
1998
2000
2001
2002
2003
2004
2005
2006
2008
2009
2011
2011
2010
2008
2005
2000
1996
1991
1988
1986
1984
1982
1979
1975
1973
1971
1971
1971
1972
1973
1973
1972
1972
1970
1969
1969
1970
1972
1974
1974
1974
1974
1974
1974
1974
1974
1975
1976
1977
1978
1978
1978
1977
1976
1975
1974
1974
1975
1977
1978
1979
1979
1977
1976
1975
1974
1974
1975
1976
1977
1978
1978
1978
1978
1978
1978
1977
1976
1976
1975
1975
1975
1975
1976
1977
1978
1979
1980
1980
1980
1979
1979
1978
1977
1977
1976
1976
1976
1976
1976
1976
1977
1978
1979
1979
1979
1978
1976
1973
1968
1964
1962
1964
1973
1987
2007
2028
2047
2055
2051
2036
2014
1994
1981
1977
1978
1981
1983
1983
1983
1982
1982
1981
1980
1979
1978
1978
1979
1980
1981
1982
1983
1983
1983
1982
1982
1981
1982
1982
1983
1984
1984
1985
1985
1985
1986
1987
1988
1989
1990
1991
1992
1992
1993
1994
1994
1996
1998
2001
2003
2005
2006
2006
2007
2007
2007
2007
2007
2007
2006
2003
2000
1995
1991
1986
1982
1979
1977
1975
1975
1974
1973
1972
1970
1969
1969
1970
1971
1972
1973
1974
1973
1973
1973
1972
1972
1972
1972
1972
1974
1975
1976
1976
1975
1974
1974
1974
1974
1975
1975
1975
1975
1975
1975
1974
1974
1975
1975
1975
1976
1976
1976
1976
1976
1976
1976
1976
1976
1977
1977
1977
1977
1976
1976
1977
1977
1978
1978
1978
1978
1979
1980
1981
1980
1979
1978
1978
1978
1978
1979
1979
1979
1978
1977
1977
1976
1977
1978
1979
1981
1981
1980
1976
1971
1967
1965
1967
1974
1988
2008
2030
2051
2063
2063
2049
2028
2006
1991
1984
1983
1985
1987
1987
1986
1984
1983
1982
1982
1982
1983
1984
1985
1984
1983
1982
1981
1981
1982
1983
1984
1985
1985
1985
1985
1985
1985
1986
1987
1988
1989
1990
1991
1991
1992
1992
1993
1994
1995
1997
1998
2000
2002
2004
2004
2004
2004
2004
2006
2008
2010
2011
2010
2009
2006
2002
1998
1994
1989
1986
1983
1981
1979
1978
1976
1975
1974
1973
1972
1971
1970
1970
1970
1970
1970
1970
1970
1970
1970
1969
1969
1969
1970
1970
1970
1969
1968
1968
1968
1969
1970
1970
1970
1970
1969
1968
1967
1967
1968
1969
1970
1971
1971
1971
1971
1970
1970
1970
1970
1971
1972
1972
1972
1972
1971
1970
1969
1968
1968
1968
1969
1970
1970
1970
1970
1970
1970
1970
1971
1972
1973
1974
1974
1974
1973
1972
1971
1970
1970
1971
1972
1974
1974
1974
1972
1971
1971
1972
1973
1974
1975
1974
1970
1965
1961
1959
1961
1969
1983
2004
2028
2050
2063
2062
2047
2022
1998
1983
1977
1978
1981
1982
1981
1979
1977
1976
1976
1976
1976
1977
1978
1979
1979
1979
1979
1978
1979
1979
1979
1980
1980
1981
1981
1980
1980
1980
1981
1981
1982
1982
1983
1985
1986
1986
1986
1987
1988
1989
1990
1992
1993
1995
1997
1999
1999
2000
2000
2001
2002
2003
2005
2005
2004
2002
1999
1996
1992
1988
1984
1981
1979
1978
1976
1974
1972
1971
1970
1969
1970
1970
1971
1972
1972
1971
1970
1969
1969
1971
1972
1973
1973
1972
1971
1971
1971
1971
1971
1970
1970
1971
1972
1974
1975
1975
1974
1973
1973
1973
1974
1975
1975
1975
1975
1975
1975
1975
1975
1975
1975
1976
1976
1977
1977
1977
1976
1975
1975
1976
1977
1978
1979
1979
1979
1979
1979
1979
1979
1979
1979
1978
1979
1979
1980
1980
1981
1982
1982
1983
1983
1983
1983
1983
1983
1983
1982
1981
1981
1980
1980
1980
1980
1980
1980
1980
1981
1981
1982
1982
1981
1978
1974
1970
1968
1971
1977
1989
2007
2029
2051
2066
2068
2055
2034
2010
1992
1983
1982
1984
1986
1987
1987
1986
1986
1985
1985
1985
1985
1986
1986
1987
1987
1988
1989
1990
1990
1990
1990
1991
1992
1993
1993
1994
1994
1995
1995
1995
1996
1996
1998
1999
2000
2001
2000
2000
2001
2002
2004
2006
2008
2010
2011
2013
2014
2015
2015
2015
2016
2016
2017
2018
2018
2017
2014
2011
2006
2002
1998
1995
1993
1991
1989
1988
1986
1985
1985
1985
1985
1986
1986
1987
1987
1988
1988
1988
1988
1988
1988
1988
1988
1989
1989
1990
1990
1990
1990
1990
1989
1989
1989
1989
1990
1990
1990
1989
1988
1987
1987
1987
1987
1987
1987
1987
1987
1988
1988
1988
1988
1987
1987
1987
1988
1988
1989
1989
1988
1987
1987
1986
1987
1988
1989
1990
1989
1988
1987
1986
1986
1987
1989
1991
1993
1994
1993
1991
1989
1989
1989
1990
1990
1990
1990
1990
1989
1989
1990
1990
1990
1990
1990
1990
1991
1992
1991
1988
1983
1979
1977
1980
1989
2002
2021
2041
2058
2067
2064
2048
2026
2005
1993
1990
1993
1997
1998
1997
1994
1992
1991
1992
1993
1994
1994
1994
1994
1994
1993
1993
1993
1993
1993
1994
1995
1997
1998
1999
1998
1997
1997
1997
1997
1998
1999
1999
2000
2001
2002
2002
2003
2004
2005
2007
2009
2011
2012
2013
2014
2015
2016
2017
2018
2018
2019
2020
2019
2018
2015
2012
2008
2005
2002
1999
1996
1993
1990
1988
1986
1984
1983
1981
1981
1981
1982
1983
1983
1982
1981
1981
1981
1982
1982
1983
1983
1983
1983
1983
1983
1983
1982
1982
1982
1983
1983
1984
1984
1984
1983
1983
1983
1982
1982
1982
1982
1982
1982
1981
1980
1980
1980
1981
1981
1982
1983
1982
1981
1980
1980
1979
1979
1979
1979
1980
1980
1980
1980
1980
1979
1979
1979
1980
1981
1983
1985
1985
1985
1984
1982
1980
1979
1979
1979
1980
1980
1981
1982
1982
1981
1980
1979
1978
1979
1982
1984
1985
1982
1977
1971
1966
1966
1972
1984
2002
2025
2047
2061
2063
2051
2030
2007
1989
1982
1982
1986
1988
1989
1987
1985
1984
1983
1983
1984
1984
1985
1985
1985
1985
1985
1985
1985
1985
1986
1987
1988
1989
1989
1988
1988
1988
1988
1988
1989
1990
1992
1993
1994
1995
1995
1995
1995
1996
1997
1999
2001
2002
2003
2004
2005
2006
2006
2007
2008
2009
2010
2011
2011
2010
2008
2005
2001
1997
1993
1990
1988
1985
1983
1981
1979
1978
1977
1977
1977
1977
1977
1977
1977
1977
1977
1977
1978
1979
1980
1981
1982
1982
1981
1980
1979
1979
1978
1977
1977
1977
1978
1979
1980
1981
1981
1981
1980
1979
1979
1979
1979
1979
1979
1979
1979
1978
1977
1977
1977
1977
1977
1978
1978
1977
1976
1976
1976
1976
1976
1977
1977
1978
1978
1978
1977
1977
1976
1976
1977
1979
1981
1982
1983
1983
1983
1982
1982
1981
1980
1980
1980
1980
1981
1981
1982
1982
1981
1981
1981
1981
1982
1982
1983
1984
1983
1980
1975
1970
1967
1969
1975
1987
2005
2028
2050
2068
2074
2065
2045
2020
2000
1989
1985
1987
1988
1987
1985
1984
1983
1984
1984
1985
1985
1985
1984
1984
1984
1983
1983
1984
1984
1985
1986
1986
1986
1985
1985
1985
1985
1986
1987
1988
1989
1989
1989
1989
1989
1990
1992
1994
1996
1998
1999
2000
2001
2002
2003
2004
2006
2007
2009
2010
2011
2010
2009
2008
2006
2004
2002
2000
1997
1994
1991
1987
1983
1980
1978
1977
1978
1978
1979
1979
1978
1977
1975
1975
1975
1975
1976
1977
1978
1978
1978
1977
1977
1976
1976
1976
1976
1977
1977
1977
1977
1977
1976
1975
1974
1974
1974
1974
1975
1975
1974
1974
1973
1972
1972
1972
1973
1973
1974
1975
1975
1975
1974
1973
1973
1973
1974
1974
1975
1975
1975
1975
1974
1973
1973
1974
1976
1977
1978
1977
1977
1975
1974
1974
1974
1975
1977
1978
1979
1979
1979
1978
1976
1975
1973
1973
1973
1974
1975
1975
1975
1975
1974
1974
1974
1974
1973
1973
1974
1974
1974
1972
1968
1963
1958
1957
1962
1972
1989
2011
2035
2054
2063
2056
2038
2013
1991
1978
1974
1976
1978
1978
1977
1975
1973
1973
1973
1973
1974
1975
1975
1975
1975
1974
1974
1974
1974
1975
1976
1976
1976
1976
1975
1975
1975
1976
1976
1977
1977
1977
1978
1978
1979
1980
1981
1982
1983
1984
1985
1987
1988
1988
1989
1990
1991
1992
1993
1994
1995
1996
1997
1997
1996
1993
1990
1986
1983
1980
1977
1975
1972
1969
1966
1963
1961
1960
1961
1961
1962
1962
1962
1961
1961
1961
1961
1961
1961
1962
1963
1963
1964
1964
1963
1963
1962
1962
1962
1962
1962
1962
1962
1961
1960
1960
1960
1961
1962
1962
1962
1962
1961
1961
1960
1960
1959
1959
1959
1959
1960
1961
1961
1962
1961
1960
1959
1959
1960
1961
1963
1964
1964
1964
1963
1963
1962
1963
1963
1964
1965
1966
1967
1968
1970
1973
1977
1982
1984
1985
1984
1982
1980
1978
1977
1976
1975
1976
1977
1979
1981
1982
1982
1981
1979
1978
1978
1978
1978
1975
1971
1966
1964
1966
1974
1987
2006
2028
2047
2056
2053
2038
2016
1994
1979
1973
1973
1976
1977
1977
1976
1975
1974
1973
1972
1972
1972
1973
1975
1976
1977
1977
1976
1975
1975
1975
1975
1975
1976
1977
1977
1978
1978
1978
1978
1978
1978
1979
1980
1981
1983
1984
1985
1985
1986
1986
1987
1988
1990
1992
1994
1996
1997
1998
1998
1998
1998
1999
1999
1999
1998
1995
1991
1987
1983
1979
1976
1974
1972
1970
1968
1967
1965
1964
1964
1963
1963
1963
1964
1964
1964
1964
1963
1962
1960
1958
1957
1956
1956
1957
1958
1959
1959
1959
1958
1958
1958
1959
1959
1960
1960
1960
1959
1959
1958
1958
1958
1958
1959
1959
1960
1960
1960
1960
1960
1960
1960
1960
1960
1960
1961
1962
1962
1962
1962
1962
1962
1962
1962
1962
1962
1962
1962
1962
1963
1964
1965
1966
1966
1967
1967
1966
1966
1965
1965
1964
1964
1964
1964
1965
1965
1965
1965
1965
1965
1966
1966
1967
1967
1967
1964
1960
1956
1954
1955
1962
1974
1993
2016
2037
2050
2051
2038
2016
1993
1977
1970
1970
1972
1974
1974
1974
1973
1972
1971
1971
1971
1971
1971
1972
1973
1974
1974
1974
1974
1974
1974
1974
1974
1975
1976
1977
1978
1978
1978
1978
1979
1980
1982
1983
1984
1985
1985
1986
1987
1988
1989
1990
1991
1993
1995
1997
1999
2000
2000
2000
2000
2000
2001
2002
2002
2001
1999
1996
1991
1987
1983
1980
1978
1976
1975
1974
1973
1972
1972
1971
1971
1970
1971
1971
1971
1972
1973
1973
1973
1972
1972
1972
1972
1974
1975
1976
1976
1976
1975
1975
1974
1974
1974
1975
1975
1976
1976
1976
1975
1974
1974
1973
1973
1973
1974
1975
1976
1976
1976
1975
1975
1975
1976
1977
1977
1978
1978
1977
1977
1977
1977
1977
1978
1979
1979
1980
1981
1981
1980
1979
1977
1977
1976
1977
1978
1980
1981
1981
1981
1981
1981
1980
1980
1981
1981
1981
1981
1981
1980
1980
1980
1980
1980
1981
1981
1981
1981
1981
1981
1980
1977
1973
1969
1966
1966
1970
1980
1996
2018
2043
2062
2071
2066
2048
2023
2001
1988
1983
1984
1985
1985
1985
1984
1983
1983
1983
1983
1983
1983
1983
1982
1982
1982
1983
1984
1985
1985
1986
1986
1985
1985
1985
1985
1986
1986
1987
1987
1987
1987
1988
1989
1990
1991
1992
1993
1994
1996
1997
1999
2000
2001
2002
2003
2005
2006
2008
2009
2009
2009
2009
2008
2007
2006
2005
2002
1999
1996
1992
1988
1985
1982
1981
1979
1979
1978
1978
1978
1977
1977
1977
1976
1976
1976
1977
1977
1978
1978
1978
1978
1977
1977
1977
1977
1978
1979
1979
1979
1979
1978
1978
1978
1978
1978
1979
1980
1981
1981
1980
1979
1978
1977
1977
1978
1979
1981
1981
1981
1980
1980
1979
1979
1979
1979
1980
1980
1981
1981
1981
1981
1980
1980
1980
1980
1981
1982
1982
1982
1981
1981
1981
1981
1982
1982
1984
1985
1986
1986
1986
1984
1983
1982
1981
1982
1982
1983
1983
1983
1983
1982
1982
1982
1982
1983
1984
1985
1984
1981
1976
1970
1967
1968
1975
1989
2011
2037
2060
2075
2075
2060
2037
2012
1994
1986
1985
1987
1989
1989
1988
1986
1985
1984
1984
1984
1984
1985
1985
1986
1986
1986
1985
1985
1985
1986
1986
1987
1988
1988
1988
1988
1988
1987
1988
1989
1990
1991
1992
1993
1993
1993
1994
1994
1995
1997
1999
2000
2002
2003
2004
2005
2005
2006
2007
2008
2009
2009
2009
2007
2005
2003
2001
1998
1995
1991
1988
1985
1982
1981
1979
1977
1975
1974
1973
1973
1973
1974
1975
1976
1976
1975
1974
1973
1973
1973
1974
1975
1976
1976
1976
1975
1974
1973
1973
1973
1974
1975
1976
1976
1975
1974
1973
1972
1972
1972
1973
1974
1974
1974
1973
1972
1972
1972
1972
1973
1974
1974
1974
1974
1973
1973
1973
1972
1972
1972
1973
1974
1977
1980
1982
1983
1983
1982
1982
1982
1983
1985
1988
1990
1992
1991
1990
1989
1988
1988
1989
1989
1988
1987
1986
1985
1984
1984
1984
1984
1984
1984
1984
1984
1983
1983
1983
1984
1984
1984
1982
1978
1973
1968
1966
1969
1977
1991
2010
2032
2051
2060
2056
2038
2013
1989
1974
1968
1970
1974
1975
1975
1973
1971
1971
1970
1970
1970
1970
1970
1970
1970
1971
1971
1971
1970
1970
1970
1970
1971
1972
1973
1973
1973
1974
1974
1975
1975
1975
1975
1976
1978
1979
1980
1981
1981
1982
1982
1984
1985
1987
1990
1991
1993
1994
1995
1995
1996
1996
1997
1997
1997
1996
1993
1989
1984
1980
1976
1974
1971
1969
1968
1967
1966
1965
1963
1962
1961
1961
1962
1962
1963
1963
1963
1963
1963
1963
1963
1963
1963
1964
1965
1967
1967
1966
1965
1964
1963
1963
1964
1965
1966
1966
1966
1965
1964
1964
1964
1964
1965
1965
1966
1966
1966
1966
1965
1965
1965
1965
1965
1965
1966
1966
1966
1967
1967
1967
1967
1967
1967
1967
1967
1967
1967
1966
1965
1964
1965
1966
1968
1970
1972
1972
1972
1971
1970
1969
1968
1968
1968
1968
1968
1968
1969
1969
1969
1969
1969
1969
1969
1970
1971
1972
1972
1971
1967
1962
1957
1955
1958
1966
1981
2001
2024
2044
2054
2051
2036
2013
1991
1977
1973
1975
1977
1978
1976
1974
1972
1971
1972
1972
1974
1975
1975
1975
1975
1974
1974
1974
1975
1976
1977
1978
1978
1978
1977
1977
1977
1977
1979
1980
1981
1982
1983
1984
1984
1984
1985
1985
1986
1988
1990
1992
1994
1995
1997
1998
1999
2000
2001
2003
2004
2006
2007
2006
2005
2003
2000
1997
1994
1991
1987
1984
1981
1978
1976
1974
1972
1972
1971
1971
1971
1971
1971
1971
1971
1971
1971
1971
1972
1973
1974
1974
1974
1974
1973
1973
1973
1973
1973
1973
1974
1974
1974
1974
1974
1973
1973
1973
1974
1974
1975
1975
1975
1974
1974
1973
1973
1973
1974
1974
1975
1975
1976
1976
1976
1975
1974
1974
1974
1976
1977
1977
1977
1976
1975
1974
1974
1974
1974
1975
1975
1975
1975
1975
1975
1976
1976
1977
1978
1978
1978
1978
1977
1976
1976
1975
1974
1974
1974
1974
1975
1976
1976
1976
1975
1975
1975
1976
1976
1976
1972
1968
1963
1960
1962
1970
1985
2007
2033
2055
2069
2068
2052
2029
2004
1988
1980
1980
1983
1984
1984
1983
1982
1981
1980
1979
1979
1979
1979
1981
1982
1983
1984
1983
1982
1981
1981
1981
1982
1983
1984
1985
1985
1985
1984
1984
1984
1985
1986
1988
1989
1990
1991
1992
1993
1993
1994
1995
1996
1998
2000
2001
2003
2003
2004
2004
2004
2005
2006
2007
2006
2005
2003
1999
1996
1992
1988
1985
1982
1980
1978
1977
1976
1975
1974
1972
1971
1971
1971
1973
1974
1974
1974
1974
1973
1973
1973
1973
1973
1974
1974
1974
1974
1974
1975
1975
1974
1974
1974
1975
1976
1977
1977
1977
1976
1975
1975
1974
1975
1975
1976
1976
1976
1976
1976
1976
1976
1976
1977
1977
1977
1977
1977
1977
1976
1976
1976
1976
1977
1977
1978
1979
1979
1979
1978
1977
1976
1975
1976
1977
1978
1980
1980
1981
1981
1981
1980
1980
1980
1979
1979
1979
1979
1979
1978
1977
1977
1977
1978
1979
1980
1980
1980
1980
1980
1980
1979
1976
1972
1968
1966
1968
1976
1990
2010
2034
2056
2071
2072
2058
2035
2011
1993
1984
1983
1986
1987
1987
1986
1984
1984
1984
1984
1984
1983
1983
1983
1983
1983
1984
1985
1985
1986
1986
1986
1986
1986
1986
1986
1986
1987
1988
1989
1989
1989
1988
1988
1988
1989
1991
1993
1995
1996
1997
1997
1998
1999
2001
2002
2003
2005
2006
2007
2008
2009
2009
2008
2007
2006
2005
2003
2000
1997
1993
1989
1986
1983
1980
1979
1978
1977
1977
1976
1975
1974
1974
1973
1973
1974
1975
1976
1976
1976
1975
1975
1974
1974
1975
1976
1977
1977
1977
1977
1977
1977
1976
1976
1976
1976
1976
1976
1976
1976
1976
1976
1975
1975
1975
1976
1977
1978
1978
1977
1977
1977
1976
1976
1976
1977
1977
1977
1977
1977
1977
1977
1977
1978
1977
1977
1977
1978
1978
1979
1980
1980
1980
1979
1978
1978
1979
1979
1981
1982
1983
1983
1983
1982
1982
1982
1982
1983
1983
1983
1983
1982
1981
1980
1981
1982
1983
1983
1983
1982
1983
1984
1984
1984
1981
1977
1973
1971
1972
1978
1991
2009
2032
2054
2069
2070
2057
2035
2011
1994
1987
1987
1989
1990
1989
1988
1988
1988
1988
1988
1987
1986
1985
1985
1986
1987
1989
1989
1990
1990
1990
1990
1990
1990
1990
1990
1991
1993
1994
1996
1996
1996
1995
1995
1996
1997
1998
2000
2001
2002
2003
2004
2005
2006
2007
2009
2011
2013
2014
2015
2016
2017
2017
2017
2016
2015
2013
2011
2008
2004
2000
1997
1993
1989
1987
1985
1984
1984
1984
1984
1983
1982
1981
1981
1982
1983
1983
1984
1984
1984
1984
1984
1984
1985
1985
1985
1986
1986
1987
1988
1988
1988
1987
1986
1986
1985
1986
1986
1986
1986
1986
1985
1985
1984
1984
1984
1985
1986
1986
1986
1986
1986
1985
1985
1985
1985
1986
1987
1987
1987
1987
1986
1986
1985
1985
1985
1985
1986
1987
1987
1988
1988
1988
1988
1987
1987
1987
1988
1988
1988
1987
1987
1986
1986
1986
1986
1987
1988
1988
1987
1987
1987
1988
1988
1987
1983
1979
1975
1975
1980
1991
2007
2028
2049
2066
2071
2062
2043
2019
2000
1990
1989
1991
1993
1994
1993
1992
1992
1991
1991
1991
1990
1990
1990
1990
1991
1991
1992
1992
1992
1992
1991
1991
1991
1992
1992
1993
1993
1994
1994
1995
1996
1997
1998
1999
2000
2001
2002
2003
2005
2006
2007
2008
2009
2010
2012
2014
2016
2018
2020
2021
2021
2021
2020
2019
2017
2015
2013
2010
2006
2002
1997
1993
1990
1987
1985
1984
1984
1984
1984
1984
1983
1982
1981
1980
1980
1981
1982
1983
1983
1983
1983
1982
1982
1982
1983
1984
1984
1984
1984
1983
1983
1982
1982
1982
1983
1983
1983
1983
1983
1983
1982
1982
1982
1982
1982
1983
1984
1984
1984
1984
1983
1983
1983
1983
1984
1984
1984
1984
1984
1984
1984
1984
1984
1984
1984
1984
1984
1984
1983
1983
1982
1983
1983
1984
1986
1987
1988
1989
1988
1987
1986
1985
1985
1985
1985
1985
1985
1986
1986
1985
1985
1984
1984
1984
1984
1986
1987
1987
1985
1981
1975
1970
1968
1972
1981
1998
2021
2046
2068
2080
2076
2058
2033
2008
1993
1987
1987
1990
1990
1990
1988
1986
1985
1985
1985
1986
1987
1987
1987
1987
1987
1987
1987
1987
1987
1988
1989
1990
1990
1990
1989
1989
1989
1989
1990
1991
1992
1992
1992
1993
1993
1994
1995
1996
1998
1999
2001
2003
2004
2005
2007
2007
2009
2010
2011
2012
2013
2013
2013
2012
2010
2008
2004
2001
1997
1994
1991
1989
1986
1984
1982
1981
1980
1979
1979
1979
1979
1979
1978
1978
1978
1978
1978
1978
1978
1978
1979
1979
1979
1979
1979
1979
1979
1979
1979
1979
1979
1979
1980
1979
1979
1978
1978
1978
1978
1978
1979
1979
1979
1979
1979
1979
1978
1977
1978
1978
1979
1980
1980
1980
1980
1980
1980
1979
1979
1980
1981
1981
1981
1981
1980
1979
1978
1978
1978
1978
1978
1978
1978
1979
1980
1980
1981
1981
1982
1982
1982
1982
1982
1981
1980
1980
1979
1979
1979
1980
1981
1981
1981
1981
1980
1980
1980
1980
1981
1981
1979
1975
1970
1966
1965
1970
1982
2000
2025
2050
2070
2077
2068
2046
2019
1997
1984
1981
1983
1985
1986
1985
1983
1982
1981
1981
1980
1980
1980
1981
1981
1982
1982
1982
1981
1981
1980
1981
1982
1983
1984
1984
1985
1984
1984
1984
1984
1985
1986
1987
1988
1989
1990
1990
1991
1991
1992
1994
1995
1997
1999
2001
2003
2004
2004
2005
2005
2006
2007
2008
2009
2008
2006
2003
1999
1994
1990
1986
1984
1982
1980
1978
1976
1975
1973
1972
1972
1972
1972
1972
1973
1973
1973
1972
1972
1972
1972
1972
1973
1973
1973
1973
1973
1973
1973
1972
1972
1972
1972
1972
1973
1973
1973
1973
1973
1972
1972
1972
1972
1973
1973
1973
1973
1973
1973
1973
1973
1973
1974
1974
1974
1974
1974
1973
1972
1971
1970
1970
1970
1971
1971
1972
1972
1972
1971
1971
1970
1970
1971
1971
1972
1972
1971
1971
1970
1970
1970
1971
1973
1975
1976
1976
1976
1975
1974
1973
1972
1971
1972
1972
1973
1973
1973
1973
1972
1972
1972
1972
1972
1973
1974
1974
1973
1970
1965
1960
1957
1959
1966
1980
2001
2027
2050
2066
2067
2052
2028
2003
1985
1977
1977
1979
1981
1980
1978
1976
1975
1974
1975
1975
1976
1977
1978
1978
1978
1977
1977
1977
1978
1979
1980
1981
1982
1982
1981
1981
1981
1981
1982
1984
1985
1986
1986
1986
1986
1986
1987
1988
1990
1991
1993
1995
1996
1997
1998
1999
2001
2002
2003
2004
2006
2007
2008
2008
2008
2005
2001
1996
1992
1989
1986
1983
1980
1977
1975
1973
1972
1971
1971
1972
1972
1972
1972
1972
1972
1972
1972
1972
1973
1974
1975
1975
1975
1975
1975
1974
1975
1975
1975
1976
1977
1977
1978
1978
1978
1977
1977
1977
1977
1977
1978
1979
1980
1980
1980
1979
1978
1978
1978
1979
1980
1980
1981
1981
1981
1981
1982
1982
1982
1983
1983
1982
1982
1982
1982
1982
1982
1982
1982
1983
1984
1985
1986
1985
1985
1984
1983
1983
1983
1984
1985
1987
1989
1989
1989
1989
1988
1987
1987
1987
1987
1987
1986
1986
1986
1985
1985
1986
1987
1988
1990
1990
1990
1990
1990
1990
1991
1989
1986
1982
1979
1980
1986
1998
2016
2038
2059
2075
2080
2070
2050
2027
2008
1998
1995
1997
2000
2001
2001
2002
2002
2002
2001
2001
2000
1999
1999
1999
2000
2001
2002
2002
2002
2002
2001
2001
2001
2001
2002
2003
2003
2004
2004
2004
2004
2004
2004
2006
2007
2008
2010
2011
2012
2013
2014
2016
2018
2020
2022
2024
2026
2027
2028
2028
2028
2028
2028
2027
2026
2025
2022
2019
2015
2011
2006
2002
1998
1995
1993
1991
1990
1989
1988
1988
1987
1987
1986
1986
1987
1987
1987
1988
1988
1987
1986
1985
1985
1985
1985
1986
1987
1989
1992
1994
1997
1999
2000
2002
2003
2005
2005
2005
2004
2003
2003
2003
2002
2001
2001
2001
2001
2002
2002
2001
2000
1999
1998
1997
1998
1998
1999
1999
1999
1998
1997
1995
1994
1994
1993
1993
1993
1993
1993
1993
1994
1994
1994
1994
1994
1993
1993
1993
1992
1991
1990
1989
1988
1989
1990
1991
1992
1992
1991
1991
1991
1992
1992
1993
1991
1987
1983
1978
1976
1978
1986
1998
2017
2038
2058
2070
2069
2055
2033
2011
1995
1988
1988
1991
1993
1993
1993
1993
1992
1991
1991
1990
1990
1991
1992
1992
1993
1993
1993
1992
1992
1991
1991
1992
1993
1994
1995
1995
1996
1996
1996
1996
1997
1998
1999
2000
2001
2002
2002
2003
2004
2005
2007
2009
2010
2012
2013
2015
2017
2018
2019
2020
2020
2020
2020
2020
2018
2015
2011
2006
2001
1997
1993
1990
1987
1986
1984
1983
1983
1982
1982
1981
1981
1980
1980
1980
1981
1982
1982
1982
1981
1981
1981
1981
1982
1984
1985
1986
1986
1986
1986
1985
1984
1984
1984
1985
1985
1986
1986
1986
1986
1986
1985
1985
1985
1986
1987
1987
1988
1987
1986
1986
1985
1986
1986
1986
1986
1986
1986
1985
1985
1984
1984
1984
1985
1986
1988
1989
1989
1989
1988
1987
1986
1986
1987
1987
1987
1988
1988
1987
1987
1986
1985
1985
1985
1986
1988
1989
1988
1986
1981
1975
1971
1971
1976
1986
2002
2023
2046
2063
2071
2064
2046
2022
2002
1991
1988
1990
1993
1993
1992
1990
1989
1988
1988
1989
1989
1990
1990
1990
1990
1990
1991
1991
1992
1994
1998
2003
2008
2011
2012
2013
2016
2020
2027
2032
2035
2035
2034
2034
2034
2034
2034
2034
2035
2036
2037
2038
2039
2040
2040
2041
2042
2043
2044
2046
2047
2047
2047
2045
2042
2038
2034
2029
2025
2022
2019
2015
2012
2010
2007
2005
2004
2003
2002
2001
2001
2000
2000
2000
1999
1999
1998
1998
1998
1998
1998
1998
1997
1997
1996
1995
1995
1995
1995
1996
1997
1998
1997
1993
1987
1981
1976
1974
1973
1974
1975
1975
1974
1974
1973
1971
1968
1968
1973
1981
1991
1997
1998
1993
1984
1976
1971
1969
1970
1971
1971
1970
1969
1968
1967
1967
1967
1969
1970
1971
1972
1972
1972
1971
1968
1965
1964
1966
1973
1982
1992
1998
2000
1999
1997
1995
1994
1994
1994
1995
1996
1997
1995
1990
1981
1970
1961
1958
1962
1976
1998
2024
2049
2065
2066
2050
2026
1998
1978
1969
1968
1970
1971
1970
1968
1966
1965
1964
1964
1964
1964
1964
1963
1962
1961
1959
1958
1958
1958
1960
1961
1961
1961
1961
1960
1960
1961
1961
1962
1963
1964
1965
1966
1967
1968
1968
1969
1970
1972
1973
1975
1977
1978
1979
1981
1982
1983
1985
1986
1987
1989
1990
1991
1990
1988
1985
1982
1978
1975
1972
1969
1967
1965
1963
1961
1959
1957
1955
1954
1954
1955
1955
1956
1957
1957
1957
1957
1957
1957
1958
1959
1959
1960
1960
1960
1959
1959
1959
1959
1960
1960
1960
1960
1960
1959
1958
1958
1958
1959
1960
1961
1961
1962
1961
1961
1960
1960
1960
1961
1962
1963
1964
1964
1964
1964
1963
1963
1963
1963
1964
1964
1965
1965
1965
1965
1964
1964
1963
1962
1962
1962
1963
1964
1964
1964
1965
1965
1965
1966
1966
1966
1966
1965
1964
1964
1963
1963
1962
1962
1962
1962
1962
1962
1961
1961
1961
1961
1962
1962
1960
1955
1950
1946
1946
1950
1960
1979
2004
2032
2055
2066
2059
2038
2010
1985
1969
1964
1964
1966
1967
1966
1966
1965
1964
1964
1964
1964
1964
1964
1965
1965
1966
1966
1967
1967
1966
1965
1965
1964
1964
1964
1965
1965
1965
1965
1965
1966
1967
1968
1970
1971
1972
1973
1973
1974
1975
1976
1978
1980
1982
1984
1985
1987
1988
1989
1989
1990
1991
1992
1992
1992
1990
1988
1984
1980
1976
1972
1969
1967
1965
1964
1963
1962
1961
1959
1959
1958
1958
1959
1960
1961
1961
1962
1961
1961
1961
1961
1961
1962
1963
1963
1964
1964
1964
1964
1963
1964
1964
1965
1966
1967
1968
1968
1968
1967
1966
1966
1966
1967
1967
1968
1969
1970
1970
1970
1970
1970
1970
1971
1971
1972
1973
1973
1974
1974
1973
1973
1973
1974
1975
1977
1978
1978
1978
1978
1977
1977
1978
1978
1978
1979
1979
1980
1980
1981
1982
1983
1983
1984
1985
1986
1986
1986
1985
1985
1984
1984
1985
1985
1986
1988
1989
1989
1989
1989
1988
1989
1989
1990
1988
1984
1980
1976
1976
1981
1993
2012
2037
2063
2085
2093
2084
2061
2035
2012
1999
1995
1997
2000
2000
2000
1999
1999
1999
1999
1999
1999
1999
1999
1999
2000
2001
2001
2001
2001
2001
2001
2001
2002
2003
2004
2005
2005
2006
2006
2006
2006
2007
2008
2010
2011
2012
2014
2015
2016
2017
2018
2019
2020
2022
2025
2027
2029
2030
2031
2031
2032
2033
2033
2034
2033
2031
2029
2025
2021
2016
2013
2010
2007
2005
2004
2003
2002
2001
2000
1999
1998
1998
1999
2000
2000
2000
2000
2000
1999
1999
1999
1999
2000
2000
2001
2001
2001
2001
2001
2000
1999
1999
1999
2000
2000
2001
2001
2001
2000
1999
1999
2000
2000
2001
2002
2001
2001
2001
2001
2002
2002
2002
2002
2002
2001
2001
2001
2001
2001
2001
2000
2000
2000
2001
2001
2002
2002
2001
2001
2000
2000
2000
2000
2000
2000
2000
2000
2000
2000
2000
2000
2001
2002
2002
2003
2002
2001
2000
1999
1998
1997
1997
1998
1998
1998
1999
1999
1998
1997
1996
1996
1996
1998
1999
1999
1997
1993
1987
1984
1985
1991
2003
2022
2045
2068
2084
2088
2076
2053
2029
2010
2001
2000
2003
2005
2005
2004
2002
2001
2000
1999
1999
1999
1999
2000
2001
2001
2001
2001
2001
2001
2001
2002
2002
2003
2004
2005
2005
2004
2004
2003
2003
2003
2004
2005
2007
2008
2008
2009
2009
2010
2011
2013
2015
2017
2019
2020
2021
2022
2022
2023
2024
2025
2026
2027
2027
2026
2024
2020
2017
2013
2011
2010
2009
2009
2009
2008
2005
2003
2001
1999
1998
1997
1997
1998
1998
1998
1997
1996
1996
1995
1995
1995
1995
1996
1996
1996
1996
1995
1995
1994
1994
1994
1994
1994
1994
1994
1994
1993
1992
1992
1992
1992
1992
1992
1992
1992
1992
1990
1989
1988
1989
1989
1990
1991
1992
1991
1991
1990
1989
1989
1989
1989
1990
1990
1991
1991
1990
1989
1989
1989
1989
1989
1990
1992
1992
1992
1991
1990
1988
1987
1986
1985
1985
1984
1984
1984
1983
1983
1982
1982
1982
1982
1983
1983
1984
1984
1984
1984
1983
1982
1978
1974
1969
1967
1969
1975
1988
2008
2032
2055
2072
2075
2062
2040
2014
1995
1985
1983
1985
1986
1985
1984
1983
1983
1983
1983
1982
1982
1981
1981
1981
1981
1982
1982
1983
1983
1982
1982
1982
1982
1982
1983
1984
1984
1985
1986
1986
1986
1985
1985
1986
1987
1988
1989
1991
1992
1993
1994
1994
1996
1997
1999
2000
2002
2003
2004
2005
2006
2006
2006
2005
2004
2002
2000
1997
1994
1990
1986
1982
1979
1977
1976
1975
1974
1974
1973
1973
1972
1971
1970
1969
1969
1970
1970
1971
1971
1971
1971
1970
1970
1970
1970
1970
1971
1971
1971
1971
1970
1970
1969
1969
1969
1970
1970
1970
1970
1970
1970
1970
1970
1969
1969
1970
1970
1970
1971
1970
1970
1969
1969
1969
1969
1969
1969
1969
1969
1969
1969
1968
1968
1968
1969
1969
1969
1969
1969
1968
1967
1966
1966
1967
1967
1968
1969
1970
1971
1971
1970
1969
1968
1967
