1972
1972
1973
1973
1974
1974
1974
1973
1973
1973
1972
1972
1973
1974
1975
1975
1975
1975
1975
1975
1975
1976
1976
1976
1975
1975
1974
1974
1974
1973
1973
1973
1974
1975
1975
1976
1975
1975
1974
1974
1974
1974
1974
1974
1974
1974
1977
1983
1994
2008
2023
2033
2033
2022
2003
1982
1964
1954
1951
1952
1957
1964
1970
1976
1979
1981
1981
1980
1980
1979
1979
1980
1981
1981
1981
1981
1981
1981
1982
1983
1983
1983
1984
1985
1986
1986
1986
1986
1986
1986
1987
1987
1988
1989
1990
1990
1990
1990
1990
1990
1992
1994
1995
1996
1997
1998
1998
1998
1998
1999
2000
2001
2002
2003
2002
2000
1997
1995
1992
1990
1987
1985
1982
1980
1978
1977
1976
1974
1973
1972
1972
1972
1972
1972
1971
1971
1970
1969
1969
1970
1971
1972
1972
1972
1971
1971
1971
1971
1971
1971
1971
1972
1973
1973
1973
1972
1971
1972
1972
1973
1973
1973
1973
1972
1972
1972
1972
1972
1971
1971
1971
1971
1972
1972
1972
1972
1972
1972
1972
1971
1971
1971
1971
1972
1973
1973
1973
1973
1972
1972
1972
1973
1973
1974
1974
1974
1974
1974
1974
1974
1974
1975
1976
1976
1976
1976
1976
1976
1975
1976
1976
1976
1977
1977
1977
1978
1978
1977
1977
1977
1978
1979
1981
1982
1982
1982
1981
1980
1979
1979
1980
1980
1981
1981
1982
1981
1981
1980
1980
1980
1980
1980
1981
1982
1983
1983
1982
1982
1981
1980
1980
1980
1982
1987
1996
2010
2026
2040
2045
2039
2023
2002
1982
1968
1961
1960
1963
1969
1975
1982
1986
1989
1991
1992
1992
1993
1993
1993
1992
1990
1990
1991
1993
1995
1997
1997
1996
1995
1995
1996
1997
1998
1999
1999
2000
2001
2001
2001
2000
2001
2001
2003
2005
2006
2007
2007
2007
2008
2008
2009
2010
2011
2012
2013
2014
2015
2015
2015
2015
2014
2014
2013
2012
2009
2007
2004
2002
1999
1996
1994
1992
1990
1989
1988
1988
1987
1986
1985
1984
1984
1984
1984
1983
1983
1983
1984
1984
1984
1984
1983
1983
1984
1985
1986
1986
1985
1985
1984
1984
1984
1985
1986
1987
1988
1988
1987
1986
1986
1985
1986
1987
1987
1987
1986
1985
1985
1985
1985
1985
1985
1985
1985
1986
1987
1987
1987
1987
1986
1985
1985
1985
1985
1985
1986
1987
1987
1987
1986
1985
1984
1984
1985
1986
1987
1987
1986
1986
1986
1986
1987
1987
1988
1989
1989
1989
1989
1988
1987
1986
1985
1985
1987
1988
1989
1990
1989
1989
1988
1987
1986
1986
1987
1988
1989
1989
1989
1989
1988
1988
1988
1988
1989
1990
1991
1991
1991
1990
1988
1987
1987
1987
1988
1989
1989
1989
1988
1987
1986
1986
1986
1986
1987
1987
1987
1988
1988
1988
1988
1987
1986
1985
1986
1987
1991
1998
2010
2024
2037
2045
2042
2028
2008
1987
1971
1964
1963
1967
1973
1980
1986
1990
1993
1994
1994
1994
1993
1993
1992
1992
1992
1993
1994
1995
1996
1997
1997
1997
1996
1995
1995
1996
1997
1998
1999
1999
1999
1999
1999
1999
2000
2001
2002
2003
2003
2004
2004
2004
2003
2003
2003
2004
2005
2006
2008
2009
2010
2011
2010
2009
2009
2008
2006
2005
2004
2003
2001
1998
1995
1992
1988
1985
1984
1983
1983
1982
1981
1980
1978
1977
1976
1975
1975
1974
1975
1975
1975
1975
1975
1974
1974
1974
1975
1975
1975
1975
1974
1973
1973
1973
1973
1973
1973
1974
1975
1975
1974
1973
1972
1971
1971
1972
1973
1973
1973
1973
1972
1971
1970
1970
1970
1970
1970
1970
1970
1970
1969
1969
1968
1967
1967
1967
1967
1968
1968
1968
1967
1966
1965
1965
1966
1966
1967
1967
1967
1966
1966
1965
1965
1964
1964
1964
1965
1966
1966
1966
1966
1965
1964
1964
1964
1964
1965
1966
1967
1967
1967
1966
1964
1963
1963
1963
1964
1965
1965
1966
1965
1964
1964
1963
1963
1964
1965
1966
1966
1967
1967
1967
1966
1965
1964
1963
1963
1965
1967
1968
1967
1966
1965
1964
1965
1966
1967
1967
1967
1966
1966
1966
1966
1966
1966
1966
1967
1968
1968
1968
1968
1969
1969
1969
1969
1969
1969
1969
1969
1969
1969
1969
1969
1968
1967
1966
1966
1966
1967
1968
1968
1967
1967
1967
1968
1968
1968
1968
1968
1968
1969
1968
1968
1968
1968
1970
1976
1987
2002
2017
2028
2028
2018
1999
1978
1960
1948
1944
1945
1952
1959
1967
1972
1974
1974
1973
1973
1973
1974
1975
1976
1977
1977
1977
1977
1977
1977
1977
1977
1978
1979
1980
1980
1980
1980
1980
1981
1982
1982
1983
1982
1982
1982
1982
1983
1984
1986
1987
1989
1990
1991
1991
1991
1992
1992
1993
1994
1995
1996
1998
1999
1999
1999
1998
1996
1994
1993
1991
1989
1987
1985
1983
1981
1978
1976
1974
1973
1972
1970
1970
1969
1969
1968
1967
1967
1967
1967
1968
1968
1969
1968
1968
1967
1967
1967
1968
1968
1969
1970
1971
1971
1971
1971
1971
1972
1972
1972
1971
1971
1971
1971
1972
1972
1973
1973
1973
1974
1974
1974
1974
1974
1973
1973
1972
1973
1973
1974
1974
1975
1975
1975
1975
1974
1974
1974
1975
1976
1976
1976
1976
1976
1976
1976
1977
1977
1977
1976
1976
1977
1977
1978
1979
1979
1979
1979
1979
1979
1979
1980
1980
1980
1980
1980
1980
1981
1981
1982
1982
1982
1982
1982
1982
1982
1982
1982
1982
1982
1983
1984
1985
1985
1985
1984
1983
1983
1983
1984
1986
1987
1987
1987
1986
1986
1985
1985
1986
1987
1987
1987
1987
1987
1987
1986
1985
1985
1984
1984
1985
1986
1987
1988
1987
1987
1987
1986
1986
1987
1988
1988
1988
1987
1987
1987
1989
1994
2005
2020
2037
2048
2049
2039
2018
1995
1976
1965
1961
1964
1971
1979
1987
1992
1994
1994
1993
1993
1993
1995
1996
1997
1997
1997
1996
1996
1996
1996
1997
1997
1998
1999
2000
2001
2001
2000
1999
1999
1999
2000
2001
2002
2003
2004
2004
2005
2005
2005
2006
2007
2009
2010
2011
2012
2012
2012
2012
2013
2014
2015
2016
2017
2017
2017
2015
2012
2010
2007
2004
2003
2001
1999
1997
1995
1993
1990
1987
1985
1984
1984
1985
1985
1985
1985
1983
1982
1981
1980
1980
1981
1982
1984
1984
1984
1984
1983
1982
1982
1983
1983
1983
1984
1984
1985
1984
1984
1984
1984
1984
1985
1985
1985
1985
1985
1985
1984
1983
1983
1983
1983
1984
1984
1984
1984
1984
1984
1984
1984
1983
1983
1982
1983
1983
1984
1985
1984
1983
1982
1981
1982
1983
1984
1984
1985
1985
1984
1982
1981
1981
1981
1982
1983
1984
1984
1983
1982
1982
1982
1983
1983
1984
1984
1984
1983
1983
1983
1982
1982
1983
1983
1984
1984
1984
1984
1983
1983
1983
1984
1985
1986
1986
1986
1985
1984
1983
1983
1983
1984
1984
1984
1985
1985
1985
1984
1984
1984
1985
1985
1984
1984
1984
1984
1984
1984
1984
1984
1983
1983
1983
1983
1983
1984
1985
1985
1985
1985
1984
1984
1985
1985
1986
1986
1986
1985
1984
1982
1981
1981
1982
1983
1984
1984
1984
1982
1981
1980
1980
1980
1981
1982
1982
1982
1982
1981
1981
1980
1980
1982
1987
1998
2013
2028
2039
2038
2026
2006
1983
1965
1955
1953
1958
1965
1973
1979
1983
1985
1985
1984
1984
1984
1984
1984
1984
1984
1984
1984
1984
1985
1985
1986
1986
1986
1986
1987
1988
1988
1988
1988
1988
1989
1990
1990
1990
1991
1991
1992
1993
1994
1995
1995
1996
1996
1997
1997
1998
1999
1999
2000
2001
2002
2003
2004
2004
2004
2003
2002
2001
2000
1999
1997
1995
1993
1991
1989
1986
1983
1981
1978
1976
1975
1975
1974
1974
1973
1972
1971
1970
1970
1970
1971
1971
1971
1971
1971
1972
1972
1972
1971
1970
1969
1969
1970
1972
1973
1974
1973
1972
1971
1971
1971
1972
1973
1973
1973
1973
1973
1972
1972
1972
1972
1973
1973
1974
1974
1974
1972
1970
1969
1969
1970
1972
1973
1974
1973
1971
1970
1970
1971
1972
1973
1973
1973
1972
1972
1971
1971
1971
1971
1971
1972
1972
1973
1974
1974
1974
1973
1972
1972
1973
1974
1975
1976
1975
1975
1975
1974
1974
1973
1973
1974
1975
1976
1977
1977
1976
1975
1975
1975
1975
1975
1975
1976
1976
1977
1977
1977
1976
1976
1975
1976
1977
1978
1979
1978
1978
1977
1976
1976
1976
1977
1979
1980
1980
1980
1979
1978
1978
1978
1979
1980
1982
1983
1983
1982
1981
1979
1978
1978
1979
1980
1980
1980
1980
1979
1979
1978
1978
1979
1980
1981
1981
1982
1982
1982
1981
1980
1979
1978
1980
1985
1997
2013
2029
2041
2042
2031
2011
1988
1968
1957
1955
1959
1967
1975
1981
1985
1987
1988
1988
1989
1989
1989
1988
1988
1988
1988
1988
1989
1989
1989
1989
1988
1988
1988
1989
1989
1990
1991
1991
1991
1991
1991
1991
1992
1993
1994
1994
1994
1994
1995
1997
1998
2000
2000
2000
2000
2000
2000
2002
2004
2005
2006
2007
2006
2005
2004
2002
2001
2000
1999
1997
1995
1992
1989
1986
1983
1981
1978
1977
1976
1976
1976
1975
1974
1972
1970
1969
1969
1969
1970
1970
1970
1969
1969
1968
1968
1968
1968
1968
1969
1969
1970
1970
1970
1970
1969
1968
1968
1968
1968
1968
1968
1968
1968
1968
1967
1967
1967
1967
1967
1967
1967
1968
1968
1967
1967
1967
1966
1966
1966
1966
1967
1968
1969
1968
1967
1967
1967
1967
1968
1969
1969
1969
1969
1968
1968
1967
1967
1968
1969
1970
1970
1970
1970
1969
1969
1968
1968
1968
1968
1969
1969
1970
1970
1970
1970
1971
1970
1970
1970
1969
1969
1970
1970
1970
1971
1971
1970
1970
1971
1971
1972
1973
1973
1973
1972
1971
1970
1970
1971
1972
1972
1973
1973
1973
1972
1972
1972
1972
1973
1974
1975
1975
1975
1974
1973
1973
1973
1974
1975
1976
1977
1978
1978
1977
1977
1976
1976
1976
1976
1976
1977
1977
1976
1976
1975
1974
1975
1975
1976
1976
1976
1975
1974
1974
1975
1975
1976
1976
1976
1975
1975
1975
1976
1981
1989
2001
2015
2027
2032
2026
2011
1992
1973
1959
1954
1954
1959
1967
1974
1981
1984
1985
1985
1984
1983
1983
1983
1984
1985
1986
1986
1986
1986
1987
1988
1988
1988
1988
1987
1988
1988
1989
1990
1991
1990
1990
1990
1990
1991
1992
1994
1995
1996
1995
1995
1995
1996
1997
1998
2000
2002
2002
2003
2003
2003
2003
2004
2005
2005
2005
2005
2004
2004
2002
2000
1998
1996
1993
1991
1990
1988
1987
1985
1982
1980
1977
1976
1976
1976
1977
1977
1977
1977
1976
1975
1974
1974
1974
1974
1975
1976
1976
1976
1975
1975
1974
1975
1975
1976
1977
1977
1977
1977
1977
1977
1976
1975
1975
1975
1976
1977
1978
1978
1977
1976
1975
1975
1975
1976
1977
1977
1978
1977
1977
1976
1976
1976
1976
1976
1977
1977
1977
1977
1976
1976
1976
1976
1976
1976
1976
1976
1977
1977
1977
1977
1976
1976
1975
1975
1976
1977
1977
1977
1976
1975
1974
1974
1975
1976
1976
1976
1976
1976
1975
1975
1975
1975
1975
1975
1975
1974
1974
1974
1974
1975
1975
1974
1974
1974
1975
1975
1975
1975
1975
1974
1973
1973
1973
1974
1975
1976
1976
1976
1975
1974
1973
1973
1974
1975
1976
1976
1977
1977
1976
1976
1976
1975
1975
1976
1975
1975
1974
1973
1973
1973
1974
1975
1975
1974
1973
1972
1972
1972
1973
1973
1973
1973
1973
1973
1973
1973
1973
1973
1975
1981
1991
2006
2021
2032
2032
2021
2001
1979
1960
1950
1946
1949
1954
1961
1968
1974
1978
1979
1978
1977
1976
1976
1976
1977
1978
1978
1978
1978
1978
1978
1977
1977
1978
1979
1980
1980
1980
1980
1980
1980
1980
1980
1981
1981
1983
1984
1985
1987
1987
1988
1988
1989
1990
1990
1991
1992
1992
1993
1993
1994
1994
1995
1996
1997
1997
1998
1998
1997
1995
1993
1990
1987
1986
1984
1983
1980
1977
1974
1971
1968
1967
1966
1966
1966
1966
1966
1966
1965
1964
1964
1964
1964
1964
1965
1966
1966
1967
1967
1966
1966
1966
1966
1967
1967
1968
1968
1968
1968
1968
1968
1968
1968
1968
1968
1969
1969
1969
1969
1969
1968
1967
1966
1966
1966
1967
1968
1969
1969
1969
1969
1969
1969
1969
1969
1970
1970
1971
1971
1971
1971
1970
1970
1969
1970
1971
1972
1973
1973
1972
1971
1970
1970
1971
1972
1974
1974
1974
1973
1973
1972
1972
1972
1972
1972
1973
1973
1973
1974
1974
1975
1975
1975
1975
1975
1975
1976
1976
1976
1976
1975
1975
1974
1974
1973
1973
1973
1974
1974
1975
1974
1974
1973
1974
1975
1976
1977
1977
1976
1976
1974
1973
1973
1974
1979
1989
2005
2021
2035
2038
2030
2013
1991
1972
1959
1953
1954
1957
1963
1969
1975
1979
1982
1983
1984
1984
1985
1985
1986
1987
1987
1987
1987
1987
1987
1988
1988
1989
1989
1990
1990
1990
1991
1991
1992
1993
1994
1994
1995
1995
1995
1996
1996
1997
1999
2000
2001
2002
2002
2002
2002
2003
2004
2006
2008
2009
2009
2010
2010
2010
2009
2008
2007
2005
2003
2002
2000
1998
1995
1993
1990
1987
1985
1983
1982
1982
1982
1982
1981
1981
1980
1979
1978
1978
1978
1978
1979
1979
1979
1979
1978
1978
1978
1979
1980
1982
1982
1983
1982
1982
1981
1980
1979
1979
1980
1981
1982
1982
1983
1982
1982
1981
1980
1980
1980
1981
1981
1982
1981
1981
1980
1980
1980
1981
1981
1982
1982
1982
1982
1981
1980
1979
1978
1978
1979
1980
1981
1981
1981
1981
1980
1979
1980
1980
1981
1981
1982
1982
1982
1981
1981
1980
1979
1979
1980
1981
1981
1982
1982
1981
1981
1980
1980
1980
1980
1980
1980
1981
1981
1981
1981
1980
1981
1981
1982
1983
1984
1984
1983
1982
1982
1981
1981
1982
1983
1984
1984
1984
1984
1983
1983
1983
1983
1983
1984
1985
1985
1984
1984
1983
1982
1982
1982
1982
1982
1983
1983
1984
1984
1984
1983
1982
1981
1981
1981
1982
1983
1983
1983
1982
1982
1981
1982
1987
1996
2011
2027
2040
2044
2036
2017
1994
1974
1961
1957
1961
1968
1975
1981
1985
1987
1987
1988
1988
1990
1991
1991
1990
1989
1988
1988
1989
1991
1992
1993
1993
1993
1994
1994
1995
1996
1996
1996
1996
1996
1996
1997
1998
1998
1999
1999
2000
2000
2001
2002
2003
2004
2005
2006
2007
2008
2009
2010
2010
2011
2011
2012
2013
2013
2013
2013
2011
2010
2009
2008
2007
2005
2003
2000
1997
1995
1992
1991
1990
1989
1988
1988
1987
1986
1985
1984
1984
1984
1984
1984
1985
1986
1986
1986
1985
1985
1985
1985
1986
1986
1986
1986
1986
1987
1987
1988
1987
1987
1986
1985
1986
1987
1988
1988
1987
1986
1986
1986
1986
1986
1986
1987
1987
1987
1987
1986
1985
1984
1984
1984
1986
1987
1987
1987
1987
1986
1985
1985
1985
1986
1986
1987
1987
1987
1986
1985
1985
1985
1986
1986
1987
1987
1987
1987
1986
1986
1986
1986
1986
1987
1987
1988
1987
1987
1986
1985
1984
1985
1986
1987
1988
1988
1987
1986
1985
1985
1985
1986
1987
1987
1988
1988
1988
1987
1987
1987
1986
1986
1986
1986
1987
1987
1988
1988
1988
1987
1987
1987
1987
1987
1988
1988
1989
1989
1989
1988
1988
1987
1987
1987
1987
1987
1987
1987
1988
1988
1988
1989
1988
1988
1988
1988
1988
1989
1990
1990
1990
1990
1989
1989
1989
1989
1990
1991
1991
1990
1989
1988
1987
1987
1987
1988
1988
1989
1988
1987
1986
1985
1985
1986
1986
1987
1987
1987
1987
1987
1986
1985
1985
1988
1994
2003
2016
2030
2040
2041
2033
2015
1995
1977
1966
1963
1967
1974
1981
1987
1990
1991
1991
1991
1992
1992
1993
1993
1992
1992
1991
1991
1991
1992
1993
1994
1994
1994
1993
1992
1992
1993
1994
1995
1995
1996
1996
1996
1996
1995
1995
1996
1997
1999
2000
2000
1999
1999
1999
1999
2000
2001
2002
2003
2004
2005
2005
2006
2006
2006
2005
2005
2005
2004
2004
2003
2001
1999
1996
1993
1990
1988
1987
1985
1984
1982
1981
1979
1979
1977
1976
1975
1974
1974
1975
1975
1976
1975
1975
1974
1974
1973
1974
1974
1975
1976
1976
1976
1975
1974
1973
1972
1973
1973
1974
1975
1975
1975
1973
1972
1972
1971
1971
1972
1972
1973
1972
1972
1971
1970
1970
1970
1970
1971
1972
1972
1972
1972
1970
1969
1968
1967
1968
1969
1970
1971
1971
1971
1970
1969
1968
1967
1968
1968
1969
1969
1969
1969
1968
1968
1968
1968
1969
1969
1970
1970
1969
1969
1968
1967
1966
1966
1967
1968
1969
1969
1968
1968
1967
1967
1967
1967
1967
1967
1967
1967
1968
1968
1968
1967
1966
1965
1964
1964
1965
1965
1966
1966
1966
1966
1966
1966
1965
1966
1966
1967
1968
1968
1968
1967
1966
1966
1966
1966
1967
1967
1968
1967
1967
1967
1966
1966
1966
1966
1967
1967
1968
1968
1968
1967
1966
1966
1966
1967
1968
1969
1969
1968
1968
1967
1967
1967
1968
1969
1969
1969
1968
1968
1968
1969
1969
1969
1968
1968
1968
1968
1968
1968
1968
1968
1968
1968
1968
1967
1967
1967
1968
1968
1968
1968
1967
1967
1966
1966
1967
1971
1977
1988
2003
2018
2027
2026
2013
1994
1972
1955
1946
1944
1947
1952
1958
1963
1967
1970
1972
1973
1974
1974
1973
1973
1973
1973
1974
1974
1974
1974
1975
1975
1976
1976
1976
1976
1977
1977
1978
1979
1979
1980
1980
1980
1981
1982
1983
1984
1985
1986
1986
1986
1985
1986
1986
1987
1989
1990
1991
1991
1992
1993
1994
1994
1994
1994
1994
1995
1996
1996
1995
1992
1990
1987
1985
1983
1981
1979
1977
1976
1974
1972
1971
1969
1969
1968
1968
1967
1967
1967
1967
1967
1967
1966
1966
1966
1966
1967
1968
1969
1969
1969
1968
1968
1968
1968
1969
1969
1970
1970
1970
1970
1971
1971
1970
1971
1971
1971
1971
1971
1971
1972
1971
1970
1969
1968
1967
1968
1970
1971
1971
1971
1970
1969
1969
1970
1970
1971
1971
1971
1972
1972
1973
1972
1972
1972
1972
1973
1973
1973
1973
1973
1973
1973
1973
1973
1973
1973
1973
1974
1975
1975
1975
1975
1975
1975
1975
1975
1975
1976
1977
1977
1977
1977
1976
1976
1977
1977
1978
1978
1978
1978
1979
1979
1979
1979
1980
1980
1982
1983
1984
1986
1988
1990
1991
1993
1994
1996
1997
1999
2000
2002
2004
2007
2010
2014
2020
2027
2036
2046
2053
2057
2055
2045
2028
2010
1995
1986
1983
1982
1982
1980
1977
1974
1972
1971
1971
1971
1971
1972
1972
1973
1973
1972
1971
1971
1971
1972
1972
1973
1972
1972
1971
1970
1970
1970
1970
1970
1970
1970
1971
1971
1971
1970
1969
1968
1968
1969
1970
1971
1971
1972
1972
1972
1972
1973
1973
1974
1975
1976
1977
1979
1980
1981
1981
1982
1983
1983
1984
1984
1985
1985
1986
1986
1985
1985
1985
1985
1986
1986
1986
1987
1986
1986
1986
1986
1987
1988
1988
1989
1988
1988
1987
1986
1986
1986
1987
1988
1988
1989
1988
1987
1986
1985
1986
1987
1987
1988
1988
1987
1987
1987
1987
1987
1987
1987
1987
1987
1987
1988
1988
1988
1987
1986
1985
1985
1985
1986
1987
1988
1988
1988
1987
1987
1986
1986
1986
1987
1988
1988
1988
1987
1987
1986
1986
1986
1986
1986
1987
1988
1988
1989
1989
1988
1987
1987
1987
1987
1988
1988
1988
1988
1987
1986
1985
1985
1985
1986
1987
1988
1988
1989
1988
1988
1988
1987
1987
1987
1988
1988
1989
1989
1988
1987
1986
1986
1986
1987
1988
1989
1990
1990
1989
1988
1988
1988
1988
1989
1989
1989
1989
1989
1989
1989
1988
1988
1988
1988
1988
1988
1988
1988
1988
1989
1989
1989
1989
1988
1988
1988
1989
1989
1989
1989
1988
1987
1987
1987
1989
1994
2004
2018
2033
2044
2045
2035
2016
1994
1976
1965
1963
1966
1973
1980
1986
1990
1992
1993
1993
1993
1993
1993
1994
1994
1994
1994
1994
1994
1994
1994
1994
1994
1994
1995
1995
1996
1996
1997
1998
1999
2000
2000
2000
1999
1999
1999
1999
2000
2001
2002
2003
2004
2005
2005
2006
2007
2008
2009
2010
2011
2012
2012
2012
2011
2011
2011
2011
2011
2011
2010
2009
2007
2004
2001
1998
1995
1993
1992
1990
1989
1987
1985
1984
1983
1982
1981
1980
1980
1980
1981
1982
1982
1982
1980
1978
1978
1978
1979
1981
1981
1981
1981
1980
1980
1980
1980
1979
1979
1979
1980
1980
1981
1981
1980
1979
1978
1977
1977
1978
1979
1979
1979
1978
1977
1976
1975
1975
1976
1976
1977
1978
1978
1977
1976
1975
1975
1975
1975
1976
1976
1977
1977
1977
1976
1976
1975
1975
1975
1975
1976
1977
1977
1977
1976
1975
1974
1974
1974
1975
1976
1976
1976
1976
1975
1975
1976
1976
1976
1977
1977
1977
1977
1977
1977
1976
1975
1974
1974
1975
1977
1978
1978
1977
1976
1976
1975
1974
1974
1974
1975
1976
1977
1977
1977
1976
1976
1976
1977
1978
1980
1980
1979
1978
1976
1975
1975
1976
1976
1977
1977
1976
1976
1975
1975
1975
1975
1975
1975
1975
1975
1975
1975
1975
1976
1975
1975
1976
1982
1992
2008
2024
2035
2035
2022
2002
1980
1962
1953
1952
1955
1961
1968
1974
1978
1980
1981
1980
1979
1979
1980
1981
1982
1982
1982
1982
1981
1982
1982
1983
1983
1984
1984
1984
1983
1983
1982
1983
1984
1985
1986
1987
1987
1986
1985
1985
1986
1987
1989
1990
1991
1992
1992
1992
1992
1992
1992
1993
1994
1995
1995
1995
1995
1994
1994
1993
1992
1991
1989
1987
1985
1983
1981
1979
1975
1973
1970
1968
1967
1966
1965
1964
1963
1961
1960
1958
1957
1957
1958
1959
1959
1959
1958
1957
1957
1956
1956
1956
1956
1956
1956
1957
1956
1956
1956
1956
1956
1956
1956
1956
1956
1956
1955
1954
1953
1953
1953
1953
1953
1953
1952
1951
1951
1950
1950
1949
1949
1949
1949
1950
1950
1950
1949
1949
1948
1947
1947
1947
1948
1949
1949
1949
1948
1947
1946
1945
1946
1946
1946
1946
1946
1946
1946
1947
1946
1946
1945
1945
1946
1946
1947
1947
1946
1945
1945
1944
1944
1945
1946
1946
1947
1947
1947
1947
1946
1946
1946
1946
1946
1946
1946
1946
1946
1946
1946
1947
1947
1948
1949
1949
1949
1948
1948
1948
1948
1948
1948
1947
1947
1947
1947
1947
1947
1948
1948
1948
1947
1947
1947
1948
1950
1950
1951
1950
1950
1949
1949
1948
1949
1950
1955
1965
1980
1998
2011
2016
2008
1990
1968
1949
1936
1931
1931
1935
1940
1946
1952
1957
1961
1963
1964
1965
1966
1966
1965
1965
1965
1966
1968
1970
1971
1971
1971
1972
1972
1973
1974
1975
1976
1977
1978
1979
1979
1980
1980
1981
1981
1982
1984
1985
1986
1988
1989
1990
1991
1992
1993
1994
1996
1997
1999
2000
2001
2001
2001
2001
2002
2003
2003
2002
2000
1998
1997
1995
1993
1991
1989
1987
1985
1983
1982
1981
1980
1980
1980
1980
1980
1980
1980
1981
1981
1982
1982
1982
1982
1982
1982
1983
1984
1985
1986
1986
1987
1987
1987
1987
1987
1987
1988
1989
1990
1991
1991
1991
1990
1988
1988
1988
1989
1991
1992
1993
1993
1993
1992
1990
1990
1990
1991
1992
1993
1994
1994
1993
1992
1992
1991
1991
1992
1993
1993
1994
1993
1993
1992
1991
1991
1992
1993
1994
1995
1996
1995
1995
1994
1993
1994
1995
1996
1996
1996
1996
1995
1994
1993
1993
1993
1994
1995
1996
1996
1996
1995
1995
1994
1994
1995
1996
1997
1997
1996
1996
1995
1995
1995
1995
1995
1995
1996
1996
1997
1997
1997
1998
1998
1997
1997
1997
1998
1998
1998
1997
1996
1995
1995
1995
1995
1994
1994
1994
1994
1994
1994
1993
1993
1992
1991
1991
1991
1991
1992
1992
1992
1991
1990
1990
1994
2002
2015
2030
2044
2049
2044
2028
2006
1984
1968
1961
1962
1968
1977
1985
1991
1994
1994
1992
1991
1991
1993
1995
1996
1997
1996
1995
1994
1993
1993
1994
1995
1996
1996
1996
1996
1996
1996
1996
1996
1997
1997
1998
1998
1999
1999
2000
2000
2000
2000
2002
2003
2004
2005
2006
2006
2005
2005
2006
2007
2007
2008
2008
2009
2009
2009
2009
2009
2007
2005
2002
1999
1997
1995
1994
1992
1989
1986
1982
1980
1978
1977
1977
1977
1977
1976
1975
1974
1973
1972
1972
1973
1974
1974
1973
1972
1971
1971
1971
1971
1972
1972
1972
1972
1972
1972
1971
1970
1970
1970
1970
1971
1972
1972
1970
1969
1968
1968
1969
1969
1970
1970
1969
1969
1969
1968
1968
1967
1966
1966
1967
1967
1967
1967
1967
1967
1967
1967
1966
1966
1965
1966
1966
1966
1967
1966
1966
1965
1964
1964
1964
1964
1964
1965
1965
1965
1965
1965
1965
1964
1964
1964
1964
1964
1965
1964
1964
1964
1963
1963
1964
1965
1965
1966
1966
1965
1965
1964
1963
1963
1963
1963
1964
1964
1965
1965
1965
1966
1967
1968
1969
1971
1974
1977
1979
1981
1982
1983
1983
1984
1986
1989
1993
1998
2004
2011
2018
2026
2034
2042
2045
2043
2034
2019
2002
1986
1975
1969
1967
1965
1962
1959
1957
1956
1956
1957
1957
1955
1954
1953
1953
1954
1956
1956
1957
1956
1956
1955
1954
1953
1952
1952
1952
1952
1952
1952
1952
1952
1951
1950
1949
1949
1949
1950
1950
1950
1950
1950
1950
1949
1949
1949
1950
1952
1954
1955
1955
1955
1956
1957
1958
1959
1960
1962
1963
1964
1964
1964
1963
1963
1964
1965
1966
1966
1967
1967
1967
1967
1967
1967
1966
1966
1967
1968
1968
1968
1968
1968
1967
1967
1967
1967
1968
1969
1971
1971
1970
1968
1966
1966
1966
1967
1969
1970
1969
1969
1968
1967
1967
1967
1968
1968
1969
1969
1969
1969
1969
1968
1967
1967
1967
1967
1969
1970
1970
1970
1969
1968
1967
1967
1968
1969
1970
1971
1971
1970
1968
1967
1966
1966
1967
1968
1969
1970
1970
1969
1968
1968
1969
1970
1971
1972
1972
1972
1971
1971
1971
1970
1969
1969
1969
1970
1972
1972
1972
1972
1972
1972
1972
1972
1971
1971
1971
1972
1972
1973
1972
1972
1971
1970
1971
1972
1973
1974
1975
1975
1974
1973
1972
1972
1972
1973
1974
1975
1976
1976
1976
1975
1974
1974
1974
1976
1977
1978
1979
1978
1977
1976
1975
1975
1976
1976
1977
1978
1978
1979
1978
1977
1976
1975
1975
1977
1978
1979
1980
1980
1979
1978
1977
1977
1976
1976
1977
1978
1979
1979
1979
1979
1978
1978
1978
1978
1979
1980
1981
1982
1981
1980
1979
1978
1978
1979
1981
1982
1983
1983
1982
1982
1981
1980
1980
1981
1982
1983
1983
1983
1982
1982
1981
1982
1982
1983
1984
1985
1985
1985
1984
1983
1982
1981
1981
1982
1982
1983
1983
1983
1983
1982
1981
1981
1981
1981
1982
1983
1983
1982
1981
1979
1980
1984
1993
2006
2022
2036
2041
2036
2020
1998
1976
1961
1955
1956
1963
1971
1979
1984
1987
1987
1985
1984
1984
1984
1986
1987
1989
1989
1989
1988
1988
1988
1989
1990
1990
1991
1991
1991
1991
1991
1991
1992
1992
1992
1993
1993
1994
1995
1996
1996
1997
1997
1998
1999
1999
2000
2001
2002
2003
2004
2004
2004
2003
2004
2005
2006
2007
2009
2009
2008
2008
2007
2005
2004
2004
2002
2001
1999
1997
1995
1992
1990
1988
1986
1985
1985
1985
1985
1984
1982
1980
1979
1979
1980
1981
1982
1983
1983
1983
1982
1981
1981
1981
1981
1982
1983
1983
1984
1984
1984
1983
1983
1983
1983
1983
1983
1983
1984
1984
1984
1983
1982
1982
1982
1983
1983
1984
1984
1984
1983
1982
1982
1982
1983
1983
1984
1983
1983
1983
1983
1982
1982
1983
1983
1984
1985
1984
1984
1982
1981
1981
1981
1981
1983
1984
1984
1984
1983
1983
1982
1982
1982
1983
1984
1984
1984
1984
1984
1983
1983
1982
1982
1982
1982
1983
1984
1984
1985
1985
1984
1984
1983
1983
1983
1983
1984
1984
1985
1984
1984
1983
1983
1983
1984
1984
1985
1986
1986
1985
1984
1983
1982
1983
1983
1984
1985
1985
1985
1984
1983
1983
1983
1983
1985
1986
1987
1987
1986
1985
1985
1986
1986
1986
1986
1985
1984
1983
1983
1983
1983
1983
1983
1983
1984
1984
1984
1983
1983
1983
1982
1983
1983
1983
1982
1982
1981
1981
1982
1985
1991
2002
2016
2030
2037
2036
2023
2003
1982
1966
1957
1956
1961
1968
1976
1982
1986
1988
1988
1987
1986
1985
1985
1986
1987
1988
1989
1989
1989
1989
1988
1988
1989
1989
1990
1990
1991
1991
1992
1992
1992
1992
1992
1993
1994
1995
1996
1996
1997
1997
1997
1997
1997
1998
1999
2001
2002
2003
2004
2004
2003
2002
2003
2004
2006
2008
2009
2008
2007
2004
2002
1999
1997
1996
1994
1993
1991
1989
1987
1984
1981
1979
1978
1977
1978
1979
1979
1979
1978
1977
1975
1975
1975
1976
1977
1977
1977
1977
1978
1978
1978
1978
1978
1979
1979
1979
1979
1978
1978
1977
1978
1979
1979
1979
1978
1978
1978
1979
1980
1980
1979
1978
1977
1977
1978
1978
1978
1978
1977
1976
1976
1976
1976
1976
1976
1977
1977
1977
1977
1976
1976
1976
1976
1977
1976
1976
1976
1976
1977
1977
1977
1977
1976
1975
1975
1975
1976
1977
1977
1977
1976
1975
1974
1974
1974
1974
1975
1976
1976
1976
1976
1975
1975
1974
1974
1974
1975
1975
1976
1975
1975
1974
1974
1974
1974
1975
1975
1976
1976
1975
1975
1975
1974
1975
1975
1975
1976
1976
1976
1976
1975
1974
1974
1974
1974
1974
1974
1975
1975
1974
1974
1973
1973
1973
1973
1974
1975
1976
1976
1975
1975
1974
1973
1973
1973
1974
1975
1975
1976
1976
1975
1975
1975
1974
1974
1975
1975
1976
1976
1976
1974
1973
1972
1971
1972
1973
1974
1974
1974
1973
1972
1971
1971
1971
1971
1971
1972
1972
1971
1971
1973
1978
1988
2003
2020
2032
2035
2025
2005
1983
1963
1950
1946
1947
1953
1959
1966
1972
1975
1976
1976
1975
1975
1976
1977
1978
1978
1978
1978
1978
1978
1978
1978
1978
1979
1980
1981
1982
1982
1982
1981
1982
1982
1983
1984
1985
1985
1985
1985
1985
1986
1987
1988
1988
1989
1990
1990
1991
1992
1992
1992
1992
1992
1993
1995
1996
1997
1998
1999
1998
1997
1994
1992
1990
1988
1987
1986
1984
1982
1979
1976
1974
1973
1972
1972
1971
1970
1969
1968
1967
1966
1966
1966
1966
1966
1967
1968
1969
1969
1970
1970
1970
1970
1969
1969
1969
1970
1970
1971
1971
1971
1971
1970
1970
1971
1972
1973
1973
1973
1972
1972
1972
1972
1973
1973
1974
1974
1974
1973
1972
1971
1971
1972
1973
1973
1974
1975
1974
1974
1973
1973
1972
1972
1973
1974
1974
1974
1974
1974
1974
1973
1973
1974
1975
1976
1976
1976
1975
1975
1975
1975
1976
1976
1976
1976
1976
1976
1976
1977
1977
1977
1977
1977
1976
1976
1976
1976
1976
1977
1977
1977
1977
1976
1977
1977
1978
1978
1978
1977
1977
1976
1977
1977
1978
1979
1980
1980
1980
1980
1979
1979
1979
1979
1980
1980
1981
1980
1980
1980
1980
1979
1979
1980
1981
1982
1983
1983
1984
1984
1983
1982
1982
1981
1981
1980
1980
1979
1979
1979
1979
1980
1979
1979
1979
1979
1979
1980
1980
1980
1980
1980
1980
1979
1978
1978
1978
1980
1985
1994
2007
2023
2036
2041
2034
2017
1995
1974
1960
1955
1956
1961
1968
1975
1981
1985
1988
1989
1989
1988
1987
1986
1985
1985
1986
1987
1988
1989
1990
1990
1990
1990
1990
1991
1992
1992
1993
1993
1993
1993
1993
1993
1994
1994
1995
1995
1996
1997
1998
1999
2000
2001
2001
2001
2001
2002
2004
2005
2006
2006
2006
2006
2006
2006
2006
2007
2007
2007
2006
2005
2003
2000
1997
1994
1991
1990
1989
1988
1986
1984
1981
1979
1978
1977
1977
1977
1977
1978
1979
1979
1979
1978
1976
1976
1976
1977
1978
1979
1979
1979
1978
1977
1977
1977
1977
1978
1979
1979
1979
1979
1979
1979
1978
1978
1978
1979
1980
1980
1980
1979
1979
1978
1978
1979
1979
1979
1979
1979
1979
1979
1978
1978
1978
1978
1979
1980
1980
1980
1979
1979
1978
1978
1979
1979
1979
1978
1978
1978
1978
1979
1979
1979
1980
1980
1979
1979
1979
1979
1980
1980
1980
1980
1979
1978
1978
1979
1979
1980
1980
1980
1980
1980
1980
1979
1979
1980
1981
1982
1982
1982
1981
1980
1980
1980
1980
1980
1980
1981
1981
1982
1982
1981
1981
1980
1980
1981
1981
1981
1981
1981
1981
1981
1982
1982
1981
1981
1981
1981
1981
1982
1982
1982
1982
1981
1981
1980
1981
1981
1982
1982
1982
1982
1981
1981
1981
1982
1982
1982
1982
1982
1982
1982
1982
1982
1982
1982
1983
1984
1984
1984
1983
1982
1981
1980
1980
1980
1981
1982
1983
1983
1983
1983
1983
1983
1983
1984
1984
1984
1984
1983
1982
1982
1982
1982
1981
1980
1980
1980
1981
1981
1981
1981
1981
1981
1981
1981
1981
1981
1982
1982
1982
1982
1983
1986
1994
2007
2022
2035
2040
2034
2018
1997
1977
1963
1957
1959
1966
1974
1981
1986
1988
1989
1987
1986
1986
1987
1988
1988
1988
1989
1989
1989
1989
1988
1988
1988
1989
1991
1992
1993
1992
1991
1990
1990
1990
1991
1993
1994
1995
1996
1996
1996
1996
1997
1998
2000
2000
2000
2000
2000
2001
2002
2004
2005
2006
2007
2007
2008
2008
2008
2008
2008
2007
2006
2005
2004
2002
2000
1997
1995
1993
1991
1989
1987
1985
1984
1983
1982
1981
1980
1979
1978
1977
1976
1975
1975
1976
1976
1977
1978
1978
1977
1977
1977
1977
1978
1979
1980
1979
1979
1978
1977
1977
1977
1978
1978
1979
1979
1979
1979
1978
1978
1978
1978
1978
1978
1979
1979
1979
1978
1978
1977
1977
1977
1977
1977
1978
1978
1978
1978
1978
1978
1978
1978
1978
1978
1978
1978
1978
1978
1977
1977
1976
1976
1976
1977
1977
1978
1979
1979
1978
1977
1977
1976
1977
1977
1978
1979
1979
1978
1978
1977
1976
1976
1977
1977
1978
1979
1979
1979
1978
1978
1977
1977
1977
1977
1977
1977
1978
1978
1978
1978
1978
1977
1977
1977
1979
1979
1980
1979
1978
1978
1978
1978
1979
1979
1979
1978
1979
1979
1979
1979
1979
1978
1978
1978
1979
1979
1980
1980
1979
1979
1978
1978
1978
1978
1979
1980
1981
1981
1980
1979
1978
1978
1978
1979
1980
1980
1979
1979
1978
1978
1978
1978
1978
1978
1978
1979
1979
1979
1979
1979
1979
1980
1981
1982
1982
1982
1981
1981
1980
1980
1981
1980
1980
1979
1979
1979
1979
1980
1979
1979
1978
1977
1977
1977
1978
1979
1980
1980
1979
1978
1977
1977
1976
1976
1976
1979
1986
1996
2010
2024
2033
2032
2021
2003
1983
1967
1957
1955
1958
1964
1971
1977
1981
1984
1984
1984
1984
1983
1983
1983
1983
1984
1984
1985
1985
1985
1985
1986
1986
1986
1986
1986
1986
1987
1987
1987
1988
1988
1989
1990
1990
1990
1989
1989
1990
1991
1992
1993
1994
1994
1994
1994
1994
1995
1996
1998
2000
2001
2002
2001
2000
1999
1999
2000
2001
2002
2001
1999
1996
1993
1991
1989
1987
1986
1985
1983
1981
1979
1976
1974
1972
1971
1970
1970
1971
1971
1971
1970
1970
1969
1969
1968
1968
1968
1969
1971
1972
1972
1971
1969
1969
1969
1969
1970
1971
1971
1970
1970
1969
1969
1969
1970
1970
1970
1970
1969
1969
1970
1970
1971
1970
1969
1967
1967
1967
1969
1970
1971
1969
1967
1965
1965
1965
1967
1968
1968
1968
1968
1968
1968
1967
1967
1966
1966
1967
1967
1968
1968
1968
1968
1967
1966
1966
1966
1968
1969
1969
1970
1969
1969
1968
1967
1967
1968
1968
1969
1969
1969
1968
1968
1967
1967
1968
1968
1969
1968
1968
1968
1968
1968
1969
1968
1968
1967
1967
1967
1968
1969
1969
1969
1969
1969
1969
1970
1970
1970
1969
1969
1969
1968
1968
1968
1969
1970
1970
1970
1969
1969
1969
1969
1970
1970
1971
1970
1970
1970
1970
1971
1971
1971
1970
1971
1971
1972
1972
1973
1973
1973
1972
1972
1971
1971
1971
1972
1972
1972
1972
1972
1971
1971
1971
1971
1971
1971
1971
1971
1971
1972
1972
1971
1971
1970
1970
1970
1970
1974
1981
1993
2010
2025
2033
2030
2016
1996
1975
1959
1951
1949
1951
1956
1962
1968
1974
1978
1980
1980
1979
1978
1978
1977
1977
1977
1978
1980
1981
1982
1982
1981
1981
1982
1982
1983
1983
1984
1984
1984
1984
1984
1984
1985
1985
1986
1987
1987
1988
1989
1991
1991
1992
1992
1992
1992
1993
1995
1997
1998
1999
1999
1999
1999
1999
1998
1998
1998
1998
1999
1999
1998
1996
1994
1991
1989
1986
1984
1982
1980
1979
1978
1977
1976
1974
1973
1971
1971
1971
1971
1972
1972
1972
1971
1971
1971
1972
1973
1974
1974
1974
1973
1973
1973
1973
1973
1973
1974
1974
1975
1975
1975
1975
1975
1975
1975
1976
1976
1976
1976
1976
1976
1976
1976
1976
1975
1974
1974
1974
1975
1976
1977
1977
1977
1976
1976
1976
1976
1976
1977
1977
1978
1978
1977
1976
1976
1976
1976
1977
1978
1979
1979
1978
1977
1977
1977
1977
1978
1979
1979
1979
1979
1979
1978
1978
1977
1977
1977
1978
1979
1980
1981
1980
1979
1978
1978
1978
1978
1979
1979
1980
1980
1980
1979
1977
1977
1977
1978
1979
1981
1981
1980
1980
1979
1978
1978
1978
1979
1979
1980
1981
1981
1980
1980
1979
1979
1979
1980
1981
1982
1982
1981
1980
1980
1979
1980
1980
1980
1981
1981
1981
1982
1982
1982
1982
1982
1983
1984
1984
1983
1981
1980
1979
1980
1980
1981
1981
1981
1981
1981
1981
1981
1981
1981
1981
1982
1982
1982
1982
1981
1981
1981
1980
1980
1981
1984
1992
2005
2020
2034
2039
2034
2019
1998
1978
1964
1957
1957
1963
1970
1977
1983
1986
1987
1986
1985
1985
1986
1987
1988
1988
1987
1986
1986
1986
1987
1988
1990
1991
1990
1989
1989
1988
1988
1989
1989
1990
1991
1992
1993
1994
1994
1994
1994
1994
1994
1994
1996
1997
1999
2001
2002
2002
2002
2002
2002
2003
2004
2005
2005
2006
2007
2007
2006
2005
2003
2002
2000
2000
1998
1996
1993
1991
1988
1985
1983
1981
1980
1980
1980
1980
1979
1978
1977
1976
1976
1976
1976
1977
1977
1978
1978
1977
1975
1974
1974
1975
1976
1977
1978
1978
1977
1977
1978
1978
1979
1978
1977
1977
1977
1978
1978
1978
1977
1976
1976
1975
1976
1976
1977
1978
1978
1978
1977
1976
1975
1975
1974
1975
1976
1977
1977
1977
1976
1975
1975
1975
1975
1976
1977
1978
1978
1977
1977
1977
1976
1976
1976
1976
1977
1977
1977
1977
1977
1976
1975
1975
1975
1976
1977
1977
1978
1978
1977
1977
1976
1976
1977
1977
1978
1978
1978
1977
1977
1977
1976
1976
1976
1976
1976
1977
1977
1977
1976
1976
1976
1976
1976
1977
1977
1978
1978
1977
1977
1976
1976
1976
1977
1978
1978
1978
1977
1977
1977
1977
1977
1977
1977
1977
1977
1977
1977
1977
1977
1977
1977
1978
1978
1978
1978
1978
1977
1977
1976
1977
1978
1978
1979
1980
1981
1980
1980
1978
1977
1976
1976
1976
1976
1976
1977
1977
1977
1977
1975
1973
1972
1973
1974
1976
1977
1977
1976
1974
1973
1972
1972
1973
1977
1984
1996
2011
2025
2032
2029
2016
1996
1976
1960
1953
1952
1955
1961
1968
1973
1977
1979
1980
1980
1980
1980
1979
1979
1978
1978
1978
1979
1980
1982
1983
1984
1984
1984
1983
1983
1983
1983
1984
1985
1985
1985
1985
1985
1986
1986
1986
1986
1985
1986
1987
1989
1990
1990
1990
1990
1990
1991
1993
1995
1997
1999
1999
2000
2000
1999
1999
1999
1998
1998
1997
1996
1995
1993
1990
1987
1984
1982
1980
1978
1977
1976
1974
1972
1971
1970
1970
1969
1969
1969
1969
1969
1968
1968
1968
1967
1967
1967
1967
1967
1967
1967
1968
1969
1969
1969
1968
1968
1967
1968
1969
1970
1970
1970
1969
1968
1967
1967
1967
1967
1967
1967
1967
1968
1968
1968
1967
1966
1965
1965
1965
1966
1966
1966
1966
1965
1964
1964
1965
1966
1966
1966
1966
1965
1965
1965
1965
1966
1965
1965
1965
1965
1966
1967
1968
1968
1968
1968
1967
1967
1967
1967
1968
1968
1968
1967
1967
1967
1967
1967
1968
1969
1969
1969
1968
1967
1967
1967
1968
1968
1969
1968
1968
1968
1968
1968
1968
1968
1968
1968
1969
1970
1971
1970
1969
1969
1968
1968
1969
1970
1971
1971
1971
1971
1971
1971
1971
1971
1971
1971
1972
1973
1973
1973
1973
1972
1971
1971
1971
1972
1972
1973
1973
1974
1974
1974
1973
1973
1972
1972
1973
1974
1975
1975
1975
1974
1973
1973
1972
1972
1973
1976
1982
1992
2007
2022
2033
2033
2023
2003
1982
1964
1954
1951
1953
1958
1964
1970
1975
1979
1981
1982
1983
1983
1982
1982
1981
1981
1982
1983
1983
1984
1985
1985
1985
1984
1984
1984
1984
1985
1985
1986
1987
1988
1989
1990
1989
1989
1989
1990
1991
1992
1992
1992
1992
1992
1992
1993
1994
1996
1998
2000
2001
2002
2003
2003
2003
2004
2004
2004
2003
2002
2001
1999
1996
1993
1990
1987
1984
1983
1982
1981
1980
1978
1975
1973
1972
1971
1971
1971
1970
1970
1969
1969
1969
1969
1969
1968
1968
1967
1967
1967
1967
1967
1967
1967
1966
1965
1965
1965
1966
1967
1968
1968
1967
1966
1965
1964
1963
1964
1966
1967
1968
1968
1966
1965
1963
1963
1963
1964
1964
1965
1965
1966
1966
1965
1965
1964
1964
1964
1964
1965
1966
1967
1967
1967
1966
1965
1965
1965
1966
1967
1967
1967
1967
1966
1966
1965
1965
1966
1967
1968
1969
1969
1969
1969
1969
1970
1970
1970
1970
1970
1970
1970
1970
1970
1969
1969
1969
1969
1970
1970
1971
1972
1971
1971
1970
1969
1969
1969
1969
1971
1973
1974
1975
1974
1972
1970
1969
1969
1970
1971
1971
1971
1971
1971
1971
1971
1972
1972
1972
1973
1973
1974
1975
1975
1975
1974
1974
1973
1973
1972
1972
1972
1972
1971
1971
1970
1970
1971
1972
1972
1972
1972
1972
1972
1971
1972
1972
1973
1973
1973
1972
1971
1972
1974
1980
1990
2004
2018
2029
2031
2021
2002
1980
1960
1949
1946
1950
1957
1966
1973
1978
1980
1980
1980
1979
1978
1978
1979
1979
1980
1980
1981
1981
1981
1981
1982
1982
1983
1983
1984
1983
1983
1982
1982
1983
1983
1984
1985
1987
1988
1989
1990
1990
1989
1989
1988
1989
1990
1993
1995
1996
1996
1996
1996
1996
1997
1998
1999
2000
2001
2002
2001
2000
1998
1996
1995
1994
1993
1991
1989
1987
1984
1981
1979
1977
1975
1974
1973
1972
1972
1971
1970
1969
1968
1967
1967
1968
1969
1969
1969
1970
1969
1969
1969
1968
1968
1967
1967
1968
1969
1970
1971
1972
1971
1970
1969
1968
1967
1968
1969
1970
1971
1971
1972
1971
1971
1971
1971
1971
1971
1971
1971
1971
1971
1971
1971
1971
1970
1971
1971
1972
1972
1973
1973
1973
1973
1973
1973
1973
1973
1974
1975
1975
1976
1976
1976
1977
1977
1976
1976
1976
1977
1977
1978
1979
1979
1980
1980
1980
1982
1983
1984
1984
1983
1982
1982
1983
1984
1986
1987
1987
1986
1986
1985
1984
1985
1985
1986
1987
1987
1987
1987
1986
1986
1986
1986
1986
1986
1986
1988
1989
1990
1990
1989
1988
1988
1989
1990
1990
1990
1990
1989
1989
1989
1989
1990
1990
1990
1991
1991
1991
1991
1991
1991
1991
1991
1991
1992
1992
1993
1994
1994
1995
1994
1994
1994
1994
1995
1995
1995
1995
1995
1995
1995
1994
1994
1994
1995
1996
1997
1998
1997
1996
1996
1995
1996
1996
1997
1997
1996
1996
1996
1996
1996
1996
1995
1995
1994
1995
1998
2005
2016
2031
2045
2053
2051
2040
2021
2000
1984
1974
1972
1974
1979
1985
1991
1996
1999
2001
2001
2001
2001
2001
2000
1999
1999
1999
2000
2001
2003
2003
2003
2003
2002
2001
2001
2002
2003
2004
2005
2006
2006
2006
2006
2006
2006
2006
2007
2008
2009
2010
2011
2012
2012
2012
2012
2012
2012
2014
2015
2016
2017
2018
2018
2018
2018
2019
2020
2020
2020
2019
2017
2015
2012
2010
2007
2005
2003
2001
1999
1996
1994
1992
1991
1990
1989
1988
1988
1988
1987
1987
1986
1985
1985
1984
1984
1984
1984
1985
1985
1984
1984
1983
1983
1983
1983
1983
1984
1984
1985
1985
1984
1984
1983
1983
1982
1982
1983
1983
1983
1984
1983
1983
1981
1980
1979
1979
1979
1979
1980
1980
1980
1980
1980
1979
1978
1977
1977
1977
1977
1978
1978
1979
1978
1977
1976
1975
1975
1976
1977
1978
1978
1977
1976
1975
1975
1975
1976
1977
1978
1978
1978
1977
1977
1976
1976
1976
1976
1976
1977
1977
1977
1977
1976
1975
1975
1975
1975
1976
1977
1977
1977
1977
1977
1978
1978
1978
1979
1979
1979
1979
1979
1979
1978
1977
1976
1975
1975
1976
1977
1978
1978
1978
1977
1976
1975
1975
1976
1978
1979
1979
1978
1976
1975
1973
1975
1979
1989
2003
2019
2033
2039
2033
2017
1996
1975
1961
1954
1954
1958
1965
1971
1976
1980
1982
1982
1982
1982
1983
1983
1984
1984
1985
1985
1985
1985
1985
1986
1987
1988
1989
1989
1989
1989
1989
1989
1989
1990
1991
1992
1993
1993
1993
1993
1993
1994
1995
1996
1998
1998
1999
1999
1999
2000
2001
2002
2003
2004
2005
2005
2006
2007
2007
2006
2004
2003
2002
2001
2000
1999
1997
1994
1990
1986
1983
1980
1979
1978
1978
1978
1978
1976
1975
1974
1973
1973
1973
1973
1974
1975
1976
1976
1975
1974
1973
1973
1974
1975
1977
1978
1978
1978
1978
1977
1977
1977
1978
1978
1979
1979
1979
1980
1980
1980
1980
1979
1979
1979
1980
1981
1981
1980
1980
1979
1978
1978
1978
1979
1979
1980
1980
1980
1979
1979
1979
1979
1979
1979
1979
1980
1980
1980
1980
1979
1978
1978
1978
1978
1978
1978
1979
1979
1980
1979
1979
1979
1980
1980
1980
1980
1981
1981
1981
1981
1981
1981
1981
1982
1983
1984
1984
1984
1983
1983
1982
1982
1982
1982
1983
1983
1984
1984
1984
1984
1983
1983
1983
1983
1983
1984
1984
1984
1985
1985
1985
1984
1984
1984
1984
1984
1983
1983
1982
1981
1981
1981
1981
1980
1980
1981
1981
1981
1982
1982
1982
1982
1982
1983
1983
1983
1982
1981
1981
1981
1983
1988
1998
2012
2028
2039
2042
2032
2013
1991
1972
1960
1957
1960
1967
1975
1981
1985
1988
1988
1987
1986
1986
1987
1988
1989
1990
1990
1989
1989
1989
1989
1990
1991
1992
1993
1993
1993
1993
1993
1993
1993
1994
1995
1996
1996
1997
1997
1998
1998
1999
1999
2000
2001
2002
2003
2004
2006
2007
2008
2009
2009
2010
2010
2012
2012
2013
2013
2013
2012
2011
2009
2008
2006
2005
2003
2000
1997
1994
1991
1990
1988
1987
1986
1985
1984
1984
1984
1984
1983
1982
1982
1981
1981
1982
1983
1984
1984
1984
1984
1984
1984
1985
1985
1985
1985
1985
1985
1985
1985
1985
1985
1985
1986
1986
1986
1986
1986
1986
1985
1984
1984
1984
1985
1986
1986
1986
1985
1985
1985
1985
1985
1985
1985
1985
1986
1986
1986
1986
1986
1986
1986
1986
1986
1987
1986
1986
1986
1986
1986
1986
1986
1986
1986
1987
1987
1987
1987
1986
1986
1985
1985
1986
1987
1988
1989
1989
1988
1987
1986
1985
1985
1985
1986
1987
1987
1988
1988
1987
1987
1986
1986
1986
1986
1987
1988
1988
1988
1988
1988
1987
1987
1987
1987
1987
1988
1988
1988
1989
1988
1988
1988
1987
1987
1987
1987
1988
1988
1988
1988
1988
1988
1988
1988
1989
1990
1990
1989
1988
1987
1987
1987
1988
1988
1989
1989
1988
1988
1987
1987
1986
1986
1985
1986
1987
1988
1988
1989
1988
1988
1988
1988
1988
1989
1990
1990
1989
1989
1987
1986
1985
1985
1985
1986
1987
1988
1988
1987
1986
1986
1986
1987
1987
1987
1987
1987
1986
1985
1984
1984
1984
1987
1995
2007
2021
2034
2042
2039
2026
2006
1986
1970
1963
1963
1968
1975
1981
1986
1989
1990
1991
1991
1991
1992
1993
1994
1994
1994
1994
1994
1994
1995
1997
1999
2001
2002
2000
1998
1996
1996
1997
1998
1998
1997
1997
1998
2000
2000
2000
1999
1998
1999
2000
2002
2003
2004
2005
2006
2007
2009
2010
2011
2012
2013
2015
2017
2018
2020
2020
2020
2020
2019
2019
2020
2020
2019
2018
2016
2014
2013
2013
2012
2010
2008
2005
2004
2003
2003
2003
2003
2004
2005
2006
2008
2010
2011
2011
2010
2008
2005
2003
2001
2001
2002
2003
2004
2005
2006
2006
2006
2005
2005
2005
2006
2007
2009
2010
2010
2010
2008
2007
2007
2007
2007
2007
2008
2008
2008
2008
2008
2007
2006
2007
2007
2008
2008
2008
2008
2007
2007
2007
2007
2007
2007
2007
2007
2006
2005
2003
2002
2000
2000
1999
1999
1998
1998
1996
1995
1994
1993
1992
1991
1991
1990
1990
1989
1989
1988
1987
1986
1985
1983
1982
1982
1982
1983
1983
1983
1981
1980
1978
1977
1978
1978
1978
1978
1978
1978
1977
1976
1976
1975
1975
1975
1975
1975
1976
1975
1975
1974
1974
1973
1973
1973
1974
1974
1975
1975
1974
1973
1971
1971
1971
1972
1974
1975
1974
1973
1972
1971
1970
1970
1970
1971
1972
1973
1974
1974
1973
1972
1971
1970
1971
1972
1973
1973
1972
1971
1971
1970
1970
1969
1969
1969
1969
1970
1971
1971
1970
1969
1968
1967
1968
1969
1971
1971
1971
1969
1967
1967
1969
1976
1988
2003
2017
2025
2022
2008
1988
1968
1953
1946
1947
1952
1960
1966
1971
1973
1974
1974
1974
1975
1975
1976
1976
1976
1977
1977
1977
1977
1976
1976
1977
1977
1979
1980
1980
1979
1979
1979
1979
1979
1979
1980
1981
1981
1982
1982
1983
1982
1982
1983
1984
1985
1986
1987
1988
1988
1988
1988
1989
1989
1990
1991
1992
1992
1993
1993
1992
1992
1991
1990
1989
1988
1987
1985
1983
1981
1978
1976
1974
1972
1971
1970
1969
1969
1969
1969
1968
1967
1965
1964
1963
1964
1965
1966
1967
1966
1966
1965
1964
1965
1965
1966
1967
1968
1967
1967
1966
1966
1966
1967
1968
1968
1968
1968
1967
1966
1966
1966
1966
1965
1965
1965
1965
1965
1966
1966
1966
1966
1966
1967
1967
1967
1966
1966
1966
1966
1966
1966
1966
1966
1966
1967
1968
1968
1968
1968
1968
1967
1966
1967
1968
1969
1970
1970
1970
1969
1968
1968
1968
1968
1968
1969
1970
1971
1971
1970
1970
1971
1970
1970
1970
1970
1970
1971
1971
1971
1971
1970
1970
1971
1972
1974
1975
1976
1975
1973
1972
1971
1972
1973
1974
1975
1976
1976
1976
1977
1977
1977
1976
1975
1974
1973
1974
1976
1976
1977
1976
1975
1974
1974
1975
1976
1977
1977
1977
1977
1978
1978
1978
1978
1977
1977
1978
1981
1989
2003
2018
2032
2038
2033
2018
1998
1978
1964
1957
1957
1961
1967
1974
1979
1984
1986
1987
1988
1988
1988
1987
1987
1986
1987
1988
1989
1990
1991
1992
1992
1993
1993
1992
1992
1991
1991
1992
1993
1995
1996
1997
1998
1997
1997
1998
1999
2000
2002
2003
2003
2003
2003
2004
2005
2006
2008
2009
2011
2011
2011
2011
2010
2011
2012
2013
2014
2013
2012
2011
2009
2006
2004
2001
1998
1996
1995
1994
1993
1992
1991
1990
1988
1987
1986
1985
1985
1985
1986
1986
1986
1985
1984
1984
1984
1985
1986
1987
1987
1987
1987
1987
1986
1986
1986
1987
1988
1988
1989
1989
1989
1988
1987
1987
1987
1987
1988
1988
1989
1989
1989
1989
1989
1988
1987
1987
1987
1987
1988
1989
1989
1988
1986
1985
1984
1984
1985
1985
1986
1987
1987
1987
1986
1984
1984
1984
1985
1986
1987
1987
1987
1986
1986
1986
1985
1985
1985
1985
1985
1985
1984
1983
1983
1983
1984
1984
1984
1983
1983
1983
1983
1983
1983
1982
1982
1982
1982
1982
1982
1982
1981
1980
1980
1981
1981
1982
1982
1983
1983
1983
1983
1983
1982
1981
1980
1980
1980
1980
1980
1981
1981
1981
1981
1981
1980
1980
1980
1981
1982
1983
1983
1983
1982
1981
1980
1980
1980
1982
1983
1984
1985
1985
1985
1984
1983
1983
1982
1982
1981
1981
1981
1982
1982
1982
1981
1981
1980
1981
1981
1982
1982
1981
1980
1979
1979
1980
1980
1981
1980
1980
1980
1981
1985
1994
2007
2021
2032
2034
2025
2009
1988
1970
1959
1956
1959
1965
1973
1979
1984
1987
1987
1987
1986
1985
1985
1985
1986
1988
1989
1989
1989
1988
1988
1988
1988
1989
1990
1991
1991
1990
1989
1989
1989
1989
1990
1991
1992
1992
1992
1992
1993
1994
1995
1995
1995
1995
1995
1997
1998
2000
2001
2001
2001
2001
2002
2003
2004
2005
2005
2005
2005
2004
2002
2001
2000
1999
1998
1997
1995
1993
1991
1988
1986
1984
1982
1981
1980
1980
1980
1979
1979
1978
1977
1976
1976
1975
1976
1976
1977
1978
1977
1977
1976
1976
1976
1977
1977
1977
1977
1978
1978
1978
1977
1977
1977
1976
1977
1977
1977
1977
1977
1977
1977
1977
1977
1977
1977
1977
1977
1977
1977
1977
1977
1977
1976
1976
1976
1977
1977
1978
1978
1978
1978
1977
1976
1976
1976
1977
1978
1978
1979
1978
1978
1977
1977
1977
1977
1977
1977
1977
1978
1978
1979
1979
1978
1976
1976
1976
1977
1978
1978
1978
1977
1976
1976
1976
1977
1978
1978
1978
1978
1977
1977
1977
1977
1977
1977
1977
1977
1977
1977
1977
1977
1977
1977
1977
1977
1978
1978
1979
1978
1978
1977
1977
1977
1977
1977
1977
1978
1979
1979
1980
1979
1978
1977
1977
1977
1978
1978
1979
1978
1978
1977
1976
1977
1978
1978
1979
1979
1979
1979
1979
1978
1978
1978
1977
1977
1977
1977
1978
1979
1979
1979
1979
1979
1979
1979
1980
1980
1979
1979
1978
1978
1978
1978
1977
1977
1977
1977
1976
1976
1976
1976
1976
1976
1976
1977
1977
1978
1978
1978
1977
1975
1974
1975
1980
1990
2005
2021
2033
2035
2027
2009
1987
1969
1957
1954
1955
1960
1966
1971
1975
1978
1980
1980
1981
1981
1981
1982
1983
1983
1983
1983
1982
1982
1982
1982
1984
1985
1986
1987
1986
1986
1985
1984
1985
1986
1988
1990
1991
1991
1991
1991
1992
1992
1993
1994
1994
1994
1995
1996
1997
1997
1998
1998
2000
2001
2002
2003
2004
2005
2005
2005
2005
2004
2004
2003
2003
2002
2000
1998
1995
1992
1989
1988
1986
1986
1985
1984
1984
1983
1982
1980
1979
1978
1978
1979
1979
1980
1980
1980
1979
1978
1977
1977
1978
1978
1979
1980
1981
1981
1981
1980
1980
1979
1979
1980
1981
1982
1982
1981
1981
1980
1980
1981
1981
1981
1982
1982
1982
1982
1981
1981
1980
1980
1980
1980
1981
1982
1982
1982
1981
1980
1980
1980
1981
1982
1982
1983
1982
1982
1982
1981
1981
1981
1981
1982
1982
1983
1983
1983
1983
1982
1982
1981
1981
1982
1983
1983
1983
1983
1983
1983
1983
1983
1982
1982
1982
1982
1983
1983
1983
1982
1982
1982
1983
1984
1985
1985
1984
1984
1983
1983
1983
1983
1983
1984
1984
1984
1984
1983
1983
1983
1982
1982
1983
1983
1983
1983
1983
1983
1982
1983
1983
1983
1984
1984
1984
1984
1983
1983
1983
1983
1983
1983
1983
1983
1984
1984
1985
1985
1985
1985
1984
1984
1984
1984
1985
1986
1986
1986
1986
1985
1985
1985
1986
1987
1988
1988
1987
1987
1985
1985
1984
1984
1985
1985
1985
1985
1985
1985
1985
1984
1984
1984
1984
1985
1986
1986
1986
1985
1984
1984
1986
1992
2003
2018
2033
2042
2041
2029
2009
1988
1971
1962
1961
1965
1973
1980
1985
1989
1991
1992
1992
1992
1992
1992
1992
1992
1992
1992
1993
1993
1993
1994
1994
1994
1994
1994
1994
1994
1995
1995
1995
1996
1996
1997
1998
1998
1998
1999
1999
1999
1999
2000
2001
2002
2003
2004
2005
2005
2005
2006
2006
2007
2008
2009
2010
2011
2012
2013
2013
2012
2010
2008
2007
2007
2006
2005
2003
2000
1997
1994
1991
1989
1988
1988
1988
1988
1987
1986
1984
1982
1981
1980
1981
1982
1983
1983
1983
1982
1981
1981
1981
1982
1983
1983
1983
1983
1983
1983
1983
1983
1982
1982
1982
1982
1983
1983
1984
1983
1982
1981
1981
1981
1982
1983
1984
1983
1982
1981
1980
1980
1980
1981
1981
1982
1983
1983
1983
1982
1981
1980
1980
1981
1981
1982
1984
1984
1984
1984
1983
1982
1981
1981
1981
1982
1983
1983
1983
1983
1983
1983
1983
1982
1982
1982
1983
1984
1985
1986
1985
1983
1981
1980
1981
1982
1983
1984
1984
1984
1983
1982
1981
1981
1981
1981
1982
1983
1983
1984
1983
1983
1983
1983
1983
1983
1983
1983
1983
1983
1983
1983
1983
1982
1982
1982
1982
1982
1983
1984
1984
1983
1982
1982
1981
1981
1981
1982
1982
1982
1981
1981
1980
1980
1980
1981
1982
1983
1983
1983
1982
1982
1981
1980
1980
1981
1982
1982
1983
1983
1982
1981
1980
1980
1980
1981
1982
1983
1983
1983
1983
1983
1982
1982
1981
1981
1981
1982
1982
1981
1980
1979
1979
1979
1979
1979
1979
1979
1979
1979
1979
1979
1980
1980
1980
1979
1979
1978
1978
1977
1979
1983
1991
2004
2019
2031
2036
2030
2015
1994
1974
1960
1954
1955
1960
1967
1974
1980
1983
1984
1984
1983
1982
1982
1983
1984
1985
1986
1985
1984
1983
1982
1983
1984
1985
1986
1986
1986
1987
1987
1988
1988
1988
1988
1989
1990
1991
1992
1993
1993
1992
1992
1992
1992
1994
1995
1997
1998
1999
1999
1998
1999
1999
2000
2001
2003
2004
2005
2005
2005
2005
2004
2002
2000
1998
1997
1996
1995
1993
1991
1987
1984
1982
1980
1979
1979
1978
1978
1977
1977
1976
1975
1974
1973
1972
1973
1974
1976
1976
1976
1976
1974
1974
1973
1974
1974
1975
1976
1976
1977
1977
1977
1976
1975
1974
1975
1975
1976
1976
1976
1976
1976
1975
1975
1974
1975
1975
1975
1976
1976
1976
1975
1974
1973
1972
1973
1974
1976
1977
1976
1975
1974
1974
1974
1975
1975
1975
1976
1976
1976
1976
1976
1976
1975
1975
1975
1975
1976
1976
1976
1976
1975
1974
1974
1975
1976
1977
1977
1977
1977
1977
1977
1977
1976
1976
1976
1976
1977
1978
1979
1979
1978
1977
1977
1977
1978
1978
1979
1980
1980
1979
1979
1979
1978
1978
1979
1980
1980
1981
1981
1981
1980
1979
1979
1980
1980
1981
1981
1981
1981
1981
1981
1981
1981
1981
1981
1981
1981
1981
1981
1981
1980
1980
1980
1981
1981
1982
1982
1983
1982
1982
1981
1981
1981
1982
1982
1982
1983
1982
1982
1982
1982
1981
1981
1982
1983
1984
1984
1984
1983
1983
1983
1984
1984
1985
1984
1984
1983
1983
1983
1982
1982
1982
1982
1982
1982
1981
1982
1983
1984
1984
1984
1983
1982
1982
1983
1983
1984
1983
1982
1983
1986
1995
2008
2024
2036
2040
2033
2016
1995
1976
1963
1958
1959
1965
1972
1980
1986
1989
1990
1989
1988
1988
1988
1988
1989
1990
1991
1992
1992
1991
1989
1989
1990
1991
1993
1994
1995
1995
1995
1994
1993
1993
1994
1995
1997
1998
1998
1999
1998
1998
1999
2000
2001
2002
2003
2004
2004
2005
2006
2007
2008
2008
2009
2009
2009
2010
2011
2012
2013
2012
2011
2010
2008
2007
2005
2004
2002
2000
1998
1996
1994
1992
1990
1989
1988
1987
1987
1986
1985
1984
1984
1983
1983
1983
1983
1983
1984
1985
1985
1985
1985
1984
1984
1985
1985
1986
1986
1986
1985
1984
1984
1984
1984
1985
1985
1986
1987
1987
1986
1985
1984
1983
1983
1983
1983
1983
1983
1984
1984
1984
1984
1983
1983
1983
1983
1984
1985
1985
1984
1983
1982
1982
1982
1982
1982
1983
1984
1985
1985
1985
1984
1983
1982
1982
1983
1984
1984
1984
1984
1983
1983
1983
1983
1983
1984
1985
1985
1985
1984
1984
1983
1983
1983
1984
1984
1984
1985
1985
1985
1985
1985
1985
1985
1985
1985
1985
1986
1986
1986
1985
1985
1985
1985
1985
1985
1986
1986
1987
1987
1987
1987
1986
1986
1986
1986
1987
1987
1988
1988
1987
1987
1986
1986
1986
1986
1986
1987
1987
1987
1987
1987
1986
1986
1985
1985
1985
1986
1986
1986
1986
1986
1985
1985
1984
1985
1985
1985
1986
1986
1985
1985
1985
1985
1986
1987
1987
1987
1986
1986
1985
1984
1984
1985
1986
1986
1987
1986
1987
1987
1987
1986
1986
1985
1985
1985
1985
1985
1984
1984
1984
1983
1983
1983
1983
1984
1984
1985
1985
1984
1984
1983
1982
1982
1982
1982
1983
1984
1984
1987
1992
2001
2015
2028
2037
2037
2027
2009
1989
1973
1963
1961
1964
1971
1978
1984
1988
1990
1991
1990
1989
1988
1987
1987
1987
1988
1989
1990
1990
1991
1990
1990
1990
1990
1991
1991
1992
1992
1993
1993
1993
1993
1993
1993
1993
1994
1995
1996
1997
1997
1997
1997
1997
1997
1998
1999
2000
2001
2002
2003
2003
2003
2003
2004
2005
2005
2007
2007
2008
2008
2007
2006
2005
2003
2001
1999
1997
1995
1993
1991
1989
1987
1985
1983
1982
1981
1980
1980
1978
1977
1976
1975
1975
1976
1976
1977
1977
1978
1978
1979
1979
1978
1978
1977
1977
1978
1978
1979
1979
1979
1978
1977
1977
1977
1978
1978
1978
1978
1977
1977
1977
1977
1977
1977
1977
1977
1978
1978
1978
1978
1977
1976
1975
1975
1976
1977
1977
1978
1978
1977
1977
1977
1976
1976
1977
1977
1978
1978
1978
1977
1976
1976
1976
1976
1976
1977
1977
1978
1979
1978
1978
1977
1977
1976
1976
1976
1977
1977
1977
1978
1978
1977
1976
1976
1976
1976
1977
1978
1978
1978
1977
1976
1975
1975
1975
1976
1977
1977
1977
1977
1977
1977
1977
1977
1977
1977
1977
1977
1977
1977
1978
1978
1977
1977
1976
1977
1977
1978
1978
1977
1977
1976
1976
1976
1976
1976
1976
1976
1976
1976
1977
1977
1976
1975
1974
1974
1975
1976
1976
1977
1977
1977
1977
1976
1976
1976
1976
1977
1978
1978
1978
1977
1976
1976
1976
1978
1979
1979
1979
1978
1977
1977
1977
1977
1977
1978
1979
1979
1979
1978
1977
1976
1976
1976
1976
1976
1977
1977
1977
1977
1977
1977
1977
1977
1978
1978
1978
1977
1976
1976
1977
1981
1989
2001
2016
2029
2033
2027
2011
1991
1971
1958
1953
1953
1958
1965
1971
1977
1981
1982
1982
1980
1979
1978
1978
1979
1980
1981
1982
1982
1982
1981
1981
1981
1981
1981
1981
1981
1982
1982
1983
1983
1984
1984
1984
1985
1985
1986
1986
1986
1986
1986
1987
1988
1989
1990
1990
1991
1992
1992
1993
1994
1994
1995
1996
1997
1998
1998
1998
1998
1998
1997
1997
1996
1995
1993
1992
1990
1988
1986
1983
1980
1978
1976
1975
1974
1973
1973
1973
1972
1971
1970
1969
1968
1968
1968
1969
1970
1971
1972
1971
1971
1971
1971
1971
1971
1971
1971
1972
1973
1973
1972
1972
1971
1971
1971
1971
1971
1970
1971
1971
1972
1972
1972
1971
1971
1971
1972
1973
1974
1974
1973
1972
1971
1971
1972
1973
1973
1973
1973
1972
1972
1971
1971
1971
1971
1972
1974
1975
1975
1975
1974
1974
1973
1973
1973
1973
1974
1974
1975
1975
1974
1974
1974
1974
1975
1976
1976
1977
1976
1976
1976
1975
1975
1975
1975
1976
1976
1977
1977
1977
1976
1976
1976
1976
1976
1975
1976
1977
1978
1978
1978
1978
1977
1977
1977
1978
1979
1980
1980
1979
1978
1978
1977
1978
1980
1981
1981
1981
1980
1979
1978
1978
1979
1980
1981
1982
1982
1981
1980
1979
1979
1979
1978
1979
1980
1981
1981
1982
1982
1981
1980
1979
1979
1980
1981
1982
1982
1983
1983
1983
1982
1982
1982
1982
1982
1983
1983
1983
1982
1982
1981
1980
1980
1981
1982
1982
1982
1982
1982
1981
1981
1981
1981
1981
1982
1983
1983
1983
1983
1982
1981
1982
1986
1995
2008
2023
2034
2038
2031
2014
1993
1974
1962
1957
1960
1967
1975
1982
1986
1987
1987
1986
1986
1986
1988
1989
1989
1989
1988
1988
1988
1989
1989
1989
1988
1988
1988
1990
1991
1992
1992
1991
1991
1991
1991
1992
1993
1994
1994
1995
1995
1996
1996
1997
1997
1997
1997
1998
2000
2001
2001
2001
2001
2001
2003
2004
2006
2007
2007
2005
2005
2004
2005
2005
2005
2004
2002
1999
1996
1994
1992
1990
1989
1987
1986
1986
1985
1983
1982
1980
1979
1979
1979
1979
1980
1981
1981
1980
1980
1980
1980
1980
1980
1980
1981
1981
1982
1982
1982
1982
1981
1981
1981
1981
1982
1982
1982
1982
1982
1982
1982
1982
1981
1981
1981
1981
1982
1982
1982
1982
1981
1981
1981
1981
1981
1982
1982
1983
1983
1982
1982
1982
1982
1982
1983
1983
1983
1984
1984
1984
1984
1983
1983
1983
1984
1984
1985
1985
1985
1984
1983
1982
1982
1982
1983
1984
1985
1986
1986
1986
1986
1985
1984
1984
1984
1984
1985
1986
1986
1986
1986
1985
1985
1984
1984
1985
1986
1987
1988
1988
1987
1986
1985
1985
1985
1985
1986
1986
1985
1985
1985
1984
1984
1984
1984
1985
1985
1986
1986
1986
1986
1985
1985
1985
1985
1986
1986
1987
1986
1986
1985
1985
1985
1985
1986
1987
1987
1987
1986
1986
1985
1984
1985
1985
1985
1986
1987
1987
1988
1987
1986
1986
1986
1986
1987
1987
1988
1987
1987
1987
1987
1986
1985
1985
1984
1985
1986
1988
1989
1989
1988
1986
1985
1985
1985
1986
1987
1986
1986
1986
1986
1986
1986
1985
1986
1986
1987
1987
1987
1986
1985
1985
1984
1985
1985
1985
1985
1987
1992
2002
2016
2031
2040
2041
2030
2012
1993
1977
1968
1966
1968
1973
1979
1984
1989
1992
1993
1994
1994
1993
1992
1991
1991
1991
1992
1993
1993
1993
1993
1994
1994
1994
1994
1994
1994
1995
1995
1996
1997
1998
1998
1998
1998
1998
1998
1999
2000
2001
2002
2002
2002
2002
2002
2003
2004
2006
2007
2008
2009
2009
2008
2008
2008
2009
2010
2012
2013
2014
2013
2011
2009
2006
2004
2003
2002
2002
2001
1999
1997
1994
1992
1989
1987
1986
1986
1986
1986
1986
1985
1984
1984
1983
1983
1983
1984
1984
1984
1984
1984
1985
1985
1985
1985
1985
1984
1984
1984
1984
1984
1984
1984
1983
1983
1983
1983
1983
1983
1984
1984
1984
1984
1983
1983
1983
1983
1983
1983
1983
1983
1982
1981
1980
1981
1981
1981
1982
1981
1981
1982
1982
1982
1981
1980
1979
1979
1979
1979
1980
1980
1980
1979
1979
1979
1979
1979
1979
1978
1978
1978
1978
1978
1977
1977
1977
1978
1979
1979
1978
1977
1976
1975
1975
1975
1976
1977
1977
1978
1978
1978
1978
1977
1977
1977
1977
1977
1977
1977
1977
1977
1976
1976
1975
1974
1974
1974
1975
1975
1976
1976
1976
1975
1974
1973
1973
1974
1974
1975
1974
1973
1972
1971
1969
1969
1969
1970
1971
1971
1971
1969
1968
1967
1967
1967
1967
1967
1967
1966
1967
1967
1967
1966
1966
1965
1964
1963
1964
1964
1965
1966
1965
1964
1963
1962
1962
1962
1963
1963
1963
1962
1962
1961
1960
1959
1959
1960
1961
1962
1962
1961
1960
1959
1957
1956
1955
1955
1958
1965
1977
1992
2006
2014
2011
1998
1979
1960
1945
1937
1936
1938
1942
1948
1953
1957
1959
1960
1960
1959
1959
1959
1959
1959
1959
1959
1959
1960
1960
1960
1961
1961
1961
1961
1961
1960
1960
1961
1961
1962
1963
1964
1964
1964
1964
1964
1964
1965
1967
1968
1970
1971
1970
1970
1970
1970
1972
1974
1975
1976
1977
1977
1978
1979
1979
1980
1981
1981
1982
1981
1980
1979
1977
1976
1974
1972
1970
1968
1966
1964
1963
1962
1961
1959
1958
1957
1956
1956
1956
1956
1956
1956
1956
1956
1956
1956
1956
1957
1957
1957
1957
1957
1957
1958
1959
1959
1959
1959
1958
1958
1958
1959
1959
1959
1959
1958
1958
1958
1958
1959
1959
1960
1959
1958
1957
1956
1957
1957
1959
1960
1960
1960
1959
1958
1957
1957
1957
1957
1957
1958
1957
1957
1957
1958
1957
1957
1957
1957
1957
1958
1958
1958
1958
1957
1956
1955
1955
1955
1956
1956
1957
1957
1956
1955
1955
1955
1955
1956
1956
1956
1956
1955
1955
1954
1954
1953
1953
1954
1954
1955
1955
1955
1954
1953
1953
1954
1954
1955
1956
1956
1955
1955
1955
1955
1955
1955
1956
1957
1957
1958
1958
1958
1957
1957
1957
1957
1958
1959
1959
1959
1959
1959
1960
1960
1960
1960
1960
1960
1960
1960
1960
1961
1961
1961
1961
1960
1960
1959
1960
1961
1962
1962
1962
1962
1961
1961
1962
1962
1961
1963
1967
1975
1989
2006
2019
2023
2017
2000
1980
1961
1948
1943
1943
1946
1951
1958
1964
1968
1972
1974
1975
1975
1975
1974
1973
1973
1973
1973
1975
1976
1977
1978
1977
1976
1975
1975
1977
1978
1979
1980
1980
1981
1981
1982
1982
1983
1983
1983
1985
1987
1989
1990
1990
1990
1989
1989
1990
1991
1993
1995
1996
1997
1998
1998
1999
1999
2000
2000
2000
2000
2000
2000
1999
1998
1995
1992
1989
1987
1986
1985
1984
1982
1980
1978
1976
1975
1975
1975
1975
1975
1975
1974
1974
1974
1974
1974
1974
1974
1974
1975
1975
1976
1976
1975
1975
1975
1974
1975
1976
1977
1978
1979
1979
1978
1978
1978
1978
1979
1979
1979
1978
1977
1976
1976
1977
1977
1977
1977
1977
1977
1978
1979
1979
1979
1978
1978
1978
1979
1980
1980
1981
1980
1979
1979
1979
1979
1979
1980
1981
1981
1981
1981
1981
1980
1980
1980
1981
1982
1983
1983
1983
1982
1981
1981
1981
1982
1982
1983
1983
1984
1984
1984
1984
1984
1984
1984
1985
1985
1986
1986
1985
1985
1984
1984
1984
1985
1986
1986
1987
1987
1988
1988
1988
1987
1986
1985
1985
1986
1986
1987
1988
1987
1987
1987
1987
1988
1989
1990
1991
1991
1991
1991
1990
1989
1989
1988
1988
1988
1989
1990
1990
1990
1989
1989
1988
1988
1988
1989
1989
1990
1990
1990
1990
1990
1989
1988
1988
1989
1994
2003
2017
2032
2043
2047
2040
2024
2003
1984
1972
1967
1969
1975
1982
1988
1993
1995
1997
1997
1997
1998
1998
1997
1997
1997
1997
1998
1998
1999
2000
2001
2002
2002
2002
2001
2000
1999
1999
2000
2002
2003
2003
2003
2003
2003
2004
2004
2005
2006
2007
2008
2009
2010
2011
2011
2010
2010
2010
2011
2013
2015
2017
2017
2017
2017
2017
2017
2018
2018
2017
2016
2014
2013
2012
2010
2007
2004
2002
2000
1998
1997
1996
1994
1992
1991
1990
1989
1989
1989
1990
1990
1990
1989
1989
1988
1988
1988
1988
1989
1989
1990
1990
1990
1990
1990
1989
1989
1989
1989
1990
1990
1991
1991
1990
1990
1990
1989
1989
1990
1990
1991
1991
1991
1990
1990
1990
1990
1990
1990
1991
1991
1991
1991
1991
1990
1990
1990
1990
1990
1990
1990
1990
1991
1991
1991
1990
1989
1989
1990
1990
1991
1991
1990
1990
1990
1990
1990
1991
1991
1991
1991
1990
1990
1989
1989
1989
1989
1989
1989
1989
1990
1991
1991
1991
1990
1989
1989
1990
1991
1991
1991
1991
1990
1990
1990
1990
1991
1991
1991
1991
1990
1990
1989
1989
1989
1989
1990
1991
1991
1991
1991
1990
1990
1990
1990
1990
1990
1989
1990
1990
1990
1990
1991
1991
1991
1991
1991
1991
1991
1991
1991
1991
1991
1990
1990
1990
1989
1989
1989
1990
1991
1991
1991
1991
1991
1990
1991
1992
1993
1995
1994
1993
1992
1990
1989
1988
1989
1989
1989
1990
1990
1990
1990
1989
1989
1989
1989
1989
1989
1989
1989
1989
1989
1988
1988
1987
1986
1986
1989
1995
2006
2019
2033
2041
2040
2029
2011
1991
1975
1967
1966
1970
1977
1983
1988
1990
1992
1992
1992
1992
1992
1993
1993
1993
1993
1992
1992
1992
1993
1994
1995
1995
1996
1996
1995
1995
1995
1996
1996
1997
1998
1998
1998
1998
1998
1998
1999
1999
2001
2002
2003
2004
2005
2005
2004
2004
2004
2005
2007
2009
2010
2011
2011
2011
2011
2011
2011
2011
2011
2011
2011
2010
2008
2007
2005
2003
2001
1998
1996
1994
1992
1991
1990
1988
1987
1985
1984
1983
1983
1984
1984
1984
1983
1983
1982
1982
1982
1982
1982
1983
1983
1983
1983
1982
1982
1982
1982
1982
1982
1982
1982
1983
1983
1982
1982
1982
1982
1981
1981
1982
1982
1982
1982
1981
1980
1979
1979
1979
1980
1981
1981
1981
1980
1979
1979
1978
1978
1978
1979
1979
1980
1980
1980
1979
1978
1977
1977
1977
1977
1978
1979
1980
1980
1979
1978
1978
1978
1978
1978
1978
1978
1977
1977
1977
1978
1978
1978
1978
1978
1978
1979
1980
1980
1979
1978
1976
1975
1975
1976
1977
1978
1979
1978
1978
1977
1976
1976
1977
1977
1978
1979
1979
1978
1976
1975
1974
1974
1975
1976
1977
1977
1977
1977
1976
1975
1975
1975
1975
1975
1975
1976
1976
1976
1975
1974
1974
1973
1973
1973
1974
1974
1974
1974
1974
1973
1973
1973
1974
1974
1975
1975
1974
1974
1973
1973
1973
1973
1974
1974
1975
1975
1975
1974
1973
1973
1973
1972
1972
1972
1973
1973
1974
1974
1974
1972
1969
1968
1967
1968
1971
1973
1973
1972
1971
1970
1970
1970
1970
1970
1968
1968
1967
1968
1971
1977
1987
2001
2015
2025
2025
2014
1995
1975
1958
1948
1945
1947
1952
1958
1964
1969
1971
1972
1972
1972
1971
1970
1970
1971
1972
1973
1974
1974
1973
1973
1972
1971
1971
1972
1973
1974
1975
1975
1975
1974
1974
1974
1974
1975
1976
1977
1978
1978
1978
1978
1978
1979
1980
1982
1984
1985
1986
1987
1987
1987
1987
1987
1987
1988
1990
1991
1992
1992
1992
1990
1989
1988
1987
1986
1984
1982
1980
1977
1975
1972
1970
1968
1966
1965
1964
1963
1962
1962
1961
1961
1960
1960
1960
1961
1962
1962
1962
1961
1960
1959
1958
1958
1959
1960
1960
1961
1962
1962
1962
1962
1962
1961
1960
1960
1960
1961
1962
1962
1962
1962
1961
1960
1960
1961
1961
1962
1962
1961
1961
1961
1961
1961
1961
1961
1962
1963
1964
1964
1963
1962
1962
1961
1962
1963
1964
1964
1964
1963
1963
1963
1963
1963
1964
1964
1964
1964
1965
1965
1965
1965
1964
1964
1964
1965
1966
1967
1967
1967
1966
1966
1965
1965
1965
1966
1967
1968
1968
1969
1969
1969
1970
1970
1970
1971
1971
1972
1972
1973
1972
1972
1971
1971
1971
1972
1973
1974
1974
1975
1974
1974
1973
1973
1973
1973
1973
1974
1975
1976
1977
1977
1977
1976
1975
1976
1976
1977
1977
1977
1976
1975
1974
1974
1974
1975
1976
1977
1978
1978
1977
1977
1977
1977
1977
1978
1977
1977
1976
1976
1977
1981
1989
2002
2017
2031
2038
2034
2020
1999
1979
1964
1956
1956
1960
1967
1974
1980
1984
1986
1987
1987
1987
1987
1987
1988
1988
1988
1988
1988
1988
1988
1989
1989
1990
1990
1991
1991
1991
1991
1990
1990
1990
1990
1991
1992
1993
1994
1994
1994
1994
1994
1995
1996
1998
1999
1999
2000
2000
2001
2001
2001
2002
2002
2003
2004
2006
2007
2007
2007
2006
2005
2003
2002
2001
2000
1999
1997
1995
1992
1989
1987
1984
1982
1981
1981
1981
1981
1981
1980
1979
1977
1976
1976
1977
1977
1978
1978
1978
1978
1978
1978
1978
1978
1979
1979
1980
1981
1980
1980
1980
1980
1980
1980
1980
1980
1980
1981
1980
1980
1979
1978
1978
1977
1978
1979
1980
1981
1981
1981
1979
1978
1977
1977
1977
1978
1979
1979
1980
1980
1980
1979
1979
1979
1979
1979
1980
1980
1981
1981
1981
1981
1981
1981
1981
1982
1983
1983
1983
1983
1983
1982
1982
1982
1982
1982
1982
1982
1982
1983
1983
1983
1983
1982
1982
1983
1983
1984
1984
1984
1984
1984
1984
1984
1984
1984
1984
1984
1985
1986
1986
1985
1985
1984
1984
1985
1986
1987
1988
1988
1987
1986
1985
1985
1985
1986
1987
1988
1988
1988
1988
1987
1986
1986
1986
1987
1988
1988
1988
1987
1987
1986
1987
1987
1988
1988
1989
1989
1989
1990
1990
1990
1989
1989
1988
1988
1988
1989
1990
1990
1990
1989
1988
1988
1988
1989
1989
1990
1990
1990
1990
1990
1989
1988
1988
1988
1989
1990
1993
1999
2008
2021
2034
2042
2041
2030
2011
1991
1975
1967
1966
1970
1976
1983
1989
1993
1995
1995
1994
1994
1993
1993
1993
1993
1994
1995
1996
1997
1998
1998
1998
1997
1996
1995
1996
1997
1998
1999
2000
2000
2000
1999
1999
1999
2000
2001
2003
2003
2003
2003
2003
2004
2004
2005
2006
2007
2008
2009
2010
2010
2011
2011
2012
2013
2014
2015
2015
2016
2015
2014
2013
2011
2009
2007
2006
2005
2004
2002
2000
1997
1994
1992
1990
1990
1989
1989
1989
1990
1989
1989
1988
1987
1986
1986
1986
1987
1988
1988
1989
1990
1990
1989
1989
1988
1988
1988
1988
1989
1989
1990
1989
1989
1988
1988
1987
1988
1988
1988
1988
1988
1988
1988
1987
1987
1986
1987
1987
1988
1988
1988
1986
1985
1984
1984
1985
1986
1987
1988
1988
1987
1987
1986
1985
1985
1985
1986
1986
1987
1987
1987
1986
1985
1984
1984
1984
1984
1985
1985
1986
1986
1985
1984
1983
1982
1982
1983
1984
1985
1985
1985
1985
1984
1983
1982
1982
1982
1982
1983
1983
1983
1983
1983
1983
1983
1983
1982
1982
1983
1983
1983
1982
1982
1982
1982
1982
1982
1982
1982
1982
1982
1982
1982
1981
1981
1981
1980
1980
1980
1980
1981
1982
1982
1981
1981
1980
1980
1981
1981
1982
1982
1981
1981
1980
1979
1979
1980
1980
1981
1981
1981
1980
1979
1980
1980
1981
1981
1980
1979
1978
1977
1977
1977
1977
1977
1976
1976
1977
1977
1978
1978
1977
1976
1975
1975
1975
1976
1977
1976
1976
1975
1975
1976
1981
1990
2004
2018
2029
2032
2024
2006
1985
1966
1953
1948
1951
1958
1966
1973
1977
1979
1978
1977
1976
1976
1977
1977
1978
1978
1979
1979
1978
1977
1976
1976
1976
1976
1977
1978
1978
1978
1978
1977
1976
1976
1976
1977
1979
1980
1980
1981
1980
1980
1980
1981
1982
1983
1984
1985
1985
1986
1986
1987
1988
1989
1990
1991
1991
1991
1991
1992
1992
1992
1992
1991
1989
1988
1987
1986
1984
1981
1978
1975
1972
1970
1968
1967
1967
1966
1966
1964
1963
1962
1961
1960
1961
1962
1962
1963
1963
1963
1963
1962
1961
1960
1960
1960
1961
1961
1962
1963
1962
1961
1960
1959
1959
1960
1961
1961
1961
1961
1960
1959
1959
1960
1960
1960
1961
1961
1961
1961
1960
1959
1958
1957
1957
1958
1959
1961
1961
1961
1961
1960
1959
1959
1959
1960
1961
1962
1962
1962
1961
1961
1960
1959
1959
1960
1961
1962
1962
1961
1961
1961
1961
1961
1961
1962
1962
1962
1962
1962
1961
1960
1960
1961
1961
1963
1964
1964
1964
1964
1963
1963
1962
1963
1963
1963
1964
1965
1965
1965
1965
1964
1964
1964
1964
1964
1965
1965
1965
1965
1965
1965
1965
1965
1965
1966
1967
1967
1968
1968
1967
1967
1967
1968
1968
1969
1970
1971
1972
1972
1971
1970
1969
1968
1968
1969
1969
1969
1969
1969
1969
1970
1970
1970
1970
1969
1969
1970
1970
1971
1971
1971
1970
1970
1969
1970
1974
1982
1995
2011
2025
2032
2028
2014
1994
1974
1959
1952
1951
1954
1960
1966
1972
1976
1979
1980
1980
1980
1980
1981
1981
1980
1980
1981
1982
1983
1983
1984
1984
1984
1984
1984
1984
1985
1986
1987
1988
1988
1989
1989
1989
1990
1990
1990
1990
1991
1991
1993
1994
1995
1996
1997
1998
1998
1999
1999
2000
2002
2003
2004
2004
2005
2005
2004
2005
2005
2005
2006
2006
2005
2002
1999
1996
1993
1991
1989
1989
1988
1986
1985
1983
1982
1981
1980
1979
1979
1979
1980
1980
1980
1979
1979
1978
1978
1978
1979
1980
1980
1981
1981
1981
1980
1980
1980
1981
1982
1982
1983
1983
1982
1982
1982
1982
1981
1981
1982
1982
1983
1983
1983
1983
1982
1981
1981
1981
1982
1982
1983
1983
1983
1983
1983
1982
1982
1982
1982
1983
1983
1984
1984
1984
1984
1984
1984
1985
1985
1985
1985
1985
1985
1984
1984
1984
1984
1984
1984
1985
1985
1985
1985
1985
1984
1984
1984
1984
1985
1986
1986
1987
1986
1986
1985
1984
1985
1985
1985
1986
1986
1987
1988
1988
1988
1987
1986
1985
1985
1986
1988
1989
1989
1988
1987
1986
1986
1986
1987
1988
1989
1990
1990
1989
1989
1988
1988
1989
1989
1989
1989
1989
1989
1989
1989
1988
1989
1989
1990
1991
1992
1993
1994
1993
1992
1990
1988
1987
1988
1989
1990
1991
1991
1991
1990
1988
1988
1988
1989
1990
1990
1990
1990
1990
1989
1988
1988
1988
1989
1990
1994
2001
2013
2026
2038
2043
2038
2024
2004
1985
1972
1967
1968
1973
1979
1984
1989
1992
1994
1995
1996
1996
1995
1995
1994
1994
1995
1995
1996
1996
1997
1997
1997
1997
1997
1997
1996
1997
1998
2000
2001
2001
2001
2000
2000
1999
2000
2000
2001
2002
2004
2005
2005
2005
2005
2006
2006
2008
2010
2011
2013
2013
2013
2013
2013
2013
2014
2014
2015
2015
2015
2014
2013
2012
2010
2009
2007
2005
2003
2001
1999
1997
1995
1993
1992
1991
1990
1989
1989
1989
1989
1989
1989
1988
1987
1987
1986
1986
1987
1988
1988
1988
1987
1986
1986
1985
1986
1986
1986
1987
1988
1988
1988
1987
1986
1985
1985
1985
1985
1986
1986
1986
1986
1986
1985
1984
1984
1984
1985
1985
1986
1986
1986
1985
1984
1984
1983
1983
1983
1984
1985
1985
1985
1985
1984
1984
1984
1985
1986
1986
1986
1986
1985
1985
1985
1984
1983
1983
1983
1984
1985
1986
1987
1986
1985
1984
1984
1983
1984
1984
1985
1985
1985
1985
1985
1985
1984
1984
1985
1985
1986
1987
1987
1986
1986
1985
1985
1985
1986
1986
1986
1985
1985
1985
1985
1985
1985
1985
1986
1986
1986
1986
1986
1987
1987
1987
1987
1986
1986
1987
1987
1987
1987
1987
1986
1985
1985
1985
1986
1987
1987
1988
1988
1988
1987
1987
1986
1986
1987
1988
1989
1990
1990
1990
1990
1989
1988
1988
1989
1990
1991
1991
1990
1989
1988
1988
1988
1989
1990
1990
1989
1988
1987
1987
1988
1988
1989
1990
1990
1990
1991
1991
1990
1990
1990
1990
1992
1997
2006
2019
2033
2043
2045
2036
2019
1999
1982
1971
1968
1971
1978
1984
1990
1994
1995
1995
1995
1995
1995
1996
1997
1997
1997
1996
1995
1995
1996
1997
1998
1999
2000
2001
2000
2000
1999
1998
1999
1999
2000
2001
2001
2002
2003
2003
2003
2002
2003
2004
2005
2007
2008
2008
2009
2008
2009
2009
2010
2011
2012
2013
2014
2015
2015
2015
2015
2014
2014
2013
2013
2013
2013
2011
2010
2007
2005
2002
1999
1997
1996
1995
1994
1994
1994
1992
1990
1988
1987
1986
1987
1987
1988
1988
1988
1988
1987
1986
1985
1985
1986
1986
1987
1987
1987
1986
1986
1985
1986
1986
1987
1988
1987
1986
1985
1984
1984
1983
1983
1983
1983
1984
1984
1984
1984
1984
1983
1983
1983
1983
1984
1985
1985
1985
1984
1983
1983
1982
1982
1982
1982
1983
1983
1983
1983
1983
1983
1982
1982
1982
1982
1982
1982
1982
1982
1981
1981
1981
1981
1982
1981
1981
1981
1981
1981
1981
1981
1980
1980
1980
1980
1981
1982
1982
1982
1982
1981
1980
1980
1980
1980
1981
1981
1982
1982
1981
1981
1981
1981
1981
1981
1981
1981
1981
1981
1980
1980
1979
1979
1979
1979
1980
1980
1980
1980
1979
1979
1978
1978
1979
1980
1980
1980
1980
1979
1979
1979
1979
1979
1979
1979
1979
1979
1979
1980
1980
1980
1980
1979
1979
1979
1979
1980
1980
1979
1979
1978
1977
1977
1977
1977
1977
1977
1977
1977
1977
1977
1976
1976
1976
1977
1977
1978
1977
1977
1976
1974
1973
1974
1979
1988
2002
2017
2029
2032
2025
2008
1988
1969
1957
1952
1954
1959
1965
1970
1974
1977
1978
1979
1979
1980
1980
1980
1980
1980
1980
1980
1979
1979
1979
1980
1982
1983
1984
1984
1983
1982
1981
1981
1982
1983
1983
1984
1984
1985
1985
1985
1985
1985
1985
1986
1987
1989
1990
1990
1991
1991
1991
1991
1992
1993
1995
1996
1997
1998
1998
1998
1997
1997
1997
1997
1996
1995
1994
1992
1989
1986
1984
1981
1980
1979
1978
1977
1975
1973
1972
1971
1971
1970
1970
1969
1969
1969
1969
1969
1969
1968
1967
1966
1966
1967
1968
1969
1969
1969
1969
1969
1968
1967
1967
1967
1967
1968
1968
1968
1967
1966
1965
1964
1965
1965
1966
1966
1966
1966
1965
1965
1964
1964
1964
1965
1965
1965
1965
1965
1964
1962
1961
1961
1961
1962
1963
1963
1962
1962
1962
1962
1962
1962
1962
1961
1961
1961
1962
1962
1962
1961
1960
1959
1959
1959
1960
1960
1960
1960
1959
1958
1958
1958
1958
1959
1959
1960
1960
1960
1959
1959
1958
1958
1958
1959
1959
1960
1961
1961
1960
1960
1959
1959
1958
1959
1960
1961
1962
1962
1962
1961
1961
1960
1959
1959
1960
1961
1962
1963
1963
1963
1963
1963
1963
1963
1964
1965
1966
1967
1966
1965
1964
1963
1963
1963
1964
1965
1965
1965
1965
1965
1964
1964
1964
1965
1966
1967
1967
1967
1967
1966
1965
1964
1964
1965
1967
1973
1984
1999
2015
2026
2027
2016
1998
1977
1959
1949
1946
1948
1952
1958
1964
1969
1972
1974
1975
1976
1977
1976
1975
1974
1973
1974
1976
1977
1979
1980
1980
1979
1979
1979
1979
1980
1981
1981
1982
1982
1983
1984
1985
1985
1985
1985
1985
1986
1988
1990
1991
1991
1991
1991
1991
1993
1995
1996
1998
1999
2000
2000
2001
2001
2002
2003
2004
2005
2005
2005
2003
2002
2000
1998
1995
1994
1992
1990
1989
1987
1986
1984
1983
1981
1980
1979
1978
1978
1979
1979
1979
1978
1977
1977
1976
1976
1977
1978
1978
1979
1979
1979
1979
1979
1979
1980
1980
1980
1981
1981
1981
1981
1981
1981
1981
1981
1981
1981
1981
1982
1983
1983
1982
1981
1980
1980
1981
1982
1982
1983
1983
1983
1982
1981
1981
1981
1981
1982
1983
1984
1984
1983
1983
1982
1982
1981
1982
1982
1983
1983
1983
1984
1984
1983
1983
1983
1983
1984
1984
1984
1984
1984
1983
1983
1983
1984
1984
1984
1984
1985
1985
1985
1985
1985
1984
1984
1984
1985
1985
1985
1986
1986
1986
1986
1985
1985
1985
1985
1986
1986
1986
1986
1986
1986
1986
1986
1986
1987
1987
1988
1988
1988
1988
1987
1986
1985
1986
1988
1989
1990
1991
1990
1989
1988
1988
1988
1988
1988
1988
1988
1988
1988
1987
1986
1986
1985
1985
1985
1986
1987
1987
1988
1988
1988
1987
1987
1987
1987
1986
1985
1985
1987
1992
2002
2016
2030
2041
2042
2032
2015
1994
1977
1967
1964
1966
1972
1979
1985
1990
1993
1994
1993
1993
1992
1992
1992
1993
1994
1996
1996
1995
1994
1994
1993
1993
1994
1995
1996
1997
1997
1997
1997
1997
1997
1997
1997
1998
1999
2001
2002
2003
2003
2003
2002
2003
2003
2004
2006
2007
2008
2009
2009
2009
2009
2010
2011
2012
2012
2013
2014
2015
2015
2014
2012
2011
2009
2007
2005
2003
2002
2000
1999
1998
1995
1993
1990
1989
1988
1988
1988
1988
1987
1987
1986
1986
1986
1986
1987
1987
1987
1987
1986
1986
1985
1985
1986
1986
1987
1988
1989
1988
1987
1986
1985
1985
1985
1985
1986
1987
1988
1988
1988
1987
1987
1986
1985
1985
1985
1986
1986
1987
1987
1988
1987
1986
1986
1985
1985
1986
1987
1987
1987
1986
1986
1986
1986
1986
1987
1987
1987
1987
1987
1987
1986
1986
1985
1985
1986
1987
1988
1988
1988
1988
1987
1986
1986
1986
1986
1987
1987
1987
1988
1988
1987
1987
1986
1986
1986
1986
1986
1986
1986
1986
1986
1985
1985
1985
1986
1986
1987
1987
1987
1986
1986
1986
1986
1986
1986
1986
1987
1987
1987
1986
1985
1984
1984
1984
1985
1985
1985
1985
1985
1985
1985
1985
1985
1985
1985
1985
1984
1984
1983
1983
1983
1983
1983
1984
1984
1984
1985
1985
1985
1985
1984
1983
1983
1983
1984
1984
1983
1983
1982
1981
1981
1980
1980
1980
1979
1979
1979
1979
1979
1979
1980
1979
1979
1979
1979
1979
1979
1979
1978
1979
1982
1989
2001
2015
2028
2034
2029
2014
1993
1973
1959
1952
1953
1958
1965
1972
1977
1980
1981
1981
1980
1979
1979
1979
1978
1979
1980
1981
1981
1981
1981
1980
1979
1979
1980
1981
1982
1983
1983
1982
1981
1981
1981
1982
1983
1984
1984
1984
1984
1984
1984
1984
1985
1986
1987
1988
1989
1989
1990
1990
1991
1992
1993
1994
1995
1996
1996
1995
1995
1996
1996
1995
1995
1994
1992
1990
1988
1986
1983
1981
1978
1975
1973
1972
1972
1972
1971
1970
1968
1967
1965
1964
1964
1964
1965
1965
1965
1965
1965
1965
1964
1964
1963
1963
1964
1964
1964
1965
1965
1964
1964
1963
1963
1963
1963
1963
1963
1963
1962
1962
1962
1961
1961
1961
1962
1962
1962
1962
1962
1961
1960
1960
1960
1961
1962
1963
1963
1962
1961
1960
1959
1958
1958
1959
1960
1960
1961
1961
1961
1961
1960
1960
1959
1959
1959
1959
1960
1960
1960
1960
1959
1959
1958
1958
1958
1959
1959
1959
1959
1959
1958
1958
1957
1957
1958
1959
1959
1959
1959
1958
1958
1957
1957
1958
1958
1959
1959
1959
1959
1958
1958
1958
1958
1958
1959
1959
1959
1959
1959
1959
1959
1958
1958
1957
1958
1959
1960
1961
1961
1960
1958
1958
1958
1959
1960
1961
1961
1960
1960
1959
1958
1957
1956
1956
1956
1957
1958
1958
1959
1959
1958
1958
1958
1958
1958
1959
1959
1959
1959
1959
1959
1962
1968
1980
1995
2011
2020
2019
2007
1986
1965
1947
1938
1936
1940
1947
1955
1961
1966
1967
1967
1967
1966
1967
1968
1969
1970
1970
1969
1969
1968
1968
1969
1971
1972
1973
1974
1974
1975
1975
1975
1974
1974
1974
1975
1976
1978
1979
1980
1980
1980
1979
1979
1980
1982
1984
1985
1987
1987
1987
1987
1987
1988
1989
1990
1992
1994
1995
1996
1996
1996
1996
1995
1994
1992
1991
1990
1988
1986
1984
1981
1978
1976
1975
1974
1974
1974
1973
1972
1971
1969
1968
1967
1968
1969
1971
1972
1972
1971
1971
1970
1970
1970
1971
1972
1973
1973
1973
1973
1973
1973
1973
1973
1973
1974
1974
1974
1975
1975
1975
1975
1975
1975
1974
1973
1973
1974
1975
1976
1976
1976
1976
1975
1975
1975
1975
1976
1976
1976
1977
1977
1977
1977
1976
1976
1976
1977
1978
1979
1979
1978
1977
1976
1976
1977
1978
1979
1979
1979
1979
1979
1978
1978
1978
1978
1979
1979
1980
1980
1980
1979
1979
1979
1980
1980
1980
1980
1980
1980
1980
1979
1979
1979
1979
1980
1980
1981
1981
1981
1981
1981
1981
1981
1981
1981
1981
1982
1982
1982
1982
1982
1982
1982
1982
1983
1983
1984
1984
1984
1984
1983
1983
1983
1984
1985
1985
1985
1986
1986
1985
1985
1984
1983
1982
1983
1983
1984
1985
1985
1985
1984
1983
1982
1982
1982
1983
1984
1984
1985
1985
1984
1982
1982
1981
1982
1985
1990
1999
2012
2027
2038
2041
2033
2016
1996
1977
1966
1961
1963
1969
1975
1981
1986
1989
1990
1990
1990
1990
1990
1990
1990
1990
1990
1990
1990
1991
1992
1992
1992
1992
1992
1992
1993
1993
1994
1995
1995
1997
1997
1997
1997
1996
1996
1996
1998
1999
2000
2001
2001
2001
2002
2002
2003
2004
2005
2006
2007
2008
2009
2009
2009
2009
2009
2010
2010
2011
2012
2012
2011
2009
2006
2004
2001
2000
1998
1997
1995
1993
1991
1989
1987
1986
1986
1985
1985
1985
1985
1984
1984
1983
1981
1981
1981
1982
1983
1985
1986
1985
1984
1983
1983
1983
1983
1984
1984
1984
1984
1984
1984
1984
1984
1984
1984
1983
1984
1984
1985
1985
1985
1985
1984
1983
1982
1982
1983
1984
1985
1985
1985
1984
1984
1983
1982
1982
1983
1984
1985
1985
1984
1984
1983
1983
1983
1984
1984
1985
1985
1984
1984
1984
1984
1984
1984
1984
1984
1985
1985
1985
1985
1984
1984
1984
1984
1984
1985
1985
1986
1986
1985
1985
1985
1984
1984
1984
1984
1985
1985
1986
1986
1987
1986
1986
1985
1984
1984
1984
1985
1986
1987
1987
1986
1985
1985
1985
1986
1987
1987
1987
1987
1986
1986
1985
1985
1986
1987
1988
1989
1989
1989
1988
1987
1986
1986
1985
1986
1986
1987
1988
1988
1988
1988
1987
1988
1989
1989
1990
1990
1990
1989
1988
1986
1986
1986
1986
1987
1987
1987
1987
1987
1987
1986
1985
1985
1984
1985
1986
1987
1987
1987
1986
1985
1984
1984
1986
1991
1999
2012
2026
2037
2041
2034
2017
1997
1978
1965
1961
1964
1970
1978
1984
1987
1989
1989
1989
1988
1989
1989
1989
1989
1989
1990
1990
1990
1990
1990
1991
1991
1992
1992
1991
1991
1990
1990
1990
1991
1993
1994
1994
1994
1993
1993
1992
1992
1993
1995
1996
1997
1998
1999
1999
1998
1998
1998
1999
2000
2001
2003
2004
2004
2004
2004
2004
2004
2004
2004
2004
2003
2002
2000
1998
1996
1993
1990
1988
1987
1985
1984
1983
1981
1979
1977
1975
1973
1972
1973
1973
1975
1975
1975
1975
1974
1972
1971
1971
1971
1972
1973
1974
1974
1973
1972
1971
1971
1971
1971
1972
1972
1972
1972
1972
1971
1971
1970
1969
1969
1970
1970
1971
1971
1971
1970
1969
1968
1968
1968
1969
1970
1970
1970
1969
1968
1967
1966
1966
1967
1968
1969
1969
1969
1968
1967
1967
1966
1967
1967
1967
1967
1967
1967
1967
1966
1967
1967
1967
1967
1967
1967
1967
1966
1966
1965
1965
1965
1964
1965
1965
1965
1965
1965
1965
1965
1965
1965
1965
1965
1965
1965
1965
1965
1965
1964
1964
1964
1964
1965
1965
1965
1965
1964
1964
1964
1964
1964
1964
1964
1964
1964
1964
1964
1964
1964
1963
1963
1963
1962
1963
1963
1964
1964
1964
1964
1963
1962
1962
1962
1963
1964
1965
1965
1964
1963
1962
1962
1963
1964
1963
1962
1962
1962
1962
1962
1962
1961
1960
1960
1960
1960
1960
1960
1960
1960
1960
1959
1959
1959
1959
1959
1959
1959
1958
1958
1960
1966
1978
1994
2009
2019
2019
2007
1987
1965
1948
1938
1935
1938
1944
1951
1956
1960
1963
1963
1963
1963
1963
1963
1963
1964
1964
1965
1965
1964
1964
1963
1963
1964
1965
1967
1967
1967
1967
1966
1966
1967
1967
1968
1968
1969
1969
1969
1969
1969
1969
1970
1971
1973
1974
1976
1977
1977
1978
1977
1977
1978
1978
1980
1981
1983
1984
1984
1985
1985
1984
1984
1984
1984
1983
1982
1980
1978
1975
1971
1969
1967
1966
1966
1966
1965
1963
1962
1960
1960
1959
1959
1959
1960
1960
1961
1961
1961
1961
1961
1961
1961
1961
1962
1963
1964
1964
1964
1964
1964
1964
1964
1965
1965
1966
1966
1966
1966
1966
1966
1966
1966
1967
1967
1968
1968
1968
1968
1967
1967
1967
1967
1967
1967
1968
1968
1968
1968
1969
1969
1969
1969
1970
1970
1971
1972
1973
1973
1972
1972
1971
1971
1972
1973
1974
1975
1976
1976
1975
1974
1974
1974
1974
1975
1977
1977
1977
1977
1977
1977
1977
1978
1977
1977
1977
1978
1979
1980
1980
1980
1979
1979
1979
1980
1981
1982
1982
1982
1982
1981
1981
1981
1982
1984
1985
1986
1986
1986
1985
1984
1983
1982
1982
1983
1984
1984
1984
1984
1983
1984
1984
1984
1985
1985
1986
1987
1987
1987
1987
1987
1986
1985
1984
1984
1986
1992
2003
2019
2035
2046
2047
2038
2019
1998
1979
1968
1964
1967
1973
1980
1986
1991
1994
1996
1996
1996
1996
1996
1996
1997
1997
1997
1997
1997
1997
1997
1997
1997
1998
1998
1998
1999
2000
2001
2002
2003
2004
2004
2004
2004
2003
2003
2004
2005
2006
2007
2008
2009
2009
2009
2009
2010
2011
2012
2014
2015
2015
2016
2016
2017
2018
2019
2018
2018
2017
2016
2015
2014
2013
2011
2008
2006
2003
2000
1998
1997
1996
1996
1995
1993
1991
1989
1988
1989
1989
1990
1991
1990
1990
1989
1988
1987
1987
1988
1989
1989
1990
1989
1988
1987
1987
1987
1988
1989
1990
1991
1991
1990
1989
1988
1987
1987
1988
1988
1989
1989
1989
1989
1988
1987
1987
1987
1987
1988
1989
1989
1990
1989
1988
1987
1986
1985
1985
1986
1987
1988
1988
1988
1988
1987
1987
1987
1987
1987
1988
1989
1989
1988
1987
1987
1986
1987
1987
1988
1988
1988
1988
1988
1988
1988
1988
1988
1988
1988
1988
1988
1987
1987
1988
1988
1988
1988
1989
1989
1989
1989
1989
1989
1990
1991
1991
1990
1989
1988
1987
1988
1989
1989
1989
1989
1988
1988
1988
1988
1988
1988
1988
1989
1989
1989
1988
1988
1987
1987
1988
1989
1989
1990
1989
1988
1987
1986
1986
1987
1988
1989
1989
1989
1988
1987
1986
1986
1986
1987
1987
1987
1987
1987
1987
1987
1987
1987
1987
1988
1989
1989
1990
1990
1989
1989
1988
1987
1987
1988
1988
1988
1988
1988
1987
1986
1985
1985
1985
1985
1985
1985
1986
1986
1985
1985
1985
1985
1986
1986
1986
1985
1984
1984
1986
1992
2002
2016
2030
2039
2038
2027
2008
1988
1972
1963
1962
1966
1973
1980
1986
1989
1991
1991
1990
1990
1989
1989
1989
1990
1990
1991
1991
1992
1992
1992
1992
1991
1991
1991
1992
1993
1993
1993
1993
1993
1993
1994
1994
1995
1996
1996
1996
1997
1997
1997
1997
1998
1998
1999
2000
2001
2003
2004
2004
2004
2003
2003
2003
2004
2005
2006
2007
2008
2008
2008
2007
2005
2004
2002
2001
2000
1998
1997
1994
1992
1989
1987
1986
1985
1985
1985
1985
1984
1983
1981
1980
1979
1978
1979
1979
1980
1980
1980
1980
1979
1978
1978
1978
1978
1979
1979
1979
1979
1978
1978
1978
1977
1977
1976
1977
1978
1978
1978
1977
1976
1975
1975
1976
1977
1978
1978
1977
1976
1975
1974
1974
1974
1975
1975
1976
1976
1976
1976
1975
1974
1974
1974
1974
1975
1975
1976
1976
1976
1976
1975
1975
1974
1974
1973
1973
1973
1973
1973
1974
1974
1974
1973
1973
1972
1973
1974
1974
1974
1974
1974
1973
1973
1973
1973
1973
1973
1973
1973
1973
1973
1973
1973
1973
1973
1974
1974
1974
1974
1974
1973
1972
1971
1971
1971
1972
1972
1973
1973
1973
1973
1972
1971
1971
1970
1970
1971
1971
1971
1971
1970
1970
1970
1970
1971
1971
1971
1971
1971
1970
1969
1969
1969
1969
1971
1971
1972
1971
1971
1970
1969
1969
1969
1970
1971
1972
1972
1972
1971
1970
1969
1969
1969
1969
1970
1971
1971
1972
1972
1971
1971
1970
1970
1970
1969
1969
1969
1968
1968
1967
1967
1966
1966
1966
1966
1966
1965
1965
1965
1964
1964
1965
1965
1965
1965
1964
1964
1964
1965
1968
1976
1988
2003
2016
2022
2017
2003
1982
1963
1948
1942
1941
1946
1953
1960
1965
1969
1970
1970
1969
1969
1969
1969
1970
1970
1970
1971
1971
1971
1971
1971
1971
1972
1972
1973
1973
1973
1973
1973
1972
1972
1972
1972
1973
1974
1975
1976
1977
1977
1977
1977
1976
1977
1978
1980
1982
1983
1984
1985
1985
1986
1986
1987
1986
1987
1987
1989
1990
1990
1990
1990
1989
1987
1986
1985
1984
1983
1981
1978
1976
1973
1970
1968
1967
1966
1966
1966
1965
1965
1964
1962
1961
1960
1961
1961
1962
1963
1963
1963
1963
1962
1962
1961
1961
1962
1963
1964
1965
1965
1965
1964
1963
1963
1963
1964
1964
1965
1966
1966
1965
1965
1964
1964
1964
1964
1964
1964
1964
1965
1965
1965
1965
1965
1965
1965
1966
1966
1966
1967
1967
1967
1966
1966
1966
1967
1967
1967
1968
1969
1969
1969
1969
1969
1969
1969
1970
1971
1971
1971
1971
1971
1970
1969
1969
1969
1970
1971
1972
1973
1973
1973
1972
1972
1972
1973
1973
1974
1975
1975
1975
1974
1973
1973
1974
1975
1976
1976
1976
1976
1976
1976
1976
1976
1976
1977
1978
1978
1979
1979
1979
1979
1978
1978
1978
1978
1978
1979
1980
1980
1980
1980
1980
1980
1979
1979
1979
1980
1980
1981
1982
1982
1982
1983
1983
1983
1984
1984
1983
1983
1982
1981
1981
1981
1981
1982
1983
1983
1983
1982
1981
1980
1980
1981
1982
1983
1984
1985
1985
1984
1983
1981
1980
1981
1984
1992
2004
2020
2034
2042
2038
2024
2004
1983
1968
1961
1961
1966
1973
1979
1984
1987
1989
1989
1989
1990
1990
1991
1991
1991
1991
1991
1991
1991
1992
1993
1994
1995
1995
1995
1994
1993
1993
1993
1994
1995
1997
1998
1999
1999
1999
1998
1997
1997
1999
2000
2002
2003
2004
2004
2004
2005
2005
2006
2006
2008
2009
2011
2011
2011
2011
2010
2011
2011
2012
2013
2012
2012
2011
2009
2006
2003
2001
1999
1997
1996
1995
1994
1993
1991
1990
1988
1987
1987
1987
1987
1987
1987
1987
1987
1987
1987
1987
1986
1986
1986
1987
1988
1989
1989
1989
1989
1988
1988
1987
1988
1988
1988
1988
1988
1987
1987
1987
1987
1987
1987
1987
1987
1987
1987
1987
1986
1986
1986
1986
1986
1986
1986
1986
1986
1985
1985
1985
1985
1985
1985
1985
1986
1987
1988
1988
1987
1986
1985
1985
1985
1985
1986
1986
1987
1987
1986
1986
1985
1985
1986
1987
1988
1988
1988
1987
1986
1986
1986
1986
1986
1986
1986
1987
1987
1986
1986
1985
1986
1986
1987
1987
1988
1988
1987
1987
1987
1987
1987
1988
1988
1988
1988
1988
1988
1988
1988
1987
1987
1987
1987
1987
1988
1988
1988
1988
1987
1988
1987
1987
1987
1987
1988
1988
1988
1988
1988
1988
1987
1987
1988
1988
1989
1989
1989
1989
1989
1988
1988
1988
1989
1989
1990
1990
1990
1989
1988
1987
1986
1986
1986
1987
1988
1988
1989
1988
1988
1987
1987
1987
1987
1987
1988
1989
1989
1988
1987
1986
1986
1986
1988
1993
2003
2017
2032
2042
2043
2033
2015
1994
1977
1967
1965
1969
1975
1982
1987
1990
1991
1992
1992
1992
1993
1993
1993
1993
1992
1992
1992
1992
1993
1994
1995
1996
1996
1995
1995
1994
1994
1995
1996
1997
1997
1998
1998
1999
1999
2000
2000
2000
2000
2001
2001
2002
2003
2003
2004
2004
2004
2005
2006
2007
2008
2009
2010
2010
2010
2010
2010
2011
2011
2012
2011
2011
2009
2007
2006
2005
2003
2002
2000
1997
1995
1992
1990
1989
1987
1986
1985
1984
1984
1985
1985
1985
1985
1984
1984
1983
1983
1982
1983
1983
1984
1985
1985
1985
1984
1983
1983
1982
1983
1983
1983
1984
1984
1983
1983
1982
1982
1982
1982
1983
1984
1983
1983
1982
1981
1981
1981
1981
1981
1981
1981
1981
1981
1981
1981
1981
1980
1980
1980
1980
1981
1982
1982
1982
1981
1979
1979
1978
1979
1980
1981
1981
1981
1981
1981
1980
1980
1979
1979
1979
1980
1980
1980
1979
1978
1978
1978
1978
1979
1979
1980
1980
1979
1978
1978
1978
1978
1979
1979
1979
1978
1978
1978
1978
1977
1977
1977
1978
1979
1979
1979
1978
1977
1976
1976
1976
1976
1977
1978
1978
1979
1979
1979
1978
1978
1978
1977
1977
1978
1978
1978
1978
1978
1977
1977
1976
1976
1977
1978
1979
1979
1979
1978
1977
1977
1977
1977
1978
1978
1979
1979
1978
1978
1977
1976
1975
1974
1974
1974
1975
1975
1975
1975
1974
1974
1974
1974
1974
1975
1975
1975
1974
1973
1972
1972
1974
1980
1991
2006
2020
2029
2027
2015
1996
1975
1959
1950
1948
1952
1958
1964
1970
1974
1976
1976
1975
1975
1975
1975
1976
1976
1976
1976
1976
1976
1976
1976
1976
1977
1977
1977
1978
1978
1977
1977
1976
1976
1977
1977
1979
1980
1980
1981
1981
1980
1981
1981
1982
1983
1984
1985
1985
1985
1985
1985
1985
1986
1987
1988
1989
1989
1990
1990
1989
1989
1988
1988
1988
1988
1988
1987
1985
1983
1980
1976
1974
1971
1969
1968
1967
1966
1966
1965
1964
1962
1960
1959
1959
1959
1960
1961
1962
1961
1960
1959
1958
1958
1958
1959
1960
1960
1960
1960
1959
1958
1957
1958
1959
1959
1960
1960
1959
1959
1959
1959
1958
1958
1957
1957
1957
1957
1958
1957
1957
1955
1954
1954
1954
1955
1955
1956
1955
1955
1955
1955
1955
1955
1955
1955
1955
1955
1955
1955
1955
1955
1955
1955
1955
1955
1955
1956
1956
1957
1957
1956
1955
1954
1954
1955
1956
1957
1958
1958
1957
1956
1955
1955
1955
1956
1957
1958
1959
1959
1959
1957
1956
1956
1957
1958
1959
1960
1960
1960
1959
1959
1959
1960
1960
1961
1962
1963
1963
1964
1964
1964
1963
1963
1963
1963
1964
1965
1966
1966
1965
1965
1964
1964
1964
1964
1965
1967
1967
1968
1967
1966
1966
1966
1966
1967
1968
1968
1968
1968
1967
1968
1971
1978
1992
2008
2023
2031
2027
2011
1990
1970
1955
1948
1948
1953
1959
1966
1972
1975
1977
1978
1978
1978
1979
1980
1981
1982
1982
1982
1982
1981
1981
1981
1982
1983
1985
1986
1987
1988
1988
1987
1987
1987
1987
1988
1989
1991
1993
1994
1993
1992
1992
1992
1993
1995
1997
1999
2001
2001
2002
2002
2002
2003
2005
2006
2008
2009
2010
2010
2010
2010
2009
2009
2008
2008
2006
2004
2002
1999
1997
1994
1992
1991
1990
1989
1988
1988
1987
1986
1985
1985
1984
1984
1983
1983
1984
1984
1985
1985
1985
1985
1985
1984
1985
1985
1985
1986
1986
1986
1986
1986
1985
1985
1984
1984
1985
1985
1986
1986
1986
1985
1985
1985
1985
1985
1986
1986
1985
1985
1984
1983
1982
1982
1983
1983
1984
1985
1985
1985
1985
1984
1984
1983
1983
1983
1984
1985
1985
1985
1985
1984
1984
1984
1984
1985
1985
1986
1986
1985
1985
1984
1984
1983
1983
1984
1984
1984
1985
1985
1985
1985
1984
1984
1984
1985
1985
1985
1985
1985
1985
1984
1984
1984
1984
1985
1985
1985
1985
1985
1985
1985
1985
1985
1985
1985
1985
1986
1986
1986
1986
1985
1985
1985
1985
1985
1985
1985
1985
1986
1986
1986
1985
1986
1986
1986
1987
1988
1989
1989
1989
1987
1985
1984
1984
1984
1985
1986
1986
1985
1985
1984
1984
1984
1985
1985
1985
1985
1985
1985
1985
1984
1983
1983
1982
1984
1989
1998
2012
2027
2038
2040
2030
2013
1992
1974
1963
1960
1963
1969
1976
1982
1986
1987
1988
1988
1988
1989
1989
1989
1989
1988
1988
1988
1989
1990
1990
1991
1991
1992
1992
1991
1991
1991
1991
1992
1993
1994
1994
1994
1993
1993
1993
1994
1995
1996
1998
2000
2000
2000
1999
1999
1999
2000
2000
2001
2003
2005
2006
2007
2007
2006
2006
2006
2007
2007
2007
2007
2006
2005
2004
2002
1999
1996
1994
1992
1991
1990
1989
1987
1985
1983
1981
1980
1979
1979
1980
1980
1981
1980
1979
1979
1978
1978
1979
1979
1980
1980
1980
1980
1979
1978
1978
1977
1978
1978
1979
1979
1979
1979
1978
1978
1978
1978
1977
1977
1977
1978
1978
1978
1978
1977
1976
1975
1975
1976
1977
1977
1978
1977
1976
1975
1974
1974
1974
1975
1976
1977
1977
1977
1976
1975
1974
1974
1974
1974
1975
1975
1975
1975
1974
1974
1975
1975
1975
1975
1975
1975
1974
1974
1974
1974
1973
1973
1973
1974
1974
1975
1975
1975
1975
1974
1973
1973
1973
1973
1973
1972
1972
1972
1973
1973
1973
1973
1973
1973
1973
1974
1974
1974
1973
1972
1972
1971
1972
1973
1974
1974
1974
1974
1974
1974
1973
1972
1972
1972
1972
1972
1972
1973
1972
1973
1973
1973
1974
1975
1975
1976
1975
1975
1974
1973
1972
1971
1971
1971
1971
1972
1972
1972
1971
1970
1969
1969
1969
1969
1970
1971
1971
1971
1970
1969
1969
1968
1969
1971
1975
1984
1997
2012
2025
2028
2020
2003
1981
1963
1951
1947
1948
1954
1960
1967
1972
1975
1975
1975
1974
1974
1975
1976
1976
1976
1975
1975
1975
1976
1977
1978
1978
1977
1977
1977
1978
1978
1979
1979
1979
1979
1980
1981
1981
1981
1982
1982
1982
1983
1984
1985
1986
1986
1987
1987
1987
1988
1989
1990
1992
1993
1994
1994
1995
1994
1994
1995
1995
1996
1996
1996
1996
1994
1993
1991
1988
1986
1983
1982
1980
1979
1977
1975
1973
1971
1970
1969
1969
1969
1968
1967
1967
1966
1966
1966
1966
1966
1966
1966
1966
1967
1967
1967
1966
1965
1965
1964
1964
1965
1966
1966
1967
1967
1966
1966
1966
1965
1964
1964
1964
1964
1965
1965
1965
1964
1963
1963
1962
1963
1963
1964
1965
1965
1964
1963
1963
1962
1963
1963
1964
1965
1965
1965
1964
1964
1963
1963
1963
1964
1964
1964
1965
1965
1964
1964
1963
1964
1964
1965
1966
1967
1967
1967
1966
1965
1965
1965
1966
1967
1967
1967
1968
1967
1967
1967
1967
1968
1968
1969
1970
1970
1970
1970
1970
1970
1970
1970
1970
1970
1971
1971
1972
1973
1973
1973
1973
1973
1973
1974
1975
1976
1977
1976
1975
1973
1972
1972
1973
1974
1974
1974
1973
1973
1972
1973
1973
1974
1975
1976
1977
1978
1977
1976
1975
1974
1974
1975
1978
1986
1999
2015
2031
2039
2035
2021
1999
1978
1962
1955
1955
1959
1965
1972
1978
1983
1985
1985
1985
1985
1985
1985
1986
1986
1987
1987
1988
1988
1989
1990
1991
1992
1992
1992
1992
1991
1991
1992
1992
1993
1994
1995
1995
1996
1996
1996
1996
1997
1998
1999
2000
2000
2001
2002
2003
2004
2004
2005
2005
2006
2006
2007
2008
2010
2011
2011
2011
2011
2010
2010
2010
2009
2008
2005
2002
1999
1997
1995
1993
1992
1992
1991
1991
1989
1988
1986
1984
1984
1983
1983
1984
1984
1985
1984
1984
1984
1984
1983
1984
1984
1985
1986
1987
1987
1986
1986
1985
1984
1984
1985
1986
1987
1988
1988
1987
1985
1984
1984
1985
1986
1987
1987
1987
1986
1985
1984
1984
1984
1985
1985
1986
1986
1985
1985
1986
1986
1986
1985
1985
1985
1985
1985
1985
1985
1985
1986
1986
1986
1986
1986
1986
1986
1986
1986
1986
1985
1985
1985
1985
1985
1985
1986
1987
1987
1987
1986
1985
1984
1984
1985
1985
1986
1987
1987
1987
1986
1985
1984
1984
1985
1986
1986
1987
1987
1987
1987
1986
1986
1985
1985
1986
1987
1988
1988
1987
1986
1986
1986
1987
1988
1989
1989
1990
1990
1989
1988
1987
1987
1988
1989
1989
1989
1988
1987
1987
1986
1986
1986
1987
1987
1988
1988
1987
1987
1987
1986
1986
1986
1986
1986
1986
1986
1985
1984
1984
1985
1990
1999
2012
2027
2039
2043
2034
2016
1994
1975
1963
1960
1964
1971
1979
1984
1988
1989
1989
1989
1988
1989
1989
1990
1991
1991
1991
1990
1989
1989
1989
1990
1991
1992
1993
1993
1994
1993
1993
1993
1993
1993
1993
1994
1995
1996
1996
1996
1996
1995
1995
1996
1997
1998
1999
2000
2000
2001
2001
2002
2002
2003
2003
2005
2006
2007
2008
2008
2007
2006
2005
2004
2004
2003
2002
2001
1999
1996
1993
1990
1988
1986
1984
1983
1983
1982
1982
1981
1980
1979
1978
1976
1975
1975
1975
1976
1977
1978
1978
1978
1977
1977
1977
1978
1978
1977
1977
1976
1976
1976
1976
1977
1977
1977
1977
1977
1977
1977
1977
1977
1976
1975
1975
1975
1976
1976
1976
1976
1975
1975
1975
1975
1976
1976
1976
1976
1976
1975
1974
1974
1973
1974
1974
1975
1976
1976
1976
1975
1974
1973
1973
1973
1974
1974
1974
1974
1973
1973
1973
1973
1973
1973
1973
1973
1973
1974
1974
1973
1973
1973
1972
1972
1973
1973
1973
1974
1974
1974
1973
1972
1972
1972
1972
1973
1974
1975
1975
1974
1973
1972
1972
1972
1973
1973
1974
1974
1975
1974
1974
1973
1972
1972
1972
1972
1973
1973
1973
1974
1974
1973
1973
1972
1972
1972
1972
1973
1973
1973
1973
1972
1972
1972
1972
1972
1973
1973
1973
1973
1973
1972
1972
1972
1972
1972
1972
1972
1973
1972
1972
1971
1971
1971
1971
1972
1973
1973
1973
1973
1972
1972
1971
1971
1972
1972
1972
1972
1971
1970
1969
1969
1968
1968
1968
1968
1969
1969
1969
1969
1969
1968
1968
1967
1968
1969
1970
1970
1969
1968
1967
1967
1970
1978
1990
2006
2020
2028
2025
2011
1990
1968
1952
1945
1945
1951
1958
1964
1969
1972
1973
1973
1973
1973
1973
1974
1974
1974
1974
1974
1973
1973
1973
1974
1975
1977
1978
1978
1977
1977
1977
1977
1977
1977
1977
1977
1978
1978
1979
1980
1980
1981
1981
1981
1982
1983
1984
1985
1986
1987
1987
1987
1987
1987
1988
1989
1991
1992
1993
1993
1993
1993
1993
1994
1993
1993
1992
1992
1990
1988
1985
1982
1979
1976
1975
1974
1974
1973
1973
1972
1970
1968
1966
1965
1965
1966
1967
1968
1969
1969
1968
1968
1967
1967
1968
1968
1969
1969
1970
1969
1969
1969
1969
1969
1969
1969
1969
1970
1970
1970
1970
1970
1969
1970
1970
1970
1971
1971
1971
1971
1970
1969
1969
1968
1969
1969
1970
1970
1970
1970
1970
1970
1970
1970
1970
1971
1971
1972
1972
1972
1971
1971
1970
1970
1970
1971
1972
1973
1973
1973
1972
1972
1972
1972
1973
1974
1974
1974
1973
1973
1973
1973
1973
1973
1973
1973
1974
1975
1975
1975
1976
1976
1976
1976
1976
1976
1976
1976
1977
1977
1977
1976
1975
1974
1975
1976
1978
1979
1979
1979
1978
1977
1976
1977
1977
1978
1979
1979
1979
1979
1979
1978
1977
1977
1978
1979
1980
1980
1980
1979
1978
1978
1979
1980
1981
1981
1981
1981
1981
1981
1981
1982
1982
1982
1982
1982
1983
1984
1985
1985
1985
1984
1982
1981
1981
1982
1983
1984
1985
1984
1983
1982
1981
1981
1981
1982
1983
1983
1983
1983
1983
1983
1984
1984
1983
1981
1981
1984
1991
2003
2019
2033
2040
2037
2024
2004
1983
1967
1959
1958
1961
1967
1973
1979
1983
1986
1987
1987
1986
1985
1984
1984
1984
1984
1985
1985
1985
1985
1985
1985
1985
1985
1985
1985
1985
1986
1987
1987
1987
1987
1987
1987
1987
1988
1988
1989
1991
1992
1993
1993
1994
1994
1995
1995
1995
1996
1997
1999
2001
2002
2003
2003
2003
2004
2004
2005
2006
2007
2007
2005
2003
2002
2000
1998
1997
1995
1993
1991
1989
1987
1985
1984
1982
1981
1980
1979
1979
1979
1979
1978
1978
1977
1976
1975
1975
1976
1977
1977
1977
1977
1977
1977
1977
1978
1978
1978
1978
1978
1977
1977
1976
1976
1977
1977
1976
1976
1977
1977
1977
1978
1977
1977
1976
1976
1976
1977
1978
1978
1978
1977
1977
1976
1976
1976
1976
1977
1978
1979
1979
1978
1977
1976
1976
1976
1977
1978
1979
1980
1980
1979
1979
1978
1977
1977
1978
1978
1979
1981
1981
1981
1980
1979
1978
1978
1979
1980
1981
1981
1981
1980
1979
1978
1978
1979
1980
1981
1982
1981
1981
1980
1980
1980
1980
1980
1980
1980
1980
1980
1980
1981
1981
1982
1982
1982
1982
1982
1981
1980
1980
1981
1981
1982
1982
1982
1982
1982
1982
1983
1983
1983
1983
1983
1983
1983
1983
1983
1982
1983
1983
1984
1984
1984
1983
1982
1982
1982
1983
1983
1984
1984
1983
1983
1983
1983
1983
1983
1984
1985
1986
1986
1986
1984
1983
1981
1981
1981
1982
1984
1984
1984
1983
1982
1981
1981
1981
1982
1983
1983
1983
1983
1983
1982
1982
1981
1981
1981
1982
1985
1992
2003
2017
2030
2037
2035
2021
2001
1981
1966
1959
1960
1965
1972
1978
1982
1984
1985
1986
1986
1987
1987
1987
1987
1986
1986
1986
1987
1988
1989
1989
1989
1989
1988
1988
1988
1989
1990
1991
1992
1992
1992
1992
1992
1992
1992
1993
1993
1994
1995
1995
1996
1997
1997
1997
1997
1997
1998
2000
2002
2003
2004
2003
2003
2003
2004
2005
2007
2008
2008
2007
2006
2005
2003
2002
2000
1998
1997
1995
1993
1992
1990
1988
1986
1984
1983
1982
1982
1982
1981
1980
1979
1979
1978
1979
1979
1979
1980
1980
1981
1981
1981
1980
1980
1980
1980
1980
1981
1981
1981
1981
1980
1980
1980
1980
1980
1980
1980
1980
1980
1980
1979
1979
1979
1979
1978
1979
1979
1980
1980
1979
1978
1978
1977
1977
1978
1979
1979
1980
1980
1980
1980
1979
1978
1978
1978
1978
1978
1979
1980
1980
1980
1979
1978
1977
1977
1978
1979
1980
1980
1980
1979
1979
1978
1978
1978
1979
1979
1980
1981
1981
1981
1980
1978
1977
1977
1977
1978
1979
1980
1980
1979
1979
1978
1978
1978
1977
1978
1979
1980
1981
1981
1980
1979
1978
1977
1977
1978
1979
1980
1980
1980
1979
1979
1979
1979
1979
1980
1980
1980
1979
1978
1978
1978
1978
1978
1978
1979
1979
1979
1979
1979
1979
1979
1979
1979
1979
1979
1979
1979
1979
1979
1979
1978
1978
1978
1978
1979
1979
1979
1979
1978
1978
1978
1978
1978
1979
1979
1980
1981
1981
1981
1980
1979
1978
1977
1977
1977
1977
1978
1978
1978
1977
1976
1976
1975
1976
1976
1977
1978
1978
1977
1976
1975
1974
1974
1976
1980
1988
2001
2015
2026
2031
2025
2009
1989
1970
1957
1952
1953
1958
1965
1971
1975
1978
1978
1978
1978
1978
1978
1979
1978
1978
1977
1976
1976
1977
1978
1979
1980
1980
1980
1980
1980
1980
1980
1980
1980
1981
1982
1982
1982
1981
1981
1981
1982
1984
1985
1985
1985
1985
1986
1986
1987
1988
1989
1989
1990
1991
1991
1992
1992
1993
1993
1993
1994
1994
1994
1994
1994
1993
1991
1989
1987
1985
1983
1981
1979
1978
1976
1975
1973
1972
1970
1968
1967
1966
1965
1965
1966
1966
1966
1966
1965
1964
1963
1963
1964
1965
1966
1966
1967
1966
1965
1965
1965
1965
1966
1967
1966
1966
1965
1964
1964
1964
1963
1963
1964
1964
1965
1965
1964
1963
1963
1962
1962
1962
1963
1964
1964
1964
1963
1962
1961
1961
1961
1961
1961
1962
1963
1964
1964
1964
1963
1962
1961
1962
1963
1964
1964
1964
1964
1963
1963
1963
1963
1963
1963
1964
1964
1965
1965
1964
1963
1963
1963
1963
1964
1965
1965
1964
1964
1964
1964
1964
1964
1964
1964
1964
1965
1965
1965
1964
1964
1964
1965
1966
1966
1967
1967
1967
1967
1966
1966
1966
1966
1967
1968
1969
1969
1969
1969
1968
1968
1968
1968
1969
1970
1971
1972
1972
1972
1972
1971
1972
1972
1973
1974
1974
1974
1974
1973
1972
1972
1972
1972
1972
1973
1973
1973
1973
1974
1974
1974
1973
1974
1974
1975
1975
1975
1974
1973
1973
1973
1975
1981
1992
2007
2023
2034
2035
2025
2006
1985
1967
1956
1953
1954
1960
1968
1975
1980
1983
1984
1984
1983
1983
1984
1985
1986
1986
1987
1987
1987
1986
1986
