2034
2034
2035
2035
2036
2036
2036
2036
2036
2036
2036
2036
2036
2035
2035
2035
2036
2038
2038
2038
2038
2036
2035
2035
2035
2036
2036
2036
2035
2035
2035
2035
2035
2036
2036
2036
2036
2036
2035
2035
2034
2035
2035
2035
2035
2034
2034
2035
2036
2038
2039
2038
2036
2034
2033
2034
2034
2035
2036
2035
2035
2035
2035
2035
2035
2036
2036
2036
2036
2036
2036
2036
2036
2037
2036
2035
2034
2033
2034
2037
2039
2041
2040
2038
2036
2035
2035
2036
2035
2036
2036
2036
2036
2036
2036
2036
2036
2036
2036
2036
2036
2036
2036
2037
2036
2037
2037
2036
2036
2036
2037
2038
2040
2040
2039
2037
2036
2035
2036
2036
2037
2037
2037
2038
2038
2038
2038
2038
2037
2037
2037
2037
2038
2038
2037
2039
2039
2041
2038
2035
2033
2032
2037
2042
2046
2046
2041
2036
2033
2034
2034
2037
2037
2036
2037
2037
2037
2038
2037
2037
2036
2037
2037
2039
2040
2041
2043
2043
2043
2041
2040
2038
2038
2039
2040
2041
2040
2038
2037
2035
2036
2036
2036
2037
2037
2038
2037
2036
2035
2035
2040
2048
2057
2066
2070
2066
2053
2037
2016
1999
1989
1989
1998
2013
2029
2040
2045
2045
2042
2039
2039
2039
2041
2043
2044
2045
2045
2044
2043
2043
2043
2044
2045
2045
2045
2046
2046
2046
2046
2047
2048
2048
2048
2048
2048
2048
2051
2053
2054
2054
2053
2053
2053
2055
2056
2057
2058
2059
2059
2060
2062
2062
2063
2065
2066
2067
2067
2067
2067
2067
2069
2067
2067
2066
2065
2065
2065
2065
2063
2060
2056
2053
2050
2048
2048
2046
2043
2042
2040
2038
2037
2036
2035
2035
2035
2034
2034
2034
2034
2034
2032
2034
2034
2034
2034
2033
2032
2033
2035
2037
2038
2037
2036
2034
2033
2034
2035
2035
2035
2035
2035
2035
2035
2035
2035
2036
2036
2035
2035
2035
2035
2036
2036
2036
2036
2035
2034
2033
2034
2036
2038
2039
2038
2037
2035
2034
2034
2034
2034
2034
2034
2034
2034
2034
2034
2035
2035
2035
2035
2034
2034
2034
2034
2034
2034
2035
2035
2033
2032
2032
2033
2036
2038
2039
2038
2036
2035
2033
2034
2034
2034
2034
2035
2035
2035
2035
2035
2035
2035
2035
2034
2035
2035
2035
2034
2036
2037
2036
2035
2033
2033
2035
2038
2041
2041
2039
2037
2035
2033
2036
2035
2035
2036
2036
2036
2036
2037
2036
2037
2036
2036
2036
2036
2036
2037
2037
2039
2038
2038
2035
2033
2033
2035
2039
2043
2044
2042
2039
2036
2035
2035
2035
2037
2036
2036
2037
2037
2037
2037
2037
2036
2036
2037
2037
2037
2038
2038
2038
2038
2038
2037
2036
2036
2037
2039
2041
2042
2041
2039
2038
2038
2039
2040
2041
2042
2043
2043
2042
2040
2038
2037
2037
2036
2038
2037
2038
2037
2037
2037
2038
2038
2037
2036
2034
2035
2037
2041
2048
2056
2065
2069
2069
2062
2049
2031
2011
1996
1989
1993
2005
2019
2033
2040
2043
2042
2042
2042
2043
2043
2043
2044
2044
2044
2044
2043
2044
2046
2048
2048
2048
2047
2046
2045
2046
2047
2048
2048
2048
2048
2048
2049
2050
2051
2052
2053
2054
2054
2055
2055
2056
2055
2057
2059
2059
2060
2060
2061
2063
2066
2069
2070
2070
2069
2068
2067
2068
2068
2069
2069
2069
2068
2067
2066
2064
2063
2062
2060
2057
2054
2051
2048
2047
2045
2044
2041
2040
2038
2036
2036
2037
2039
2040
2038
2037
2035
2033
2033
2034
2034
2035
2034
2034
2034
2034
2035
2036
2036
2036
2036
2036
2036
2036
2036
2037
2037
2038
2038
2037
2037
2036
2037
2039
2040
2041
2040
2038
2038
2037
2037
2038
2039
2039
2038
2036
2035
2035
2036
2040
2042
2042
2040
2037
2035
2035
2035
2038
2038
2037
2035
2034
2034
2035
2039
2042
2044
2043
2040
2037
2034
2036
2036
2036
2036
2036
2037
2037
2037
2037
2037
2037
2037
2037
2037
2037
2038
2038
2039
2039
2038
2037
2036
2036
2038
2040
2042
2042
2041
2039
2038
2037
2037
2037
2038
2039
2039
2039
2039
2039
2039
2039
2039
2039
2039
2039
2040
2040
2039
2039
2040
2039
2039
2037
2036
2037
2041
2044
2046
2046
2043
2039
2038
2037
2039
2038
2039
2039
2040
2042
2042
2042
2041
2040
2040
2039
2041
2041
2041
2041
2041
2041
2041
2040
2040
2040
2039
2041
2043
2044
2045
2045
2045
2044
2046
2045
2045
2045
2044
2043
2041
2041
2041
2041
2041
2041
2040
2040
2040
2040
2040
2040
2041
2040
2040
2037
2036
2039
2047
2059
2073
2082
2081
2068
2047
2021
1998
1984
1981
1989
2004
2021
2035
2042
2045
2045
2045
2045
2046
2047
2047
2047
2046
2048
2048
2048
2048
2048
2048
2049
2050
2053
2054
2053
2051
2050
2049
2051
2052
2053
2053
2054
2054
2054
2055
2056
2056
2057
2058
2059
2060
2061
2061
2062
2063
2065
2065
2066
2066
2066
2068
2070
2073
2075
2075
2074
2073
2072
2072
2072
2071
2071
2070
2069
2067
2066
2064
2061
2059
2056
2054
2051
2049
2047
2045
2044
2041
2040
2039
2037
2036
2035
2036
2038
2039
2040
2039
2037
2036
2035
2035
2035
2036
2036
2036
2036
2036
2037
2037
2037
2037
2037
2037
2037
2037
2038
2037
2040
2040
2040
2038
2036
2036
2037
2040
2043
2045
2043
2040
2038
2036
2037
2037
2037
2037
2037
2037
2037
2038
2037
2037
2037
2036
2036
2036
2036
2036
2036
2037
2036
2036
2035
2034
2034
2035
2037
2039
2040
2039
2037
2036
2034
2035
2035
2036
2036
2036
2037
2036
2036
2036
2035
2036
2036
2036
2036
2037
2036
2036
2037
2036
2036
2035
2034
2034
2035
2037
2040
2040
2040
2038
2036
2034
2035
2036
2035
2036
2036
2036
2036
2036
2037
2036
2036
2035
2035
2036
2037
2037
2037
2037
2037
2037
2037
2036
2035
2035
2036
2038
2039
2039
2038
2037
2036
2036
2036
2037
2037
2037
2037
2037
2037
2037
2037
2037
2037
2036
2037
2038
2040
2041
2042
2043
2042
2042
2040
2039
2039
2039
2040
2040
2040
2039
2037
2036
2035
2036
2036
2037
2037
2037
2037
2037
2036
2035
2036
2042
2051
2062
2070
2071
2064
2048
2029
2009
1992
1985
1987
1999
2016
2032
2043
2047
2046
2043
2041
2040
2042
2043
2044
2045
2045
2045
2045
2045
2045
2045
2046
2047
2047
2047
2046
2046
2047
2048
2048
2048
2048
2048
2048
2049
2051
2055
2057
2056
2056
2055
2054
2055
2057
2057
2059
2059
2061
2062
2063
2064
2065
2067
2068
2068
2069
2069
2069
2070
2071
2070
2070
2069
2068
2067
2066
2067
2066
2065
2063
2058
2054
2050
2048
2045
2043
2042
2039
2038
2037
2036
2036
2035
2034
2033
2033
2033
2033
2032
2031
2032
2034
2033
2035
2032
2029
2027
2028
2033
2039
2043
2043
2039
2034
2030
2032
2032
2035
2035
2035
2035
2035
2035
2036
2036
2036
2036
2036
2036
2036
2036
2035
2037
2036
2036
2034
2033
2032
2033
2035
2037
2038
2038
2036
2034
2033
2033
2034
2035
2035
2034
2033
2032
2032
2032
2034
2036
2036
2036
2036
2036
2035
2035
2035
2035
2035
2034
2032
2031
2032
2035
2038
2041
2041
2039
2035
2033
2032
2033
2035
2034
2034
2033
2033
2034
2035
2036
2036
2035
2035
2034
2034
2035
2035
2034
2034
2035
2034
2033
2033
2033
2035
2038
2041
2041
2039
2036
2034
2033
2034
2035
2036
2035
2035
2035
2035
2036
2036
2036
2036
2036
2036
2036
2036
2035
2037
2037
2036
2035
2034
2034
2036
2039
2041
2040
2038
2036
2035
2034
2036
2037
2036
2036
2037
2036
2036
2036
2036
2036
2036
2037
2038
2038
2038
2037
2037
2035
2036
2036
2037
2037
2036
2036
2037
2038
2040
2041
2040
2039
2038
2038
2040
2042
2042
2042
2041
2040
2039
2039
2039
2039
2038
2038
2037
2037
2037
2037
2037
2036
2038
2037
2037
2035
2032
2031
2033
2039
2048
2057
2065
2068
2068
2060
2048
2030
2011
1995
1987
1990
2002
2016
2030
2038
2041
2040
2039
2039
2040
2041
2042
2043
2044
2044
2043
2041
2041
2043
2047
2050
2051
2048
2046
2044
2043
2045
2047
2048
2048
2048
2048
2048
2049
2049
2050
2050
2051
2052
2053
2054
2055
2054
2057
2058
2059
2058
2056
2056
2058
2064
2070
2074
2073
2069
2066
2063
2064
2066
2068
2067
2066
2066
2066
2066
2065
2063
2061
2059
2056
2054
2051
2049
2047
2046
2044
2042
2038
2035
2033
2034
2037
2039
2040
2039
2036
2033
2031
2031
2032
2033
2033
2033
2033
2033
2034
2034
2034
2034
2034
2034
2034
2035
2035
2035
2036
2035
2036
2034
2032
2031
2033
2037
2041
2044
2043
2039
2036
2034
2033
2034
2038
2037
2036
2035
2035
2035
2036
2037
2038
2037
2036
2036
2036
2035
2036
2036
2036
2036
2035
2033
2032
2033
2036
2040
2042
2042
2039
2036
2033
2034
2035
2036
2037
2036
2036
2036
2036
2036
2036
2036
2037
2037
2037
2037
2037
2035
2036
2037
2036
2035
2034
2034
2036
2039
2042
2042
2040
2037
2035
2035
2035
2038
2037
2037
2038
2037
2037
2037
2037
2038
2038
2038
2038
2038
2038
2038
2038
2038
2038
2038
2038
2038
2038
2039
2039
2040
2042
2043
2043
2043
2040
2039
2037
2037
2036
2037
2037
2037
2037
2038
2038
2038
2039
2040
2039
2039
2039
2039
2039
2039
2040
2039
2039
2038
2038
2038
2039
2041
2042
2042
2042
2041
2039
2039
2039
2038
2039
2038
2039
2041
2043
2044
2045
2046
2045
2044
2043
2042
2041
2040
2039
2040
2041
2040
2039
2037
2035
2036
2040
2043
2045
2045
2042
2038
2036
2037
2042
2051
2063
2074
2078
2072
2056
2033
2009
1990
1982
1985
1997
2013
2029
2039
2046
2047
2046
2044
2041
2040
2042
2046
2049
2051
2050
2048
2048
2046
2048
2048
2048
2048
2049
2049
2050
2050
2051
2051
2051
2051
2052
2052
2053
2054
2055
2056
2057
2057
2057
2057
2057
2058
2060
2063
2065
2066
2066
2066
2066
2067
2068
2069
2070
2071
2072
2072
2073
2073
2073
2073
2072
2072
2071
2071
2070
2068
2066
2064
2061
2058
2054
2051
2050
2049
2049
2048
2046
2043
2040
2038
2038
2038
2037
2038
2037
2037
2037
2036
2036
2037
2037
2038
2039
2038
2038
2038
2037
2038
2037
2038
2038
2037
2037
2037
2039
2040
2042
2042
2041
2039
2038
2038
2039
2040
2040
2040
2040
2040
2040
2040
2039
2039
2039
2039
2040
2039
2039
2039
2037
2039
2038
2037
2037
2037
2037
2039
2040
2040
2040
2038
2037
2037
2036
2038
2038
2038
2038
2037
2037
2037
2037
2037
2038
2038
2038
2037
2037
2037
2037
2037
2038
2038
2037
2037
2036
2036
2038
2040
2043
2043
2042
2040
2038
2037
2037
2038
2038
2038
2038
2038
2038
2038
2038
2038
2038
2038
2038
2039
2039
2038
2039
2038
2038
2037
2038
2038
2039
2041
2044
2046
2047
2046
2044
2041
2039
2039
2039
2037
2038
2038
2038
2037
2037
2038
2038
2038
2038
2038
2038
2038
2038
2036
2036
2039
2047
2057
2066
2072
2070
2061
2045
2024
2003
1987
1982
1988
2003
2021
2035
2042
2043
2043
2043
2043
2044
2046
2046
2046
2047
2046
2047
2046
2047
2046
2048
2050
2049
2048
2047
2046
2048
2051
2055
2056
2055
2053
2051
2051
2052
2055
2056
2055
2054
2054
2055
2058
2062
2065
2066
2065
2063
2063
2064
2066
2068
2070
2071
2072
2072
2072
2073
2073
2075
2076
2077
2076
2075
2073
2070
2069
2067
2065
2063
2060
2058
2055
2052
2048
2046
2045
2042
2041
2040
2040
2039
2038
2038
2037
2036
2035
2034
2034
2034
2035
2037
2038
2037
2037
2035
2035
2035
2035
2035
2037
2037
2037
2037
2036
2036
2037
2037
2038
2039
2039
2038
2038
2038
2038
2038
2039
2038
2037
2037
2036
2038
2039
2041
2041
2040
2038
2037
2036
2036
2037
2037
2037
2036
2036
2035
2036
2035
2036
2036
2036
2036
2036
2036
2035
2034
2036
2035
2035
2034
2034
2035
2036
2038
2038
2037
2036
2035
2035
2034
2036
2036
2036
2036
2036
2035
2035
2035
2035
2036
2036
2036
2036
2036
2035
2036
2035
2036
2036
2036
2036
2036
2035
2036
2037
2038
2039
2039
2038
2037
2036
2036
2036
2036
2037
2037
2036
2036
2036
2036
2036
2036
2037
2036
2036
2036
2036
2036
2037
2038
2037
2037
2035
2033
2034
2036
2038
2040
2040
2039
2037
2036
2036
2037
2036
2036
2035
2035
2036
2037
2038
2040
2042
2042
2042
2042
2040
2039
2038
2038
2037
2038
2038
2037
2036
2035
2036
2037
2039
2040
2039
2039
2038
2036
2035
2034
2036
2041
2049
2060
2068
2070
2063
2050
2033
2013
1998
1991
1993
2004
2018
2033
2041
2043
2041
2038
2037
2039
2043
2047
2048
2048
2047
2045
2042
2044
2044
2044
2045
2045
2046
2046
2047
2047
2047
2048
2048
2048
2048
2048
2049
2049
2051
2051
2051
2050
2050
2051
2053
2057
2059
2061
2060
2059
2058
2058
2061
2062
2063
2064
2065
2066
2067
2068
2068
2068
2069
2068
2068
2068
2068
2067
2066
2065
2065
2061
2058
2053
2049
2048
2048
2050
2050
2048
2044
2040
2037
2034
2036
2034
2035
2035
2036
2035
2035
2034
2034
2034
2035
2036
2037
2036
2036
2035
2036
2035
2036
2036
2035
2035
2035
2037
2039
2040
2039
2038
2037
2036
2036
2037
2038
2039
2039
2039
2039
2039
2039
2039
2039
2039
2039
2039
2039
2039
2039
2038
2039
2038
2038
2038
2037
2038
2039
2041
2041
2041
2040
2038
2037
2037
2039
2040
2040
2039
2039
2038
2039
2039
2040
2040
2041
2041
2041
2041
2041
2041
2040
2041
2041
2042
2042
2041
2041
2041
2043
2045
2046
2046
2044
2043
2042
2042
2043
2044
2044
2045
2045
2045
2045
2045
2045
2045
2045
2045
2045
2046
2047
2049
2050
2052
2051
2051
2048
2047
2047
2047
2048
2049
2049
2048
2046
2046
2045
2046
2045
2046
2045
2045
2045
2046
2046
2045
2044
2044
2047
2056
2069
2082
2088
2083
2063
2036
2006
1983
1973
1977
1993
2014
2033
2046
2050
2050
2048
2048
2048
2049
2051
2051
2051
2052
2052
2053
2053
2054
2054
2054
2054
2054
2055
2055
2054
2056
2056
2058
2056
2054
2052
2053
2057
2063
2068
2069
2066
2063
2060
2062
2064
2068
2070
2071
2073
2074
2076
2077
2078
2079
2080
2081
2082
2083
2084
2084
2085
2085
2085
2084
2082
2081
2079
2080
2079
2078
2076
2072
2067
2063
2061
2058
2057
2055
2053
2051
2049
2048
2048
2047
2046
2045
2045
2044
2045
2044
2044
2044
2044
2044
2043
2042
2042
2043
2045
2047
2048
2047
2046
2044
2044
2045
2045
2046
2046
2046
2046
2048
2047
2047
2047
2046
2047
2048
2048
2048
2048
2048
2047
2046
2046
2046
2044
2043
2043
2044
2045
2047
2046
2045
2045
2044
2045
2045
2046
2046
2046
2046
2045
2045
2045
2045
2045
2046
2046
2046
2045
2045
2045
2043
2045
2044
2044
2044
2043
2043
2044
2046
2046
2046
2044
2043
2042
2042
2044
2044
2044
2044
2043
2042
2042
2041
2042
2044
2046
2047
2048
2048
2048
2046
2042
2041
2041
2043
2045
2045
2044
2042
2042
2042
2042
2042
2041
2039
2039
2040
2041
2041
2040
2039
2038
2041
2048
2060
2071
2077
2074
2059
2038
2013
1992
1980
1980
1992
2007
2024
2036
2042
2045
2046
2048
2049
2050
2049
2048
2048
2048
2049
2048
2049
2049
2050
2050
2050
2050
2051
2052
2052
2052
2052
2052
2053
2053
2054
2054
2055
2056
2055
2055
2056
2059
2062
2064
2065
2064
2063
2062
2062
2064
2065
2067
2068
2069
2071
2072
2073
2074
2074
2075
2075
2075
2075
2074
2074
2073
2074
2073
2071
2066
2060
2055
2053
2055
2058
2059
2057
2050
2043
2038
2037
2036
2038
2038
2037
2036
2036
2036
2036
2036
2035
2035
2035
2035
2035
2036
2036
2037
2037
2037
2036
2036
2035
2035
2037
2038
2039
2039
2038
2038
2036
2037
2037
2038
2038
2038
2038
2038
2037
2037
2037
2037
2036
2036
2036
2037
2037
2036
2037
2036
2036
2035
2034
2033
2034
2035
2037
2038
2038
2037
2035
2035
2035
2035
2036
2036
2036
2036
2036
2035
2036
2036
2035
2035
2035
2035
2036
2036
2037
2037
2036
2035
2035
2034
2034
2034
2036
2038
2040
2040
2039
2037
2036
2035
2037
2037
2038
2038
2037
2037
2037
2038
2037
2038
2038
2038
2038
2038
2039
2038
2038
2039
2039
2039
2038
2038
2037
2038
2040
2041
2041
2040
2039
2037
2037
2037
2038
2038
2040
2041
2042
2044
2044
2044
2043
2042
2041
2040
2039
2038
2038
2037
2038
2038
2038
2038
2037
2036
2036
2037
2040
2041
2040
2037
2035
2036
2043
2054
2065
2072
2070
2059
2041
2020
1999
1986
1983
1991
2005
2021
2033
2040
2042
2041
2042
2041
2041
2041
2040
2041
2043
2046
2048
2048
2048
2047
2046
2046
2046
2046
2046
2046
2047
2047
2048
2048
2048
2049
2050
2051
2051
2051
2052
2053
2053
2054
2055
2056
2056
2056
2056
2058
2060
2063
2065
2065
2065
2064
2064
2065
2066
2067
2067
2068
2068
2068
2069
2068
2068
2066
2065
2064
2062
2061
2059
2056
2055
2052
2050
2047
2042
2039
2038
2040
2043
2046
2044
2040
2036
2032
2033
2033
2033
2035
2034
2035
2035
2035
2036
2036
2035
2035
2035
2035
2036
2036
2036
2037
2037
2037
2035
2033
2033
2035
2038
2041
2041
2040
2038
2036
2035
2035
2036
2036
2036
2037
2037
2037
2037
2037
2036
2036
2036
2035
2035
2035
2036
2037
2038
2038
2037
2035
2034
2033
2034
2036
2038
2039
2038
2036
2035
2034
2035
2035
2035
2036
2036
2037
2037
2037
2037
2037
2037
2037
2037
2037
2037
2038
2038
2040
2039
2039
2038
2037
2037
2037
2038
2040
2041
2041
2040
2039
2037
2037
2037
2038
2039
2039
2040
2039
2039
2040
2040
2040
2040
2040
2040
2040
2040
2040
2040
2041
2040
2040
2039
2039
2040
2041
2043
2044
2043
2042
2040
2040
2039
2041
2041
2041
2041
2041
2041
2041
2040
2041
2042
2043
2045
2046
2047
2047
2046
2045
2045
2044
2043
2042
2041
2041
2041
2042
2043
2043
2041
2040
2039
2039
2040
2042
2042
2041
2040
2038
2038
2043
2051
2062
2071
2074
2068
2055
2036
2015
1999
1990
1993
2003
2018
2031
2039
2042
2043
2045
2046
2047
2047
2046
2046
2045
2046
2046
2047
2047
2048
2048
2048
2048
2048
2048
2048
2049
2050
2050
2050
2050
2051
2052
2052
2053
2053
2053
2053
2055
2057
2059
2061
2060
2060
2060
2060
2061
2062
2064
2064
2066
2067
2068
2069
2070
2071
2071
2071
2072
2072
2072
2072
2072
2074
2073
2074
2071
2066
2062
2060
2061
2064
2067
2065
2059
2052
2047
2046
2045
2046
2046
2045
2045
2044
2044
2043
2043
2043
2042
2042
2042
2042
2043
2042
2044
2044
2045
2044
2043
2042
2042
2044
2046
2047
2048
2047
2047
2044
2043
2042
2043
2046
2049
2051
2051
2048
2045
2043
2043
2044
2046
2046
2046
2046
2046
2046
2046
2046
2045
2044
2044
2044
2046
2048
2048
2048
2047
2045
2045
2045
2046
2047
2047
2047
2046
2046
2046
2046
2045
2045
2046
2047
2047
2046
2045
2045
2045
2046
2048
2047
2046
2045
2044
2045
2046
2048
2048
2047
2046
2045
2045
2045
2046
2046
2046
2046
2046
2045
2045
2045
2046
2046
2046
2046
2045
2045
2044
2044
2046
2045
2045
2044
2044
2044
2045
2046
2047
2046
2046
2046
2046
2048
2050
2050
2050
2049
2048
2047
2047
2046
2045
2044
2044
2044
2043
2043
2043
2043
2042
2043
2043
2043
2043
2041
2041
2041
2041
2045
2049
2058
2067
2075
2078
2073
2058
2037
2014
1995
1987
1991
2004
2020
2035
2044
2047
2046
2045
2045
2045
2046
2048
2048
2048
2048
2047
2046
2047
2048
2051
2053
2053
2051
2049
2048
2049
2050
2050
2051
2051
2051
2051
2052
2053
2053
2055
2055
2056
2056
2056
2057
2057
2059
2060
2061
2062
2062
2062
2063
2065
2068
2070
2071
2070
2069
2068
2068
2069
2069
2070
2069
2069
2069
2068
2068
2067
2065
2063
2060
2058
2056
2054
2052
2049
2050
2048
2047
2044
2040
2038
2039
2043
2046
2046
2044
2041
2038
2036
2038
2039
2039
2039
2039
2040
2040
2041
2041
2041
2040
2040
2040
2041
2041
2041
2041
2042
2041
2041
2040
2039
2038
2039
2041
2043
2044
2043
2042
2040
2039
2039
2039
2040
2040
2040
2041
2040
2040
2040
2040
2040
2040
2040
2040
2041
2041
2040
2040
2041
2040
2039
2037
2037
2037
2039
2042
2044
2044
2042
2040
2039
2038
2039
2039
2040
2040
2040
2041
2041
2040
2039
2039
2039
2039
2039
2040
2040
2040
2040
2039
2040
2040
2041
2041
2040
2040
2041
2042
2043
2043
2042
2040
2040
2040
2041
2041
2041
2041
2041
2041
2041
2041
2041
2042
2042
2042
2042
2041
2041
2041
2043
2044
2046
2046
2046
2046
2046
2047
2047
2046
2044
2042
2040
2039
2040
2040
2041
2040
2040
2040
2040
2040
2040
2040
2040
2040
2039
2038
2040
2047
2056
2068
2077
2077
2066
2045
2020
1997
1984
1984
1994
2010
2025
2036
2041
2043
2043
2044
2044
2044
2045
2045
2045
2046
2047
2047
2048
2047
2047
2048
2048
2048
2048
2049
2049
2048
2048
2047
2048
2049
2052
2054
2055
2055
2054
2053
2053
2055
2055
2056
2057
2058
2058
2059
2060
2061
2062
2063
2064
2064
2065
2065
2066
2068
2068
2068
2068
2065
2064
2064
2067
2071
2074
2074
2070
2065
2062
2058
2057
2056
2055
2052
2049
2048
2046
2044
2043
2041
2040
2039
2038
2038
2038
2037
2036
2038
2038
2040
2038
2035
2033
2033
2037
2042
2047
2047
2044
2038
2034
2034
2035
2037
2039
2038
2039
2039
2039
2039
2039
2039
2039
2039
2039
2039
2039
2038
2040
2040
2039
2037
2035
2034
2035
2039
2043
2045
2044
2040
2036
2033
2035
2036
2037
2038
2037
2037
2036
2037
2037
2037
2037
2037
2037
2037
2037
2037
2037
2038
2038
2039
2038
2036
2035
2035
2036
2039
2042
2043
2041
2038
2036
2034
2035
2036
2037
2037
2037
2037
2037
2037
2037
2037
2037
2037
2038
2037
2038
2037
2037
2036
2036
2036
2035
2035
2036
2039
2041
2043
2042
2040
2038
2036
2036
2036
2037
2038
2038
2038
2038
2038
2038
2037
2037
2038
2038
2039
2039
2039
2039
2038
2038
2038
2039
2037
2036
2035
2036
2039
2042
2043
2042
2040
2037
2035
2036
2037
2039
2039
2040
2041
2042
2043
2043
2042
2041
2040
2039
2039
2038
2038
2037
2037
2037
2036
2036
2036
2035
2036
2038
2040
2040
2039
2036
2035
2037
2044
2054
2064
2070
2070
2059
2042
2020
1999
1987
1983
1992
2007
2023
2033
2037
2037
2037
2042
2046
2048
2047
2042
2038
2038
2043
2048
2050
2048
2046
2044
2043
2044
2044
2045
2045
2046
2046
2047
2048
2048
2048
2048
2048
2048
2049
2049
2050
2051
2053
2054
2054
2053
2052
2052
2054
2058
2062
2064
2064
2062
2060
2059
2061
2063
2064
2064
2065
2065
2065
2065
2065
2065
2064
2063
2062
2061
2059
2057
2054
2055
2054
2053
2048
2043
2039
2037
2040
2044
2046
2044
2040
2037
2033
2033
2034
2034
2034
2034
2034
2035
2035
2035
2035
2035
2035
2035
2035
2036
2035
2035
2037
2037
2037
2035
2033
2032
2033
2036
2040
2043
2042
2039
2036
2034
2034
2035
2036
2036
2036
2036
2036
2036
2036
2036
2036
2035
2035
2036
2036
2036
2036
2035
2036
2035
2034
2031
2030
2030
2034
2039
2043
2043
2039
2036
2033
2031
2034
2034
2035
2035
2035
2035
2035
2035
2035
2035
2036
2037
2038
2036
2035
2034
2033
2033
2034
2034
2034
2035
2035
2036
2037
2037
2037
2036
2035
2035
2034
2035
2036
2036
2035
2035
2035
2035
2035
2035
2035
2036
2036
2036
2036
2036
2036
2036
2037
2036
2036
2035
2035
2035
2036
2038
2039
2039
2038
2037
2036
2035
2037
2037
2037
2037
2036
2036
2037
2037
2037
2038
2038
2038
2037
2037
2037
2037
2036
2037
2038
2039
2039
2038
2036
2036
2036
2039
2041
2041
2040
2038
2036
2035
2035
2035
2036
2037
2037
2039
2040
2042
2042
2042
2041
2040
2039
2038
2037
2037
2036
2036
2035
2035
2034
2033
2034
2035
2037
2038
2039
2039
2037
2035
2033
2034
2037
2046
2056
2067
2072
2067
2053
2032
2010
1991
1983
1985
1996
2012
2025
2036
2039
2039
2038
2036
2036
2037
2039
2042
2044
2045
2044
2042
2041
2040
2041
2041
2041
2041
2041
2042
2042
2042
2043
2043
2043
2044
2044
2045
2045
2046
2046
2048
2049
2050
2048
2046
2045
2047
2052
2059
2063
2063
2060
2056
2053
2055
2056
2059
2060
2061
2062
2062
2062
2062
2062
2061
2060
2060
2060
2059
2059
2057
2057
2055
2053
2049
2047
2044
2042
2042
2042
2041
2040
2037
2035
2033
2032
2032
2032
2032
2031
2031
2031
2031
2031
2031
2032
2031
2031
2032
2032
2032
2032
2033
2034
2033
2032
2030
2029
2029
2032
2035
2037
2038
2035
2033
2031
2030
2032
2031
2032
2032
2032
2033
2032
2032
2032
2031
2031
2031
2031
2031
2031
2031
2030
2032
2030
2030
2028
2027
2028
2031
2034
2035
2035
2033
2030
2029
2028
2030
2030
2030
2030
2030
2031
2031
2031
2030
2030
2031
2031
2031
2031
2031
2031
2030
2031
2031
2031
2030
2030
2029
2030
2032
2033
2034
2032
2031
2030
2029
2030
2031
2031
2031
2031
2031
2031
2031
2031
2031
2031
2031
2031
2031
2031
2031
2030
2031
2032
2033
2032
2030
2029
2029
2031
2033
2035
2035
2033
2031
2030
2031
2032
2033
2033
2032
2032
2032
2031
2032
2032
2032
2033
2033
2033
2033
2032
2032
2032
2033
2034
2035
2036
2037
2038
2039
2039
2039
2038
2036
2035
2034
2034
2034
2034
2034
2033
2033
2033
2033
2034
2034
2034
2034
2034
2033
2032
2032
2036
2045
2054
2064
2069
2064
2050
2030
2009
1992
1985
1987
1997
2012
2025
2034
2038
2038
2038
2038
2038
2040
2040
2041
2042
2042
2042
2042
2043
2042
2043
2043
2043
2044
2045
2045
2044
2043
2043
2044
2047
2049
2052
2052
2050
2049
2047
2048
2048
2048
2051
2051
2053
2054
2055
2055
2056
2057
2058
2059
2060
2061
2062
2063
2065
2066
2065
2064
2063
2062
2064
2068
2071
2072
2070
2067
2064
2061
2061
2060
2059
2057
2054
2052
2050
2048
2046
2044
2042
2041
2040
2039
2039
2037
2036
2036
2036
2036
2036
2033
2032
2032
2034
2037
2041
2042
2041
2037
2033
2031
2033
2036
2041
2044
2043
2041
2038
2036
2036
2037
2039
2038
2039
2039
2040
2040
2040
2039
2039
2039
2038
2037
2036
2037
2039
2041
2042
2042
2041
2038
2036
2036
2037
2037
2038
2038
2038
2038
2038
2038
2038
2038
2038
2038
2038
2039
2038
2037
2039
2038
2037
2037
2036
2035
2036
2039
2042
2043
2043
2040
2039
2036
2038
2038
2039
2040
2039
2039
2039
2039
2040
2040
2040
2040
2040
2040
2040
2040
2039
2041
2041
2042
2042
2040
2038
2038
2040
2043
2045
2046
2045
2043
2041
2041
2042
2043
2043
2043
2042
2042
2043
2043
2043
2043
2044
2044
2044
2044
2044
2045
2045
2046
2045
2045
2043
2041
2043
2046
2049
2052
2053
2052
2049
2048
2047
2048
2047
2047
2045
2045
2044
2045
2045
2045
2045
2045
2045
2044
2044
2045
2045
2045
2045
2044
2044
2045
2052
2062
2074
2083
2082
2070
2049
2024
2002
1989
1989
2000
2016
2031
2043
2048
2048
2048
2048
2048
2048
2049
2049
2050
2050
2050
2049
2051
2052
2054
2052
2048
2047
2047
2051
2058
2063
2063
2059
2055
2051
2052
2053
2055
2057
2057
2058
2059
2060
2060
2061
2061
2062
2063
2064
2065
2066
2066
2068
2069
2070
2070
2070
2070
2072
2074
2076
2078
2078
2077
2075
2074
2074
2073
2073
2072
2071
2069
2067
2065
2063
2060
2058
2056
2054
2052
2051
2049
2048
2047
2046
2045
2043
2042
2041
2042
2043
2045
2045
2045
2043
2041
2041
2041
2042
2042
2042
2043
2043
2043
2043
2043
2043
2043
2043
2043
2043
2044
2044
2044
2044
2044
2043
2044
2043
2042
2042
2043
2045
2046
2047
2046
2044
2042
2042
2042
2043
2043
2043
2042
2042
2041
2042
2041
2041
2042
2042
2042
2041
2042
2041
2040
2042
2041
2041
2041
2040
2040
2041
2043
2043
2042
2041
2040
2040
2040
2041
2041
2041
2041
2041
2041
2041
2041
2041
2041
2041
2042
2041
2041
2041
2040
2040
2041
2042
2042
2042
2040
2039
2039
2040
2042
2045
2046
2045
2043
2041
2041
2041
2041
2042
2042
2041
2041
2041
2042
2042
2042
2042
2042
2042
2041
2041
2042
2041
2042
2041
2041
2040
2039
2039
2040
2042
2044
2045
2044
2042
2041
2041
2041
2040
2041
2041
2041
2041
2041
2041
2042
2043
2044
2045
2046
2047
2046
2046
2045
2045
2044
2043
2041
2039
2039
2040
2042
2045
2045
2043
2041
2040
2039
2040
2041
2041
2040
2039
2039
2043
2050
2061
2072
2077
2074
2060
2040
2017
1998
1988
1991
2003
2017
2029
2036
2039
2041
2045
2048
2050
2049
2047
2045
2042
2044
2046
2046
2046
2047
2047
2048
2048
2048
2048
2048
2048
2048
2048
2048
2049
2049
2050
2052
2052
2051
2049
2048
2049
2053
2058
2061
2060
2058
2056
2055
2056
2059
2060
2061
2062
2063
2064
2065
2065
2066
2066
2067
2067
2068
2068
2068
2068
2068
2068
2067
2065
2063
2061
2060
2059
2058
2057
2054
2051
2048
2046
2044
2043
2043
2042
2041
2040
2040
2039
2038
2038
2037
2037
2038
2038
2038
2037
2038
2037
2037
2038
2038
2037
2037
2037
2038
2039
2041
2042
2042
2041
2040
2039
2039
2040
2040
2039
2040
2039
2039
2039
2039
2039
2040
2040
2040
2039
2039
2039
2039
2039
2038
2038
2037
2037
2037
2038
2040
2041
2041
2040
2038
2037
2036
2037
2038
2038
2038
2038
2037
2038
2038
2038
2038
2039
2038
2038
2038
2038
2039
2038
2039
2039
2039
2038
2037
2037
2038
2040
2042
2042
2040
2038
2038
2037
2038
2040
2040
2040
2039
2039
2039
2038
2039
2039
2040
2040
2040
2040
2040
2039
2040
2039
2040
2040
2039
2039
2038
2038
2039
2041
2042
2042
2041
2040
2040
2040
2040
2040
2040
2039
2039
2040
2041
2043
2044
2046
2047
2047
2045
2042
2039
2039
2041
2045
2047
2046
2042
2037
2035
2036
2039
2042
2043
2042
2041
2040
2038
2039
2037
2038
2041
2049
2061
2074
2082
2080
2064
2041
2013
1990
1979
1980
1992
2009
2028
2040
2047
2046
2043
2040
2039
2043
2049
2054
2056
2054
2051
2048
2048
2048
2049
2051
2051
2052
2052
2053
2053
2053
2054
2054
2054
2055
2056
2056
2056
2059
2059
2059
2058
2057
2057
2059
2063
2068
2070
2069
2067
2065
2064
2067
2069
2070
2071
2072
2073
2074
2075
2075
2075
2075
2075
2075
2075
2075
2075
2074
2074
2073
2071
2068
2065
2062
2060
2060
2060
2059
2057
2054
2051
2048
2048
2048
2047
2047
2047
2047
2047
2047
2047
2046
2046
2047
2047
2048
2048
2048
2048
2048
2048
2048
2048
2048
2047
2047
2048
2051
2053
2053
2051
2049
2049
2049
2051
2051
2051
2050
2050
2050
2051
2051
2051
2051
2051
2051
2051
2051
2051
2051
2051
2051
2050
2050
2050
2050
2050
2050
2052
2053
2054
2053
2052
2051
2049
2051
2051
2052
2052
2052
2052
2051
2051
2051
2051
2052
2052
2052
2052
2052
2052
2051
2052
2053
2054
2053
2052
2051
2051
2052
2055
2057
2057
2055
2053
2052
2053
2053
2054
2054
2054
2053
2053
2053
2053
2054
2055
2057
2058
2059
2059
2059
2059
2058
2058
2057
2055
2053
2050
2049
2050
2053
2055
2056
2055
2053
2051
2051
2051
2052
2054
2053
2052
2051
2051
2055
2065
2076
2086
2091
2086
2071
2050
2027
2007
1997
1999
2010
2025
2040
2049
2054
2055
2056
2055
2055
2055
2054
2054
2055
2055
2055
2055
2055
2056
2056
2056
2056
2056
2056
2056
2056
2057
2057
2057
2057
2059
2060
2061
2059
2056
2054
2054
2058
2064
2069
2070
2068
2064
2061
2063
2064
2066
2067
2068
2069
2070
2071
2072
2073
2073
2073
2074
2074
2074
2074
2073
2074
2073
2072
2070
2068
2065
2063
2063
2062
2061
2058
2054
2050
2047
2047
2045
2045
2045
2044
2044
2043
2043
2043
2042
2042
2042
2043
2043
2043
2043
2043
2044
2044
2044
2043
2041
2040
2041
2044
2047
2048
2048
2047
2045
2043
2042
2044
2044
2045
2045
2046
2046
2045
2045
2044
2044
2044
2044
2044
2044
2044
2043
2043
2042
2043
2042
2041
2041
2040
2041
2042
2044
2043
2041
2040
2038
2038
2039
2040
2040
2040
2039
2038
2038
2037
2039
2039
2039
2039
2039
2039
2039
2038
2038
2039
2038
2038
2037
2037
2037
2038
2040
2041
2041
2040
2038
2037
2037
2038
2038
2039
2039
2039
2038
2038
2038
2038
2038
2039
2039
2039
2039
2038
2038
2037
2038
2038
2038
2038
2036
2035
2034
2035
2037
2039
2040
2039
2038
2036
2035
2035
2036
2036
2036
2036
2035
2035
2035
2035
2035
2036
2035
2035
2035
2035
2035
2035
2036
2035
2035
2034
2034
2035
2037
2040
2043
2044
2043
2041
2040
2039
2039
2038
2038
2037
2037
2037
2037
2037
2038
2038
2038
2038
2038
2038
2038
2038
2037
2036
2037
2041
2048
2057
2066
2070
2067
2056
2038
2017
1997
1987
1986
1997
2012
2027
2037
2040
2040
2040
2040
2040
2041
2042
2042
2042
2042
2042
2042
2042
2044
2044
2045
2045
2042
2039
2039
2042
2047
2051
2053
2051
2048
2044
2044
2044
2045
2048
2048
2048
2049
2050
2050
2051
2052
2053
2053
2054
2055
2056
2057
2058
2060
2060
2059
2058
2058
2060
2063
2065
2067
2066
2064
2062
2059
2059
2059
2059
2058
2057
2055
2052
2050
2048
2046
2044
2041
2039
2038
2036
2035
2034
2033
2033
2031
2030
2028
2028
2028
2031
2034
2035
2035
2032
2030
2029
2029
2030
2030
2031
2031
2032
2032
2032
2032
2031
2032
2032
2032
2032
2033
2033
2033
2033
2033
2033
2032
2031
2031
2031
2031
2034
2036
2035
2034
2031
2028
2027
2031
2034
2037
2037
2035
2032
2029
2029
2030
2031
2032
2032
2032
2032
2032
2031
2030
2032
2032
2032
2031
2030
2030
2031
2034
2035
2036
2034
2032
2031
2029
2032
2032
2032
2033
2032
2032
2032
2032
2032
2032
2033
2033
2034
2034
2034
2033
2032
2033
2034
2034
2034
2032
2030
2030
2032
2035
2038
2038
2036
2033
2032
2033
2034
2034
2034
2034
2033
2033
2034
2035
2037
2038
2040
2040
2040
2039
2038
2037
2036
2036
2036
2035
2034
2032
2033
2033
2035
2036
2036
2035
2033
2033
2033
2034
2035
2034
2033
2032
2033
2041
2051
2065
2075
2076
2064
2043
2016
1990
1974
1972
1982
1999
2017
2030
2036
2037
2037
2039
2041
2042
2043
2042
2041
2040
2042
2042
2043
2043
2042
2043
2043
2044
2045
2045
2045
2045
2045
2045
2046
2046
2046
2048
2049
2050
2050
2048
2046
2047
2050
2056
2060
2062
2059
2056
2053
2054
2055
2057
2060
2060
2061
2062
2064
2064
2065
2065
2065
2065
2065
2065
2065
2064
2065
2065
2063
2061
2057
2055
2054
2055
2055
2054
2050
2046
2042
2039
2038
2037
2036
2036
2035
2035
2035
2034
2034
2034
2033
2034
2034
2034
2034
2034
2034
2034
2035
2034
2034
2033
2032
2032
2034
2036
2038
2039
2037
2036
2034
2034
2035
2035
2036
2036
2036
2036
2036
2036
2035
2035
2035
2035
2035
2035
2035
2034
2034
2034
2034
2034
2032
2032
2031
2032
2034
2036
2037
2036
2034
2032
2030
2031
2031
2032
2032
2033
2033
2033
2033
2032
2032
2032
2032
2033
2032
2032
2032
2032
2033
2032
2032
2031
2031
2032
2034
2037
2039
2041
2040
2038
2036
2035
2035
2034
2033
2031
2030
2030
2032
2034
2035
2035
2034
2033
2032
2033
2032
2034
2033
2033
2032
2031
2029
2029
2035
2048
2062
2075
2078
2067
2044
2014
1986
1970
1967
1976
1993
2011
2026
2034
2037
2038
2038
2038
2039
2039
2039
2040
2040
2041
2042
2043
2042
2041
2040
2038
2039
2042
2046
2048
2048
2048
2045
2043
2044
2046
2046
2047
2047
2047
2048
2048
2050
2051
2052
2053
2053
2054
2055
2055
2056
2058
2060
2060
2061
2059
2059
2060
2063
2067
2070
2071
2070
2067
2064
2063
2064
2063
2062
2060
2057
2056
2053
2051
2048
2046
2043
2041
2038
2037
2036
2034
2031
2033
2031
2033
2032
2028
2025
2024
2028
2033
2037
2038
2036
2030
2026
2026
2026
2028
2030
2030
2030
2031
2030
2031
2031
2031
2031
2031
2031
2032
2032
2032
2033
2034
2033
2031
2029
2027
2028
2032
2037
2040
2039
2035
2031
2029
2029
2030
2031
2031
2031
2031
2031
2031
2031
2031
2031
2031
2031
2031
2031
2031
2031
2031
2031
2031
2031
2028
2027
2027
2029
2034
2037
2037
2035
2032
2029
2028
2030
2031
2032
2032
2032
2032
2031
2031
2031
2031
2032
2032
2032
2032
2032
2032
2031
2033
2033
2032
2030
2028
2028
2030
2034
2038
2039
2037
2034
2031
2028
2032
2034
2036
2036
2036
2037
2038
2039
2038
2037
2036
2034
2033
2033
2034
2033
2032
2033
2032
2033
2031
2030
2030
2031
2034
2037
2038
2035
2032
2032
2037
2048
2059
2066
2066
2057
2042
2022
2001
1987
1981
1986
1999
2015
2030
2036
2038
2037
2037
2037
2039
2040
2039
2037
2038
2040
2044
2047
2046
2044
2042
2040
2040
2042
2043
2043
2043
2043
2044
2044
2045
2046
2046
2046
2047
2047
2048
2048
2049
2050
2051
2052
2052
2051
2051
2052
2054
2058
2062
2063
2062
2061
2060
2061
2062
2064
2064
2065
2065
2064
2065
2065
2064
2064
2062
2061
2059
2058
2056
2053
2050
2049
2048
2044
2041
2038
2036
2036
2037
2039
2038
2036
2033
2031
2030
2031
2031
2032
2031
2031
2031
2032
2031
2033
2034
2034
2032
2029
2027
2029
2033
2037
2043
2042
2040
2034
2028
2028
2030
2036
2040
2043
2041
2036
2032
2029
2031
2032
2034
2034
2033
2034
2034
2034
2034
2034
2034
2033
2033
2033
2033
2033
2034
2035
2035
2034
2032
2030
2029
2031
2035
2038
2039
2037
2035
2033
2032
2032
2032
2033
2033
2034
2034
2034
2034
2034
2034
2034
2034
2034
2034
2034
2034
2034
2035
2035
2034
2034
2032
2031
2033
2034
2037
2039
2038
2037
2034
2033
2033
2034
2035
2036
2036
2036
2036
2036
2036
2036
2036
2036
2036
2036
2037
2036
2036
2036
2038
2037
2036
2034
2032
2033
2036
2040
2043
2042
2040
2036
2035
2034
2036
2037
2037
2038
2037
2037
2036
2035
2036
2037
2038
2038
2038
2037
2036
2036
2035
2038
2037
2037
2037
2036
2038
2041
2044
2047
2046
2044
2040
2038
2036
2037
2037
2037
2037
2036
2036
2036
2036
2036
2036
2036
2037
2037
2038
2036
2035
2034
2038
2047
2056
2066
2069
2065
2053
2037
2019
2002
1991
1988
1995
2008
2023
2035
2040
2041
2040
2039
2039
2040
2041
2042
2042
2043
2043
2044
2044
2044
2044
2044
2045
2045
2045
2045
2045
2046
2047
2048
2049
2049
2049
2048
2048
2049
2050
2051
2052
2052
2052
2053
2054
2056
2057
2058
2058
2059
2059
2060
2060
2062
2062
2064
2066
2066
2066
2066
2065
2066
2067
2069
2070
2069
2068
2066
2064
2064
2062
2061
2058
2056
2055
2052
2049
2048
2045
2044
2042
2041
2039
2039
2038
2036
2038
2038
2038
2036
2033
2032
2032
2036
2040
2042
2041
2038
2035
2033
2035
2035
2037
2037
2037
2038
2038
2038
2039
2039
2039
2038
2038
2038
2038
2039
2039
2040
2039
2039
2037
2035
2034
2035
2038
2041
2042
2041
2040
2038
2036
2036
2036
2036
2036
2036
2037
2037
2037
2037
2037
2037
2036
2036
2036
2036
2036
2037
2037
2038
2037
2037
2036
2035
2035
2037
2039
2041
2040
2039
2037
2036
2036
2037
2037
2037
2037
2037
2037
2037
2037
2037
2037
2038
2038
2038
2038
2038
2038
2037
2039
2039
2038
2036
2035
2035
2037
2041
2044
2043
2041
2038
2037
2037
2041
2043
2044
2045
2044
2044
2043
2042
2041
2041
2041
2041
2040
2039
2039
2038
2037
2039
2038
2038
2037
2036
2036
2037
2039
2040
2039
2038
2039
2047
2057
2071
2079
2077
2061
2037
2009
1986
1973
1974
1986
2005
2023
2036
2042
2043
2043
2042
2043
2045
2046
2046
2044
2043
2046
2048
2053
2055
2054
2051
2048
2046
2047
2048
2049
2050
2050
2050
2050
2051
2051
2052
2053
2054
2054
2055
2055
2056
2056
2057
2059
2059
2059
2059
2059
2060
2062
2065
2068
2068
2069
2068
2067
2068
2069
2069
2069
2070
2069
2069
2069
2069
2068
2067
2066
2064
2062
2059
2057
2054
2053
2050
2048
2046
2043
2040
2039
2040
2040
2040
2039
2037
2036
2035
2034
2034
2034
2035
2035
2035
2035
2036
2036
2036
2036
2036
2036
2036
2036
2036
2036
2037
2039
2039
2039
2037
2035
2034
2036
2039
2041
2042
2041
2039
2037
2036
2037
2037
2037
2037
2037
2037
2037
2037
2037
2037
2037
2036
2036
2036
2036
2036
2036
2037
2037
2037
2035
2034
2033
2034
2036
2039
2040
2039
2037
2036
2035
2035
2035
2036
2035
2036
2036
2036
2036
2035
2035
2035
2035
2035
2036
2035
2036
2036
2037
2039
2040
2041
2040
2040
2040
2040
2042
2042
2041
2039
2036
2035
2034
2035
2036
2036
2036
2036
2036
2035
2035
2036
2036
2037
2036
2035
2034
2034
2040
2049
2063
2073
2074
2064
2046
2022
2000
1985
1981
1985
1998
2012
2026
2035
2042
2042
2042
2042
2043
2043
2044
2043
2043
2043
2044
2046
2047
2048
2047
2047
2045
2047
2048
2048
2047
2047
2046
2048
2050
2053
2053
2051
2048
2048
2051
2056
2059
2060
2058
2057
2055
2056
2058
2061
2062
2063
2064
2065
2067
2067
2068
2069
2069
2071
2071
2071
2070
2068
2069
2071
2074
2075
2073
2068
2063
2059
2056
2055
2053
2051
2048
2045
2043
2041
2039
2038
2037
2037
2036
2035
2034
2033
2033
2033
2033
2033
2033
2033
2032
2033
2034
2035
2036
2036
2036
2035
2034
2034
2035
2036
2036
2036
2036
2037
2037
2038
2038
2038
2038
2038
2038
2038
2038
2038
2038
2038
2038
2038
2038
2037
2036
2036
2036
2038
2039
2038
2038
2037
2036
2036
2035
2036
2035
2036
2036
2036
2036
2036
2036
2036
2036
2036
2036
2036
2036
2035
2037
2037
2038
2036
2034
2033
2033
2036
2039
2041
2040
2038
2036
2034
2035
2036
2037
2036
2036
2036
2036
2036
2037
2037
2037
2036
2036
2036
2036
2037
2037
2038
2037
2037
2035
2033
2033
2035
2038
2041
2041
2040
2038
2036
2035
2036
2036
2036
2036
2037
2037
2037
2037
2037
2037
2037
2037
2037
2037
2037
2037
2037
2038
2038
2037
2036
2035
2034
2035
2037
2040
2042
2041
2039
2037
2036
2036
2037
2038
2038
2039
2038
2039
2038
2038
2038
2038
2038
2039
2039
2039
2038
2038
2038
2041
2042
2042
2041
2040
2041
2043
2046
2048
2046
2043
2039
2037
2035
2037
2038
2038
2039
2039
2039
2038
2037
2037
2038
2039
2039
2038
2039
2042
2049
2058
2067
2069
2065
2052
2034
2016
2001
1994
1995
2004
2017
2029
2038
2042
2043
2042
2042
2042
2043
2044
2044
2044
2045
2045
2046
2046
2046
2046
2046
2046
2046
2047
2048
2048
2048
2048
2047
2048
2049
2053
2055
2056
2054
2052
2051
2052
2053
2055
2056
2056
2057
2057
2058
2059
2060
2061
2062
2063
2064
2064
2064
2066
2066
2067
2067
2067
2066
2065
2066
2067
2069
2070
2069
2067
2064
2062
2059
2058
2055
2053
2050
2048
2047
2046
2044
2042
2041
2039
2038
2037
2037
2036
2036
2035
2037
2037
2036
2034
2033
2032
2034
2036
2040
2040
2039
2037
2035
2033
2034
2036
2036
2036
2036
2036
2037
2037
2038
2038
2037
2037
2037
2037
2037
2037
2036
2038
2038
2038
2036
2035
2034
2035
2037
2039
2040
2039
2037
2036
2034
2035
2035
2035
2035
2035
2035
2035
2035
2035
2035
2034
2034
2035
2035
2035
2035
2036
2036
2036
2036
2035
2034
2033
2034
2035
2038
2039
2038
2037
2036
2035
2035
2035
2036
2036
2036
2036
2037
2037
2037
2037
2036
2037
2037
2037
2037
2037
2037
2037
2037
2037
2037
2037
2036
2037
2038
2040
2040
2040
2038
2037
2036
2036
2037
2038
2038
2038
2038
2038
2038
2038
2038
2038
2038
2039
2039
2039
2039
2039
2038
2038
2039
2038
2038
2038
2038
2039
2040
2041
2041
2039
2038
2038
2037
2038
2039
2039
2039
2039
2038
2039
2039
2038
2039
2039
2040
2041
2041
2041
2040
2039
2038
2038
2038
2039
2039
2039
2040
2041
2042
2042
2041
2040
2039
2039
2040
2041
2043
2044
2045
2046
2046
2045
2045
2044
2043
2042
2042
2042
2041
2041
2040
2040
2040
2040
2039
2038
2039
2041
2044
2045
2043
2040
2038
2041
2049
2061
2070
2073
2067
2055
2037
2018
2001
1992
1993
2003
2018
2031
2041
2045
2044
2044
2043
2044
2045
2045
2045
2045
2046
2047
2048
2049
2049
2048
2048
2047
2048
2048
2048
2048
2049
2049
2049
2050
2051
2052
2052
2053
2053
2053
2054
2054
2054
2056
2057
2058
2057
2057
2058
2059
2062
2064
2066
2067
2066
2066
2066
2067
2068
2068
2069
2069
2069
2070
2070
2070
2069
2069
2068
2067
2066
2064
2062
2060
2058
2058
2055
2053
2049
2046
2043
2042
2045
2046
2047
2045
2042
2039
2037
2037
2036
2037
2037
2037
2038
2038
2039
2039
2040
2038
2036
2035
2036
2039
2042
2045
2045
2042
2040
2037
2036
2037
2038
2040
2042
2043
2043
2042
2040
2039
2040
2040
2040
2041
2041
2041
2040
2040
2039
2039
2039
2039
2039
2039
2040
2040
2039
2039
2040
2039
2038
2037
2036
2037
2040
2043
2045
2044
2042
2039
2037
2037
2039
2039
2040
2040
2040
2040
2040
2040
2039
2039
2039
2039
2040
2040
2040
2040
2040
2041
2041
2040
2039
2038
2038
2040
2043
2046
2046
2043
2040
2038
2037
2038
2040
2040
2040
2040
2040
2040
2041
2041
2041
2040
2040
2040
2040
2041
2041
2041
2041
2041
2040
2040
2041
2041
2042
2043
2044
2044
2043
2042
2041
2041
2041
2041
2042
2042
2041
2041
2041
2041
2042
2042
2043
2043
2042
2042
2042
2042
2042
2042
2042
2042
2043
2044
2044
2046
2048
2050
2051
2049
2048
2045
2042
2042
2042
2042
2042
2042
2041
2041
2041
2042
2042
2042
2043
2042
2042
2042
2040
2039
2040
2048
2058
2070
2079
2078
2067
2048
2025
2003
1988
1985
1991
2006
2022
2036
2043
2045
2044
2043
2043
2044
2045
2046
2047
2047
2047
2047
2048
2047
2048
2048
2048
2048
2048
2048
2048
2048
2048
2049
2052
2053
2053
2053
2052
2051
2052
2052
2053
2053
2054
2055
2056
2057
2058
2059
2059
2060
2061
2062
2063
2063
2064
2067
2068
2068
2068
2067
2066
2067
2070
2072
2074
2073
2071
2068
2065
2064
2063
2062
2061
2058
2056
2054
2051
2049
2047
2045
2043
2042
2041
2040
2040
2040
2040
2039
2038
2036
2035
2034
2036
2039
2041
2042
2041
2038
2037
2036
2037
2037
2037
2038
2038
2039
2039
2039
2039
2038
2039
2038
2039
2039
2040
2040
2039
2040
2041
2040
2039
2037
2036
2037
2040
2043
2045
2045
2041
2039
2037
2036
2037
2037
2038
2038
2038
2038
2038
2037
2037
2037
2037
2037
2038
2038
2039
2037
2038
2039
2038
2037
2035
2034
2034
2037
2041
2044
2044
2041
2038
2036
2035
2036
2038
2038
2038
2038
2038
2037
2037
2038
2038
2038
2038
2038
2038
2039
2039
2039
2039
2038
2037
2037
2036
2037
2039
2040
2041
2041
2040
2038
2037
2037
2038
2038
2038
2038
2038
2038
2038
2038
2039
2039
2039
2039
2039
2039
2039
2039
2038
2039
2039
2039
2039
2038
2038
2038
2039
2042
2043
2042
2040
2038
2037
2038
2038
2039
2039
2039
2039
2038
2038
2038
2039
2039
2040
2039
2039
2039
2039
2040
2041
2043
2044
2045
2044
2043
2042
2042
2043
2043
2043
2041
2039
2038
2038
2038
2038
2038
2038
2038
2038
2039
2039
2039
2038
2037
2037
2040
2048
2057
2067
2072
2069
2058
2041
2020
2000
1988
1987
1997
2014
2030
2040
2044
2043
2040
2041
2041
2043
2043
2043
2044
2044
2044
2045
2045
2045
2045
2045
2046
2046
2046
2046
2048
2048
2049
2048
2047
2046
2046
2048
2053
2057
2058
2056
2053
2050
2051
2051
2053
2055
2056
2057
2058
2059
2060
2060
2061
2062
2062
2063
2064
2065
2066
2067
2068
2068
2067
2066
2065
2065
2066
2068
2068
2067
2064
2061
2057
2055
2053
2051
2048
2047
2045
2043
2041
2039
2038
2037
2036
2036
2035
2036
2035
2035
2035
2035
2034
2034
2033
2032
2033
2035
2037
2038
2038
2037
2035
2034
2034
2035
2035
2036
2037
2037
2037
2037
2037
2037
2037
2037
2037
2037
2037
2037
2037
2037
2038
2038
2037
2036
2035
2035
2036
2038
2039
2039
2038
2036
2035
2034
2035
2036
2036
2036
2036
2036
2036
2036
2036
2037
2036
2036
2036
2035
2036
2036
2036
2039
2038
2036
2035
2034
2033
2035
2038
2040
2041
2040
2037
2036
2034
2036
2036
2036
2037
2037
2037
2036
2036
2036
2036
2037
2037
2038
2038
2038
2037
2037
2037
2037
2037
2037
2035
2035
2036
2039
2040
2039
2037
2035
2036
2038
2042
2041
2040
2037
2036
2036
2036
2038
2038
2038
2038
2038
2038
2038
2038
2038
2038
2038
2039
2038
2038
2037
2037
2038
2040
2041
2042
2041
2040
2038
2037
2038
2039
2039
2039
2039
2039
2039
2039
2039
2040
2040
2040
2040
2039
2039
2039
2039
2040
2039
2040
2040
2039
2038
2038
2040
2043
2045
2047
2047
2046
2045
2044
2043
2043
2042
2041
2041
2041
2040
2040
2040
2040
2039
2039
2039
2039
2039
2039
2040
2041
2040
2039
2039
2043
2050
2061
2072
2076
2070
2055
2033
2011
1995
1989
1993
2006
2021
2034
2043
2045
2045
2044
2044
2044
2045
2046
2046
2047
2048
2048
2048
2048
2048
2048
2046
2046
2046
2048
2050
2051
2052
2051
2050
2050
2050
2050
2051
2051
2052
2053
2054
2055
2055
2055
2055
2056
2056
2058
2059
2060
2061
2059
2061
2061
2063
2063
2063
2065
2068
2073
2077
2078
2075
2070
2068
2066
2067
2068
2068
2067
2066
2065
2063
2061
2058
2055
2053
2051
2048
2048
2046
2044
2042
2042
2041
2040
2038
2036
2035
2036
2039
2043
2044
2042
2039
2036
2034
2036
2037
2038
2038
2038
2038
2038
2039
2039
2039
2038
2040
2040
2039
2038
2038
2038
2042
2042
2043
2040
2037
2036
2038
2041
2046
2047
2045
2042
2039
2037
2038
2038
2039
2039
2038
2037
2037
2037
2037
2037
2038
2038
2038
2038
2038
2038
2038
2038
2038
2038
2039
2038
2037
2037
2038
2041
2043
2044
2042
2040
2037
2036
2036
2037
2038
2038
2038
2038
2038
2038
2039
2039
2039
2039
2039
2038
2039
2039
2039
2040
2041
2040
2038
2037
2037
2039
2042
2044
2045
2043
2040
2039
2038
2039
2040
2040
2040
2040
2040
2040
2040
2041
2041
2041
2041
2041
2041
2040
2040
2040
2041
2042
2042
2041
2040
2039
2040
2042
2045
2047
2046
2043
2041
2040
2040
2041
2042
2042
2042
2042
2042
2042
2042
2042
2042
2041
2042
2041
2042
2043
2044
2046
2048
2048
2048
2047
2045
2044
2045
2047
2048
2047
2044
2042
2040
2041
2041
2043
2042
2042
2043
2043
2044
2043
2042
2040
2040
2045
2055
2069
2080
2085
2077
2057
2031
2004
1983
1977
1985
2003
2024
2041
2048
2049
2047
2046
2046
2046
2047
2048
2048
2048
2048
2049
2049
2049
2049
2050
2050
2050
2050
2051
2051
2051
2053
2053
2052
2050
2048
2049
2053
2059
2064
2064
2061
2058
2054
2054
2057
2058
2060
2061
2062
2063
2063
2063
2064
2065
2067
2068
2069
2070
2071
2070
2070
2071
2072
2072
2070
2068
2068
2070
2073
2076
2075
2071
2066
2061
2057
2056
2054
2052
2050
2048
2046
2044
2043
2042
2041
2040
2040
2038
2039
2039
2037
2036
2038
2038
2038
2038
2037
2037
2038
2041
2045
2046
2045
2041
2038
2037
2038
2039
2039
2040
2040
2040
2040
2040
2040
2041
2041
2042
2042
2042
2041
2041
2040
2040
2040
2040
2041
2040
2039
2039
2040
2042
2044
2043
2041
2039
2037
2037
2038
2038
2039
2038
2038
2037
2038
2039
2040
2040
2039
2038
2037
2036
2036
2036
2036
2037
2037
2037
2037
2036
2036
2037
2039
2040
2040
2039
2038
2037
2037
2038
2038
2038
2038
2038
2038
2038
2039
2039
2038
2038
2039
2040
2041
2043
2044
2043
2043
2043
2042
2040
2039
2038
2037
2038
2039
2040
2039
2038
2037
2035
2036
2036
2037
2036
2036
2037
2037
2036
2035
2035
2040
2050
2064
2076
2081
2071
2049
2022
1993
1974
1966
1973
1989
2009
2028
2040
2045
2045
2044
2042
2041
2043
2044
2044
2045
2045
2045
2046
2046
2047
2047
2047
2047
2047
2047
2048
2048
2048
2050
2050
2050
2050
2049
2048
2049
2051
2054
2056
2057
2056
2055
2055
2056
2057
2058
2059
2061
2061
2064
2065
2066
2066
2065
2065
2066
2070
2074
2076
2076
2073
2072
2069
2069
2068
2067
2066
2065
2066
2065
2063
2059
2054
2049
2046
2045
2043
2042
2040
2039
2038
2037
2036
2034
2034
2033
2033
2033
2033
2034
2033
2033
2034
2034
2034
2033
2033
2033
2034
2036
2037
2038
2037
2036
2035
2034
2036
2036
2037
2037
2037
2037
2037
2037
2037
2037
2037
2038
2038
2037
2037
2037
2036
2037
2037
2037
2036
2035
2035
2036
2038
2040
2041
2039
2037
2035
2034
2035
2036
2035
2036
2036
2036
2036
2035
2035
2035
2035
2036
2036
2036
2036
2035
2035
2036
2035
2036
2035
2034
2033
2035
2037
2040
2041
2040
2038
2036
2035
2035
2036
2036
2036
2036
2036
2036
2036
2036
2036
2037
2037
2037
2036
2036
2035
2034
2035
2038
2039
2039
2038
2038
2038
2041
2045
2047
2046
2042
2038
2035
2034
2036
2036
2036
2036
2036
2035
2036
2036
2036
2037
2037
2038
2037
2035
2035
2036
2045
2055
2067
2073
2070
2057
2038
2017
1998
1986
1984
1990
2004
2020
2033
2040
2042
2042
2041
2041
2043
2044
2045
2045
2045
2045
2045
2046
2046
2046
2047
2047
2048
2048
2048
2048
2047
2047
2048
2050
2052
2054
2053
2052
2051
2051
2052
2053
2054
2055
2056
2057
2058
2059
2060
2061
2062
2062
2063
2064
2065
2066
2068
2069
2070
2070
2070
2069
2069
2070
2072
2073
2074
2072
2069
2067
2064
2062
2060
2058
2055
2052
2049
2048
2045
2044
2042
2040
2038
2037
2036
2036
2036
2036
2035
2036
2035
2034
2033
2032
2032
2034
2036
2038
2038
2037
2036
2034
2033
2036
2035
2036
2036
2036
2037
2037
2037
2037
2037
2037
2037
2037
2037
2038
2038
2037
2038
2038
2037
2036
2036
2035
2036
2038
2039
2039
2038
2037
2035
2034
2036
2036
2036
2036
2036
2036
2036
2036
2036
2036
2037
2036
2037
2036
2037
2036
2036
2037
2037
2036
2035
2034
2035
2037
2040
2042
2042
2040
2037
2035
2035
2035
2036
2036
2037
2036
2036
2036
2036
2036
2036
2037
2037
2038
2038
2037
2037
2036
2037
2038
2039
2038
2037
2036
2036
2038
2040
2042
2041
2040
2038
2037
2037
2038
2038
2038
2038
2037
2037
2037
2037
2038
2039
2039
2039
2039
2039
2038
2039
2038
2040
2039
2039
2038
2036
2036
2038
2041
2044
2044
2042
2040
2038
2036
2038
2038
2038
2038
2038
2038
2039
2039
2039
2039
2039
2040
2041
2042
2043
2044
2044
2044
2044
2043
2041
2040
2038
2038
2039
2040
2041
2041
2039
2038
2037
2037
2037
2038
2038
2038
2038
2036
2036
2039
2047
2056
2065
2070
2068
2057
2041
2021
2004
1992
1991
1997
2010
2024
2036
2043
2045
2045
2044
2043
2043
2043
2044
2045
2045
2045
2045
2046
2046
2046
2047
2047
2047
2047
2048
2048
2048
2048
2049
2050
2050
2050
2050
2049
2049
2051
2054
2057
2058
2057
2056
2056
2055
2057
2058
2059
2060
2061
2062
2063
2064
2065
2066
2066
2066
2067
2068
2068
2069
2069
2069
2070
2069
2068
2066
2064
2064
2064
2065
2064
2061
2057
2053
2049
2047
2047
2044
2043
2041
2040
2039
2039
2038
2037
2037
2036
2036
2036
2037
2037
2037
2037
2037
2037
2036
2035
2035
2035
2037
2040
2041
2041
2039
2038
2036
2036
2037
2038
2039
2038
2038
2038
2038
2038
2038
2038
2038
2038
2039
2039
2039
2038
2037
2039
2038
2037
2037
2036
2035
2036
2039
2042
2043
2042
2040
2038
2036
2036
2037
2037
2038
2037
2037
2037
2037
2037
2037
2037
2037
2038
2038
2038
2037
2037
2037
2037
2039
2038
2037
2036
2036
2038
2041
2042
2042
2040
2038
2037
2037
2038
2039
2039
2039
2039
2039
2039
2039
2039
2039
2040
2039
2039
2040
2039
2040
2038
2040
2040
2039
2038
2037
2038
2039
2040
2041
2041
2040
2041
2043
2042
2043
2040
2039
2038
2039
2040
2041
2041
2041
2041
2040
2040
2040
2040
2040
2040
2040
2041
2041
2041
2041
2042
2043
2045
2047
2048
2048
2047
2045
2043
2042
2042
2042
2042
2041
2041
2041
2041
2041
2041
2040
2040
2040
2041
2041
2041
2039
2038
2041
2048
2058
2068
2075
2074
2063
2047
2025
2005
1990
1985
1991
2005
2022
2035
2043
2045
2045
2045
2045
2046
2047
2047
2047
2047
2048
2048
2048
2048
2048
2049
2050
2050
2049
2048
2048
2048
2050
2053
2055
2055
2054
2053
2053
2053
2054
2056
2056
2057
2058
2059
2059
2060
2061
2061
2062
2062
2064
2065
2066
2068
2068
2070
2070
2070
2070
2069
2070
2072
2075
2077
2076
2074
2072
2070
2069
2070
2068
2066
2064
2061
2059
2057
2054
2051
2049
2048
2046
2045
2044
2043
2042
2040
2040
2040
2039
2038
2037
2037
2038
2040
2042
2043
2041
2040
2038
2038
2039
2040
2040
2040
2040
2040
2040
2041
2041
2041
2042
2042
2042
2042
2042
2041
2041
2042
2042
2041
2041
2039
2038
2039
2041
2044
2046
2045
2043
2041
2039
2039
2040
2039
2041
2040
2040
2040
2039
2039
2039
2039
2039
2039
2039
2039
2039
2039
2039
2039
2039
2038
2037
2037
2037
2040
2043
2043
2042
2040
2037
2037
2038
2038
2038
2038
2038
2038
2038
2038
2038
2038
2038
2039
2038
2039
2039
2038
2038
2038
2041
2040
2039
2037
2035
2035
2038
2042
2045
2045
2045
2043
2043
2043
2045
2044
2043
2042
2041
2040
2040
2040
2040
2040
2039
2039
2039
2039
2039
2038
2039
2039
2039
2039
2038
2037
2035
2037
2042
2051
2064
2074
2079
2073
2056
2033
2007
1986
1976
1978
1991
2009
2026
2037
2043
2043
2042
2042
2043
2044
2045
2046
2047
2047
2047
2046
2045
2046
2047
2049
2051
2052
2051
2049
2048
2048
2048
2048
2049
2050
2051
2052
2053
2054
2054
2054
2055
2056
2056
2057
2058
2059
2060
2062
2062
2063
2062
2062
2063
2065
2068
2071
2072
2073
2072
2071
2070
2070
2070
2071
2070
2070
2070
2069
2067
2065
2063
2060
2058
2055
2053
2050
2048
2047
2044
2043
2041
2039
2036
2035
2034
2036
2038
2040
2039
2038
2036
2034
2033
2035
2035
2035
2035
2036
2036
2037
2037
2036
2036
2036
2037
2037
2038
2038
2038
2038
2038
2038
2038
2037
2037
2037
2038
2040
2041
2041
2040
2038
2037
2036
2037
2038
2038
2037
2037
2036
2036
2036
2036
2036
2037
2037
2037
2036
2036
2036
2036
2037
2037
2037
2036
2035
2034
2035
2037
2040
2041
2041
2039
2036
2035
2035
2036
2036
2036
2036
2036
2036
2036
2036
2036
2036
2036
2036
2036
2036
2036
2036
2037
2037
2038
2037
2036
2036
2036
2038
2040
2042
2041
2039
2037
2036
2036
2037
2037
2037
2037
2037
2037
2037
2037
2037
2037
2038
2037
2037
2037
2038
2038
2037
2039
2038
2038
2037
2035
2035
2037
2040
2043
2043
2041
2039
2037
2036
2038
2038
2038
2038
2038
2038
2040
2042
2044
2045
2045
2044
2043
2042
2041
2040
2040
2039
2040
2039
2038
2037
2036
2036
2038
2040
2041
2041
2040
2039
2037
2036
2036
2038
2045
2054
2065
2072
2071
2061
2045
2023
2002
1988
1984
1991
2006
2021
2035
2042
2044
2042
2041
2041
2042
2045
2047
2048
2048
2047
2046
2045
2045
2046
2046
2047
2047
2048
2048
2048
2048
2048
2048
2048
2049
2049
2050
2051
2052
2053
2053
2053
2053
2053
2053
2054
2056
2059
2061
2062
2062
2061
2060
2061
2061
2062
2064
2065
2066
2067
2067
2068
2068
2067
2067
2067
2067
2067
2067
2065
2065
2064
2061
2059
2055
2051
2049
2049
2050
2050
2048
2045
2041
2038
2036
2037
2036
2037
2036
2036
2036
2036
2034
2032
2031
2032
2035
2038
2040
2040
2038
2035
2034
2034
2035
2036
2035
2035
2036
2037
2039
2040
2039
2038
2037
2035
2036
2037
2038
2038
2037
2037
2037
2037
2037
2037
2037
2037
2037
2037
2037
2037
2036
2037
2037
2037
2035
2034
2033
2035
2037
2040
2040
2039
2036
2035
2034
2035
2037
2035
2035
2035
2034
2036
2035
2036
2036
2036
2036
2036
2036
2036
2036
2035
2036
2036
2037
2037
2036
2035
2035
2037
2039
2040
2040
2038
2036
2036
2036
2037
2037
2037
2037
2037
2037
2037
2037
2037
2037
2038
2037
2037
2037
2037
2038
2037
2040
2039
2039
2036
2034
2034
2036
2040
2043
2043
2042
2039
2037
2035
2038
2038
2039
2039
2039
2038
2038
2038
2039
2039
2038
2039
2039
2039
2039
2038
2038
2038
2039
2039
2038
2037
2037
2037
2039
2041
2042
2041
2039
2038
2037
2039
2041
2043
2044
2044
2044
2043
2042
2041
2040
2039
2039
2038
2038
2038
2038
2037
2039
2038
2039
2038
2037
2037
2038
2039
2040
2040
2040
2044
2051
2061
2071
2072
2065
2048
2028
2006
1990
1985
1989
2002
2018
2032
2040
2043
2043
2042
2042
2043
2044
2045
2044
2044
2043
2044
2046
2048
2049
2048
2048
2047
2046
2046
2047
2048
2048
2048
2048
2049
2050
2050
2050
2050
2051
2052
2052
2053
2054
2054
2054
2056
2056
2057
2056
2056
2057
2060
2063
2066
2066
2065
2064
2064
2064
2066
2066
2067
2067
2067
2067
2067
2067
2066
2065
2064
2063
2062
2060
2059
2057
2054
2052
2049
2048
2045
2043
2041
2040
2041
2041
2041
2039
2037
2035
2034
2035
2036
2036
2036
2036
2036
2035
2036
2036
2036
2037
2037
2037
2037
2038
2037
2037
2038
2038
2038
2037
2036
2036
2037
2039
2042
2043
2041
2039
2037
2037
2038
2040
2039
2039
2038
2037
2037
2037
2037
2037
2037
2037
2037
2037
2037
2037
2035
2037
2037
2037
2036
2035
2035
2036
2039
2041
2042
2040
2038
2036
2035
2036
2037
2037
2037
2037
2036
2036
2036
2037
2037
2038
2038
2038
2038
2038
2038
2038
2037
2040
2039
2038
2037
2034
2033
2035
2039
2042
2044
2042
2040
2037
2035
2037
2037
2037
2038
2038
2038
2038
2038
2039
2039
2038
2039
2038
2038
2038
2038
2039
2039
2039
2039
2038
2037
2037
2039
2041
2042
2043
2041
2040
2038
2038
2038
2038
2038
2038
2039
2040
2040
2040
2040
2040
2039
2039
2039
2039
2040
2040
2040
2040
2040
2040
2040
2040
2041
2042
2044
2046
2048
2048
2046
2043
2041
2040
2039
2039
2040
2039
2039
2040
2040
2040
2039
2039
2039
2040
2040
2040
2038
2038
2040
2047
2057
2069
2077
2076
2064
2045
2020
1997
1983
1980
1988
2003
2020
2034
2042
2044
2044
2044
2044
2045
2045
2046
2046
2046
2047
2047
2048
2048
2048
2048
2049
2048
2049
2048
2048
2048
2049
2052
2054
2054
2053
2052
2051
2051
2053
2054
2055
2055
2056
2056
2057
2058
2059
2060
2060
2061
2062
2063
2065
2066
2066
2068
2068
2071
2069
2067
2065
2065
2069
2074
2078
2078
2075
2070
2066
2064
2064
2065
2063
2060
2058
2055
2052
2050
2048
2047
2045
2043
2042
2040
2039
2038
2039
2039
2038
2037
2035
2035
2036
2038
2041
2041
2040
2038
2036
2035
2037
2038
2039
2039
2038
2038
2037
2038
2039
2039
2039
2039
2040
2039
2039
2039
2039
2039
2040
2040
2040
2039
2038
2038
2040
2042
2042
2041
2039
2037
2036
2037
2037
2037
2037
2037
2036
2036
2036
2036
2036
2037
2037
2037
2037
2037
2036
2037
2036
2037
2037
2037
2037
2036
2036
2036
2038
2040
2040
2039
2038
2037
2036
2037
2037
2038
2038
2038
2037
2037
2037
2038
2038
2038
2038
2038
2038
2038
2038
2038
2038
2038
2038
2038
2038
2037
2036
2036
2036
2038
2040
2043
2043
2041
2037
2035
2034
2036
2038
2041
2041
2041
2040
2039
2040
2040
2039
2039
2039
2038
2038
2040
2040
2041
2040
2039
2037
2037
2039
2042
2044
2044
2042
2040
2038
2038
2038
2039
2039
2040
2040
2040
2040
2040
2040
2040
2039
2039
2039
2039
2041
2043
2044
2046
2045
2043
2041
2040
2041
2044
2046
2045
2043
2040
2038
2037
2038
2039
2039
2039
2039
2040
2040
2040
2039
2037
2036
2038
2045
2055
2066
2074
2074
2064
2046
2023
2002
1986
1981
1987
2003
2022
2040
2048
2049
2046
2042
2040
2042
2044
2046
2046
2046
2046
2046
2046
2046
2046
2046
2047
2048
2048
2048
2048
2047
2048
2049
2051
2049
2046
2045
2046
2051
2058
2063
2063
2058
2053
2050
2052
2054
2058
2059
2059
2059
2060
2060
2061
2063
2064
2066
2066
2067
2068
2068
2068
2070
2071
2070
2069
2067
2066
2067
2070
2072
2072
2068
2063
2057
2053
2052
2052
2051
2049
2047
2044
2042
2040
2039
2038
2038
2037
2037
2037
2036
2036
2035
2035
2035
2035
2036
2035
2034
2035
2036
2039
2042
2042
2040
2038
2036
2036
2036
2037
2038
2036
2037
2037
2038
2038
2038
2039
2039
2038
2038
2038
2038
2038
2038
2038
2039
2038
2036
2035
2034
2036
2039
2042
2042
2040
2037
2035
2034
2034
2036
2036
2036
2036
2035
2035
2036
2037
2038
2038
2037
2036
2036
2035
2036
2035
2037
2038
2037
2035
2034
2033
2036
2039
2042
2043
2041
2039
2036
2035
2036
2036
2037
2037
2037
2037
2037
2037
2037
2037
2037
2037
2038
2037
2037
2036
2036
2038
2038
2039
2038
2037
2036
2037
2040
2043
2044
2043
2041
2038
2036
2037
2037
2038
2038
2038
2039
2039
2039
2039
2039
2038
2039
2039
2039
2040
2040
2039
2040
2041
2041
2040
2038
2036
2036
2039
2043
2047
2046
2043
2040
2037
2037
2038
2039
2040
2040
2040
2040
2040
2040
2040
2040
2040
2040
2040
2041
2040
2040
2041
2041
2040
2040
2038
2036
2036
2038
2042
2045
2047
2045
2042
2039
2036
2038
2039
2041
2042
2043
2044
2045
2045
2045
2045
2044
2043
2043
2042
2042
2041
2040
2041
2039
2039
2038
2038
2039
2042
2045
2046
2045
2041
2037
2034
2035
2043
2053
2065
2072
2072
2063
2047
2026
2005
1991
1987
1994
2007
2022
2036
2042
2043
2043
2044
2043
2043
2042
2041
2043
2046
2049
2051
2050
2048
2045
2043
2044
2047
2047
2048
2048
2048
2048
2048
2048
2049
2050
2050
2051
2052
2052
2052
2052
2054
2054
2055
2055
2055
2055
2057
2060
2063
2065
2065
2063
2062
2062
2064
2065
2066
2067
2067
2067
2068
2068
2069
2068
2068
2068
2067
2066
2065
2064
2063
2060
2061
2057
2055
2051
2047
2044
2044
2046
2047
2047
2044
2040
2038
2034
2036
2035
2035
2035
2035
2035
2035
2035
2036
2036
2036
2036
2036
2036
2036
2036
2036
2036
2037
2037
2036
2036
2036
2037
2039
2040
2041
2040
2038
2037
2037
2038
2038
2039
2039
2038
2038
2038
2038
2038
2038
2038
2037
2037
2037
2037
2037
2037
2037
2038
2038
2037
2036
2035
2035
2036
2038
2040
2041
2039
2038
2036
2035
2036
2037
2037
2037
2037
2037
2037
2037
2037
2037
2037
2037
2036
2036
2036
2037
2037
2038
2038
2038
2037
2036
2035
2036
2038
2040
2040
2039
2038
2036
2037
2037
2038
2038
2038
2038
2038
2038
2038
2038
2038
2038
2038
2038
2039
2038
2038
2038
2039
2039
2039
2037
2036
2036
2037
2040
2042
2043
2041
2040
2038
2037
2039
2038
2040
2039
2039
2039
2039
2039
2039
2039
2039
2039
2040
2040
2040
2040
2039
2040
2040
2041
2039
2036
2034
2034
2038
2043
2047
2047
2044
2040
2038
2039
2041
2045
2047
2047
2046
2044
2041
2039
2039
2041
2044
2045
2045
2042
2039
2037
2039
2039
2041
2040
2039
2039
2040
2041
2041
2040
2040
2047
2056
2068
2077
2078
2067
2048
2023
2000
1985
1982
1990
2006
2022
2036
2043
2045
2044
2044
2044
2045
2046
2046
2047
2047
2047
2048
2048
2050
2051
2052
2051
2049
2048
2048
2049
2050
2051
2051
2052
2052
2052
2053
2054
2055
2056
2056
2056
2057
2058
2059
2060
2061
2062
2062
2062
2061
2062
2064
2067
2069
2071
2070
2070
2070
2070
2071
2072
2073
2073
2073
2073
2073
2073
2072
2072
2071
2070
2069
2067
2064
2061
2059
2056
2054
2052
2049
2048
2045
2044
2043
2044
2044
2043
2041
2040
2038
2038
2038
2039
2039
2039
2040
2040
2040
2040
2040
2040
2040
2040
2040
2040
2041
2041
2042
2042
2043
2041
2040
2039
2039
2041
2043
2045
2045
2043
2041
2039
2039
2039
2040
2039
2039
2040
2040
2040
2040
2040
2039
2039
2039
2039
2039
2039
2038
2038
2039
2038
2037
2036
2036
2037
2039
2040
2041
2039
2038
2037
2036
2037
2038
2038
2038
2038
2038
2038
2038
2038
2037
2037
2037
2038
2038
2039
2039
2038
2038
2038
2038
2038
2037
2036
2035
2037
2039
2041
2042
2041
2040
2038
2036
2037
2037
2038
2038
2038
2039
2039
2039
2038
2038
2038
2038
2038
2038
2038
2038
2038
2041
2042
2043
2044
2043
2042
2042
2043
2045
2045
2044
2041
2039
2037
2037
2037
2037
2038
2038
2038
2037
2037
2037
2038
2038
2037
2036
2036
2038
2046
2056
2070
2078
2076
2062
2039
2012
1989
1977
1978
1990
2007
2023
2035
2041
2042
2041
2040
2041
2042
2043
2046
2046
2046
2046
2046
2046
2046
2047
2047
2047
2047
2047
2049
2048
2049
2048
2046
2047
2048
2052
2056
2057
2056
2054
2052
2051
2054
2054
2056
2057
2057
2058
2059
2060
2061
2062
2063
2064
2065
2066
2066
2067
2067
2069
2069
2070
2070
2069
2069
2070
2071
2072
2071
2069
2066
2063
2060
2059
2056
2054
2051
2048
2047
2045
2043
2042
2040
2039
2038
2037
2036
2035
2035
2033
2035
2035
2035
2033
2031
2030
2032
2036
2039
2040
2039
2036
2034
2033
2034
2036
2036
2036
2036
2036
2037
2037
2038
2038
2037
2037
2037
2037
2037
2037
2037
2039
2039
2038
2037
2035
2034
2035
2036
2039
2040
2039
2037
2036
2035
2035
2035
2035
2035
2035
2035
2035
2036
2036
2036
2036
2035
2036
2035
2036
2036
2036
2037
2036
2036
2036
2035
2034
2035
2036
2038
2039
2039
2038
2036
2035
2036
2036
2037
2037
2037
2037
2038
2038
2038
2038
2038
2038
2038
2038
2038
2038
2038
2038
2039
2038
2038
2037
2036
2036
2037
2039
2040
2040
2039
2038
2037
2036
2037
2037
2038
2038
2039
2039
2039
2038
2038
2038
2038
2038
2039
2039
2039
2039
2039
2040
2039
2039
2038
2037
2037
2038
2041
2043
2043
2042
2039
2038
2037
2039
2040
2042
2044
2044
2044
2044
2043
2042
2041
2041
2040
2040
2039
2039
2039
2038
2039
2039
2039
2038
2037
2037
2038
2040
2041
2040
2039
2041
2048
2058
2068
2073
2068
2055
2036
2016
1998
1988
1988
1998
2012
2027
2038
2043
2042
2042
2042
2041
2044
2044
2046
2043
2041
2041
2042
2046
2049
2051
2050
2048
2046
2043
2045
2045
2048
2048
2048
2048
2048
2048
2049
2050
2051
2051
2052
2052
2052
2053
2053
2055
2055
2056
2055
2054
2055
2057
2060
2064
2066
2066
2065
2064
2063
2065
2065
2065
2066
2066
2066
2066
2066
2066
2065
2064
2063
2061
2059
2057
2054
2051
2050
2048
2046
2044
2040
2037
2036
2037
2039
2040
2040
2037
2035
2032
2032
2032
2032
2033
2033
2033
2034
2034
2034
2033
2033
2033
2033
2034
2034
2034
2034
2035
2036
2037
2036
2035
2034
2033
2032
2033
2036
2038
2041
2042
2040
2038
2035
2033
2032
2034
2035
2036
2036
2035
2035
2034
2034
2034
2034
2034
2034
2034
2034
2034
2034
2034
2033
2033
2033
2034
2035
2037
2037
2036
2034
2033
2034
2034
2035
2036
2036
2036
2036
2036
2036
2035
2036
2036
2037
2037
2037
2037
2036
2037
2037
2037
2037
2035
2035
2035
2037
2039
2040
2041
2040
2038
2037
2036
2037
2037
2038
2038
2038
2038
2038
2038
2038
2038
2038
2038
2038
2038
2038
2038
2037
2039
2039
2038
2038
2037
2037
2038
2041
2042
2043
2042
2039
2038
2037
2038
2039
2040
2040
2040
2040
2040
2040
2040
2040
2040
2040
2040
2039
2039
2039
2039
2041
2042
2043
2043
2043
2043
2044
2045
2046
2046
2044
2042
2040
2039
2040
2040
2040
2039
2039
2039
2040
2041
2042
2042
2041
2040
2038
2037
2038
2044
2053
2065
2075
2077
2068
2049
2026
2003
1989
1987
1995
2009
2023
2034
2041
2043
2043
2043
2043
2043
2044
2045
2045
2046
2047
2047
2048
2048
2048
2048
2048
2049
2048
2051
2050
2051
2050
2048
2048
2050
2053
2057
2058
2057
2056
2055
2053
2056
2057
2058
2058
2059
2059
2060
2061
2062
2064
2064
2065
2066
2067
2068
2069
2069
2070
2071
2072
2071
2071
2070
2071
2073
2075
2076
2074
2072
2070
2067
2065
2063
2062
2059
2057
2055
2053
2051
2049
2048
2047
2045
2044
2043
2042
2041
2040
2042
2043
2042
2041
2039
2037
2038
2041
2045
2047
2046
2044
2042
2040
2041
2042
2042
2043
2043
2043
2043
2044
2043
2044
2043
2043
2043
2044
2044
2045
2044
2045
2044
2044
2044
2043
2042
2041
2042
2043
2045
2046
2045
2043
2041
2041
2041
2041
2042
2042
2042
2042
2042
2041
2041
2041
2041
2042
2042
2043
2043
2042
2042
2043
2042
2042
2040
2040
2039
2041
2044
2046
2047
2046
2044
2042
2040
2041
2041
2043
2043
2043
2043
2043
2043
2043
2044
2044
2043
2044
2044
2044
2044
2043
2043
2044
2043
2044
2044
2045
2047
2049
2051
2052
2051
2048
2046
2043
2043
2043
2043
2043
2043
2043
2043
2042
2042
2042
2042
2043
2043
2044
2044
2043
2040
2041
2044
2051
2065
2077
2085
2081
2064
2038
2008
1983
1970
1972
1985
2006
2025
2038
2045
2046
2045
2045
2046
2048
2048
2049
2049
2049
2049
2048
2050
2050
2049
2052
2052
2052
2050
2048
2049
2051
2055
2058
2059
2058
2056
2054
2053
2056
2057
2059
2059
2059
2060
2061
2062
2063
2064
2065
2065
2066
2067
2068
2069
2069
2071
2071
2072
2072
2072
2072
2073
2076
2077
2078
2077
2074
2072
2070
2071
2069
2067
2065
2062
2059
2056
2054
2051
2049
2047
2045
2042
2041
2040
2039
2038
2039
2039
2038
2036
2034
2034
2035
2038
2041
2042
2042
2039
2037
2035
2037
2038
2038
2038
2038
2038
2038
2039
2039
2040
2040
2040
2039
2039
2039
2039
2039
2041
2042
2042
2040
2038
2036
2037
2039
2042
2043
2042
2041
2039
2038
2038
2038
2038
2038
2038
2038
2038
2038
2038
2038
2037
2038
2038
2038
2038
2038
2038
2038
2038
2038
2037
2036
2035
2036
2037
2040
2041
2040
2039
2037
2036
2036
2037
2037
2037
2038
2038
2038
2038
2037
2037
2036
2037
2038
2040
2042
2043
2044
2044
2043
2042
2040
2039
2038
2037
2038
2040
2041
2041
2040
2038
2037
2036
2037
2036
2037
2038
2038
2038
2037
2036
2035
2038
2046
2058
2070
2077
2073
2057
2033
2007
1984
1972
1971
1982
2000
2020
2036
2045
2047
2045
2042
2041
2041
2043
2045
2046
2046
2047
2047
2046
2046
2046
2047
2047
2048
2049
2049
2050
2050
2049
2050
2050
2050
2050
2050
2050
2052
2054
2057
2058
2058
2057
2057
2057
2059
2060
2062
2063
2063
2063
2062
2062
2064
2067
2071
2075
2075
2074
2071
2070
2070
2070
2072
2072
2072
2069
2066
2064
2064
2065
2066
2065
2061
2055
2049
2045
2044
2042
2042
2041
2039
2038
2037
2036
2036
2036
2036
2035
2035
2034
2034
2034
2034
2035
2035
2036
2035
2033
2033
2034
2037
2039
2040
2040
2038
2037
2035
2036
2036
2038
2038
2038
2038
2038
2039
2039
2039
2038
2038
2037
2037
2037
2038
2037
2039
2039
2037
2037
2034
2034
2034
2037
2041
2042
2042
2040
2038
2036
2036
2037
2036
2037
2037
2037
2037
2037
2038
2038
2037
2037
2037
2037
2037
2037
2037
2038
2038
2038
2037
2036
2036
2037
2039
2040
2041
2040
2038
2037
2036
2037
2037
2037
2037
2037
2037
2038
2038
2038
2038
2038
2038
2038
2038
2038
2038
2039
2039
2038
2038
2037
2037
2036
2037
2038
2039
2040
2040
2040
2040
2040
2042
2043
2044
2044
2043
2043
2042
2041
2040
2039
2039
2038
2039
2039
2039
2039
2038
2039
2039
2038
2039
2037
2037
2036
2036
2038
2041
2048
2057
2068
2075
2074
2062
2041
2015
1991
1977
1974
1983
2000
2018
2033
2041
2043
2043
2043
2044
2045
2045
2047
2047
2047
2046
2046
2046
2047
2048
2050
2050
2050
2048
2048
2048
2048
2049
2050
2050
2050
2051
2051
2051
2052
2053
2054
2054
2055
2055
2056
2057
2057
2059
2059
2060
2059
2059
2060
2062
2064
2067
2068
2069
2068
2067
2067
2069
2069
2070
2069
2069
2068
2068
2067
2067
2067
2066
2065
2062
2060
2057
2054
2051
2048
2048
2046
2044
2041
2038
2037
2038
2041
2043
2043
2040
2037
2035
2033
2036
2036
2037
2037
2037
2037
2036
2036
2037
2037
2038
2038
2038
2038
2038
2038
2038
2039
2038
2039
2038
2037
2037
2037
2039
2041
2041
2041
2039
2038
2036
2038
2037
2037
2037
2037
2037
2037
2037
2037
2037
2037
2037
2036
2036
2035
2036
2035
2037
2037
2036
2035
2033
2033
2034
2037
2040
2041
2040
2037
2035
2034
2035
2036
2036
2036
2036
2036
2037
2037
2037
2037
2037
2037
2036
2036
2037
2037
2037
2039
2039
2039
2037
2035
2034
2034
2036
2039
2040
2040
2039
2038
2037
2037
2037
2037
2037
2038
2038
2038
2039
2038
2038
2038
2038
2038
2039
2039
2039
2039
2039
2039
2039
2038
2038
2037
2038
2039
2041
2042
2041
2040
2039
2037
2038
2038
2039
2039
2039
2039
2039
2040
2039
2039
2039
2039
2039
2040
2040
2040
2040
2041
2041
2040
2040
2038
2038
2040
2043
2046
2048
2048
2046
2043
2042
2041
2041
2041
2041
2040
2039
2039
2039
2039
2039
2039
2039
2039
2039
2039
2039
2038
2036
2037
2039
2045
2055
2065
2073
2072
2061
2041
2016
1993
1978
1977
1987
2004
2022
2035
2042
2043
2043
2043
2042
2043
2044
2045
2046
2046
2047
2046
2046
2046
2047
2048
2048
2047
2045
2045
2047
2050
2054
2056
2055
2053
2050
2049
2050
2053
2053
2054
2055
2055
2055
2056
2056
2057
2059
2061
2062
2062
2061
2060
2061
2062
2066
2069
2070
2070
2069
2069
2071
2074
2076
2075
2072
2069
2068
2068
2069
2068
2067
2064
2062
2060
2058
2057
2055
2053
2051
2048
2046
2044
2043
2042
2041
2043
2041
2040
2036
2032
2032
2034
2040
2044
2045
2043
2039
2036
2034
2036
2036
2037
2037
2037
2038
2038
2038
2039
2039
2039
2038
2038
2038
2037
2037
2037
2040
2041
2041
2039
2036
2034
2035
2039
2042
2045
2043
2039
2037
2034
2036
2037
2039
2038
2037
2037
2036
2037
2037
2037
2037
2038
2037
2037
2037
2036
2036
2038
2039
2040
2039
2037
2035
2035
2038
2042
2045
2045
2042
2039
2037
2038
2038
2039
2039
2039
2039
2040
2040
2041
2041
2040
2040
2040
2040
2041
2042
2042
2041
2042
2041
2040
2039
2038
2037
2037
2038
2041
2044
2047
2048
2047
2043
2040
2038
2038
2040
2042
2043
2042
2042
2041
2041
2041
2041
2041
2042
2042
2042
2042
2042
2043
2042
2040
2040
2041
2044
2048
2052
2052
2049
2046
2043
2041
2041
2043
2043
2043
2042
2042
2041
2041
2041
2042
2042
2042
2043
2043
2043
2042
2039
2041
2045
2054
2066
2076
2081
2075
2059
2035
2007
1985
1973
1977
1990
2011
2030
2042
2047
2047
2047
2047
2047
2048
2048
2049
2050
2050
2051
2051
2051
2049
2051
2051
2051
2050
2049
2048
2049
2052
2056
2059
2059
2056
2054
2053
2054
2056
2056
2057
2057
2058
2059
2060
2060
2061
2061
2063
2064
2066
2066
2065
2066
2067
2068
2070
2070
2068
2068
2070
2072
2076
2077
2076
2072
2068
2067
2067
2067
2066
2066
2064
2062
2059
2057
2054
2052
2050
2048
2048
2046
2044
2043
2041
2041
2042
2041
2040
2037
2034
2034
2037
2042
2045
2046
2043
2040
2038
2037
2039
2039
2039
2039
2039
2039
2040
2040
2040
2041
2040
2041
2041
2041
2041
2041
2040
2041
2042
2042
2040
2038
2037
2038
2042
2045
2046
2044
2041
2038
2036
2037
2037
2038
2038
2038
2038
2038
2038
2038
2038
2038
2038
2038
2038
2038
2038
2038
2039
2039
2038
2036
2035
2035
2037
2041
2044
2046
2044
2040
2036
2035
2035
2037
2037
2038
2038
2039
2040
2040
2040
2038
2036
2035
2035
2035
2036
2037
2037
2038
2038
2038
2037
2036
2036
2036
2038
2039
2041
2040
2040
2039
2039
2040
2042
2044
2044
2044
2043
2042
2041
2040
2040
2040
2039
2039
2039
2039
2039
2039
2039
2039
2039
2039
2037
2037
2037
2037
2038
2039
2042
2049
2059
2069
2073
2069
2054
2032
2008
1988
1978
1979
1992
2009
2025
2037
2043
2044
2044
2043
2044
2044
2046
2046
2046
2046
2045
2045
2047
2048
2051
2051
2051
2048
2048
2048
2048
2049
2049
2050
2050
2051
2051
2051
2052
2053
2053
2054
2055
2056
2057
2057
2057
2059
2060
2060
2060
2059
2058
2060
2064
2070
2073
2072
2070
2068
2067
2068
2069
2070
2070
2069
2069
2069
2068
2067
2066
2064
2063
2061
2060
2058
2055
2051
2048
2048
2046
2044
2040
2036
2035
2037
2041
2044
2044
2040
2036
2034
2032
2036
2035
2036
2035
2035
2035
2036
2036
2037
2037
2037
2037
2037
2037
2037
2038
2038
2038
2038
2038
2037
2037
2037
2038
2040
2041
2041
2041
2039
2038
2037
2037
2037
2037
2037
2036
2036
2037
2037
2037
2037
2037
2037
2037
2037
2036
2037
2036
2036
2037
2036
2036
2035
2035
2036
2038
2040
2040
2039
2037
2036
2035
2035
2036
2037
2037
2037
2037
2037
2037
2037
2037
2037
2037
2037
2037
2037
2037
2037
2038
2038
2039
2038
2037
2036
2036
2038
2040
2041
2040
2039
2038
2037
2037
2037
2038
2038
2038
2038
2039
2038
2038
2038
2038
2038
2039
2039
2039
2039
2039
2040
2039
2039
2038
2037
2037
2039
2041
2043
2043
2042
2040
2039
2038
2039
2040
2040
2040
2040
2040
2040
2040
2040
2040
2040
2039
2040
2040
2041
2041
2040
2041
2041
2041
2040
2038
2038
2039
2042
2046
2048
2048
2048
2045
2044
2042
2042
2042
2042
2041
2040
2040
2040
2040
2039
2039
2039
2039
2040
2041
2041
2040
2038
2038
2039
2045
2053
2062
2070
2072
2064
2049
2029
2007
1991
1985
1990
2004
2021
2034
2042
2044
2044
2044
2043
2044
2045
2046
2047
2047
2048
2048
2048
2047
2048
2048
2048
2047
2045
2044
2045
2048
2053
2056
2055
2052
2049
2048
2049
2051
2052
2053
2053
2054
2054
2055
2056
2057
2057
2058
2059
2060
2061
2062
2063
2063
2066
2066
2066
2064
2063
2063
2066
2071
2074
2075
2072
2068
2066
2063
2067
2066
2066
2063
2059
2056
2055
2056
2057
2056
2053
2048
2045
2041
2041
2041
2040
2040
2039
2038
2037
2036
2036
2036
2038
2039
2040
2039
2038
2037
2037
2037
2037
2037
2037
2037
2038
2038
2039
2039
2039
2039
2039
2039
2039
2038
2038
2037
2038
2039
2039
2038
2037
2037
2037
2039
2041
2042
2041
2039
2038
2037
2038
2037
2038
2037
2037
2038
2037
2038
2038
2037
2037
2037
2037
2037
2037
2037
2037
2038
2039
2039
2038
2036
2034
2034
2037
2039
2041
2041
2039
2037
2035
2036
2036
2037
2037
2036
2037
2037
2037
2037
2037
2037
2037
2037
2037
2037
2037
2037
2038
2038
2039
2038
2037
2036
2036
2038
2039
2041
2041
2040
2039
2037
2037
2037
2038
2038
2039
2039
2039
2039
2039
2038
2039
2039
2039
2039
2040
2039
2040
2040
2040
2040
2040
2038
2037
2037
2039
2041
2042
2042
2041
2039
2038
2038
2039
2040
2040
2040
2040
2040
2040
2040
2040
2040
2040
2041
2041
2041
2040
2040
2039
2040
2040
2040
2039
2038
2038
2040
2043
2047
2048
2048
2046
2044
2042
2042
2042
2042
2041
2040
2040
2039
2039
2038
2038
2039
2039
2039
2040
2040
2040
2039
2039
2038
2037
2041
2047
2057
2067
2074
2072
2060
2040
2016
1996
1986
1988
1999
2014
2029
2039
2043
2043
2042
2042
2042
2044
2044
2045
2046
2046
2047
2047
2047
2048
2047
2046
2044
2044
2045
2048
2051
2053
2053
2050
2048
2047
2048
2050
2051
2051
2052
2052
2053
2053
2055
2055
2056
2057
2057
2058
2058
2059
2059
2060
2063
2063
2064
2063
2061
2062
2065
2069
2072
2072
2071
2069
2067
2066
2068
2067
2066
2065
2064
2062
2061
2059
2057
2055
2053
2050
2048
2047
2045
2043
2041
2041
2040
2039
2038
2036
2035
2036
2038
2040
2041
2040
2038
2036
2035
2036
2036
2038
2038
2038
2038
2039
2039
2039
2039
2039
2038
2039
2038
2039
2039
2039
2041
2041
2040
2038
2037
2036
2038
2042
2044
2046
2044
2041
2038
2037
2037
2038
2038
2038
2038
2038
2038
2038
2038
2038
2038
2038
2038
2037
2037
2037
2038
2038
2038
2038
2037
2036
2036
2036
2037
2039
2041
2041
2040
2038
2036
2036
2036
2038
2038
2038
2038
2038
2038
2037
2037
2038
2038
2038
2038
2039
2039
2039
2039
2039
2038
2038
2037
2037
2037
2038
2041
2042
2042
2041
2038
2038
2037
2038
2038
2039
2039
2039
2040
2039
2039
2039
2038
2038
2039
2039
2039
2039
2039
2038
2039
2040
2039
2038
2036
2036
2037
2039
2043
2044
2044
2041
2039
2037
2037
2038
2039
2039
2040
2041
2043
2043
2044
2044
2044
2044
2043
2043
2042
2041
2040
2040
2040
2039
2038
2038
2037
2038
2040
2041
2042
2042
2040
2038
2036
2037
2039
2048
2060
2072
2080
2077
2061
2036
2007
1984
1972
1974
1986
2004
2021
2035
2042
2045
2045
2044
2042
2042
2041
2045
2048
2048
2049
2048
2047
2047
2047
2048
2049
2049
2049
2049
2049
2049
2050
2050
2051
2053
2053
2053
2053
2054
2054
2055
2058
2058
2057
2055
2054
2055
2059
2064
2067
2068
2066
2064
2063
2063
2067
2067
2068
2069
2069
2070
2071
2072
2072
2072
2071
2070
2069
2069
2069
2068
2066
2066
2064
2061
2058
2055
2051
2051
2050
2050
2049
2047
2045
2042
2039
2039
2038
2038
2038
2038
2038
2038
2038
2038
2038
2039
2039
2039
2039
2039
2039
2039
2041
2041
2041
2040
2038
2037
2038
2042
2046
2048
2048
2044
2041
2039
2039
2040
2040
2040
2040
2040
2040
2040
2040
2040
2040
2040
2039
2039
2039
2039
2039
2040
2040
2040
2038
2037
2036
2036
2038
2040
2042
2041
2040
2038
2036
2036
2037
2037
2038
2038
2038
2038
2039
2038
2038
2038
2038
2038
2038
2039
2039
2041
2044
2044
2043
2042
2041
2042
2045
2047
2048
2045
2041
2038
2035
2036
2037
2037
2038
2039
2039
2039
2039
2038
2038
2039
2039
2038
2036
2035
2038
2045
2058
2073
2087
2089
2072
2039
1997
1961
1942
1943
1962
1988
2012
2028
2037
2041
2043
2045
2046
2047
2048
2048
2048
2048
2048
2048
2049
2050
2051
2051
2051
2051
2051
2052
2053
2052
2052
2051
2051
2052
2055
2058
2059
2059
2057
2056
2056
2057
2058
2059
2060
2060
2061
2062
2063
2064
2064
2066
2067
2068
2069
2069
2070
2071
2072
2073
2074
2072
2070
2068
2067
2069
2071
2071
2070
2066
2062
2059
2056
2055
2052
2050
2048
2045
2043
2042
2040
2039
2038
2038
2037
2037
2036
2036
2036
2035
2037
2036
2036
2034
2032
2031
2033
2037
2041
2042
2041
2038
2036
2034
2037
2037
2038
2038
2038
2038
2038
2038
2039
2039
2039
2039
2039
2038
2038
2038
2037
2038
2039
2039
2037
2036
2034
2035
2037
2039
2041
2039
2037
2036
2034
2034
2034
2035
2035
2036
2036
2036
2036
2036
2036
2035
2035
2035
2034
2034
2034
2034
2036
2037
2037
2036
2034
2033
2033
2036
2039
2041
2040
2038
2037
2038
2040
2042
2042
2042
2041
2040
2039
2039
2038
2037
2037
2036
2035
2035
2035
2036
2037
2037
2037
2037
2036
2035
2034
2032
2033
2036
2044
2055
2066
2072
2071
2060
2042
2018
1995
1978
1971
1975
1989
2007
2024
2037
2042
2043
2043
2044
2044
2044
2046
2047
2047
2047
2046
2045
2045
2048
2050
2052
2052
2050
2048
2048
2047
2048
2049
2051
2051
2052
2053
2053
2054
2054
2055
2056
2057
2058
2059
2060
2061
2061
2063
2064
2064
2064
2064
2065
2068
2072
2074
2075
2074
2073
2072
2071
2073
2074
2074
2073
2072
2071
2070
2068
2066
2063
2061
2058
2055
2052
2049
2047
2043
2043
2041
2038
2036
2033
2031
2032
2034
2036
2037
2035
2033
2031
2030
2032
2033
2033
2033
2032
2032
2032
2033
2033
2033
2034
2034
2034
2034
2034
2033
2033
2035
2036
2038
2037
2034
2032
2032
2035
2039
2040
2039
2037
2035
2033
2035
2035
2036
2035
2035
2035
2034
2034
2035
2035
2035
2035
2035
2035
2035
2034
2035
2034
2037
2036
2036
2034
2031
2031
2033
2036
2039
2040
2038
2036
2034
2032
2034
2034
2034
2034
2035
2035
2035
2036
2036
2036
2035
2035
2035
2034
2034
2034
2034
2035
2035
2036
2035
2033
2032
2033
2034
2037
2038
2038
2036
2035
2033
2034
2034
2035
2035
2036
2036
2036
2036
2035
2036
2035
2035
2036
2036
2037
2037
2037
2038
2038
2037
2036
2034
2034
2035
2038
2042
2044
2043
2040
2037
2035
2035
2036
2037
2037
2037
2038
2038
2038
2038
2038
2038
2038
2038
2038
2038
2038
2039
2039
2039
2039
2039
2038
2038
2038
2039
2040
2041
2041
2040
2040
2040
2041
2043
2044
2044
2043
2043
2042
2041
2040
2040
2040
2039
2039
2039
2039
2039
2039
2039
2039
2039
2039
2037
2035
2035
2038
2046
2056
2066
2070
2067
2059
2045
2029
2012
1999
1992
1994
2004
2018
2032
2041
2045
2045
2044
2044
2045
2046
2047
2046
2047
2047
2047
2047
2046
2046
2047
2048
2050
2050
2050
2048
2048
2048
2048
2050
2051
2052
2052
2052
2053
2053
2054
2055
2056
2057
2058
2059
2059
2060
2060
2061
2062
2062
2063
2062
2063
2064
2067
2070
2072
2072
2071
2070
2069
2070
2070
2070
2070
2070
2070
2069
2068
2067
2065
2063
2061
2060
2057
2055
2052
2049
2047
2045
2044
2042
2040
2038
2037
2037
2038
2040
2039
2039
2036
2035
2035
2036
2036
2036
2036
2036
2036
2036
2037
2037
2038
2038
2038
2038
2038
2037
2038
2037
2040
2039
2038
2036
2034
2034
2037
2041
2044
2044
2041
2038
2035
2035
2038
2037
2036
2034
2032
2034
2037
2041
2043
2042
2039
2036
2034
2034
2035
2036
2035
2037
2037
2037
2035
2034
2033
2034
2037
2040
2041
2040
2038
2036
2034
2036
2036
2036
2037
2037
2037
2037
2037
2037
2037
2037
2037
2037
2037
2037
2036
2036
2039
2039
2039
2037
2035
2033
2033
2037
2040
2043
2043
2040
2038
2035
2037
2037
2037
2038
2037
2038
2038
2038
2038
2038
2038
2038
2038
2038
2038
2038
2038
2039
2039
2039
2038
2037
2036
2036
2039
2040
2042
2041
2040
2038
2036
2037
2038
2039
2039
2039
2039
2039
2039
2039
2039
2039
2039
2039
2039
2040
2040
2039
2039
2039
2039
2039
2038
2038
2038
2039
2041
2042
2042
2041
2040
2040
2041
2043
2044
2045
2044
2044
2043
2042
2041
2041
2040
2040
2040
2039
2039
2039
2039
2038
2038
2039
2039
2039
2038
2037
2037
2040
2048
2058
2066
2071
2069
2059
2045
2027
2009
1995
1989
1993
2005
2020
2034
2042
2045
2044
2044
2043
2044
2044
2045
2046
2046
2047
2046
2046
2045
2046
2048
2050
2051
2050
2048
2048
2048
2048
2049
2050
2051
2051
2051
2052
2052
2052
2053
2054
2055
2056
2057
2058
2057
2058
2058
2061
2060
2062
2060
2059
2060
2063
2069
2072
2074
2072
2068
2067
2066
2068
2068
2069
2068
2067
2067
2066
2065
2064
2063
2062
2059
2057
2054
2051
2049
2047
2047
2044
2042
2040
2037
2035
2036
2038
2040
2040
2039
2037
2035
2033
2035
2035
2036
2035
2035
2035
2036
2036
2037
2037
2037
2037
2037
2037
2036
2037
2036
2037
2038
2039
2037
2035
2034
2034
2037
2042
2044
2044
2041
2037
2035
2035
2036
2037
2037
2037
2037
2037
2036
2036
2036
2036
2036
2036
2036
2035
2035
2035
2036
2037
2037
2036
2034
2033
2033
2035
2037
2038
2038
2037
2036
2036
2035
2036
2036
2036
2036
2036
2036
2037
2036
2036
2036
2036
2036
2037
2037
2037
2037
2038
2038
2038
2037
2036
2036
2036
2037
2039
2041
2040
2039
2038
2036
2036
2037
2038
2038
2038
2038
2038
2037
2037
2037
2037
2037
2038
2038
2038
2038
2038
2039
2038
2038
2037
2036
2036
2037
2038
2041
2042
2042
2040
2036
2035
2035
2037
2039
2041
2041
2041
2040
2039
2039
2039
2039
2040
2040
2040
2040
2040
2040
2039
2041
2040
2039
2038
2037
2038
2041
2044
2045
2043
2040
2038
2038
2039
2043
2044
2045
2045
2045
2045
2043
2043
2042
2041
2041
2041
2041
2040
2040
2039
2038
2039
2039
2039
2037
2036
2036
2038
2040
2043
2046
2050
2057
2065
2069
2070
2062
2047
2027
2007
1993
1988
1993
2006
2021
2035
2042
2045
2044
2043
2043
2042
2045
2047
2046
2047
2044
2042
2042
2045
2049
2054
2055
2053
2050
2047
2047
2048
2048
2050
2050
2050
2051
2051
2052
2052
2054
2054
2054
2055
2056
2057
2057
2058
2060
2060
2061
2060
2058
2058
2060
2065
2070
2074
2073
2071
2068
2065
2067
2068
2069
2070
2070
2070
2069
2068
2068
2067
2065
2064
2062
2060
2058
2056
2052
2051
2049
2047
2044
2039
2036
2036
2039
2044
2045
2043
2039
2035
2033
2033
2034
2034
2034
2033
2034
2035
2037
2037
2037
2036
2035
2036
2036
2036
2037
2036
2037
2037
2038
2037
2035
2033
2033
2036
2040
2043
2043
2040
2037
2035
2035
2036
2037
2037
2037
2037
2037
2036
2036
2035
2035
2035
2035
2036
2036
2037
2037
2036
2036
2036
2035
2033
2032
2033
2035
2038
2041
2041
2039
2036
2034
2034
2035
2036
2036
2036
2036
2036
2036
2035
2035
2035
2036
2036
2036
2037
2037
2037
2036
2037
2037
2037
2035
2034
2034
2035
2038
2041
2042
2040
2037
2035
2034
2036
2037
2038
2038
2038
2038
2038
2037
2038
2038
2038
2039
2039
2039
2036
2034
2033
2036
2041
2045
2045
2042
2038
2036
2037
2041
2043
2043
2040
2038
2036
2038
2039
2040
2039
2039
2039
2039
2039
2039
2039
2039
2039
2040
2039
2039
2039
2039
2039
2040
2040
2039
2037
2036
2037
2040
2043
2046
2046
2043
2040
2038
2039
2040
2041
2043
2043
2044
2045
2045
2044
2043
2043
2042
2042
2042
2041
2040
2039
2038
2040
2039
2041
2039
2036
2034
2036
2041
2046
2048
2047
2046
2048
2054
2067
2072
2072
2061
2042
2019
2000
1988
1986
1996
2011
2026
2038
2044
2045
2043
2044
2046
2047
2048
2047
2046
2045
2046
2048
2049
2050
2049
2048
2046
2045
2047
2047
2048
2048
2049
2049
2050
2050
2051
2052
2052
2053
2053
2054
2054
2055
2056
2056
2057
2058
2058
2058
2058
2059
2062
2064
2066
2066
2066
2066
2066
2067
2068
2069
2069
2070
2070
2071
2071
2071
2070
2070
2069
2068
2066
2065
2063
2061
2060
2058
2055
2051
2048
2044
2043
2044
2045
2044
2043
2041
2038
2037
2037
2037
2036
2036
2036
2037
2037
2038
2038
2038
2037
2038
2038
2037
2037
2038
2037
2039
2039
2039
2038
2038
2037
2038
2040
2041
2042
2041
2040
2039
2037
2038
2038
2038
2039
2039
2039
2039
2038
2038
2038
2038
2037
2037
2037
2038
2038
2038
2037
2038
2037
2037
2035
2035
2036
2037
2040
2040
2040
2038
2036
2036
2035
2037
2038
2038
2038
2037
2037
2037
2037
2037
2037
2037
2037
2037
2038
2038
2038
2038
2038
2038
2037
2037
2037
2037
2038
2039
2040
2040
2039
2038
2037
2036
2037
2038
2039
2039
2039
2038
2038
2038
2038
2038
2039
2039
2039
2039
2039
2038
2038
2039
2038
2039
2038
2037
2037
2037
2039
2041
2042
2041
2039
2038
2037
2038
2038
2038
2038
2038
2038
2038
2038
2038
2038
2039
2039
2039
2039
2039
2039
2039
2039
2040
2039
2041
2039
2037
2035
2036
2038
2042
2045
2046
2043
2040
2038
2038
2038
2040
2040
2040
2040
2040
2040
2040
2040
2040
2040
2041
2042
2043
2044
2044
2047
2046
2046
2044
2041
2040
2040
2042
2044
2044
2043
2041
2040
2037
2040
2039
2040
2041
2041
2041
2040
2039
2039
2043
2051
2062
2071
2076
2070
2055
2034
2012
1995
1986
1987
1997
2012
2028
2040
2048
2048
2048
2045
2044
2044
2044
2045
2046
2046
2046
2047
2047
2048
2048
2048
2048
2048
2048
2048
2048
2049
2049
2051
2052
2052
2051
2050
2049
2050
2053
2056
2058
2059
2058
2056
2056
2057
2058
2059
2060
2061
2062
2063
2064
2065
2066
2066
2067
2068
2068
2069
2070
2070
2070
2071
2071
2069
2067
2065
2065
2066
2069
2070
2068
2063
2058
2054
2050
2050
2048
2046
2045
2043
2041
2040
2039
2038
2037
2036
2036
2036
2036
2036
2035
2036
2036
2036
2035
2034
2033
2034
2035
2038
2039
2038
2037
2036
2035
2035
2036
2037
2037
2037
2037
2037
2036
2036
2037
2036
2037
2037
2037
2037
2037
2037
2037
2037
2036
2035
2035
2034
2034
2036
2037
2039
2038
2037
2035
2034
2034
2035
2036
2036
2036
2036
2035
2035
2036
2035
2036
2036
2036
2036
2036
2037
2036
2036
2037
2036
2036
2035
2035
2035
2036
2038
2039
2040
2038
2036
2035
2033
2035
2036
2036
2037
2037
2037
2037
2037
2037
2036
2036
2036
2037
2037
2037
2037
2036
2037
2038
2037
2039
2036
2034
2032
2034
2038
2042
2045
2045
2042
2038
2036
2036
2035
2038
2037
2037
2037
2037
2037
2037
2037
2038
2038
2038
2038
2038
2037
2038
2040
2039
2038
2036
2035
2035
2036
2040
2042
2042
2041
2039
2037
2036
2038
2038
2038
2038
2038
2038
2038
2039
2039
2038
2038
2038
2038
2038
2038
2039
2038
2040
2039
2039
2038
2036
2036
2037
2039
2041
2043
2043
2041
2038
2035
2035
2035
2039
2043
2045
2045
2044
2043
2042
2042
2042
2043
2041
2040
2039
2039
2039
2040
2040
2040
2038
2036
2035
2036
2038
2041
2043
2042
2039
2036
2036
2041
2050
2061
2071
2074
2067
2051
2031
2008
1992
1984
1988
2000
2016
2030
2040
2044
2044
2043
2043
2043
2043
2043
2044
2045
2047
2048
2048
2048
2047
2045
2046
2046
2047
2048
2048
2048
2048
2048
2048
2048
2049
2049
2050
2051
2052
2053
2053
2054
2055
2055
2056
2056
2056
2057
2059
2061
2063
2064
2063
2062
2063
2063
2065
2066
2067
2068
2068
2068
2068
2068
2068
2068
2068
2069
2068
2068
2066
2065
2063
2061
2060
2057
2054
2051
2048
2048
2047
2047
2045
2043
2040
2038
2036
2036
2037
2037
2036
2036
2036
2035
2036
2035
2036
2036
2036
2036
2036
2036
2036
2036
2037
2037
2037
2036
2036
2035
2036
2039
2040
2042
2041
2039
2038
2037
2038
2038
2038
2038
2038
2038
2037
2037
2038
2037
2037
2037
2037
2037
2037
2037
2037
2036
2038
2039
2038
2035
2033
2032
2035
2040
2045
2046
2043
2039
2037
2035
2036
2038
2038
2037
2037
2037
2038
2038
2038
2038
2039
2038
2038
2038
2037
2038
2037
2040
2040
2040
2038
2036
2035
2037
2041
2044
2045
2044
2041
2039
2036
2038
2039
2039
2039
2039
2039
2039
2039
2040
2040
2040
2040
2040
2040
2040
2040
2040
2040
2040
2040
2040
2039
2039
2040
2041
2043
2044
2043
2041
2040
2040
2039
2039
2040
2040
2040
2041
2041
2041
2041
2041
2040
2040
2040
2040
2041
2041
2041
2042
2042
2042
2041
2040
2040
2040
2042
2044
2045
2044
2043
2042
2040
2041
2041
2041
2041
2041
2041
2042
2042
2042
2042
2041
2041
2041
2042
2042
2043
2042
2043
2043
2043
2042
2041
2041
2042
2044
2045
2046
2045
2043
2042
2041
2043
2044
2047
2048
2048
2048
2047
2046
2045
2044
2044
2043
2043
2043
2043
2043
2043
2042
2043
2041
2041
2040
2040
2042
2044
2046
2046
2048
2053
2061
2071
2075
2073
2058
2039
2017
1999
1990
1991
2001
2017
2031
2042
2046
2046
2046
2045
2046
2046
2047
2048
2048
2048
2048
2048
2048
2049
2051
2052
2051
2050
2049
2049
2049
2050
2051
2051
2052
2052
2052
2053
2053
2054
2055
2056
2057
2057
2058
2058
2059
2060
2060
2061
2061
2061
2061
2063
2065
2068
2070
2070
2070
2069
2069
2070
2071
2071
2071
2071
2071
2071
2071
2070
2069
2069
2068
2066
2065
2063
2060
2058
2055
2054
2051
2050
2046
2042
2040
2041
2044
2047
2047
2044
2039
2036
2034
2037
2037
2038
2037
2037
2037
2038
2038
2038
2038
2038
2038
2038
2038
2038
2039
2038
2040
2039
2039
2038
2036
2036
2038
2041
2044
2045
2043
2041
2039
2036
2039
2038
2039
2038
2039
2038
2039
2039
2039
2039
2038
2038
2038
2038
2038
2038
2037
2038
2038
2039
2038
2037
2036
2036
2038
2040
2041
2041
2040
2039
2038
2038
2038
2039
2038
2038
2038
2039
2039
2039
2039
2039
2039
2038
2038
2038
2038
2038
2040
2040
2040
2039
2037
2036
2036
2039
2042
2043
2042
2040
2039
2038
2038
2038
2039
2038
2038
2039
2039
2039
2039
2039
2039
2039
2039
2039
2040
2040
2040
2040
2040
2040
2040
2039
2039
2039
2040
2041
2043
2043
2042
2041
2039
2039
2039
2040
2041
2041
2041
2041
2041
2041
2041
2041
2040
2041
2041
2041
2041
2041
2041
2041
2041
2041
2040
2040
2040
2041
2042
2043
2043
2042
2041
2040
2040
2040
2041
2041
2042
2041
2041
2041
2041
2041
2041
2041
2041
2041
2041
2041
2042
2041
2041
2041
2040
2040
2040
2041
2043
2046
2048
2050
2049
2048
2045
2043
2042
2043
2042
2042
2042
2041
2040
2040
2040
2040
2041
2042
2042
2041
2039
2038
2037
2040
2043
2048
2056
2064
2071
2073
2069
2055
2035
2011
1993
1986
1989
2004
2020
2034
2043
2045
2045
2043
2043
2044
2045
2046
2047
2047
2048
2048
2048
2047
2047
2049
2048
2049
2047
2045
2044
2047
2052
2057
2059
2057
2053
2049
2048
2050
2051
2055
2055
2055
2054
2055
2055
2056
2058
2059
2060
2060
2061
2062
2063
2063
2066
2066
2066
2066
2065
2066
2068
2071
2074
2074
2073
2070
2068
2067
2069
2067
2067
2065
2064
2062
2060
2058
2056
2054
2051
2049
2048
2046
2044
2042
2040
2039
2039
2039
2038
2037
2036
2036
2037
2038
2039
2038
2037
2036
2035
2035
2036
2036
2036
2036
2037
2037
2037
2037
2037
2037
2037
2037
2037
2037
2038
2038
2039
2039
2039
2039
2038
2037
2037
2038
2040
2041
2041
2040
2038
2037
2037
2037
2037
2037
2037
2037
2037
2037
2037
2037
2036
2036
2037
2037
2037
2038
2038
2038
2038
2038
2037
2036
2035
2035
2036
2038
2040
2041
2040
2038
2036
2035
2036
2037
2038
2038
2038
2038
2038
2038
2037
2038
2038
2038
2038
2039
2039
2039
2038
2039
2039
2039
2038
2037
2037
2038
2040
2041
2041
2040
2038
2037
2037
2038
2039
2039
2039
2039
2039
2039
2039
2039
2038
2039
2039
2039
2039
2039
2039
2039
2039
2040
2039
2039
2038
2038
2039
2040
2041
2041
2040
2039
2039
2038
2039
2040
2040
2039
2039
2039
2039
2039
2039
2040
2040
2040
2040
2040
2040
2040
2040
2040
2040
2040
2040
2039
2039
2040
2041
2042
2042
2041
2040
2039
2039
2039
2040
2040
2040
2040
2040
2040
2039
2040
2041
2042
2043
2044
2045
2045
2045
2044
2043
2043
2042
2042
2040
2038
2038
2039
2041
2044
2045
2042
2041
2039
2038
2039
2040
2041
2040
2039
2041
2047
2055
2066
2074
2074
2065
2047
2024
2003
1990
1985
1994
2008
2024
2035
2040
2041
2041
2044
2047
2049
2049
2047
2045
2043
2045
2046
2047
2047
2047
2047
2047
2048
2048
2048
2048
2048
2048
2048
2048
2049
2049
2051
2051
2052
2051
2050
2050
2052
2055
2057
2059
2059
2058
2057
2057
2058
2059
2061
2061
2062
2064
2064
2065
2066
2066
2066
2066
2068
2068
2069
2069
2069
2069
2068
2068
2067
2065
2063
2062
2062
2062
2062
2060
2056
2051
2047
2043
2042
2040
2040
2039
2038
2037
2037
2036
2036
2036
2035
2034
2034
2035
2035
2035
2036
2036
2035
2034
2033
2033
2034
2037
2038
2040
2040
2038
2036
2035
2036
2036
2037
2037
2037
2038
2038
2038
2037
2037
2037
2037
2037
2038
2038
2038
2038
2037
2037
2037
2037
2036
2036
2035
2036
2037
2039
2040
2039
2038
2036
2035
2036
2037
2038
2038
2038
2038
2037
2037
2037
2037
2037
2037
2038
2038
2037
2038
2037
2037
2038
2037
2037
2037
2037
2038
2039
2040
2040
2039
2039
2038
2037
2038
2038
2039
2039
2039
2039
2039
2039
2039
2039
2039
2039
2040
2040
2040
2040
2040
2041
2041
2040
2040
2039
2040
2041
2042
2043
2043
2042
2041
2040
2041
2041
2042
2042
2041
2041
2041
2041
2041
2042
2042
2042
2042
2042
2042
2042
2042
2042
2041
2042
2042
2042
2042
2040
2041
2042
2044
2046
2046
2045
2043
2041
2040
2040
2040
2041
2043
2045
2047
2048
2048
2048
2047
2046
2046
2045
2044
2043
2043
2042
2044
2043
2042
2041
2039
2039
2040
2043
2045
2046
2045
2042
2040
2039
2046
2056
2070
2080
2083
2072
2050
2022
1996
1979
1975
1984
2001
2019
2033
2042
2045
2046
2047
2047
2046
2046
2046
2047
2048
2050
2052
2051
2051
2050
2049
2050
2050
2050
2050
2050
2051
2051
2052
2053
2053
2054
2054
2054
2054
2055
2055
2056
2057
2058
2059
2059
2057
2057
2058
2061
2066
2069
2070
2066
2063
2061
2063
2068
2072
2074
2074
2072
2070
2069
2070
2070
2071
2070
2070
2069
2068
2067
2066
2065
2063
2060
2057
2054
2051
2048
2048
2048
2047
2046
2043
2040
2037
2036
2036
2037
2037
2037
2037
2037
2037
2037
2036
2037
2037
2037
2037
2038
2038
2037
2037
2039
2039
2038
2036
2035
2035
2038
2042
2045
2046
2043
2040
2037
2035
2038
2038
2039
2039
2039
2039
2039
2038
2038
2037
2037
2037
2037
2037
2037
2037
2037
2037
2036
2036
2035
2036
2036
2038
2040
2040
2040
2039
2037
2036
2035
2037
2037
2038
2037
2037
2037
2037
2037
2037
2037
2037
2037
2037
2037
2037
2037
2037
2037
2037
2037
2037
2036
2036
2037
2038
2040
2041
2041
2039
2038
2037
2036
2036
2036
2037
2037
2037
2037
2037
2037
2037
2037
2037
2037
2038
2037
2037
2037
2037
2037
2037
2038
2037
2036
2036
2036
2039
2041
2042
2041
2039
2037
2036
2036
2036
2037
2037
2036
2037
2038
2039
2039
2039
2038
2037
2037
2038
2038
2038
2037
2040
2039
2038
2037
2035
2034
2036
2039
2043
2046
2047
2046
2044
2042
2042
2041
2039
2039
2039
2038
2038
2038
2038
2038
2038
2038
2037
2037
2037
2037
2037
2037
2037
2036
2036
2041
2048
2060
2070
2074
2070
2055
2036
2014
1997
1989
1990
2001
2016
2030
2039
2043
2043
2043
2042
2042
2042
2041
2041
2043
2045
2047
2048
2048
2048
2047
2044
2043
2043
2047
2052
2056
2057
2053
2049
2047
2045
2048
2048
2049
2049
2050
2052
2053
2054
2054
2055
2055
2056
2057
2057
2058
2059
2060
2062
2064
2064
2063
2062
2062
2065
2069
2074
2075
2073
2070
2067
2065
2067
2067
2068
2066
2065
2064
2062
2060
2058
2056
2053
2050
2048
2047
2045
2043
2040
2041
2039
2038
2035
2033
2032
2034
2038
2041
2042
2040
2037
2034
2031
2034
2034
2035
2035
2035
2036
2035
2036
2035
2036
2036
2036
2036
2037
2037
2037
2037
2038
2038
2038
2036
2035
2035
2037
2039
2042
2043
2042
2039
2037
2036
2036
2037
2038
2038
2038
2038
2037
2037
2037
2037
2037
2037
2037
2037
2037
2037
2037
2037
2037
2038
2037
2036
2035
2036
2038
2040
2042
2042
2039
2036
2035
2035
2037
2039
2038
2038
2037
2037
2037
2038
2038
2038
2039
2038
2039
2038
2038
2038
2038
2038
2038
2038
2038
2037
2038
2040
2043
2045
2045
2043
2040
2038
2037
2039
2040
2041
2040
2038
2038
2039
2041
2042
2042
2042
2041
2041
2040
2042
2041
2040
2043
2043
2043
2041
2038
2037
2039
2044
2047
2048
2047
2044
2041
2039
2042
2042
2042
2041
2041
2041
2042
2042
2042
2043
2044
2045
2046
2047
2047
2048
2047
2048
2048
2047
2044
2041
2040
2042
2045
2048
2050
2048
2045
2042
2040
2041
2042
2044
2044
2043
2042
2042
2044
2051
2062
2073
2081
2080
2068
2048
2025
2003
1990
1989
1999
2013
2026
2037
2043
2048
2052
2056
2057
2055
2051
2049
2048
2048
2049
2051
2051
2052
2052
2053
2053
2052
2052
2053
2053
2054
2055
2056
2055
2056
2057
2057
2057
2056
2055
2056
2060
2065
2069
2069
2067
2063
2061
2061
2064
2066
2067
2068
2069
2070
2071
2072
2073
2074
2074
2075
2076
2076
2077
2077
2076
2078
2077
2076
2074
2071
2069
2070
2072
2073
2073
2070
2064
2058
2052
2051
2049
2048
2048
2046
2045
2044
2044
2044
2043
2042
2042
2041
2042
2042
2042
2042
2042
2043
2043
2042
2041
2040
2042
2044
2047
2048
2047
2045
2042
2040
2041
2042
2045
2046
2047
2046
2044
2043
2041
2041
2042
2043
2044
2044
2043
2042
2042
2043
2042
2043
2042
2042
2042
2042
2043
2044
2044
2044
2043
2042
2042
2042
2042
2042
2042
2042
2042
2042
2042
2042
2042
2043
2043
2041
2040
2039
2040
2043
2045
2048
2046
2044
2041
2039
2040
2041
2045
2046
2046
2045
2043
2041
2040
2041
2042
2043
2042
2042
2041
2041
2042
2043
2044
2045
2045
2045
2046
2046
2048
2047
2048
2047
2045
2043
2040
2040
2041
2043
2045
2045
2044
2042
2041
2039
2041
2041
2041
2041
2041
2041
2041
2039
2039
2041
2048
2061
2075
2085
2084
2070
2044
2014
1987
1971
1970
1982
2000
2020
2036
2045
2048
2048
2047
2046
2046
2047
2048
2048
2048
2049
2049
2050
2050
2051
2051
2051
2051
2051
2051
2052
2052
2053
2053
2054
2056
2056
2053
2051
2050
2054
2061
2067
2069
2067
2062
2058
2057
2059
2062
2064
2064
2065
2066
2067
2069
2070
2071
2071
2072
2073
2074
2074
2075
2074
2075
2075
2074
2072
2071
2071
2071
2072
2071
2067
2063
2058
2054
2051
2049
2048
2046
2044
2043
2042
2041
2040
2039
2038
2037
2037
2037
2037
2037
2037
2036
2038
2037
2037
2036
2036
2036
2038
2039
2041
2041
2041
2039
2038
2036
2038
2038
2039
2039
2039
2039
2040
2040
2039
2039
2039
2039
2040
2040
2040
2039
2039
2039
2039
2038
2037
2037
2036
2037
2039
2040
2040
2038
2037
2036
2035
2037
2037
2037
2037
2037
2036
2036
2037
2037
2037
2037
2038
2038
2037
2037
2037
2037
2037
2037
2037
2037
2036
2036
2035
2036
2037
2038
2038
2038
2036
2035
2035
2035
2035
2036
2036
2035
2035
2034
2035
2036
2038
2040
2041
2041
2040
2039
2038
2037
2037
2036
2037
2035
2034
2034
2034
2036
2038
2038
2038
2036
2034
2032
2033
2034
2034
2034
2032
2032
2036
2045
2055
2066
2071
2066
2052
2031
2006
1987
1975
1980
1991
2007
2023
2032
2037
2038
2040
2042
2043
2044
2043
2042
2040
2042
2042
2042
2043
2043
2043
2044
2044
2044
2045
2045
2046
2046
2046
2047
2047
2047
2048
2049
2049
2049
2049
2049
2050
2052
2055
2057
2057
2056
2056
2056
2057
2058
2060
2060
2061
2063
2064
2065
2066
2067
2067
2068
2069
2069
2069
2069
2068
2067
2067
2067
2065
2061
2057
2054
2055
2057
2060
2058
2053
2047
2041
2037
2037
2037
2037
2035
2035
2035
2035
2034
2034
2034
2033
2033
2033
2034
2034
2035
2035
2035
2035
2034
2033
2033
2033
2035
2038
2039
2040
2038
2037
2036
2035
2036
2036
2036
2037
2037
2038
2038
2038
2037
2037
2037
2037
2037
2037
2037
2037
2036
2037
2037
2037
2036
2035
2035
2036
2037
2039
2039
2039
2037
2036
2035
2036
2037
2037
2037
2037
2037
2037
2037
2037
2037
2037
2037
2038
2038
2038
2038
2037
2038
2038
2038
2037
2037
2037
2038
2039
2040
2041
2040
2039
2038
2037
2038
2038
2039
2038
2038
2038
2038
2038
2038
2039
2039
2039
2039
2039
2039
2038
2038
2039
2038
2039
2038
2038
2038
2038
2040
2041
2041
2041
2040
2039
2039
2039
2039
2039
2039
2039
2039
2039
2039
2039
2039
2039
2040
2041
2043
2044
2045
2045
2044
2044
2043
2042
2041
2039
2039
2039
2041
2043
2043
2042
2040
2038
2037
2038
2038
2039
2039
2038
2037
2037
2041
2048
2059
2070
2076
2073
2060
2040
2017
1996
1987
1986
1997
2011
2024
2035
2041
2046
2048
2049
2048
2046
2044
2042
2044
2045
2047
2047
2047
2047
2047
2048
2048
2048
2048
2048
2049
2049
2049
2049
2049
2051
2052
2052
2052
2051
2051
2053
2055
2058
2060
2059
2058
2058
2057
2059
2060
2061
2062
2063
2064
2065
2066
2067
2068
2068
2069
2069
2070
2070
2070
2071
2071
2072
2072
2071
2069
2066
2064
2064
2065
2066
2064
2060
2054
2049
2046
2045
2043
2043
2042
2041
2040
2039
2039
2038
2038
2037
2037
2037
2037
2037
2037
2038
2038
2038
2037
2036
2036
2037
2039
2041
2042
2040
2036
2034
2035
2039
2042
2043
2042
2039
2037
2036
2037
2038
2038
2038
2037
2038
2038
2039
2039
2038
2038
2038
2037
2038
2037
2036
2036
2037
2039
2040
2040
2040
2038
2037
2036
2037
2037
2038
2038
2038
2038
2037
2037
2037
2037
2037
2038
2038
2038
2038
2038
2038
2038
2039
2038
2038
2038
2037
2038
2039
2040
2040
2039
2038
2037
2037
2038
2038
2039
2039
2039
2038
2038
2038
2038
2038
2039
2039
2039
2039
2039
2038
2038
2039
2038
2038
2037
2036
2036
2037
2040
2041
2042
2041
2039
2038
2039
2040
2043
2044
2045
2044
2043
2042
2041
2040
2039
2039
2039
2039
2038
2038
2038
2037
2037
2038
2038
2039
2038
2037
2038
2038
2039
2041
2044
2051
2063
2074
2080
2076
2058
2031
2001
1977
1967
1970
1984
2004
2022
2035
2042
2044
2044
2044
2044
2044
2046
2046
2047
2046
2046
2046
2047
2048
2050
2051
2051
2049
2048
2048
2048
2048
2049
2049
2049
2050
2052
2053
2053
2053
2053
2054
2054
2055
2056
2057
2057
2059
2060
2061
2060
2059
2059
2061
2064
2069
2072
2072
2071
2069
2067
2067
2068
2069
2069
2069
2069
2069
2069
2068
2067
2066
2064
2062
2060
2058
2056
2053
2051
2049
2047
2045
2042
2040
2039
2040
2041
2041
2040
2038
2036
2035
2035
2035
2035
2035
2036
2036
2036
2036
2036
2037
2037
2037
2037
2037
2037
2037
2038
2037
2039
2039
2038
2037
2036
2036
2038
2042
2045
2044
2042
2039
2038
2037
2038
2039
2039
2038
2038
2038
2038
2038
2038
2037
2037
2037
2037
2037
2037
2038
2037
2038
2037
2037
2037
2036
2037
2037
2039
2040
2039
2039
2037
2037
2036
2037
2037
2038
2038
2038
2038
2038
2038
2038
2038
2038
2038
2038
2039
2039
2039
2038
2038
2038
2037
2037
2037
2039
2042
2044
2046
2046
2045
2043
2041
2040
2040
2039
2039
2038
2038
2038
2037
2037
2037
2037
2038
2038
2038
2038
2039
2039
2038
2037
2036
2039
2046
2056
2068
2076
2075
2064
2044
2018
1994
1978
1976
1985
2002
2020
2034
2041
2043
2043
2042
2043
2044
2045
2046
2046
2047
2047
2047
2047
2047
2048
2048
2049
2048
2048
2048
2048
2051
2053
2054
2054
2053
2052
2051
2052
2052
2054
2054
2055
2056
2057
2059
2059
2060
2061
2061
2062
2063
2065
2067
2066
2069
2069
2070
2068
2068
2068
2069
2073
2077
2078
2077
2074
2071
2069
2069
2069
2068
2065
2062
2059
2057
2054
2052
2049
2048
2046
2044
2042
2040
2038
2037
2037
2037
2037
2036
2035
2034
2034
2036
2037
2038
2037
2036
2035
2034
2034
2034
2035
2035
2036
2037
2037
2037
2037
2037
2037
2037
2037
2037
2038
2038
2038
2039
2039
2039
2038
2037
2036
2036
2038
2041
2044
2043
2041
2038
2036
2035
2036
2036
2037
2037
2037
2037
2037
2037
2037
2037
2037
2037
2037
2037
2037
2037
2037
2037
2037
2037
2036
2036
2036
2037
2038
2039
2040
2039
2038
2036
2036
2036
2037
2037
2038
2038
2038
2039
2038
2038
2038
2038
2039
2040
2040
2040
2040
2039
2040
2040
2040
2039
2038
2039
2040
2043
2044
2045
2043
2040
2040
2038
2040
2041
2041
2041
2040
2040
2040
2040
2041
2041
2041
2042
2042
2042
2042
2042
2041
2041
2041
2041
2041
2040
2040
2041
2042
2043
2043
2043
2042
2041
2040
2041
2041
2042
2042
2043
2042
2042
2043
2043
2043
2042
2042
2042
2042
2044
2045
2046
2048
2048
2048
2047
2046
2045
2044
2045
2045
2045
2045
2043
2042
2041
2041
2042
2042
2042
2042
2042
2043
2042
2041
2041
2041
2045
2052
2062
2069
2072
2067
2054
2038
2020
2005
1995
1994
2003
2018
2034
2046
2050
2048
2046
2044
2043
2044
2046
2046
2046
2046
2047
2047
2047
2048
2048
2047
2046
2045
2046
2048
2050
2051
2053
2052
2049
2048
2047
2047
2049
2053
2057
2058
2058
2056
2055
2054
2055
2057
2058
2059
2059
2060
2061
2062
2064
2065
2065
2066
2067
2067
2068
2069
2069
2069
2071
2070
2069
2067
2066
2066
2068
2071
2072
2070
2065
2060
2057
2053
2053
2050
2048
2048
2046
2045
2043
2042
2041
2040
2039
2038
2038
2038
2038
2038
2038
2039
2039
2039
2038
2037
2037
2038
2041
2042
2042
2041
2040
2039
2039
2040
2040
2040
2040
2039
2040
2040
2040
2041
2040
2040
2040
2040
2040
2040
2040
2040
2040
2040
2039
2039
2038
2038
2039
2040
2042
2042
2041
2040
2038
2038
2038
2038
2039
2039
2039
2039
2039
2039
2039
2039
2039
2039
2039
2039
2040
2040
2040
2040
2039
2039
2038
2038
2039
2040
2042
2043
2043
2041
2039
2039
2039
2040
2040
2040
2040
2040
2040
2040
2040
2041
2040
2041
2041
2041
2041
2041
2041
2040
2041
2041
2040
2040
2040
2040
2042
2044
2045
2043
2041
2040
2040
2040
2042
2041
2042
2041
2041
2041
2041
