1941
1934
1929
1927
1925
1925
1925
1924
1921
1916
1908
1898
1889
1881
1875
1873
1871
1871
1872
1874
1878
1883
1888
1895
1904
1915
1927
1939
1952
1962
1966
1956
1930
1889
1844
1805
1783
1778
1786
1800
1811
1818
1822
1822
1821
1822
1825
1832
1842
1853
1866
1879
1894
1908
1922
1934
1945
1955
1964
1970
1975
1976
1977
1977
1980
1984
1987
1988
1986
1984
1981
1977
1972
1963
1953
1946
1941
1941
1943
1946
1949
1950
1951
1951
1950
1948
1946
1941
1934
1926
1917
1910
1904
1900
1899
1898
1898
1899
1903
1908
1913
1917
1918
1916
1913
1911
1910
1912
1914
1918
1921
1923
1925
1927
1930
1935
1943
1952
1962
1971
1976
1979
1980
1980
1980
1981
1984
1988
1990
1989
1983
1976
1970
1967
1969
1972
1976
1978
1978
1979
1978
1976
1969
1958
1943
1928
1914
1901
1890
1878
1866
1854
1841
1825
1806
1785
1763
1741
1719
1700
1682
1666
1653
1641
1632
1626
1622
1621
1621
1619
1616
1612
1610
1613
1624
1638
1653
1666
1677
1690
1705
1719
1721
1704
1667
1618
1573
1544
1534
1538
1546
1549
1548
1543
1538
1533
1528
1523
1518
1512
1506
1501
1499
1498
1501
1505
1510
1514
1518
1520
1519
1515
1510
1505
1502
1502
1504
1503
1499
1492
1485
1480
1476
1473
1472
1471
1473
1475
1478
1479
1477
1473
1468
1463
1461
1459
1458
1457
1456
1456
1457
1459
1461
1462
1462
1460
1458
1455
1454
1454
1455
1456
1458
1460
1463
1467
1471
1474
1478
1482
1486
1490
1495
1501
1507
1514
1520
1527
1533
1539
1544
1548
1552
1555
1558
1561
1565
1569
1572
1575
1578
1581
1583
1585
1588
1591
1595
1599
1604
1609
1612
1615
1618
1620
1623
1627
1631
1633
1635
1635
1635
1637
1640
1644
1648
1652
1656
1660
1663
1666
1667
1668
1668
1669
1671
1675
1680
1685
1689
1692
1694
1695
1696
1698
1705
1717
1734
1753
1769
1782
1795
1809
1820
1821
1803
1767
1723
1686
1668
1672
1690
1713
1731
1743
1749
1753
1755
1757
1760
1762
1763
1764
1765
1766
1767
1768
1770
1772
1774
1776
1778
1779
1779
1778
1776
1775
1773
1773
1773
1774
1775
1776
1775
1773
1769
1764
1760
1757
1757
1761
1766
1772
1776
1777
1775
1772
1770
1769
1770
1771
1772
1773
1775
1776
1776
1775
1773
1770
1767
1766
1767
1769
1772
1776
1780
1785
1790
1794
1797
1797
1797
1796
1796
1797
1800
1802
1804
1805
1806
1807
1809
1811
1811
1811
1809
1808
1807
1808
1810
1814
1819
1823
1828
1833
1839
1848
1858
1868
1878
1887
1894
1900
1906
1915
1926
1941
1959
1979
2002
2026
2051
2080
2110
2142
2175
2208
2239
2266
2288
2308
2325
2343
2361
2381
2401
2418
2432
2444
2453
2458
2459
2454
2446
2436
2426
2416
2408
2402
2395
2389
2382
2375
2370
2368
2368
2372
2380
2390
2399
2408
2418
2431
2448
2461
2463
2448
2419
2386
2362
2356
2366
2388
2411
2430
2443
2450
2453
2453
2451
2448
2444
2440
2436
2434
2435
2437
2440
2441
2440
2436
2432
2429
2428
2429
2430
2431
2432
2431
2430
2428
2425
2421
2416
2410
2404
2398
2394
2392
2393
2395
2400
2405
2410
2415
2420
2423
2425
2427
2428
2431
2436
2440
2443
2442
2437
2431
2426
2423
2422
2419
2415
2407
2400
2393
2388
2384
2381
2379
2382
2389
2397
2405
2410
2413
2415
2419
2423
2426
2428
2429
2430
2432
2432
2429
2423
2416
2409
2405
2403
2401
2398
2393
2388
2384
2381
2378
2374
2369
2361
2354
2348
2345
2343
2340
2338
2334
2331
2329
2328
2328
2328
2327
2326
2325
2323
2320
2316
2310
2305
2300
2298
2298
2299
2300
2298
2293
2289
2285
2284
2286
2289
2290
2288
2283
2277
2271
2268
2265
2265
2263
2262
2260
2258
2255
2251
2250
2252
2261
2276
2293
2309
2322
2336
2349
2356
2350
2323
2276
2222
2175
2148
2143
2154
2172
2188
2198
2203
2205
2205
2203
2201
2198
2195
2192
2189
2188
2186
2184
2180
2175
2170
2166
2163
2163
2162
2159
2157
2154
2151
2147
2141
2134
2126
2123
2126
2134
2142
2145
2143
2135
2127
2122
2121
2121
2122
2121
2120
2119
2117
2115
2113
2109
2106
2102
2099
2094
2089
2082
2075
2067
2059
2052
2047
2043
2041
2041
2040
2037
2033
2028
2024
2021
2020
2018
2017
2014
2012
2009
2007
2005
2002
1999
1997
1994
1992
1988
1985
1982
1980
1980
1979
1979
1979
1978
1979
1982
1988
1995
2001
2006
2007
2006
2004
2002
2000
2001
2002
2004
2007
2010
2012
2014
2016
2017
2020
2024
2029
2033
2036
2036
2034
2034
2035
2038
2040
2042
2043
2043
2044
2046
2047
2048
2049
2052
2056
2062
2067
2073
2079
2086
2094
2101
2107
2111
2114
2117
2121
2125
2130
2134
2137
2140
2142
2145
2146
2147
2148
2151
2159
2173
2190
2207
2223
2239
2256
2269
2272
2255
2216
2163
2112
2077
2063
2069
2085
2102
2116
2124
2128
2129
2128
2127
2128
2129
2132
2134
2136
2137
2137
2136
2137
2138
2139
2139
2137
2134
2131
2129
2129
2129
2128
2125
2121
2118
2116
2114
2112
2111
2110
2110
2111
2113
2113
2112
2111
2110
2109
2109
2109
2110
2111
2110
2108
2104
2099
2096
2094
2093
2091
2089
2085
2081
2078
2075
2071
2067
2064
2063
2062
2063
2063
2063
2064
2066
2068
2069
2068
2067
2066
2066
2068
2071
2072
2073
2074
2075
2076
2077
2077
2077
2075
2073
2071
2070
2072
2075
2078
2080
2081
2083
2084
2086
2089
2092
2094
2096
2098
2098
2098
2098
2099
2101
2104
2106
2106
2106
2106
2107
2109
2111
2112
2111
2109
2108
2108
2108
2109
2110
2111
2111
2111
2112
2112
2112
2113
2114
2116
2118
2119
2120
2120
2119
2118
2118
2120
2123
2126
2129
2131
2132
2133
2132
2132
2133
2133
2134
2136
2137
2139
2140
2140
2141
2143
2146
2149
2152
2152
2151
2149
2147
2146
2147
2149
2151
2153
2155
2156
2156
2155
2153
2151
2151
2156
2169
2189
2211
2232
2250
2267
2283
2292
2285
2257
2211
2158
2117
2099
2105
2126
2149
2165
2174
2178
2179
2180
2183
2187
2191
2194
2195
2194
2193
2193
2193
2196
2200
2203
2206
2206
2205
2203
2201
2201
2202
2204
2206
2208
2210
2210
2209
2208
2207
2207
2207
2208
2210
2212
2215
2216
2217
2217
2216
2215
2214
2213
2211
2210
2209
2208
2206
2202
2197
2192
2187
2183
2179
2176
2171
2167
2162
2157
2152
2149
2147
2146
2145
2145
2144
2143
2142
2140
2137
2135
2135
2136
2138
2140
2140
2140
2138
2137
2137
2139
2141
2143
2146
2147
2147
2146
2144
2142
2138
2135
2132
2129
2128
2127
2127
2126
2123
2121
2119
2117
2115
2112
2107
2102
2097
2093
2090
2086
2082
2077
2072
2068
2064
2061
2057
2053
2048
2043
2037
2031
2024
2019
2013
2009
2005
1999
1990
1978
1964
1949
1935
1922
1909
1897
1885
1875
1866
1858
1847
1833
1816
1797
1779
1766
1757
1753
1749
1745
1737
1727
1716
1707
1704
1708
1716
1725
1732
1736
1738
1739
1741
1744
1747
1749
1750
1752
1756
1763
1773
1787
1802
1818
1832
1843
1848
1849
1849
1853
1864
1880
1899
1917
1935
1956
1977
1994
1996
1973
1929
1876
1832
1812
1817
1837
1858
1870
1870
1861
1847
1832
1819
1807
1798
1790
1783
1776
1768
1762
1756
1750
1745
1739
1733
1726
1718
1709
1698
1684
1668
1651
1633
1614
1595
1575
1557
1540
1524
1509
1492
1475
1460
1449
1444
1444
1448
1455
1464
1474
1486
1500
1515
1531
1543
1552
1556
1556
1556
1557
1559
1561
1561
1559
1557
1556
1556
1556
1557
1557
1557
1558
1560
1561
1560
1556
1552
1548
1546
1544
1542
1541
1540
1539
1540
1541
1544
1547
1551
1555
1561
1567
1574
1580
1583
1584
1585
1587
1592
1597
1602
1605
1607
1609
1613
1620
1627
1634
1637
1635
1630
1623
1616
1611
1608
1607
1606
1606
1606
1606
1607
1610
1614
1620
1626
1632
1639
1645
1650
1655
1658
1662
1667
1672
1677
1681
1683
1685
1687
1692
1698
1705
1710
1714
1716
1718
1721
1728
1738
1751
1765
1778
1788
1797
1805
1816
1828
1841
1853
1863
1872
1880
1886
1889
1889
1886
1881
1876
1869
1861
1853
1846
1838
1829
1819
1808
1796
1788
1785
1790
1800
1811
1824
1838
1856
1874
1885
1878
1851
1808
1766
1740
1738
1756
1784
1810
1829
1841
1846
1847
1846
1845
1844
1844
1845
1845
1844
1842
1839
1835
1832
1830
1828
1826
1823
1818
1810
1801
1792
1785
1779
1776
1775
1775
1774
1774
1773
1774
1777
1779
1782
1783
1784
1782
1780
1777
1772
1769
1768
1772
1780
1789
1796
1797
1794
1785
1771
1757
1742
1727
1712
1696
1680
1665
1651
1641
1634
1630
1627
1625
1624
1623
1621
1619
1618
1618
1621
1625
1631
1637
1642
1646
1650
1655
1662
1668
1673
1677
1679
1679
1679
1679
1679
1679
1677
1675
1671
1666
1663
1660
1660
1659
1659
1659
1661
1663
1664
1664
1663
1660
1652
1644
1635
1627
1622
1621
1624
1627
1628
1628
1626
1625
1623
1622
1622
1623
1625
1627
1630
1634
1637
1638
1638
1638
1637
1636
1635
1634
1633
1629
1625
1622
1621
1622
1624
1627
1628
1627
1624
1622
1622
1622
1623
1625
1628
1629
1628
1627
1625
1624
1623
1623
1624
1626
1629
1632
1636
1641
1644
1646
1646
1648
1652
1660
1672
1687
1705
1724
1740
1747
1740
1717
1681
1644
1617
1610
1622
1646
1672
1691
1699
1701
1701
1700
1701
1704
1708
1712
1717
1722
1727
1729
1729
1733
1739
1749
1756
1759
1757
1752
1747
1745
1748
1751
1751
1748
1744
1740
1737
1737
1739
1742
1744
1747
1752
1762
1776
1792
1809
1820
1824
1821
1815
1809
1806
1803
1801
1799
1798
1800
1806
1815
1825
1831
1832
1832
1830
1826
1822
1814
1805
1793
1784
1781
1788
1804
1825
1846
1866
1884
1901
1917
1934
1950
1964
1975
1984
1993
2003
2015
2030
2047
2061
2074
2084
2091
2099
2110
2122
2136
2150
2164
2178
2192
2207
2220
2232
2243
2254
2268
2283
2299
2314
2324
2332
2336
2338
2339
2339
2340
2341
2344
2347
2351
2353
2353
2349
2341
2332
2322
2312
2303
2294
2284
2272
2258
2243
2228
2216
2209
2206
2205
2204
2203
2201
2199
2198
2198
2198
2198
2194
2186
2177
2168
2162
2162
2165
2167
2163
2152
2136
2120
2106
2098
2093
2091
2088
2083
2075
2067
2060
2060
2067
2080
2093
2104
2113
2124
2138
2152
2155
2137
2099
2051
2010
1987
1985
1995
2007
2013
2012
2005
1996
1985
1976
1969
1964
1959
1954
1947
1938
1929
1922
1916
1912
1908
1905
1902
1898
1894
1889
1884
1880
1877
1876
1877
1879
1883
1888
1892
1897
1903
1910
1919
1930
1942
1953
1962
1971
1980
1991
2006
2021
2036
2047
2054
2059
2064
2069
2074
2078
2081
2084
2085
2086
2086
2085
2084
2083
2083
2081
2080
2079
2080
2080
2082
2083
2083
2084
2083
2083
2084
2085
2087
2090
2094
2097
2100
2103
2106
2108
2110
2112
2115
2118
2121
2125
2128
2130
2132
2133
2135
2137
2140
2143
2147
2149
2149
2148
2146
2145
2145
2148
2150
2153
2156
2159
2161
2163
2165
2166
2167
2169
2170
2171
2172
2171
2170
2169
2168
2166
2164
2162
2160
2158
2157
2156
2154
2151
2147
2142
2136
2130
2126
2122
2119
2116
2114
2111
2109
2108
2106
2104
2101
2097
2095
2097
2106
2119
2135
2149
2161
2173
2184
2190
2185
2162
2121
2073
2032
2008
2005
2018
2036
2051
2062
2068
2070
2070
2069
2068
2069
2070
2073
2075
2078
2081
2084
2086
2089
2093
2096
2099
2102
2105
2109
2112
2115
2116
2117
2118
2119
2120
2121
2122
2122
2121
2121
2120
2118
2117
2116
2116
2115
2115
2116
2116
2116
2114
2111
2108
2104
2101
2099
2098
2096
2092
2088
2083
2078
2075
2072
2070
2068
2065
2063
2060
2057
2053
2048
2044
2039
2036
2033
2030
2027
2024
2020
2017
2014
2011
2008
2004
2000
1996
1990
1985
1981
1977
1973
1970
1966
1961
1957
1953
1949
1945
1940
1934
1928
1922
1916
1911
1907
1904
1902
1900
1899
1899
1898
1896
1894
1891
1887
1884
1881
1878
1876
1873
1871
1869
1868
1868
1870
1872
1874
1876
1877
1877
1878
1881
1886
1891
1896
1901
1906
1910
1913
1916
1916
1914
1913
1913
1915
1919
1922
1925
1926
1926
1925
1924
1922
1922
1927
1938
1952
1969
1986
2002
2018
2033
2041
2034
2007
1966
1922
1888
1875
1882
1899
1919
1933
1939
1942
1943
1944
1946
1948
1950
1952
1954
1956
1956
1957
1958
1961
1964
1967
1968
1968
1969
1971
1974
1977
1980
1981
1983
1987
1991
1996
2001
2005
2010
2016
2023
2030
2038
2045
2050
2057
2065
2074
2085
2096
2106
2115
2121
2125
2129
2134
2140
2146
2152
2159
2164
2167
2168
2168
2167
2165
2164
2161
2158
2155
2152
2151
2152
2153
2154
2154
2153
2152
2151
2150
2150
2150
2152
2154
2157
2161
2165
2169
2174
2179
2185
2191
2196
2200
2204
2208
2210
2213
2216
2220
2225
2230
2235
2238
2241
2242
2243
2243
2243
2243
2243
2244
2245
2247
2249
2251
2254
2256
2259
2262
2266
2271
2276
2281
2284
2285
2285
2283
2281
2278
2274
2271
2267
2265
2264
2263
2264
2265
2267
2269
2273
2276
2278
2280
2280
2280
2281
2282
2283
2285
2285
2285
2284
2283
2284
2289
2297
2306
2317
2330
2346
2358
2359
2340
2300
2247
2196
2163
2152
2159
2176
2192
2204
2211
2215
2216
2216
2216
2218
2219
2221
2222
2221
2217
2211
2204
2195
2185
2174
2161
2147
2133
2120
2106
2093
2081
2070
2062
2055
2049
2044
2036
2028
2019
2010
2002
1995
1989
1984
1980
1978
1975
1972
1967
1961
1956
1952
1948
1945
1941
1934
1926
1917
1907
1896
1884
1873
1863
1855
1849
1845
1844
1844
1846
1847
1848
1848
1848
1848
1850
1851
1853
1856
1860
1865
1872
1880
1886
1892
1896
1900
1906
1914
1921
1928
1932
1935
1937
1939
1943
1946
1948
1948
1946
1942
1938
1934
1930
1925
1918
1908
1895
1879
1864
1852
1843
1839
1837
1835
1829
1819
1809
1802
1800
1806
1814
1824
1833
1838
1842
1844
1848
1855
1863
1871
1877
1880
1882
1885
1890
1897
1903
1908
1911
1912
1912
1910
1907
1904
1905
1912
1925
1942
1958
1970
1981
1993
2005
2011
2001
1972
1930
1889
1861
1855
1868
1891
1916
1936
1950
1957
1961
1964
1969
1975
1982
1990
1996
2002
2007
2012
2017
2023
2029
2032
2034
2035
2035
2037
2040
2045
2048
2053
2056
2059
2063
2066
2070
2074
2078
2082
2086
2090
2095
2101
2106
2112
2115
2118
2120
2123
2128
2133
2138
2141
2142
2142
2143
2144
2145
2144
2141
2138
2136
2134
2134
2134
2135
2137
2138
2139
2141
2143
2145
2149
2154
2160
2166
2171
2174
2174
2173
2173
2174
2175
2175
2173
2171
2172
2176
2183
2189
2194
2197
2198
2198
2196
2194
2193
2195
2204
2219
2238
2256
2272
2285
2298
2311
2327
2346
2366
2388
2412
2437
2462
2485
2502
2512
2515
2513
2507
2501
2498
2497
2499
2502
2507
2510
2512
2511
2508
2505
2502
2500
2497
2493
2488
2482
2476
2471
2465
2459
2452
2445
2440
2438
2443
2454
2471
2488
2503
2516
2525
2531
2529
2512
2476
2423
2369
2328
2309
2312
2327
2341
2346
2342
2334
2327
2324
2322
2319
2313
2307
2301
2298
2296
2296
2295
2289
2280
2269
2257
2247
2240
2236
2233
2228
2220
2206
2188
2169
2150
2132
2116
2100
2084
2068
2051
2033
2015
1999
1986
1975
1962
1944
1920
1891
1861
1834
1812
1794
1778
1764
1751
1740
1730
1721
1715
1709
1705
1700
1695
1690
1684
1678
1671
1665
1662
1662
1666
1673
1681
1689
1698
1708
1719
1730
1740
1748
1754
1757
1759
1760
1762
1766
1770
1775
1778
1781
1783
1785
1789
1794
1797
1799
1799
1798
1798
1801
1805
1811
1817
1822
1826
1828
1829
1829
1829
1831
1837
1844
1852
1859
1863
1865
1867
1870
1875
1880
1885
1890
1893
1894
1895
1896
1898
1902
1904
1905
1904
1902
1900
1898
1898
1900
1905
1910
1914
1916
1918
1921
1930
1945
1965
1987
2006
2023
2038
2048
2049
2038
2011
1974
1936
1910
1903
1913
1933
1955
1972
1982
1988
1991
1992
1993
1994
1996
1998
2000
2002
2003
2004
2003
2002
2001
2000
2001
2003
2005
2008
2012
2015
2019
2024
2029
2031
2029
2025
2021
2018
2020
2025
2032
2037
2037
2035
2033
2036
2040
2045
2047
2047
2047
2048
2048
2047
2044
2041
2041
2047
2054
2058
2054
2043
2029
2018
2013
2014
2018
2022
2023
2020
2015
2008
2002
1996
1991
1990
1993
1999
2006
2010
2008
2000
1992
1986
1983
1986
1990
1993
1995
1996
1995
1992
1988
1981
1973
1964
1954
1946
1941
1937
1935
1934
1933
1933
1930
1927
1924
1922
1923
1925
1927
1926
1924
1923
1923
1926
1927
1927
1925
1923
1920
1917
1914
1911
1907
1904
1901
1898
1897
1896
1896
1898
1897
1894
1890
1884
1881
1879
1882
1889
1899
1914
1929
1943
1957
1969
1982
1993
1997
1988
1963
1927
1892
1868
1861
1869
1885
1903
1918
1928
1933
1934
1934
1936
1937
1939
1939
1937
1937
1939
1945
1951
1958
1965
1971
1977
1982
1987
1991
1994
1995
1996
1997
1998
2003
2010
2019
2028
2033
2036
2039
2043
2049
2057
2066
2074
2081
2088
2096
2101
2100
2092
2075
2055
2034
2014
1997
1981
1965
1951
1939
1929
1921
1916
1913
1914
1915
1915
1912
1905
1897
1888
1879
1870
1858
1845
1831
1819
1808
1798
1789
1782
1777
1773
1772
1774
1779
1787
1795
1804
1813
1822
1830
1838
1847
1857
1869
1884
1901
1918
1935
1949
1963
1977
1991
2005
2018
2031
2042
2052
2064
2075
2085
2092
2097
2100
2103
2105
2108
2111
2115
2119
2123
2126
2128
2130
2131
2132
2132
2133
2137
2143
2150
2152
2151
2147
2144
2144
2146
2147
2144
2140
2138
2145
2161
2179
2195
2204
2211
2218
2225
2230
2224
2203
2172
2141
2124
2125
2138
2156
2170
2178
2183
2187
2193
2198
2203
2207
2212
2219
2228
2238
2246
2252
2253
2252
2252
2255
2259
2261
2259
2251
2241
2233
2232
2236
2245
2253
2259
2264
2268
2272
2275
2280
2288
2297
2306
2313
2314
2309
2302
2297
2295
2296
2296
2293
2287
2280
2274
2269
2264
2259
2253
2246
2240
2234
2228
2223
2219
2215
2212
2208
2203
2198
2192
2188
2185
2183
2180
2177
2173
2167
2161
2154
2147
2141
2136
2133
2130
2129
2127
2123
2117
2110
2103
2096
2090
2085
2081
2075
2068
2060
2052
2046
2040
2036
2033
2031
2028
2026
2024
2023
2023
2023
2023
2022
2019
2015
2011
2008
2007
2008
2008
2008
2007
2004
2000
1997
1995
1994
1993
1990
1985
1979
1972
1968
1967
1968
1969
1969
1968
1967
1970
1978
1991
2004
2015
2023
2028
2034
2038
2034
2016
1984
1944
1910
1891
1892
1907
1925
1940
1947
1949
1950
1952
1955
1958
1961
1964
1966
1969
1971
1972
1974
1974
1974
1975
1976
1977
1977
1977
1978
1980
1981
1981
1981
1982
1982
1982
1984
1988
1992
1996
1997
1997
1993
1987
1984
1985
1990
1997
2003
2008
2009
2007
2003
2000
1998
1997
1996
1994
1989
1981
1971
1962
1956
1953
1954
1957
1960
1962
1961
1959
1958
1957
1958
1958
1959
1960
1959
1958
1956
1954
1951
1948
1946
1944
1943
1943
1944
1945
1947
1949
1951
1953
1955
1956
1956
1956
1957
1959
1964
1970
1977
1983
1986
1987
1988
1988
1988
1988
1989
1989
1990
1991
1993
1992
1990
1986
1984
1986
1990
1997
2002
2004
2003
2001
2000
2001
2003
2005
2005
2004
2001
1999
1999
2000
2002
2002
2002
2002
2004
2012
2025
2041
2053
2062
2068
2076
2087
2096
2094
2072
2034
1990
1955
1943
1953
1975
1997
2013
2021
2022
2021
2021
2022
2024
2027
2030
2033
2034
2033
2032
2030
2029
2030
2033
2038
2044
2049
2053
2056
2057
2057
2056
2056
2058
2059
2060
2060
2061
2062
2064
2066
2068
2068
2068
2068
2068
2070
2072
2074
2076
2077
2075
2073
2072
2072
2072
2072
2070
2066
2062
2056
2049
2042
2035
2028
2023
2018
2013
2009
2005
2003
2002
2002
2002
2001
2000
2002
2004
2006
2007
2007
2005
2005
2005
2005
2005
2004
2003
2003
2003
2002
2000
1996
1992
1990
1989
1990
1989
1987
1985
1983
1984
1987
1990
1992
1993
1991
1990
1989
1989
1989
1989
1990
1992
1994
1995
1997
1997
1997
1997
1997
1998
1999
2001
2003
2004
2003
2000
1996
1990
1985
1982
1982
1984
1988
1991
1993
1993
1993
1993
1996
2002
2014
2032
2053
2074
2091
2106
2121
2135
2144
2140
2119
2086
2051
2028
2023
2036
2057
2078
2093
2100
2100
2097
2095
2097
2101
2106
2109
2108
2104
2100
2097
2096
2098
2101
2104
2105
2105
2105
2107
2110
2116
2122
2128
2132
2136
2141
2147
2154
2161
2168
2174
2178
2183
2186
2189
2190
2189
2185
2181
2177
2174
2172
2169
2167
2164
2161
2156
2151
2143
2136
2127
2118
2108
2098
2086
2072
2057
2040
2021
2002
1984
1969
1957
1948
1943
1940
1938
1935
1932
1930
1928
1927
1927
1928
1929
1930
1932
1934
1934
1932
1930
1928
1925
1921
1914
1904
1893
1882
1870
1858
1843
1826
1807
1788
1770
1753
1737
1721
1702
1681
1661
1644
1632
1625
1618
1610
1598
1581
1562
1543
1526
1514
1506
1501
1497
1491
1481
1470
1458
1449
1443
1441
1444
1449
1454
1458
1460
1462
1465
1471
1480
1491
1502
1515
1531
1551
1573
1596
1616
1634
1651
1666
1675
1670
1648
1612
1572
1542
1531
1540
1563
1591
1617
1637
1652
1665
1678
1695
1715
1737
1759
1778
1794
1809
1823
1837
1851
1864
1876
1887
1897
1908
1918
1925
1932
1936
1940
1943
1944
1945
1945
1943
1942
1940
1938
1935
1931
1927
1924
1922
1921
1919
1918
1915
1912
1910
1909
1910
1913
1917
1921
1926
1929
1933
1936
1939
1941
1943
1944
1945
1945
1945
1946
1946
1947
1946
1945
1944
1943
1943
1944
1946
1949
1951
1952
1954
1956
1957
1958
1959
1959
1960
1960
1959
1957
1954
1949
1943
1935
1928
1921
1915
1912
1910
1912
1915
1919
1925
1930
1937
1944
1952
1960
1968
1974
1978
1980
1982
1983
1985
1988
1991
1994
1997
1999
2001
2003
2004
2005
2004
2003
2002
2004
2007
2011
2013
2013
2013
2012
2012
2013
2017
2027
2041
2057
2072
2081
2088
2096
2106
2111
2103
2077
2037
1994
1963
1955
1966
1989
2013
2032
2043
2047
2047
2045
2045
2045
2045
2045
2044
2045
2046
2048
2050
2053
2054
2055
2055
2055
2055
2055
2057
2059
2061
2063
2065
2066
2066
2066
2067
2068
2069
2069
2070
2070
2070
2072
2075
2078
2081
2083
2086
2090
2095
2101
2106
2110
2112
2113
2113
2113
2113
2113
2111
2109
2107
2105
2104
2103
2102
2101
2100
2100
2101
2103
2105
2108
2111
2114
2118
2121
2124
2126
2127
2127
2127
2127
2128
2129
2130
2130
2130
2129
2127
2125
2122
2120
2119
2119
2121
2124
2124
2123
2120
2117
2116
2117
2117
2117
2115
2112
2109
2106
2102
2098
2094
2089
2085
2081
2078
2076
2073
2070
2066
2061
2056
2052
2050
2049
2048
2047
2044
2039
2033
2030
2033
2046
2064
2083
2093
2094
2090
2088
2089
2086
2070
2039
1997
1959
1938
1940
1960
1988
2015
2036
2048
2055
2057
2057
2057
2060
2065
2071
2077
2081
2084
2085
2085
2084
2082
2080
2078
2077
2077
2078
2079
2079
2078
2076
2075
2074
2075
2077
2079
2082
2085
2087
2090
2093
2096
2100
2103
2105
2107
2109
2110
2111
2112
2113
2113
2113
2113
2112
2111
2108
2106
2103
2100
2098
2094
2090
2085
2080
2076
2073
2072
2072
2072
2071
2068
2065
2061
2058
2055
2054
2052
2050
2048
2044
2041
2040
2040
2040
2041
2041
2041
2040
2040
2039
2038
2037
2036
2034
2033
2032
2030
2028
2025
2021
2018
2015
2011
2008
2005
2002
2001
2001
2002
2003
2004
2003
2002
2002
2005
2010
2016
2022
2027
2030
2031
2029
2027
2024
2022
2023
2024
2025
2025
2024
2023
2021
2019
2020
2027
2042
2061
2081
2094
2098
2099
2102
2108
2111
2101
2073
2034
1997
1976
1978
1996
2022
2045
2059
2066
2067
2066
2065
2066
2067
2068
2068
2068
2068
2068
2068
2068
2067
2066
2064
2064
2065
2067
2069
2071
2071
2072
2072
2072
2072
2072
2071
2070
2069
2068
2068
2067
2066
2065
2063
2061
2059
2056
2053
2051
2048
2047
2045
2042
2039
2035
2030
2025
2020
2014
2009
2003
1998
1993
1988
1984
1980
1978
1977
1976
1975
1976
1977
1979
1982
1983
1984
1985
1986
1987
1990
1994
1997
2000
2000
2000
2000
2000
2002
2003
2005
2007
2008
2009
2010
2011
2012
2012
2011
2011
2011
2011
2013
2014
2015
2015
2014
2013
2011
2010
2008
2005
2002
1999
1997
1997
1998
1999
2000
2000
2000
2000
1998
1996
1993
1990
1988
1987
1987
1987
1988
1988
1987
1985
1983
1983
1990
2004
2022
2037
2043
2042
2040
2042
2048
2051
2040
2008
1965
1926
1906
1909
1928
1951
1969
1977
1979
1978
1975
1974
1973
1971
1969
1967
1965
1963
1960
1955
1949
1943
1937
1931
1926
1922
1918
1915
1912
1910
1909
1908
1907
1907
1907
1907
1907
1907
1907
1907
1909
1911
1913
1916
1917
1918
1918
1919
1919
1920
1921
1922
1922
1922
1922
1921
1920
1918
1916
1913
1911
1910
1909
1908
1906
1904
1901
1900
1900
1900
1902
1903
1904
1904
1904
1904
1904
1904
1904
1904
1905
1906
1906
1906
1907
1906
1906
1906
1907
1908
1910
1912
1913
1913
1913
1912
1912
1912
1912
1913
1914
1916
1917
1918
1918
1918
1917
1917
1917
1918
1918
1919
1919
1917
1916
1915
1915
1915
1916
1917
1918
1920
1921
1921
1920
1917
1914
1911
1909
1908
1907
1908
1911
1914
1915
1915
1915
1917
1925
1938
1954
1968
1976
1980
1984
1992
2002
2005
1991
1961
1923
1893
1882
1893
1916
1939
1954
1960
1960
1959
1959
1961
1964
1968
1972
1975
1976
1976
1976
1977
1979
1981
1983
1985
1987
1989
1990
1992
1994
1995
1998
2000
2003
2005
2007
2008
2009
2009
2010
2011
2012
2014
2015
2016
2016
2016
2015
2014
2013
2012
2011
2010
2009
2007
2005
2003
2000
1996
1992
1988
1985
1982
1980
1979
1977
1976
1974
1972
1972
1972
1973
1974
1975
1976
1976
1975
1975
1975
1976
1976
1977
1977
1978
1978
1979
1979
1979
1978
1977
1976
1976
1976
1976
1977
1977
1977
1977
1978
1978
1978
1979
1979
1979
1980
1980
1981
1982
1984
1985
1987
1989
1991
1992
1992
1991
1989
1987
1987
1988
1990
1992
1995
1997
1999
2000
2000
1999
1997
1995
1994
1993
1994
1996
1999
2001
2001
2000
1997
1995
1997
2005
2021
2039
2052
2061
2066
2072
2081
2089
2085
2063
2026
1985
1955
1947
1958
1980
2002
2016
2024
2027
2028
2029
2030
2031
2032
2033
2035
2036
2037
2039
2040
2042
2044
2046
2048
2048
2049
2050
2051
2052
2054
2055
2057
2058
2059
2060
2061
2062
2063
2064
2065
2066
2067
2068
2069
2070
2071
2071
2070
2070
2071
2071
2071
2070
2069
2067
2065
2062
2059
2056
2053
2050
2048
2045
2042
2038
2035
2033
2031
2031
2031
2031
2032
2032
2032
2032
2032
2032
2032
2032
2033
2034
2034
2035
2034
2033
2032
2031
2031
2031
2031
2031
2032
2032
2032
2031
2030
2028
2028
2028
2028
2028
2028
2028
2028
2028
2027
2027
2026
2026
2026
2026
2026
2025
2023
2021
2019
2018
2019
2020
2022
2025
2027
2028
2028
2026
2024
2021
2020
2020
2020
2022
2023
2023
2023
2020
2017
2015
2019
2030
2048
2068
2084
2092
2098
2105
2114
2116
2103
2070
2025
1982
1956
1954
1970
1993
2014
2028
2034
2037
2038
2038
2038
2039
2039
2040
2041
2043
2044
2045
2046
2047
2048
2048
2048
2048
2048
2048
2049
2050
2051
2053
2054
2055
2056
2057
2057
2058
2059
2061
2063
2064
2066
2067
2067
2067
2066
2066
2066
2066
2066
2065
2063
2061
2059
2056
2052
2049
2046
2043
2039
2036
2032
2029
2025
2021
2018
2016
2015
2014
2014
2014
2014
2013
2012
2011
2011
2010
2010
2011
2011
2012
2012
2011
2010
2009
2008
2008
2008
2008
2009
2009
2009
2008
2006
2005
2004
2003
2003
2004
2004
2005
2005
2004
2003
2002
2002
2002
2002
2002
2002
2001
1999
1997
1995
1994
1994
1994
1995
1997
1998
1999
1999
1998
1995
1993
1991
1990
1990
1991
1992
1993
1993
1992
1989
1987
1988
1997
2014
2034
2049
2058
2061
2065
2072
2076
2067
2039
1995
1950
1920
1912
1925
1948
1970
1985
1993
1996
1996
1996
1996
1997
1997
1998
1999
1999
1999
1999
1999
1999
2000
2000
2001
2001
2002
2001
2001
2001
2002
2003
2004
2005
2007
2008
2008
2008
2009
2009
2010
2012
2013
2015
2016
2017
2017
2016
2015
2014
2012
2012
2010
2009
2006
2003
2000
1996
1991
1987
1983
1980
1977
1974
1971
1969
1966
1964
1962
1961
1961
1961
1962
1963
1963
1963
1962
1961
1961
1961
1961
1962
1963
1964
1965
1965
1964
1964
1963
1962
1962
1962
1962
1962
1962
1962
1962
1961
1960
1959
1959
1960
1961
1961
1961
1961
1961
1960
1960
1960
1960
1960
1961
1962
1962
1962
1961
1959
1956
1954
1953
1954
1955
1957
1959
1960
1962
1962
1961
1960
1958
1956
1955
1955
1956
1957
1957
1957
1957
1955
1953
1953
1957
1968
1984
2001
2012
2016
2018
2022
2028
2032
2022
1994
1954
1915
1892
1891
1908
1931
1952
1965
1970
1972
1972
1972
1972
1972
1972
1973
1974
1975
1976
1977
1978
1980
1980
1980
1980
1979
1979
1980
1981
1982
1984
1985
1986
1986
1987
1987
1988
1990
1991
1993
1995
1995
1996
1996
1996
1996
1996
1995
1995
1994
1993
1992
1990
1988
1985
1982
1979
1975
1972
1969
1965
1962
1958
1954
1950
1947
1945
1944
1943
1943
1943
1944
1944
1943
1943
1942
1942
1942
1942
1943
1944
1944
1944
1944
1943
1943
1943
1943
1944
1945
1945
1945
1944
1943
1942
1942
1942
1942
1943
1943
1943
1943
1944
1943
1943
1943
1943
1943
1943
1944
1944
1944
1943
1943
1943
1944
1944
1945
1946
1947
1947
1947
1946
1945
1942
1940
1940
1940
1942
1944
1946
1948
1949
1949
1949
1948
1946
1945
1944
1944
1945
1945
1946
1946
1946
1945
1943
1942
1944
1950
1963
1978
1991
1999
2001
2002
2007
2015
2016
2003
1973
1935
1903
1889
1896
1917
1940
1956
1964
1966
1965
1964
1964
1964
1964
1964
1965
1966
1967
1968
1969
1970
1970
1971
1971
1972
1972
1973
1974
1975
1976
1977
1977
1976
1977
1978
1980
1982
1983
1982
1982
1981
1980
1980
1980
1979
1979
1978
1976
1972
1967
1961
1952
1944
1936
1928
1921
1915
1908
1901
1894
1887
1880
1874
1868
1863
1859
1856
1852
1850
1848
1845
1843
1839
1835
1830
1826
1822
1819
1816
1813
1810
1806
1801
1796
1791
1785
1779
1775
1773
1770
1768
1764
1759
1752
1746
1740
1736
1733
1732
1732
1732
1732
1731
1729
1729
1729
1730
1732
1734
1735
1734
1732
1728
1725
1723
1721
1721
1722
1721
1720
1718
1715
1713
1712
1711
1712
1713
1713
1713
1711
1709
1708
1707
1706
1707
1709
1711
1713
1713
1712
1711
1711
1711
1711
1713
1715
1719
1722
1725
1727
1728
1730
1734
1744
1761
1779
1795
1805
1813
1822
1835
1849
1853
1839
1808
1772
1744
1737
1752
1778
1804
1823
1833
1837
1839
1842
1847
1852
1858
1864
1869
1874
1879
1883
1887
1889
1892
1894
1898
1903
1908
1913
1916
1918
1920
1922
1925
1928
1931
1934
1935
1936
1937
1939
1942
1946
1951
1955
1958
1959
1960
1961
1962
1963
1964
1964
1965
1965
1964
1963
1960
1958
1956
1954
1955
1955
1955
1954
1952
1950
1949
1948
1947
1946
1945
1946
1947
1948
1949
1949
1949
1949
1949
1949
1949
1948
1948
1949
1950
1951
1951
1949
1948
1947
1946
1947
1948
1949
1951
1952
1953
1954
1954
1954
1953
1953
1954
1956
1959
1962
1964
1964
1962
1960
1958
1958
1960
1962
1964
1966
1967
1967
1967
1968
1969
1970
1971
1972
1973
1972
1970
1968
1967
1966
1967
1968
1970
1971
1973
1974
1974
1971
1968
1965
1963
1962
1963
1964
1965
1966
1965
1963
1960
1959
1964
1975
1990
2004
2013
2015
2016
2020
2027
2028
2016
1988
1952
1922
1908
1916
1937
1960
1978
1987
1990
1991
1992
1995
1997
2001
2004
2007
2010
2013
2017
2020
2024
2027
2030
2033
2036
2039
2042
2046
2048
2053
2057
2062
2067
2071
2075
2080
2084
2088
2091
2093
2096
2099
2102
2104
2107
2108
2108
2108
2107
2107
2107
2108
2109
2109
2108
2106
2104
2101
2099
2096
2093
2090
2088
2085
2083
2082
2081
2080
2080
2080
2079
2080
2080
2081
2083
2083
2084
2083
2083
2084
2086
2087
2088
2089
2089
2088
2087
2087
2087
2088
2089
2091
2091
2092
2091
2090
2089
2088
2087
2087
2088
2089
2090
2090
2090
2089
2088
2087
2087
2088
2089
2090
2090
2090
2089
2089
2088
2088
2088
2088
2087
2085
2084
2083
2083
2084
2084
2085
2085
2086
2087
2087
2086
2085
2083
2081
2080
2080
2080
2080
2081
2081
2079
2077
2077
2082
2095
2115
2136
2150
2158
2162
2165
2165
2157
2133
2094
2048
2013
1998
2004
2026
2049
2068
2080
2085
2086
2085
2084
2083
2083
2084
2085
2086
2087
2087
2087
2086
2086
2086
2086
2086
2087
2088
2089
2089
2089
2089
2088
2088
2088
2090
2091
2092
2093
2094
2094
2094
2093
2093
2093
2093
2093
2093
2092
2090
2088
2085
2082
2080
2078
2076
2073
2071
2068
2065
2061
2057
2053
2049
2047
2044
2042
2039
2036
2034
2031
2029
2027
2026
2025
2024
2023
2023
2022
2021
2020
2019
2018
2017
2017
2017
2017
2017
2016
2015
2014
2013
2012
2011
2010
2010
2010
2009
2009
2007
2006
2005
2004
2003
2002
2002
2002
2001
2000
2000
1999
1999
1999
1999
1999
2000
2000
2000
1999
1998
1996
1993
1990
1987
1986
1985
1986
1987
1989
1990
1990
1990
1989
1987
1984
1983
1982
1982
1982
1982
1982
1981
1980
1978
1976
1977
1983
1997
2014
2031
2040
2044
2046
2049
2055
2053
2035
1999
1956
1921
1906
1915
1936
1961
1978
1987
1991
1991
1990
1989
1989
1989
1990
1991
1992
1993
1993
1994
1995
1995
1995
1994
1994
1994
1995
1996
1997
1999
2000
2001
2002
2002
2003
2004
2005
2007
2009
2010
2010
2010
2010
2009
2009
2009
2009
2008
2006
2004
2002
1999
1997
1994
1991
1989
1986
1983
1979
1975
1972
1968
1965
1961
1959
1957
1955
1955
1955
1955
1955
1955
1955
1954
1954
1954
1954
1955
1955
1956
1956
1956
1955
1955
1954
1954
1954
1954
1955
1955
1955
1955
1955
1954
1954
1954
1954
1955
1955
1955
1955
1955
1955
1955
1955
1955
1956
1958
1959
1960
1960
1960
1960
1960
1960
1961
1961
1961
1962
1963
1963
1962
1961
1960
1959
1958
1957
1958
1959
1961
1963
1964
1966
1966
1966
1965
1963
1962
1961
1961
1962
1963
1963
1964
1964
1963
1962
1962
1966
1976
1991
2007
2019
2025
2028
2033
2040
2045
2036
2009
1970
1932
1910
1910
1928
1953
1974
1987
1992
1994
1993
1993
1992
1992
1993
1994
1995
1997
1999
2001
2004
2007
2009
2010
2011
2011
2013
2015
2017
2019
2020
2021
2021
2022
2022
2023
2025
2027
2029
2031
2032
2033
2033
2033
2034
2034
2035
2036
2037
2037
2037
2036
2034
2033
2031
2030
2029
2027
2025
2023
2020
2017
2014
2011
2008
2006
2004
2003
2003
2003
2004
2004
2004
2005
2005
2005
2006
2007
2008
2008
2009
2009
2009
2008
2008
2009
2009
2010
2011
2011
2012
2013
2014
2016
2017
2018
2019
2020
2021
2022
2022
2022
2021
2021
2020
2021
2021
2022
2023
2024
2024
2025
2025
2025
2026
2028
2031
2036
2040
2044
2045
2044
2041
2038
2037
2039
2044
2048
2052
2056
2058
2058
2056
2051
2044
2034
2026
2022
2020
2021
2022
2025
2030
2037
2045
2049
2051
2051
2054
2064
2080
2099
2114
2124
2133
2141
2146
2142
2121
2085
2044
2010
1996
2006
2032
2061
2082
2088
2080
2065
2052
2047
2048
2052
2056
2057
2056
2056
2058
2062
2066
2068
2068
2064
2061
2060
2061
2063
2063
2061
2059
2057
2059
2062
2063
2059
2053
2046
2039
2036
2037
2037
2037
2035
2031
2026
2022
2017
2012
2007
2001
1996
1994
1994
1996
1998
1996
1989
1978
1965
1954
1949
1949
1951
1952
1950
1944
1937
1932
1929
1928
1928
1927
1923
1918
1911
1905
1902
1899
1898
1896
1892
1885
1876
1868
1864
1865
1870
1874
1873
1866
1855
1842
1832
1828
1828
1829
1827
1823
1816
1808
1800
1794
1788
1783
1779
1772
1764
1756
1751
1752
1759
1770
1781
1791
1800
1810
1823
1839
1856
1874
1890
1904
1915
1922
1926
1930
1935
1943
1953
1960
1963
1960
1954
1948
1945
1946
1951
1958
1967
1977
1987
1997
2010
2025
2045
2068
2093
2115
2131
2144
2156
2163
2162
2146
2115
2076
2043
2026
2031
2053
2086
2119
2144
2161
2169
2173
2179
2190
2205
2223
2242
2261
2282
2304
2329
2352
2372
2387
2399
2408
2418
2428
2439
2449
2457
2463
2467
2472
2476
2480
2483
2488
2494
2502
2512
2522
2533
2542
2553
2564
2575
2585
2594
2601
2608
2614
2620
2627
2636
2646
2655
2663
2668
2671
2675
2681
2694
2709
2726
2742
2757
2769
2780
2790
2799
2808
2816
2826
2837
2848
2856
2862
2866
2870
2874
2881
2888
2896
2902
2905
2906
2905
2900
2892
2884
2878
2874
2871
2869
2867
2862
2855
2846
2837
2828
2820
2813
2807
2801
2795
2786
2777
2768
2758
2748
2738
2729
2720
2708
2696
2682
2668
2656
2645
2636
2629
2620
2611
2601
2590
2577
2562
2546
2529
2513
2498
2486
2475
2463
2450
2433
2416
2398
2382
2368
2357
2347
2338
2327
2314
2298
2281
2266
2256
2253
2255
2258
2258
2257
2256
2257
2254
2237
2200
2144
2084
2037
2011
2008
2017
2028
2032
2028
2018
2006
1994
1983
1973
1963
1952
1937
1918
1892
1859
1820
1776
1728
1678
1630
1586
1546
1510
1476
1442
1407
1371
1336
1304
1276
1254
1236
1222
1211
1205
1203
1204
1208
1211
1214
1215
1216
1217
1221
1226
1232
1238
1243
1249
1254
1259
1264
1269
1271
1274
1276
1280
1284
1288
1292
1296
1298
1300
1302
1304
1307
1311
1315
1320
1326
1332
1338
1346
1354
1362
1370
1378
1386
1392
1397
1401
1405
1409
1414
1420
1425
1431
1435
1440
1444
1447
1451
1454
1458
1463
1468
1475
1481
1488
1494
1499
1504
1509
1514
1520
1527
1536
1546
1557
1566
1574
1579
1583
1587
1590
1594
1598
1603
1606
1610
1614
1617
1621
1624
1628
1632
1635
1638
1640
1642
1644
1647
1650
1655
1659
1663
1667
1669
1671
1672
1674
1681
1695
1714
1733
1748
1760
1770
1782
1788
1783
1760
1721
1679
1648
1638
1648
1671
1695
1714
1727
1733
1736
1737
1738
1740
1743
1747
1752
1758
1763
1768
1772
1774
1776
1779
1783
1787
1792
1796
1799
1802
1804
1806
1810
1814
1817
1820
1822
1825
1827
1829
1830
1832
1833
1834
1836
1838
1841
1843
1845
1845
1845
1845
1844
1845
1845
1846
1846
1846
1845
1843
1841
1839
1837
1836
1835
1835
1834
1834
1835
1836
1836
1836
1835
1836
1837
1839
1841
1843
1844
1846
1847
1849
1851
1854
1856
1858
1859
1860
1861
1862
1863
1864
1865
1865
1866
1868
1871
1873
1874
1874
1874
1873
1874
1875
1877
1879
1880
1881
1883
1883
1884
1885
1886
1887
1888
1889
1890
1891
1890
1890
1889
1889
1890
1891
1892
1895
1897
1899
1901
1901
1900
1899
1898
1898
1899
1900
1902
1903
1904
1903
1901
1900
1901
1908
1922
1941
1959
1971
1978
1983
1988
1991
1983
1959
1920
1878
1846
1834
1844
1865
1887
1903
1913
1917
1919
1919
1920
1920
1921
1921
1922
1923
1924
1926
1927
1928
1929
1930
1930
1929
1929
1928
1928
1928
1928
1928
1929
1931
1931
1932
1932
1932
1932
1933
1934
1936
1937
1937
1937
1937
1935
1934
1931
1929
1926
1922
1919
1916
1913
1910
1905
1901
1897
1893
1890
1886
1883
1880
1876
1873
1869
1867
1865
1863
1863
1862
1862
1861
1860
1859
1858
1857
1857
1858
1859
1859
1859
1857
1856
1854
1854
1854
1854
1855
1856
1859
1861
1863
1863
1863
1862
1861
1861
1861
1863
1864
1865
1867
1868
1869
1869
1869
1869
1869
1869
1869
1869
1869
1868
1868
1868
1868
1869
1869
1869
1870
1871
1872
1872
1873
1874
1873
1872
1872
1872
1873
1874
1876
1878
1880
1882
1884
1885
1885
1885
1884
1883
1883
1883
1884
1884
1884
1884
1883
1882
1882
1886
1897
1912
1926
1936
1941
1943
1946
1951
1952
1940
1913
1876
1843
1825
1828
1847
1871
1890
1903
1908
1909
1909
1909
1909
1909
1910
1912
1914
1916
1917
1919
1921
1923
1925
1927
1929
1932
1934
1936
1938
1938
1939
1940
1941
1943
1944
1945
1946
1947
1948
1949
1951
1951
1951
1950
1949
1949
1949
1949
1949
1948
1946
1942
1938
1933
1928
1923
1918
1914
1910
1906
1902
1898
1895
1892
1891
1891
1890
1889
1888
1887
1887
1887
1888
1888
1888
1887
1888
1889
1891
1894
1897
1899
1902
1904
1907
1911
1915
1920
1923
1926
1928
1931
1934
1937
1940
1942
1944
1946
1948
1951
1953
1954
1956
1958
1960
1962
1964
1966
1968
1970
1972
1974
1976
1976
1977
1977
1977
1978
1978
1978
1978
1977
1977
1977
1977
1977
1976
1975
1974
1974
1973
1971
1969
1967
1964
1962
1962
1963
1965
1967
1968
1969
1970
1970
1969
1968
1965
1962
1960
1956
1953
1949
1946
1945
1944
1944
1942
1941
1941
1947
1959
1974
1989
2001
2009
2018
2027
2032
2027
2006
1973
1938
1913
1908
1922
1944
1965
1979
1983
1980
1973
1967
1963
1961
1961
1961
1963
1965
1969
1972
1976
1977
1978
1977
1976
1976
1977
1978
1981
1983
1985
1987
1987
1987
1987
1987
1986
1986
1986
1986
1986
1986
1986
1985
1985
1986
1987
1988
1989
1989
1988
1987
1986
1986
1986
1986
1985
1984
1982
1980
1978
1975
1972
1968
1966
1964
1963
1962
1961
1961
1961
1961
1961
1961
1961
1962
1964
1966
1967
1968
1968
1967
1967
1967
1968
1969
1970
1972
1973
1974
1976
1977
1978
1978
1978
1978
1978
1979
1979
1980
1981
1982
1983
1983
1984
1984
1985
1987
1988
1990
1991
1991
1991
1992
1993
1995
1996
1997
1998
1998
1998
1998
1999
2000
2000
2002
2003
2004
2005
2007
2009
2009
2009
2009
2009
2008
2007
2006
2006
2006
2007
2008
2008
2009
2010
2011
2013
2014
2015
2014
2013
2011
2010
2009
2010
2011
2013
2015
2015
2015
2013
2013
2017
2028
2045
2063
2077
2085
2090
2094
2096
2092
2073
2041
2002
1968
1952
1956
1974
1997
2016
2028
2034
2037
2038
2039
2040
2041
2042
2043
2044
2045
2045
2045
2045
2047
2048
2048
2048
2048
2048
2048
2048
2048
2048
2048
2049
2050
2051
2051
2052
2053
2055
2056
2058
2059
2059
2060
2060
2061
2061
2060
2059
2057
2055
2054
2052
2051
2049
2048
2044
2040
2035
2031
2026
2022
2017
2014
2011
2008
2006
2004
2001
1999
1997
1996
1995
1996
1996
1996
1996
1995
1994
1993
1993
1994
1994
1995
1995
1995
1995
1995
1994
1994
1993
1993
1993
1993
1992
1992
1991
1990
1989
1988
1987
1986
1986
1985
1986
1986
1986
1985
1984
1983
1981
1981
1981
1981
1981
1980
1979
1978
1977
1976
1975
1974
1974
1973
1973
1973
1973
1972
1971
1970
1969
1968
1967
1965
1963
1961
1957
1954
1951
1948
1946
1944
1945
1946
1947
1947
1947
1945
1942
1939
1936
1934
1933
1933
1932
1932
1930
1928
1925
1921
1919
1921
1931
1946
1963
1975
1981
1983
1985
1988
1985
1971
1941
1901
1865
1844
1844
1860
1882
1902
1916
1922
1924
1923
1923
1924
1924
1925
1926
1926
1926
1926
1926
1927
1927
1927
1927
1926
1927
1927
1928
1929
1930
1932
1933
1934
1934
1933
1932
1931
1930
1929
1929
1930
1930
1930
1930
1929
1928
1926
1924
1922
1920
1918
1916
1913
1910
1907
1904
1900
1897
1893
1888
1884
1880
1877
1873
1871
1868
1867
1866
1865
1865
1865
1865
1866
1867
1868
1868
1867
1867
1866
1867
1868
1868
1869
1869
1870
1870
1871
1872
1873
1874
1875
1876
1877
1877
1877
1877
1877
1878
1880
1881
1883
1883
1883
1883
1882
1882
1881
1881
1882
1884
1886
1890
1893
1897
1900
1903
1905
1906
1908
1909
1910
1911
1911
1910
1909
1907
1906
1906
1907
1909
1910
1911
1911
1911
1910
1911
1912
1912
1913
1913
1914
1916
1917
1919
1920
1920
1921
1921
1921
1922
1923
1924
1925
1925
1925
1923
1920
1917
1915
1913
1913
1913
1912
1911
1911
1911
1911
1911
1909
1907
1904
1902
1901
1901
1903
1904
1904
1904
1904
1903
1904
1908
1918
1932
1948
1961
1970
1974
1978
1984
1988
1981
1959
1924
1887
1861
1855
1867
1888
1908
1922
1928
1930
1931
1931
1932
1934
1935
1936
1937
1938
1940
1943
1946
1948
1951
1953
1955
1956
1958
1960
1962
1964
1965
1965
1964
1964
1965
1967
1970
1972
1974
1975
1976
1977
1978
1980
1982
1983
1983
1982
1980
1977
1974
1971
1970
1969
1967
1966
1964
1963
1961
1960
1959
1957
1953
1949
1945
1941
1939
1937
1935
1935
1934
1934
1934
1934
1934
1935
1937
1940
1944
1949
1953
1957
1960
1963
1966
1968
1971
1973
1976
1979
1982
1985
1987
1989
1990
1990
1991
1992
1995
1997
1998
2000
2001
2002
2002
2004
2006
2007
2009
2010
2012
2013
2015
2016
2018
2020
2022
2023
2025
2026
2027
2027
2026
2026
2026
2027
2029
2031
2032
2032
2031
2031
2032
2033
2035
2036
2038
2038
2039
2040
2041
2042
2042
2042
2042
2043
2044
2045
2046
2046
2045
2045
2044
2045
2045
2046
2047
2047
2048
2048
2048
2047
2047
2046
2045
2044
2043
2043
2044
2045
2045
2046
2047
2048
2049
2050
2050
2049
2048
2048
2048
2047
2047
2047
2047
2048
2048
2048
2047
2047
2050
2060
2076
2093
2107
2114
2118
2122
2126
2124
2110
2080
2041
2003
1980
1979
1995
2019
2040
2054
2061
2063
2062
2060
2060
2060
2061
2063
2064
2064
2065
2064
2064
2064
2064
2064
2064
2065
2066
2067
2067
2067
2067
2066
2065
2065
2065
2065
2066
2066
2068
2069
2070
2070
2070
2070
2070
2071
2072
2072
2071
2070
2067
2065
2063
2061
2059
2058
2055
2052
2048
2044
2039
2033
2027
2022
2017
2014
2011
2008
2006
2003
2001
1998
1996
1995
1994
1994
1993
1993
1992
1991
1990
1989
1988
1988
1988
1988
1988
1987
1987
1985
1983
1982
1981
1980
1980
1980
1980
1979
1978
1977
1976
1974
1972
1970
1969
1968
1967
1966
1964
1961
1957
1954
1951
1949
1947
1946
1944
1943
1942
1940
1939
1937
1935
1934
1933
1933
1932
1931
1930
1927
1925
1922
1920
1918
1916
1915
1913
1911
1910
1908
1906
1904
1903
1901
1900
1899
1898
1898
1897
1895
1894
1893
1892
1891
1891
1890
1888
1886
1884
1882
1880
1880
1881
1882
1883
1885
1886
1887
1888
1886
1884
1880
1876
1874
1874
1876
1881
1886
1890
1893
1893
1892
1894
1901
1915
1932
1947
1957
1962
1966
1971
1974
1969
1949
1915
1879
1851
1843
1852
1872
1892
1906
1912
1913
1912
1910
1908
1906
1905
1904
1903
1902
1901
1899
1897
1895
1892
1890
1887
1884
1881
1878
1876
1874
1872
1870
1869
1866
1864
1861
1857
1853
1849
1847
1846
1845
1846
1846
1846
1846
1846
1845
1846
1846
1847
1847
1846
1844
1839
1834
1830
1825
1820
1816
1811
1807
1803
1800
1797
1795
1792
1790
1788
1788
1788
1790
1791
1793
1794
1794
1796
1797
1800
1803
1806
1810
1813
1816
1819
1822
1825
1827
1830
1833
1837
1839
1842
1844
1847
1849
1852
1855
1858
1862
1864
1867
1871
1874
1878
1880
1882
1884
1885
1887
1890
1893
1895
1896
1897
1898
1899
1901
1903
1904
1906
1907
1908
1908
1909
1909
1909
1909
1909
1909
1910
1911
1912
1913
1914
1915
1915
1916
1916
1917
1918
1919
1921
1922
1924
1926
1928
1930
1933
1936
1938
1941
1943
1944
1944
1943
1944
1945
1947
1949
1952
1953
1954
1954
1955
1957
1959
1961
1963
1965
1968
1973
1980
1986
1990
1991
1990
1989
1987
1986
1985
1985
1985
1985
1985
1984
1982
1981
1986
1997
2012
2027
2037
2043
2047
2052
2057
2054
2037
2004
1966
1937
1926
1934
1953
1973
1987
1994
1995
1996
1997
1998
2001
2004
2006
2008
2009
2009
2010
2011
2012
2014
2015
2017
2018
2019
2020
2020
2020
2021
2021
2022
2023
2023
2024
2025
2026
2027
2027
2028
2029
2030
2031
2032
2034
2036
2037
2037
2038
2038
2038
2040
2042
2043
2045
2045
2044
2043
2040
2037
2034
2031
2028
2025
2023
2020
2018
2016
2015
2015
2015
2016
2017
2018
2020
2021
2023
2024
2026
2029
2031
2033
2035
2036
2037
2037
2038
2039
2040
2041
2042
2043
2044
2046
2047
2047
2046
2045
2045
2046
2046
2047
2048
2048
2048
2048
2048
2048
2048
2048
2049
2050
2051
2051
2052
2052
2052
2051
2050
2050
2051
2052
2053
2054
2054
2053
2051
2051
2050
2050
2050
2051
2051
2052
2052
2051
2051
2050
2049
2049
2049
2050
2051
2051
2051
2051
2050
2049
2049
2049
2049
2049
2049
2048
2048
2046
2044
2042
2041
2042
2044
2046
2048
2050
2050
2048
2046
2043
2041
2040
2041
2042
2044
2045
2044
2043
2041
2039
2041
2048
2063
2082
2099
2109
2114
2116
2117
2114
2102
2075
2039
2001
1976
1970
1982
2003
2023
2038
2046
2048
2049
2049
2049
2049
2049
2049
2048
2048
2048
2048
2048
2048
2048
2048
2048
2048
2048
2047
2046
2045
2045
2045
2045
2046
2046
2046
2045
2044
2043
2043
2044
2044
2044
2044
2043
2042
2041
2039
2037
2034
2032
2029
2026
2023
2020
2015
2010
2004
1999
1993
1988
1983
1978
1974
1970
1966
1962
1958
1955
1953
1951
1950
1949
1949
1948
1947
1946
1945
1944
1943
1943
1943
1943
1944
1944
1945
1945
1945
1945
1945
1945
1946
1948
1949
1950
1950
1950
1949
1948
1947
1947
1947
1947
1947
1947
1947
1946
1946
1945
1945
1945
1945
1945
1945
1945
1946
1947
1946
1946
1945
1944
1943
1943
1942
1941
1940
1937
1934
1932
1929
1928
1927
1927
1927
1927
1926
1926
1925
1925
1925
1924
1924
1924
1925
1927
1929
1931
1932
1931
1931
1931
1932
1934
1935
1935
1935
1933
1932
1933
1935
1939
1945
1951
1956
1959
1959
1958
1957
1957
1958
1959
1961
1962
1964
1965
1965
1964
1964
1968
1978
1995
2014
2031
2042
2049
2056
2065
2070
2064
2043
2009
1974
1952
1949
1964
1985
2005
2017
2022
2022
2021
2020
2020
2019
2018
2016
2013
2011
2010
2010
2011
2012
2013
2013
2013
2012
2010
2009
2009
2010
2013
2017
2020
2023
2025
2026
2026
2026
2026
2027
2028
2030
2032
2033
2033
2033
2033
2035
2036
2037
2037
2037
2036
2036
2035
2034
2034
2033
2032
2029
2025
2020
2013
2007
2002
1997
1993
1990
1987
1985
1983
1982
1981
1981
1979
1977
1976
1974
1973
1972
1972
1973
1974
1974
1974
1974
1973
1972
1972
1972
1972
1972
1971
1971
1971
1971
1971
1971
1971
1970
1969
1969
1968
1968
1967
1967
1966
1966
1965
1964
1963
1963
1963
1964
1964
1964
1963
1962
1961
1961
1961
1962
1963
1964
1964
1964
1965
1966
1966
1967
1968
1969
1971
1973
1976
1977
1978
1979
1979
1979
1979
1980
1981
1983
1985
1986
1987
1987
1986
1986
1986
1986
1986
1986
1986
1987
1989
1991
1994
1996
1997
1997
1998
1998
1999
1999
1997
1994
1991
1990
1991
1993
1996
2001
2006
2010
2012
2012
2012
2015
2025
2041
2057
2070
2078
2083
2087
2091
2088
2071
2037
1992
1952
1928
1926
1940
1958
1973
1980
1981
1979
1976
1974
1972
1971
1971
1971
1973
1975
1978
1981
1985
1988
1991
1994
1997
1999
2000
2001
2003
2004
2006
2007
2009
2010
2010
2009
2007
2005
2002
2000
1998
1996
1995
1994
1993
1992
1991
1990
1990
1990
1990
1989
1988
1986
1983
1981
1978
1976
1974
1970
1966
1961
1957
1953
1951
1948
1946
1944
1943
1942
1942
1943
1944
1945
1945
1946
1947
1948
1950
1953
1956
1959
1961
1961
1961
1960
1960
1961
1964
1967
1970
1973
1974
1975
1976
1976
1976
1977
1977
1978
1978
1979
1979
1979
1979
1979
1980
1980
1982
1983
1985
1986
1987
1988
1988
1988
1989
1990
1992
1995
1998
2000
2001
2002
2001
2001
2000
1999
1999
1999
1998
1998
1997
1995
1993
1992
1992
1991
1990
1989
1989
1989
1990
1990
1990
1989
1988
1988
1988
1988
1985
1982
1978
1975
1972
1967
1962
1956
1951
1949
1950
1954
1959
1964
1968
1971
1973
1972
1971
1970
1972
1975
1979
1984
1990
1994
1996
1996
1997
2002
2016
2036
2055
2070
2077
2079
2083
2089
2091
2084
2061
2028
1994
1973
1972
1987
2012
2038
2058
2073
2082
2086
2088
2090
2095
2103
2113
2124
2134
2143
2151
2159
2166
2173
2179
2184
2187
2190
2193
2198
2204
2210
2215
2217
2217
2215
2211
2209
2206
2204
2201
2198
2194
2190
2185
2179
2173
2168
2163
2160
2157
2155
2152
2149
2146
2143
2139
2134
2129
2123
2116
2109
2102
2096
2091
2088
2085
2082
2079
2075
2072
2071
2070
2069
2068
2067
2066
2065
2063
2062
2062
2061
2060
2061
2061
2061
2060
2058
2055
2052
2050
2048
2047
2045
2043
2041
2040
2039
2038
2038
2037
2036
2035
2035
2035
2035
2033
2032
2031
2031
2031
2030
2031
2031
2031
2030
2030
2029
2028
2027
2025
2023
2020
2017
2015
2011
2008
2004
2000
1997
1995
1995
1994
1993
1992
1989
1987
1986
1984
1981
1979
1976
1974
1971
1967
1963
1959
1956
1952
1948
1942
1935
1926
1919
1914
1912
1910
1909
1905
1900
1892
1884
1875
1865
1855
1845
1837
1831
1827
1825
1826
1826
1825
1821
1816
1812
1814
1824
1841
1860
1877
1890
1900
1909
1914
1908
1886
1849
1808
1776
1762
1768
1786
1807
1822
1830
1833
1833
1833
1833
1832
1832
1831
1829
1826
1823
1819
1815
1811
1808
1804
1798
1790
1781
1772
1764
1760
1757
1756
1754
1751
1748
1742
1736
1728
1719
1711
1704
1698
1693
1690
1687
1685
1682
1679
1676
1671
1666
1660
1652
1641
1629
1618
1609
1602
1596
1590
1584
1577
1570
1564
1559
1554
1551
1549
1549
1550
1550
1551
1551
1552
1554
1557
1562
1569
1576
1582
1588
1592
1595
1597
1600
1605
1611
1620
1632
1645
1660
1675
1689
1704
1719
1734
1749
1761
1772
1782
1791
1801
1812
1824
1834
1844
1851
1858
1866
1874
1884
1895
1906
1918
1930
1943
1957
1972
1987
2002
2016
2029
2040
2048
2057
2065
2074
2082
2091
2100
2109
2118
2126
2133
2139
2143
2147
2152
2159
2166
2173
2180
2186
2193
2200
2207
2212
2215
2217
2219
2221
2224
2228
2231
2235
2238
2242
2245
2248
2251
2253
2254
2254
2255
2255
2255
2254
2254
2257
2263
2270
2276
2279
2278
2275
2270
2264
2257
2249
2243
2241
2247
2260
2277
2294
2310
2324
2334
2334
2318
2282
2229
2173
2128
2106
2104
2114
2123
2124
2117
2106
2095
2084
2073
2060
2045
2027
2009
1993
1982
1974
1971
1969
1970
1972
1973
1974
1974
1972
1970
1968
1966
1964
1962
1961
1961
1962
1965
1968
1971
1974
1978
1983
1988
1994
2000
2006
2012
2018
2025
2031
2037
2042
2046
2048
2050
2052
2055
2059
2064
2069
2074
2077
2080
2082
2084
2087
2091
2095
2099
2104
2109
2117
2125
2134
2143
2149
2154
2159
2163
2168
2174
2180
2187
2193
2199
2202
2202
2201
2200
2199
2201
2203
2206
2208
2209
2210
2210
2211
2213
2214
2216
2219
2221
2223
2225
2225
2224
2223
2221
2219
2218
2217
2218
2219
2220
2221
2220
2218
2216
2213
2212
2211
2210
2208
2204
2201
2197
2193
2191
2189
2187
2186
2185
2183
2181
2179
2178
2176
2175
2174
2173
2173
2172
2170
2167
2165
2164
2163
2161
2158
2154
2150
2148
2148
2149
2152
2156
2159
2163
2165
2167
2167
2166
2166
2166
2167
2169
2171
2173
2174
2175
2177
2177
2177
2178
2183
2194
2211
2231
2249
2266
2283
2301
2313
2309
2282
2232
2175
2128
2104
2105
2121
2140
2152
2155
2151
2142
2133
2124
2118
2113
2111
2111
2111
2111
2111
2111
2109
2108
2106
2105
2105
2104
2104
2103
2101
2100
2098
2096
2095
2093
2090
2087
2083
2078
2073
2068
2062
2057
2053
2050
2048
2048
2048
2048
2047
2046
2045
2044
2043
2043
2042
2042
2041
2039
2038
2035
2031
2026
2020
2015
2011
2009
2009
2010
2011
2011
2011
2012
2012
2012
2013
2014
2016
2017
2018
2018
2017
2017
2018
2020
2023
2027
2029
2031
2032
2034
2035
2038
2040
2043
2045
2047
2048
2048
2048
2048
2047
2046
2045
2045
2045
2046
2046
2047
2048
2048
2049
2050
2051
2052
2053
2054
2054
2055
2056
2057
2058
2059
2060
2061
2062
2063
2065
2067
2069
2071
2073
2075
2076
2078
2079
2080
2082
2083
2085
2086
2088
2090
2092
2094
2097
2101
2104
2106
2107
2106
2105
2105
2105
2107
2110
2113
2116
2119
2122
2123
2124
2124
2127
2136
2154
2178
2203
2224
2242
2260
2278
2288
2283
2256
2210
2162
2128
2117
2129
2151
2172
2186
2194
2199
2203
2206
2208
2210
2211
2213
2215
2216
2217
2217
2217
2217
2217
2215
2212
2208
2203
2199
2197
2198
2201
2205
2209
2212
2215
2217
2218
2220
2222
2225
2228
2233
2237
2242
2247
2251
2255
2259
2262
2264
2267
2269
2272
2274
2276
2277
2276
2275
2273
2270
2267
2263
2259
2255
2252
2248
2245
2243
2240
2237
2235
2234
2235
2235
2235
2235
2234
2233
2233
2232
2231
2230
2229
2227
2224
2220
2216
2212
2210
2210
2210
2210
2209
2207
2205
2203
2202
2202
2202
2202
2201
2200
2198
2196
2195
2195
2195
2195
2194
2193
2190
2187
2184
2182
2182
2181
2179
2176
2171
2168
2165
2165
2165
2164
2160
2155
2150
2145
2142
2140
2139
2138
2136
2134
2130
2127
2124
2122
2119
2117
2116
2115
2115
2114
2114
2112
2109
2106
2104
2102
2100
2099
2099
2099
2099
2099
2097
2094
2090
2085
2080
2077
2074
2073
2074
2075
2075
2076
2075
2074
2074
2075
2079
2089
2104
2120
2134
2145
2154
2167
2183
2197
2197
2175
2135
2090
2057
2046
2055
2076
2097
2110
2116
2117
2117
2116
2116
2117
2118
2119
2121
2123
2125
2128
2132
2135
2138
2140
2140
2141
2144
2148
2153
2158
2161
2162
2161
2161
2161
2163
2165
2167
2169
2168
2167
2166
2166
2167
2167
2167
2167
2166
2165
2164
2163
2162
2161
2158
2154
2150
2146
2141
2136
2131
2126
2120
2114
2107
2102
2096
2091
2086
2083
2081
2079
2076
2073
2069
2065
2062
2061
2060
2061
2061
2061
2060
2059
2057
2057
2057
2057
2058
2058
2058
2057
2056
2055
2053
2052
2051
2050
2049
2048
2047
2046
2045
2043
2041
2039
2038
2036
2035
2034
2034
2033
2032
2031
2031
2033
2035
2038
2041
2042
2041
2039
2038
2037
2037
2038
2039
2040
2041
2042
2043
2042
2041
2041
2041
2044
2048
2051
2054
2056
2057
2057
2057
2057
2057
2056
2055
2054
2054
2056
2059
2063
2066
2068
2070
2071
2072
2072
2072
2070
2068
2068
2067
2067
2068
2068
2070
2071
2071
2070
2070
2076
2088
2105
2123
2136
2144
2152
2164
2178
2184
2172
2137
2089
2044
2018
2016
2032
2054
2073
2085
2089
2089
2086
2082
2079
2076
2075
2076
2078
2080
2082
2084
2085
2086
2085
2085
2085
2087
2089
2091
2093
2094
2094
2094
2095
2096
2099
2101
2104
2106
2108
2110
2112
2113
2115
2116
2118
2121
2123
2125
2127
2127
2126
2125
2123
2121
2120
2118
2116
2114
2109
2104
2097
2090
2084
2078
2073
2069
2067
2064
2062
2059
2057
2056
2055
2054
2054
2054
2055
2057
2058
2058
2058
2057
2057
2056
2056
2056
2056
2057
2057
2058
2058
2058
2058
2058
2059
2060
2061
2062
2062
2062
2062
2061
2060
2060
2060
2061
2062
2062
2062
2061
2061
2060
2059
2059
2060
2062
2063
2063
2062
2062
2061
2061
2061
2062
2063
2063
2063
2064
2064
2065
2064
2063
2062
2061
2060
2061
2062
2064
2065
2065
2066
2067
2068
2068
2067
2065
2063
2061
2060
2060
2060
2060
2060
2060
2060
2058
2056
2056
2063
2078
2099
2119
2132
2140
2147
2155
2160
2151
2123
2077
2028
1991
1977
1986
2008
2031
2048
2057
2061
2062
2062
2062
2062
2062
2062
2062
2062
2062
2062
2063
2063
2063
2064
2064
2064
2065
2066
2066
2067
2067
2067
2067
2067
2068
2070
2072
2075
2077
2078
2079
2080
2081
2082
2084
2086
2088
2090
2091
2091
2090
2089
2087
2086
2084
2083
2080
2077
2071
2065
2057
2049
2044
2038
2034
2030
2027
2025
2023
2021
2019
2017
2015
2013
2012
2012
2012
2013
2014
2014
2014
2013
2012
2011
2011
2011
2012
2012
2013
2013
2012
2012
2011
2010
2009
2009
2009
2009
2009
2009
2008
2007
2006
2004
2004
2003
2003
2003
2003
2003
2003
2002
2000
1999
1999
1999
1999
2000
2000
2000
2000
2000
1999
1998
1997
1997
1998
1999
1999
1998
1996
1993
1991
1990
1991
1992
1994
1996
1998
2000
2000
1999
1997
1994
1992
1991
1991
1993
1994
1995
1996
1995
1993
1990
1988
1990
2001
2020
2041
2055
2059
2055
2052
2056
2062
2059
2040
2003
1961
1931
1924
1938
1963
1986
2001
2007
2009
2008
2008
2008
2009
2009
2009
2010
2010
2010
2010
2011
2013
2014
2014
2015
2015
2015
2016
2017
2018
2019
2021
2022
2023
2024
2024
2025
2026
2028
2031
2033
2035
2036
2037
2036
2036
2035
2035
2036
2036
2035
2033
2028
2022
2014
2007
2001
1996
1992
1988
1984
1980
1976
1971
1967
1962
1959
1956
1954
1953
1952
1950
1948
1945
1942
1939
1937
1936
1935
1935
1934
1932
1931
1930
1928
1926
1923
1920
1918
1916
1916
1915
1914
1912
1911
1910
1909
1910
1911
1911
1912
1912
1911
1911
1910
1910
1910
1911
1912
1914
1915
1917
1918
1918
1918
1918
1917
1917
1916
1915
1915
1915
1914
1913
1911
1908
1904
1899
1895
1892
1888
1885
1880
1874
1869
1864
1859
1854
1851
1847
1843
1840
1836
1833
1829
1826
1822
1819
1815
1813
1811
1811
1811
1812
1812
1813
1816
1825
1839
1854
1865
1871
1871
1872
1878
1884
1883
1866
1831
1790
1757
1743
1748
1765
1784
1795
1799
1797
1794
1791
1789
1788
1787
1787
1786
1786
1787
1789
1791
1793
1793
1792
1790
1787
1784
1780
1778
1776
1776
1777
1778
1779
1779
1778
1777
1777
1778
1782
1788
1794
1799
1802
1804
1805
1809
1814
1823
1835
1850
1869
1890
1915
1939
1962
1982
2000
2015
2028
2042
2055
2069
2082
2094
2106
2118
2130
2142
2155
2168
2181
2195
2209
2224
2239
2254
2267
2279
2290
2298
2304
2307
2308
2306
2302
2297
2292
2284
2275
2262
2246
2226
2205
2183
2161
2140
2119
2099
2081
2064
2048
2033
2014
1993
1970
1948
1931
1921
1919
1920
1920
1916
1906
1894
1883
1876
1873
1872
1870
1867
1863
1858
1854
1850
1846
1843
1840
1836
1832
1829
1825
1821
1817
1814
1812
1811
1811
1812
1815
1817
1819
1819
1817
1816
1815
1816
1817
1819
1822
1823
1825
1826
1825
1825
1825
1829
1839
1854
1871
1886
1898
1907
1917
1924
1924
1908
1876
1837
1802
1785
1788
1806
1829
1847
1859
1864
1866
1866
1867
1868
1871
1874
1878
1882
1886
1891
1895
1900
1904
1907
1910
1913
1916
1918
1921
1923
1925
1927
1930
1933
1936
1940
1942
1945
1947
1950
1953
1957
1961
1965
1969
1973
1977
1980
1983
1985
1986
1987
1988
1989
1990
1991
1992
1992
1991
1989
1986
1984
1981
1979
1977
1975
1974
1973
1972
1971
1971
1971
1972
1973
1975
1978
1979
1980
1981
1981
1980
1981
1982
1983
1984
1986
1987
1988
1988
1988
1988
1988
1989
1990
1992
1994
1995
1995
1995
1994
1993
1993
1993
1993
1994
1995
1996
1997
1997
1997
1997
1997
1997
1997
1998
1999
2001
2002
2002
2002
2002
2003
2003
2003
2004
2003
2002
2001
2001
2001
2001
2002
2004
2006
2008
2009
2009
2008
2006
2003
2001
2001
2001
2002
2003
2004
2004
2003
2001
1999
1999
2006
2021
2041
2059
2075
2087
2099
2107
2108
2091
2055
2008
1962
1934
1929
1944
1967
1988
2002
2008
2011
2012
2011
2012
2013
2013
2014
2015
2015
2015
2015
2016
2017
2018
2019
2020
2021
2021
2022
2022
2023
2024
2026
2027
2029
2030
2031
2032
2033
2034
2035
2037
2039
2041
2043
2045
2046
2047
2047
2046
2046
2045
2044
2043
2042
2041
2038
2035
2031
2026
2021
2016
2012
2009
2005
2002
1999
1996
1993
1990
1988
1987
1987
1987
1988
1989
1989
1989
1988
1988
1988
1989
1989
1990
1990
1990
1990
1990
1989
1989
1988
1988
1988
1988
1988
1988
1988
1987
1986
1985
1985
1984
1984
1984
1984
1983
1983
1982
1982
1981
1981
1980
1980
1980
1980
1980
1980
1980
1979
1978
1977
1976
1976
1976
1975
1974
1972
1971
1970
1970
1971
1972
1973
1975
1978
1979
1978
1976
1973
1971
1969
1969
1971
1972
1973
1974
1973
1970
1968
1967
1971
1982
1998
2014
2025
2031
2037
2045
2054
2057
2044
2011
1967
1929
1910
1914
1933
1956
1973
1981
1983
1982
1982
1982
1983
1984
1985
1985
1985
1984
1983
1983
1984
1985
1987
1986
1984
1980
1976
1973
1971
1971
1972
1973
1974
1974
1973
1971
1970
1968
1968
1970
1972
1975
1977
1978
1978
1978
1978
1979
1981
1982
1982
1981
1978
1976
1972
1968
1964
1959
1956
1954
1954
1954
1953
1949
1944
1939
1935
1932
1930
1929
1929
1929
1929
1930
1931
1931
1932
1932
1933
1933
1932
1931
1930
1929
1928
1927
1927
1926
1925
1924
1923
1923
1923
1923
1923
1922
1921
1920
1919
1919
1919
1919
1920
1920
1921
1921
1921
1919
1917
1915
1914
1914
1914
1914
1915
1915
1915
1916
1916
1916
1916
1916
1916
1915
1914
1913
1913
1913
1915
1918
1923
1927
1931
1933
1933
1932
1930
1929
1929
1930
1931
1933
1935
1935
1935
1933
1931
1931
1937
1949
1965
1979
1986
1986
1985
1987
1993
1995
1982
1951
1909
1872
1855
1862
1884
1908
1925
1932
1932
1931
1930
1930
1931
1932
1933
1934
1935
1935
1936
1937
1938
1939
1940
1941
1941
1942
1943
1944
1945
1947
1948
1950
1953
1955
1957
1959
1961
1964
1966
1969
1973
1976
1978
1981
1983
1984
1985
1985
1984
1982
1981
1981
1980
1979
1977
1973
1968
1964
1960
1956
1951
1946
1941
1937
1934
1932
1931
1931
1931
1932
1933
1934
1935
1937
1938
1939
1940
1941
1942
1942
1943
1945
1946
1947
1948
1949
1949
1949
1949
1950
1950
1951
1951
1952
1952
1952
1951
1950
1950
1950
1950
1950
1949
1948
1946
1944
1942
1941
1940
1939
1939
1938
1937
1936
1935
1933
1932
1930
1929
1928
1928
1927
1926
1924
1922
1920
1918
1917
1918
1920
1922
1925
1928
1931
1932
1932
1931
1931
1931
1933
1935
1937
1939
1940
1941
1941
1939
1938
1938
1944
1957
1975
1992
2006
2015
2024
2033
2041
2038
2018
1982
1942
1912
1902
1914
1935
1956
1970
1977
1979
1981
1982
1983
1984
1985
1986
1987
1989
1991
1993
1995
1997
1999
2000
2002
2003
2003
2004
2005
2006
2008
2009
2011
2013
2014
2016
2017
2019
2020
2022
2024
2026
2029
2031
2032
2032
2031
2031
2031
2030
2030
2029
2027
2025
2023
2021
2018
2015
2011
2007
2003
2000
1996
1993
1990
1987
1984
1982
1980
1979
1979
1980
1982
1984
1985
1986
1987
1988
1989
1990
1992
1994
1997
2000
2002
2005
2007
2010
2012
2014
2016
2018
2020
2023
2025
2026
2027
2028
2030
2032
2036
2040
2044
2047
2048
2048
2049
2049
2050
2052
2053
2054
2055
2056
2057
2057
2057
2057
2057
2057
2057
2058
2058
2059
2059
2058
2058
2057
2058
2058
2059
2060
2061
2061
2060
2058
2057
2055
2055
2056
2058
2061
2064
2066
2067
2067
2067
2066
2065
2064
2065
2066
2067
2068
2069
2068
2067
2063
2061
2061
2069
2084
2104
2123
2137
2146
2155
2163
2164
2151
2118
2072
2027
1996
1988
2000
2022
2043
2056
2064
2067
2067
2066
2066
2066
2066
2066
2066
2066
2067
2068
2069
2069
2069
2068
2068
2068
2068
2069
2070
2071
2072
2073
2074
2075
2075
2076
2076
2077
2077
2078
2079
2080
2082
2083
2084
2084
2084
2083
2083
2082
2081
2080
2079
2076
2073
2069
2066
2062
2059
2056
2052
2048
2044
2039
2035
2031
2028
2025
2023
2022
2021
2021
2021
2021
2021
2020
2020
2020
2021
2021
2022
2023
2024
2024
2024
2024
2023
2023
2023
2023
2023
2023
2023
2023
2022
2022
2022
2021
2021
2021
2022
2022
2023
2022
2022
2021
2019
2019
2018
2019
2019
2019
2019
2019
2019
2019
2018
2018
2018
2018
2019
2020
2020
2020
2019
2018
2016
2014
2013
2012
2011
2011
2012
2013
2014
2015
2015
2015
2015
2013
2012
2010
2009
2009
2009
2009
2009
2009
2009
2008
2006
2005
2006
2013
2028
2047
2065
2078
2087
2095
2104
2106
2093
2061
2015
1968
1937
1929
1943
1966
1989
2005
2013
2016
2016
2015
2014
2013
2013
2014
2015
2016
2017
2017
2017
2017
2016
2016
2016
2017
2018
2019
2020
2020
2021
2021
2021
2022
2023
2024
2026
2028
2030
2031
2033
2033
2034
2035
2036
2036
2037
2038
2037
2037
2035
2033
2030
2027
2024
2021
2018
2015
2011
2007
2002
1996
1992
1987
1984
1981
1979
1978
1976
1975
1973
1972
1970
1970
1970
1970
1971
1971
1971
1972
1972
1972
1972
1972
1972
1972
1972
1972
1973
1973
1973
1972
1972
1971
1971
1971
1972
1972
1973
1972
1972
1972
1971
1970
1970
1970
1970
1971
1972
1972
1971
1971
1970
1970
1970
1971
1971
1971
1972
1972
1972
1971
1971
1971
1971
1970
1970
1970
1970
1970
1970
1969
1969
1969
1969
1969
1970
1970
1970
1969
1968
1967
1966
1964
1963
1962
1962
1962
1963
1964
1966
1967
1969
1970
1970
1969
1968
1966
1965
1965
1965
1965
1965
1965
1965
1965
1963
1962
1964
1971
1985
2001
2015
2023
2028
2032
2039
2048
2047
2030
1996
1954
1920
1906
1915
1936
1959
1975
1982
1983
1982
1981
1980
1980
1981
1981
1983
1984
1985
1985
1986
1986
1986
1987
1988
1989
1991
1993
1994
1995
1995
1996
1997
1998
1999
2001
2002
2004
2006
2008
2010
2011
2012
2013
2015
2016
2018
2019
2020
2020
2020
2019
2018
2016
2014
2012
2011
2009
2006
2002
1997
1992
1987
1982
1978
1975
1973
1971
1969
1968
1966
1965
1964
1963
1963
1964
1964
1965
1966
1966
1966
1965
1965
1965
1966
1966
1967
1968
1969
1969
1968
1968
1967
1967
1967
1967
1968
1968
1969
1969
1968
1968
1967
1967
1967
1967
1968
1968
1969
1969
1969
1969
1968
1968
1968
1968
1969
1970
1971
1971
1972
1972
1971
1971
1972
1972
1973
1973
1974
1975
1975
1974
1974
1974
1974
1975
1976
1976
1977
1978
1978
1978
1977
1977
1977
1977
1978
1980
1982
1984
1986
1987
1988
1988
1988
1988
1989
1990
1990
1989
1988
1986
1986
1986
1987
1989
1991
1993
1995
1996
1996
1995
1993
1991
1990
1990
1991
1992
1993
1993
1993
1992
1990
1988
1990
1997
2012
2030
2045
2055
2060
2066
2074
2082
2079
2058
2022
1979
1946
1934
1943
1964
1985
2000
2007
2009
2009
2010
2010
2010
2009
2009
2009
2010
2011
2012
2014
2015
2016
2017
2018
2018
2019
2019
2020
2022
2023
2025
2027
2028
2029
2030
2031
2033
2035
2038
2040
2042
2044
2046
2047
2048
2048
2048
2048
2049
2050
2050
2049
2048
2048
2046
2043
2041
2038
2035
2031
2027
2023
2019
2015
2011
2007
2005
2003
2002
2001
2001
2001
2001
2000
2000
1999
1999
2000
2000
2002
2003
2003
2003
2003
2003
2002
2002
2002
2002
2003
2004
2004
2005
2005
2004
2004
2003
2003
2003
2003
2004
2004
2004
2004
2003
2003
2002
2002
2002
2003
2004
2005
2005
2005
2004
2004
2004
2003
2003
2004
2004
2004
2004
2005
2004
2003
2002
2002
2002
2003
2004
2005
2006
2006
2005
2005
2004
2005
2005
2005
2005
2005
2004
2004
2004
2003
2003
2002
2003
2003
2004
2004
2004
2004
2004
2004
2004
2004
2005
2006
2006
2006
2004
2002
2001
2000
2001
2003
2004
2006
2009
2011
2011
2011
2008
2005
2003
2002
2003
2005
2006
2007
2007
2006
2003
2001
2001
2007
2023
2044
2065
2081
2089
2095
2100
2103
2096
2071
2031
1984
1946
1930
1936
1956
1979
1997
2009
2014
2016
2017
2017
2018
2019
2019
2019
2019
2019
2019
2020
2021
2022
2023
2023
2023
2023
2024
2024
2025
2026
2028
2029
2030
2031
2032
2033
2033
2034
2035
2036
2038
2040
2042
2044
2045
2045
2045
2045
2045
2045
2045
2045
2044
2042
2040
2037
2033
2029
2025
2020
2016
2012
2007
2003
1999
1995
1991
1989
1987
1986
1985
1984
1983
1982
1981
1980
1980
1979
1979
1979
1980
1981
1981
1981
1981
1981
1980
1980
1980
1981
1981
1982
1982
1981
1981
1980
1980
1979
1979
1980
1980
1980
1980
1979
1979
1978
1977
1977
1976
1976
1976
1976
1976
1976
1976
1976
1975
1975
1975
1975
1976
1976
1977
1976
1976
1975
1974
1974
1974
1974
1975
1975
1975
1975
1975
1974
1974
1973
1973
1972
1972
1972
1972
1971
1971
1970
1970
1969
1969
1969
1969
1970
1970
1970
1970
1969
1969
1968
1968
1968
1968
1968
1967
1966
1964
1963
1962
1963
1964
1966
1968
1970
1971
1971
1970
1968
1965
1963
1962
1963
1964
1966
1968
1969
1968
1966
1964
1965
1974
1989
2007
2023
2032
2036
2041
2048
2054
2049
2028
1988
1945
1914
1904
1915
1938
1960
1974
1980
1982
1981
1981
1982
1983
1983
1983
1984
1984
1984
1984
1985
1986
1987
1988
1988
1989
1989
1990
1990
1992
1993
1995
1997
1999
2001
2002
2003
2004
2006
2008
2010
2012
2014
2016
2017
2017
2017
2016
2016
2015
2015
2015
2014
2013
2011
2009
2005
2001
1997
1993
1988
1984
1980
1976
1972
1968
1965
1961
1959
1957
1956
1955
1955
1954
1953
1952
1951
1950
1949
1949
1950
1951
1952
1952
1953
1953
1952
1952
1952
1952
1954
1955
1956
1957
1957
1957
1957
1956
1956
1956
1957
1958
1958
1959
1959
1958
1958
1957
1957
1958
1958
1958
1959
1959
1959
1959
1958
1958
1957
1958
1959
1960
1961
1961
1961
1961
1960
1960
1960
1960
1960
1961
1961
1962
1962
1962
1961
1960
1960
1959
1959
1960
1961
1961
1961
1961
1961
1961
1961
1961
1961
1962
1962
1963
1963
1963
1963
1962
1962
1962
1963
1963
1964
1965
1965
1965
1965
1964
1964
1965
1965
1966
1967
1966
1965
1964
1963
1963
1964
1966
1968
1971
1973
1973
1973
1971
1968
1966
1964
1964
1965
1967
1968
1969
1969
1967
1965
1964
1968
1979
1994
2010
2021
2027
2030
2037
2046
2050
2043
2016
1977
1938
1916
1915
1932
1954
1971
1980
1982
1982
1981
1982
1982
1983
1984
1984
1984
1984
1985
1985
1986
1987
1988
1989
1990
1991
1992
1993
1993
1994
1996
1997
1999
2001
2002
2004
2005
2007
2008
2010
2012
2014
2017
2019
2020
2021
2022
2023
2023
2024
2024
2024
2024
2024
2022
2020
2017
2014
2010
2005
2001
1997
1992
1988
1984
1981
1977
1974
1972
1970
1969
1968
1967
1967
1967
1967
1968
1968
1969
1970
1971
1973
1974
1976
1977
1977
1977
1977
1977
1977
1978
1978
1979
1980
1981
1981
1980
1980
1980
1980
1980
1981
1981
1982
1982
1982
1981
1981
1980
1980
1980
1981
1981
1982
1982
1982
1981
1981
1980
1980
1981
1982
1983
1983
1984
1983
1982
1982
1982
1982
1983
1984
1985
1986
1986
1986
1986
1986
1986
1986
1986
1987
1988
1989
1989
1989
1989
1988
1987
1986
1986
1986
1987
1988
1988
1989
1988
1988
1988
1988
1989
1990
1991
1992
1992
1992
1992
1992
1992
1993
1993
1994
1995
1996
1996
1995
1993
1991
1990
1990
1990
1992
1994
1996
1998
1999
1999
1998
1996
1995
1994
1994
1995
1996
1997
1998
1998
1997
1995
1993
1993
1998
2011
2029
2049
2064
2074
2081
2090
2099
2101
2087
2053
2008
1966
1941
1940
1956
1979
1999
2012
2018
2020
2021
2021
2022
2023
2024
2024
2025
2026
2027
2029
2030
2030
2030
2030
2031
2031
2032
2034
2035
2037
2038
2040
2041
2041
2041
2041
2043
2045
2047
2049
2051
2054
2056
2057
2059
2060
2062
2063
2064
2065
2065
2065
2064
2062
2060
2057
2055
2052
2048
2045
2040
2035
2030
2024
2019
2014
2011
2008
2005
2003
2001
2000
1998
1997
1997
1996
1996
1996
1997
1997
1997
1997
1996
1995
1995
1995
1996
1998
2001
2002
2003
2002
2001
2000
1999
1999
1999
1999
2001
2004
2007
2008
2006
2002
1997
1993
1992
1993
1995
1996
1997
1997
1995
1993
1990
1987
1987
1988
1991
1994
1995
1995
1994
1992
1990
1990
1990
1991
1993
1994
1994
1992
1989
1986
1984
1987
1992
1996
1998
1995
1989
1984
1982
1982
1982
1979
1974
1969
1964
1963
1961
1959
1957
1954
1952
1951
1951
1950
1949
1947
1943
1938
1933
1928
1925
1922
1920
1918
1916
1914
1912
1910
1909
1910
1911
1911
1909
1903
1896
1889
1883
1880
1882
1889
1904
1922
1939
1951
1959
1966
1972
1973
1960
1931
1890
1849
1821
1814
1826
1846
1866
1878
1882
1880
1877
1875
1875
1877
1880
1883
1885
1887
1888
1888
1890
1893
1896
1899
1900
1900
1897
1893
1888
1884
1882
1883
1885
1891
1896
1899
1898
1894
1888
1883
1881
1881
1883
1884
1884
1884
1884
1885
1885
1884
1882
1880
1881
1883
1884
1884
1883
1883
1885
1889
1893
1895
1895
1892
1889
1887
1886
1884
1883
1879
1874
1867
1858
1848
1839
1835
1834
1834
1834
1833
1830
1828
1828
1829
1833
1839
1845
1850
1851
1848
1844
1840
1841
1843
1845
1843
1836
1828
1822
1821
1827
1833
1836
1834
1829
1825
1826
1830
1834
1834
1829
1822
1816
1812
1810
1806
1798
1785
1771
1759
1750
1746
1745
1747
1748
1748
1747
1746
1744
1743
1744
1747
1750
1753
1756
1758
1762
1768
1775
1783
1791
1798
1802
1802
1801
1801
1804
1812
1822
1831
1837
1838
1839
1841
1846
1852
1859
1865
1868
1870
1871
1870
1871
1872
1875
1879
1884
1889
1892
1892
1888
1880
1872
1867
1868
1873
1877
1876
1873
1870
1872
1878
1885
1890
1892
1894
1901
1915
1933
1948
1955
1956
1955
1958
1963
1961
1946
1917
1884
1861
1859
1876
1904
1932
1951
1962
1968
1971
1973
1975
1977
1979
1983
1989
1994
1998
2000
2001
2002
2004
2006
2009
2012
2016
2020
2022
2022
2023
2025
2028
2034
2040
2046
2049
2052
2053
2053
2053
2055
2057
2060
2060
2058
2053
2048
2040
2031
2024
2019
2019
2022
2029
2037
2043
2049
2055
2062
2070
2079
2088
2096
2102
2106
2107
2107
2108
2110
2114
2120
2124
2128
2132
2138
2147
2158
2170
2181
2190
2197
2204
2211
2220
2228
2234
2240
2246
2253
2260
2266
2270
2272
2273
2274
2275
2275
2276
2278
2282
2288
2293
2296
2298
2300
2305
2312
2320
2328
2333
2335
2335
2334
2333
2333
2333
2334
2336
2337
2338
2339
2340
2342
2343
2345
2347
2348
2349
2350
2349
2347
2344
2340
2336
2332
2328
2326
2324
2322
2321
2320
2319
2317
2314
2311
2307
2304
2301
2295
2285
2274
2261
2249
2238
2229
2220
2210
2200
2191
2183
2176
2169
2161
2153
2144
2138
2135
2135
2136
2134
2128
2118
2104
2090
2081
2078
2084
2096
2108
2115
2114
2109
2104
2100
2090
2067
2029
1980
1933
1903
1895
1905
1925
1942
1953
1957
1956
1953
1949
1945
1941
1937
1934
1931
1929
1929
1929
1928
1927
1926
1924
1922
1921
1919
1917
1914
1911
1909
1907
1905
1902
1900
1896
1893
1891
1888
1886
1885
1884
1884
1884
1882
1878
1873
1868
1863
1859
1856
1852
1847
1841
1835
1829
1822
1816
1809
1803
1796
1790
1784
1779
1774
1770
1767
1766
1765
1765
1765
1766
1767
1769
1770
1772
1773
1775
1777
1781
1785
1789
1793
1797
1799
1800
1801
1804
1807
1812
1816
1821
1824
1827
1829
1831
1834
1837
1841
1845
1848
1852
1855
1858
1860
1862
1864
1866
1868
1871
1874
1877
1878
1880
1880
1881
1882
1884
1886
1889
1891
1893
1894
1895
1894
1894
1895
1897
1899
1900
1901
1901
1900
1900
1901
1903
1904
1906
1907
1907
1907
1906
1907
1907
1908
1909
1910
1909
1907
1906
1906
1906
1908
1909
1909
1909
1910
1910
1911
1911
1911
1910
1909
1910
1910
1911
1911
1913
1913
1913
1911
1909
1908
1912
1923
1941
1960
1974
1980
1982
1984
1986
1983
1968
1938
1899
1864
1846
1849
1868
1893
1914
1928
1936
1940
1941
1941
1941
1941
1941
1942
1943
1945
1945
1946
1946
1947
1947
1949
1951
1952
1954
1957
1959
1961
1962
1964
1966
1968
1971
1973
1975
1976
1977
1978
1980
1983
1985
1987
1989
1991
1993
1995
1996
1996
1995
1994
1993
1991
1989
1987
1984
1980
1976
1970
1964
1958
1953
1949
1946
1942
1939
1936
1933
1932
1931
1931
1931
1931
1932
1932
1933
1934
1934
1934
1935
1936
1937
1939
1941
1943
1944
1944
1945
1946
1947
1948
1950
1950
1951
1951
1952
1953
1954
1955
1956
1958
1959
1959
1959
1958
1958
1959
1961
1962
1963
1963
1963
1964
1965
1967
1968
1970
1971
1972
1973
1973
1972
1972
1972
1973
1973
1974
1974
1974
1973
1973
1973
1974
1975
1976
1976
1976
1976
1975
1975
1976
1976
1977
1977
1977
1977
1977
1977
1976
1976
1976
1976
1977
1977
1978
1978
1978
1977
1977
1976
1976
1976
1976
1977
1977
1978
1978
1977
1976
1975
1974
1973
1974
1976
1978
1980
1982
1984
1985
1986
1985
1984
1983
1981
1981
1981
1981
1982
1981
1981
1980
1979
1978
1980
1988
2003
2020
2036
2045
2048
2048
2050
2053
2050
2034
2002
1965
1935
1923
1930
1949
1971
1987
1997
2001
2002
2002
2002
2002
2002
2002
2003
2004
2006
2008
2011
2013
2016
2017
2018
2018
2019
2020
2023
2024
2026
2026
2027
2027
2028
2029
2029
2030
2030
2032
2035
2038
2040
2042
2043
2044
2045
2047
2048
2050
2052
2053
2054
2052
2050
2048
2045
2043
2040
2036
2032
2028
2022
2017
2012
2007
2003
1999
1997
1995
1994
1993
1993
1992
1991
1990
1990
1990
1991
1992
1993
1994
1994
1994
1995
1995
1995
1996
1997
1998
1999
2000
2000
2000
2001
2001
2001
2002
2002
2002
2002
2002
2002
2002
2002
2002
2002
2003
2003
2003
2003
2003
2003
2003
2003
2003
2003
2003
2004
2004
2005
2005
2005
2005
2005
2004
2004
2004
2005
2005
2006
2006
2006
2006
2006
2006
2006
2006
2006
2006
2006
2007
2007
2007
2006
2006
2006
2007
2008
2009
2009
2009
2009
2008
2008
2008
2008
2009
2009
2009
2009
2008
2008
2007
2007
2007
2007
2007
2008
2009
2009
2010
2010
2009
2009
2008
2008
2008
2008
2007
2007
2006
2005
2005
2005
2006
2008
2010
2010
2010
2009
2006
2004
2003
2002
2001
2001
2001
2001
2002
2002
2000
1999
1998
2001
2011
2028
2047
2061
2069
2072
2075
2077
2075
2061
2032
1992
1954
1931
1929
1944
1966
1987
2001
2008
2011
2011
2010
2010
2011
2012
2013
2013
2012
2011
2011
2011
2011
2013
2014
2015
2016
2016
2015
2015
2015
2016
2017
2019
2020
2021
2021
2021
2022
2022
2023
2024
2025
2027
2029
2031
2032
2033
2033
2032
2031
2031
2031
2031
2031
2029
2025
2020
2014
2009
2003
1999
1994
1988
1983
1978
1973
1969
1966
1962
1960
1958
1955
1954
1953
1953
1953
1953
1953
1952
1951
1950
1951
1952
1953
1953
1954
1954
1954
1954
1953
1954
1954
1954
1955
1956
1956
1956
1956
1956
1956
1955
1956
1956
1957
1957
1957
1957
1956
1955
1955
1955
1956
1958
1959
1958
1958
1957
1956
1956
1956
1956
1957
1957
1957
1956
1956
1956
1956
1956
1956
1955
1955
1954
1954
1953
1953
1953
1953
1952
1952
1952
1952
1952
1952
1952
1952
1952
1952
1952
1952
1952
1952
1951
1950
1949
1949
1949
1949
1949
1948
1948
1948
1948
1948
1948
1949
1949
1949
1948
1948
1948
1949
1949
1950
1950
1950
1950
1950
1950
1950
1950
1950
1950
1950
1951
1952
1953
1952
1951
1950
1950
1950
1951
1952
1953
1954
1954
1953
1952
1951
1950
1950
1951
1952
1954
1956
1956
1957
1956
1955
1954
1953
1952
1951
1951
1950
1949
1949
1949
1949
1948
1947
1946
1948
1956
1970
1986
2000
2007
2008
2006
2009
2013
2011
1995
1965
1927
1896
1882
1889
1908
1931
1949
1959
1963
1965
1965
1964
1964
1963
1963
1963
1964
1964
1965
1966
1965
1964
1964
1963
1963
1963
1963
1963
1962
1963
1963
1964
1964
1966
1967
1970
1972
1975
1977
1978
1979
1980
1982
1984
1986
1987
1989
1989
1990
1990
1989
1987
1985
1982
1980
1978
1975
1971
1966
1961
1956
1950
1944
1939
1934
1930
1927
1925
1923
1922
1920
1919
1917
1917
1917
1918
1919
1920
1920
1920
1920
1920
1920
1920
1921
1923
1924
1926
1928
1930
1931
1931
1932
1933
1934
1936
1938
1940
1942
1943
1943
1943
1943
1942
1942
1942
1943
1944
1945
1946
1945
1944
1944
1943
1943
1944
1944
1945
1945
1946
1946
1946
1946
1945
1945
1945
1946
1946
1947
1948
1948
1947
1947
1947
1947
1947
1948
1949
1949
1949
1949
1949
1949
1948
1948
1948
1948
1948
1948
1948
1948
1947
1946
1946
1946
1947
1948
1948
1949
1949
1949
1948
1948
1949
1949
1950
1951
1952
1952
1953
1953
1952
1953
1953
1954
1956
1958
1959
1961
1962
1964
1965
1966
1966
1967
1968
1969
1971
1972
1973
1973
1974
1976
1979
1982
1985
1988
1991
1992
1994
1995
1994
1994
1993
1992
1993
1994
1996
1998
2000
2001
2002
2002
2002
2001
2001
2000
2001
2002
2003
2005
2005
2005
2004
2003
2002
2004
2009
2021
2039
2056
2069
2075
2077
2078
2082
2085
2077
2054
2020
1983
1958
1953
1966
1989
2011
2026
2034
2037
2038
2038
2038
2038
2038
2039
2040
2041
2043
2044
2045
2045
2046
2046
2047
2048
2048
2049
2051
2052
2053
2054
2055
2055
2055
2056
2056
2057
2059
2061
2064
2065
2067
2068
2069
2071
2073
2076
2078
2079
2079
2079
2078
2076
2074
2072
2070
2068
2065
2061
2057
2052
2047
2040
2033
2026
2022
2018
2016
2015
2013
2010
2007
2004
2002
2002
2002
2003
2004
2004
2005
2004
2004
2004
2003
2004
2005
2006
2007
2008
2009
2009
2009
2009
2009
2009
2009
2011
2012
2012
2012
2011
2011
2011
2010
2010
2010
2010
2010
2010
2009
2009
2009
2009
2008
2008
2008
2008
2008
2009
2009
2009
2009
2008
2008
2008
2008
2008
2009
2009
2009
2009
2008
2008
2007
2008
2008
2009
2010
2010
2011
2012
2011
2011
2010
2009
2009
2009
2010
2011
2012
2011
2011
2009
2008
2007
2006
2007
2007
2007
2007
2007
2006
2005
2004
2004
2004
2005
2005
2004
2004
2003
2002
2001
2000
1999
1998
1998
1998
1997
1997
1996
1996
1996
1996
1996
1996
1995
1994
1993
1992
1991
1990
1989
1989
1990
1991
1992
1992
1992
1990
1989
1987
1985
1983
1981
1981
1981
1981
1981
1980
1978
1976
1974
1974
1980
1994
2013
2032
2044
2049
2051
2052
2052
2046
2025
1989
1948
1916
1901
1906
1925
1947
1964
1975
1979
1981
1981
1981
1981
1981
1982
1982
1982
1982
1982
1982
1982
1983
1984
1985
1984
1984
1983
1982
1982
1982
1983
1984
1984
1984
1984
1984
1984
1984
1984
1984
1984
1985
1987
1989
1990
1991
1992
1993
1994
1995
1996
1996
1996
1994
1991
1987
1981
1975
1969
1963
1958
1952
1946
1940
1934
1929
1925
1921
1918
1915
1912
1910
1909
1908
1907
1906
1905
1904
1903
1904
1905
1906
1907
1907
1907
1907
1907
1908
1910
1911
1912
1913
1913
1913
1912
1911
1911
1911
1911
1912
1914
1916
1916
1915
1914
1912
1910
1909
1909
1910
1911
1911
1912
1912
1911
1911
1911
1911
1911
1911
1910
1910
1910
1910
1910
1909
1908
1907
1906
1905
1905
1905
1906
1906
1905
1903
1901
1900
1899
1899
1898
1898
1898
1898
1897
1895
1894
1894
1895
1895
1896
1896
1896
1896
1897
1896
1896
1895
1895
1896
1898
1899
1900
1900
1899
1899
1898
1899
1899
1900
1900
1902
1903
1904
1905
1905
1905
1906
1907
1908
1910
1912
1912
1912
1912
1912
1913
1913
1914
1915
1916
1917
1918
1918
1918
1918
1917
1918
1919
1920
1922
1924
1924
1924
1923
1923
1922
1921
1921
1921
1921
1921
1921
1922
1922
1921
1919
1917
1917
1921
1931
1948
1966
1981
1988
1990
1990
1993
1994
1988
1969
1937
1904
1882
1879
1893
1917
1939
1955
1964
1968
1970
1972
1973
1975
1977
1980
1984
1987
1989
1992
1994
1997
1998
2000
2002
2004
2006
2008
2011
2013
2015
2017
2018
2020
2022
2023
2026
2029
2033
2037
2042
2046
2050
2053
2056
2059
2062
2064
2067
2070
2073
2075
2077
2078
2078
2078
2077
2075
2073
2071
2068
2064
2059
2053
2048
2043
2038
2034
2031
2029
2028
2027
2026
2025
2024
2023
2022
2022
2023
2024
2024
2025
2025
2025
2025
2025
2026
2027
2029
2031
2032
2033
2034
2034
2034
2035
2035
2036
2037
2038
2039
2040
2041
2041
2040
2039
2038
2039
2040
2041
2042
2043
2043
2043
2043
2043
2044
2045
2045
2045
2045
2045
2045
2045
2045
2045
2044
2044
2045
2046
2047
2048
2048
2048
2047
2046
2046
2046
2047
2047
2047
2047
2048
2048
2048
2048
2048
2048
2048
2049
2049
2050
2050
2051
2051
2052
2052
2051
2051
2050
2049
2049
2049
2049
2049
2048
2049
2049
2049
2048
2048
2048
2048
2048
2048
2048
2047
2047
2047
2048
2048
2048
2048
2048
2048
2047
2046
2046
2046
2046
2046
2047
2048
2048
2047
2046
2045
2044
2043
2043
2042
2041
2039
2038
2037
2037
2036
2036
2035
2033
2032
2034
2043
2058
2077
2094
2105
2109
2111
2113
2111
2099
2071
2032
1991
1962
1953
1964
1985
2008
2024
2034
2037
2037
2036
2035
2035
2035
2035
2036
2036
2036
2036
2036
2036
2036
2036
2037
2037
2038
2038
2039
2039
2039
2038
2037
2037
2038
2039
2040
2040
2041
2043
2044
2045
2045
2046
2047
2048
2050
2052
2053
2053
2052
2051
2050
2048
2048
2046
2045
2043
2039
2035
2029
2022
2015
2009
2003
1998
1994
1990
1987
1983
1980
1976
1974
1972
1970
1969
1969
1968
1966
1965
1964
1963
1963
1962
1962
1962
1962
1962
1963
1963
1962
1961
1960
1959
1958
1958
1959
1959
1959
1959
1959
1959
1958
1958
1958
1957
1957
1957
1957
1957
1956
1955
1953
1951
1950
1949
1950
1951
1952
1952
1951
1950
1949
1949
1949
1949
1949
1949
1949
1948
1947
1946
1945
1944
1944
1944
1944
1944
1944
1944
1943
1942
1940
1938
1936
1934
1933
1933
1933
1932
1932
1932
1931
1930
1930
1929
1930
1930
1931
1931
1931
1931
1931
1931
1931
1931
1930
1930
1931
1930
1930
1929
1929
1929
1930
1930
1931
1931
1931
1932
1932
1932
1932
1932
1933
1933
1933
1933
1933
1934
1934
1934
1935
1936
1936
1936
1936
1936
1935
1934
1934
1932
1931
1930
1929
1930
1931
1931
1931
1930
1928
1928
1931
1942
1959
1977
1990
1996
1998
1999
2002
2002
1992
1967
1932
1898
1877
1877
1892
1916
1937
1951
1957
1959
1958
1957
1957
1959
1961
1963
1964
1964
1963
1963
1964
1966
1968
1971
1973
1974
1975
1975
1975
1976
1978
1981
1984
1986
1988
1990
1992
1993
1995
1996
1998
2001
2003
2005
2007
2009
2010
2012
2013
2013
2014
2013
2013
2013
2011
2008
2004
2000
1994
1989
1984
1979
1974
1969
1964
1958
1954
1950
1946
1944
1943
1943
1942
1942
1942
1942
1942
1942
1942
1942
1942
1943
1944
1945
1947
1948
1948
1948
1947
1947
1948
1949
1950
1950
1951
1952
1952
1951
1951
1951
1951
1951
1952
1953
1954
1954
1954
1953
1953
1952
1952
1952
1953
1953
1953
1953
1953
1953
1952
1953
1953
1953
1954
1954
1955
1955
1955
1955
1956
1956
1956
1955
1955
1955
1956
1957
1960
1962
1964
1964
1965
1965
1965
1966
1967
1968
1968
1967
1966
1966
1966
1967
1969
1971
1971
1972
1972
1972
1973
1973
1974
1974
1975
1976
1977
1978
1978
1978
1978
1978
1978
1978
1979
1980
1982
1983
1984
1985
1986
1987
1988
1990
1992
1994
1995
1996
1997
1997
1996
1996
1996
1998
2000
2004
2008
2011
2012
2012
2011
2010
2010
2011
2012
2013
2013
2013
2014
2014
2015
2015
2015
2013
2012
2013
2018
2030
2047
2064
2077
2084
2086
2089
2093
2092
2080
2052
2014
1978
1956
1955
1971
1994
2015
2030
2037
2039
2039
2039
2039
2041
2042
2044
2046
2047
2048
2049
2049
2050
2050
2050
2051
2052
2054
2055
2056
2057
2058
2058
2058
2058
2058
2059
2060
2061
2064
2066
2069
2071
2072
2074
2076
2078
2080
2083
2086
2087
2088
2088
2088
2088
2088
2088
2087
2084
2080
2076
2071
2066
2060
2053
2048
2042
2038
2034
2031
2028
2025
2021
2018
2016
2015
2015
2016
2017
2018
2017
2017
2016
2016
2015
2016
2017
2018
2019
2019
2020
2020
2019
2017
2017
2017
2018
2020
2021
2022
2022
2021
2020
2020
2020
2020
2021
2022
2022
2022
2022
2020
2019
2018
2018
2019
2020
2020
2019
2019
2018
2017
2017
2017
2018
2019
2019
2019
2018
2016
2014
2013
2013
2013
2012
2011
2010
2008
2006
2005
2004
2001
1998
1994
1990
1987
1985
1984
1982
1981
1978
1973
1968
1963
1959
1956
1955
1953
1950
1945
1938
1931
1924
1916
1906
1895
1882
1867
1851
1834
1818
1803
1788
1773
1759
1746
1734
1724
1715
1708
1702
1696
1693
1692
1694
1698
1705
1713
1721
1729
1738
1746
1753
1759
1764
1770
1777
1785
1792
1798
1801
1806
1818
1837
1860
1880
1894
1902
1908
1913
1914
1904
1879
1842
1805
1780
1775
1791
1818
1846
1869
1885
1894
1901
1906
1911
1917
1924
1931
1939
1946
1952
1956
1958
1959
1961
1965
1971
1978
1987
1996
2003
2008
2012
2017
2025
2034
2045
2056
2067
2077
2085
2092
2099
2106
2114
2124
2135
2146
2159
2173
2189
2206
2223
2238
2251
2263
2273
2283
2294
2304
2312
2318
2324
2332
2340
2347
2353
2360
2366
2375
2386
2399
2412
2425
2437
2448
2458
2466
2474
2481
2489
2496
2502
2508
2515
2522
2529
2535
2540
2543
2544
2544
2545
2546
2547
2548
2549
2548
2547
2545
2542
2539
2536
2533
2530
2528
2524
2521
2518
2515
2514
2513
2512
2510
2508
2507
2507
2509
2511
2511
2509
2507
2506
2506
2506
2509
2511
2513
2515
2515
2514
2511
2510
2510
2510
2510
2510
2508
2506
2502
2498
2494
2489
2485
2482
2479
2477
2475
2472
2468
2462
2454
2447
2442
2439
2437
2434
2431
2427
2422
2415
2408
2402
2399
2396
2394
2391
2388
2384
2378
2372
2367
2361
2357
2352
2348
2342
2335
2329
2324
2321
2317
2314
2309
2304
2299
2294
2289
2284
2278
2273
2268
2264
2262
2260
2261
2261
2260
2257
2253
2248
2246
2247
2255
2269
2283
2292
2296
2297
2301
2305
2303
2285
2247
2196
2146
2113
2102
2110
2126
2139
2146
2147
2143
2136
2129
2123
2118
2116
2113
2110
2104
2097
2090
2083
2077
2071
2065
2057
2049
2042
2036
2032
2028
2026
2025
2025
2025
2025
2024
2022
2020
2017
2015
2013
2012
2010
2007
2004
2001
1998
1995
1992
1989
1984
1980
1976
1972
1969
1963
1957
1949
1938
1925
1909
1894
1879
1865
1854
1845
1837
1828
1819
1809
1802
1796
1791
1788
1785
1782
1779
1777
1774
1769
1764
1759
1754
1751
1748
1745
1740
1735
1730
1724
1720
1716
1712
1709
1706
1704
1702
1699
1695
1690
1685
1682
1681
1682
1682
1681
1676
1670
1663
1658
1656
1657
1659
1661
1662
1661
1660
1659
1657
1655
1654
1653
1654
1656
1658
1659
1657
1655
1654
1653
1653
1652
1651
1649
1646
1641
1636
1631
1626
1622
1619
1616
1614
1611
1608
1606
1603
1599
1595
1592
1589
1586
1584
1582
1578
1572
1566
1560
1556
1553
1551
1549
1546
1542
1538
1536
1536
1537
1538
1540
1541
1542
1542
1543
1543
1541
1538
1536
1534
1535
1536
1538
1540
1543
1546
1549
1553
1556
1559
1562
1566
1570
1577
1587
1602
1621
1639
1654
1667
1679
1692
1703
1703
1688
1656
1618
1589
1579
1591
1617
1647
1671
1686
1694
1699
1702
1706
1711
1715
1719
1724
1730
1737
1747
1756
1765
1770
1775
1780
1785
1791
1798
1804
1810
1814
1818
1822
1827
1831
1835
1840
1844
1848
1853
1857
1861
1864
1867
1871
1875
1881
1886
1890
1895
1899
1902
1904
1907
1910
1914
1917
1918
1916
1913
1908
1903
1899
1895
1891
1886
1883
1881
1880
1880
1878
1876
1873
1871
1871
1871
1873
1873
1874
1876
1878
1879
1880
1879
1877
1875
1875
1876
1878
1881
1883
1883
1883
1883
1884
1885
1885
1885
1884
1883
1883
1884
1884
1885
1885
1885
1884
1885
1886
1889
1892
1895
1895
1894
1892
1890
1891
1892
1894
1896
1899
1903
1906
1908
1907
1906
1905
1907
1910
1914
1917
1919
1919
1919
1920
1921
1923
1925
1928
1929
1931
1931
1932
1932
1932
1933
1934
1935
1936
1937
1938
1938
1938
1938
1938
1937
1936
1935
1936
1937
1938
1939
1939
1939
1939
1940
1941
1941
1939
1937
1934
1933
1933
1935
1936
1938
1939
1939
1940
1940
1941
1945
1955
1971
1989
2006
2017
2022
2026
2030
2033
2028
2008
1975
1938
1910
1903
1915
1939
1965
1985
1997
2003
2006
2007
2008
2010
2012
2015
2017
2018
2019
2020
2020
2019
2020
2022
2025
2030
2035
2038
2041
2043
2046
2049
2055
2060
2065
2070
2074
2077
2079
2082
2086
2090
2095
2099
2101
2101
2100
2100
2100
2100
2101
2101
2101
2099
2097
2094
2093
2092
2092
2092
2090
2086
2080
2073
2066
2062
2058
2055
2052
2048
2044
2040
2036
2034
2033
2031
2030
2029
2027
2025
2023
2021
2019
2017
2015
2014
2012
2009
2005
1999
1993
1989
1985
1984
1984
1985
1985
1984
1984
1983
1984
1987
1992
1999
2008
2015
2022
2027
2033
2039
2047
2055
2062
2068
2073
2079
2087
2096
2104
2111
2114
2116
2118
2121
2125
2129
2134
2138
2142
2146
2150
2154
2158
2162
2165
2169
2173
2177
2181
2184
2186
2187
2188
2190
2193
2196
2199
2201
2203
2205
2205
2206
2207
2208
2209
2211
2212
2211
2210
2208
2208
2208
2208
2206
2204
2200
2197
2194
2191
2188
2184
2180
2177
2174
2172
2170
2166
2160
2153
2145
2137
2132
2129
2128
2128
2128
2127
2124
2122
2119
2116
2112
2108
2107
2110
2121
2136
2152
2164
2172
2177
2185
2192
2194
2181
2150
2107
2064
2036
2028
2038
2056
2073
2082
2085
2084
2080
2076
2073
2071
2069
2067
2066
2064
2062
2060
2061
2062
2062
2062
2059
2057
2056
2057
2060
2064
2068
2071
2073
2077
2081
2086
2090
2094
2098
2101
2103
2107
2110
2113
2115
2116
2117
2118
2119
2120
2122
2122
2121
2117
2110
2102
2093
2086
2079
2073
2065
2054
2042
2029
2015
2002
1990
1980
1972
1965
1959
1952
1946
1940
1936
1932
1929
1926
1923
1919
1916
1914
1911
1909
1907
1903
1899
1894
1890
1886
1881
1876
1871
1865
1860
1856
1854
1851
1848
1843
1836
1829
1822
1814
1807
1799
1790
1780
1772
1767
1763
1761
1759
1756
1751
1745
1738
1733
1727
1722
1717
1714
1711
1711
1711
1711
1710
1708
1706
1706
1707
1708
1711
1714
1718
1720
1722
1725
1728
1732
1737
1741
1744
1747
1750
1754
1759
1764
1771
1777
1784
1790
1795
1799
1802
1806
1809
1811
1814
1817
1820
1823
1826
1830
1834
1836
1838
1840
1842
1845
1847
1849
1849
1848
1849
1851
1855
1858
1861
1864
1867
1870
1872
1874
1875
1874
1874
1874
1875
1877
1879
1882
1884
1886
1885
1884
1883
1882
1884
1890
1903
1923
1943
1959
1970
1977
1984
1991
1993
1981
1952
1912
1873
1848
1844
1859
1881
1903
1918
1925
1927
1925
1923
1922
1921
1921
1922
1924
1926
1929
1933
1937
1939
1941
1942
1944
1946
1948
1951
1954
1955
1956
1957
1957
1958
1958
1959
1960
1961
1962
1963
1964
1966
1968
1970
1973
1977
1980
1983
1987
1989
1990
1990
1991
1991
1992
1994
1995
1994
1993
1991
1989
1986
1982
1976
1970
1964
1958
1955
1952
1951
1950
1947
1944
1942
1940
1940
1939
1939
1939
1939
1938
1939
1939
1938
1937
1936
1935
1936
1938
1941
1942
1943
1942
1941
1941
1942
1942
1942
1943
1944
1945
1946
1946
1946
1946
1947
1948
1950
1951
1952
1953
1954
1956
1957
1958
1958
1959
1959
1959
1959
1960
1960
1961
1961
1960
1959
1958
1957
1957
1956
1956
1956
1956
1955
1954
1954
1954
1954
1954
1954
1954
1953
1952
1951
1950
1949
1947
1946
1945
1945
1944
1942
1940
1938
1936
1935
1933
1932
1931
1930
1929
1928
1926
1924
1921
1919
1917
1916
1915
1914
1914
1913
1914
1915
1916
1917
1917
1917
1917
1917
1916
1916
1915
1915
1915
1916
1917
1918
1918
1917
1918
1924
1936
1954
1973
1989
1999
2006
2012
2018
2018
2006
1976
1936
1897
1872
1870
1885
1909
1930
1944
1950
1951
1949
1947
1946
1946
1946
1946
1947
1948
1950
1951
1953
1955
1956
1957
1959
1960
1961
1962
1963
1963
1962
1961
1960
1960
1959
1960
1961
1961
1962
1962
1961
1962
1962
1962
1962
1963
1963
1963
1963
1962
1961
1960
1958
1956
1954
1952
1949
1945
1941
1935
1929
1923
1917
1912
1907
1903
1900
1897
1895
1894
1893
1891
1890
1889
1889
1890
1890
1891
1891
1891
1890
1890
1891
1892
1893
1895
1896
1897
1898
1900
1902
1903
1903
1904
1904
1906
1909
1910
1910
1910
1910
1911
1911
1911
1911
1911
1911
1911
1911
1911
1910
1909
1910
1911
1912
1913
1914
1914
1914
1915
1915
1916
1917
1918
1918
1919
1919
1919
1919
1919
1919
1918
1917
1916
1916
1916
1916
1917
1917
1918
1918
1918
1919
1920
1921
1923
1925
1925
1924
1921
1918
1914
1912
1912
1913
1914
1915
1915
1915
1915
1916
1917
1917
1918
1918
1919
1920
1922
1923
1924
1923
1922
1921
1921
1922
1924
1925
1927
1928
1929
1930
1929
1928
1928
1929
1933
1936
1940
1941
1941
1940
1939
1939
1939
1940
1942
1943
1945
1946
1948
1949
1951
1952
1953
1952
1951
1953
1959
1971
1987
2002
2012
2018
2022
2029
2036
2035
2019
1987
1947
1913
1897
1901
1919
1941
1958
1966
1968
1966
1963
1960
1959
1958
1958
1957
1956
1954
1953
1953
1952
1952
1951
1950
1948
1948
1948
1947
1946
1946
1945
1945
1945
1946
1946
1946
1947
1949
1950
1951
1951
1951
1952
1954
1957
1962
1968
1973
1976
1978
1978
1979
1980
1982
1984
1985
1986
1987
1986
1984
1981
1978
1975
1971
1968
1965
1963
1961
1960
1959
1957
1955
1955
1957
1960
1965
1969
1974
1977
1981
1985
1989
1992
1994
1997
2000
2003
2005
2007
2008
2008
2008
2008
2009
2010
2012
2013
2014
2013
2012
2010
2007
2005
2003
2001
2000
1998
1996
1994
1990
1987
1983
1979
1977
1975
1974
1973
1973
1972
1970
1968
1966
1966
1966
1966
1967
1967
1967
1966
1965
1963
1961
1960
1959
1958
1957
1956
1956
1956
1957
1957
1958
1957
1957
1958
1959
1961
1962
1962
1961
1960
1959
1959
1960
1960
1960
1960
1959
1959
1960
1961
1962
1962
1961
1961
1961
1962
1963
1964
1964
1964
1964
1965
1966
1966
1967
1969
1971
1975
1978
1983
1987
1990
1992
1993
1993
1993
1992
1991
1990
1990
1991
1994
1997
2000
2003
2005
2005
2004
2005
2012
2025
2044
2062
2077
2086
2093
2097
2097
2086
2060
2023
1983
1954
1944
1953
1974
1997
2016
2028
2034
2035
2034
2032
2031
2031
2033
2036
2037
2037
2036
2034
2032
2031
2030
2029
2029
2028
2027
2025
2021
2018
2015
2013
2011
2011
2012
2014
2015
2014
2012
2009
2007
2006
2007
2009
2012
2014
2016
2017
2018
2018
2018
2018
2018
2018
2017
2016
2015
2012
2009
2004
1999
1994
1989
1986
1983
1981
1979
1975
1972
1969
1966
1965
1964
1963
1962
1962
1962
1963
1963
1963
1962
1962
1963
1964
1965
1967
1969
1969
1970
1971
1971
1971
1971
1972
1973
1974
1975
1975
1976
1976
1977
1978
1979
1980
1982
1984
1986
1988
1989
1990
1993
1996
2000
2003
2005
2006
2007
2008
2011
2014
2017
2019
2021
2023
2024
2025
2026
2028
2031
2032
2033
2034
2034
2034
2035
2035
2035
2035
2035
2036
2037
2038
2038
2039
2039
2040
2041
2042
2041
2040
2038
2036
2036
2035
2034
2031
2028
2024
2021
2018
2017
2016
2015
2014
2013
2012
2011
2010
2010
2011
2012
2012
2012
2011
2010
2012
2014
2017
2019
2020
2020
2021
2024
2027
2031
2033
2034
2032
2031
2029
2029
2029
2030
2031
2032
2034
2036
2039
2043
2046
2048
2049
2049
2050
2055
2067
2085
2105
2121
2132
2138
2144
2149
2150
2140
2117
2084
2053
2035
2036
2053
2078
2102
2120
2131
2137
2141
2143
2145
2146
2149
2153
2158
2162
2165
2168
2172
2177
2184
2191
2200
2208
2217
2225
2231
2236
2242
2250
2261
2272
2282
2291
2299
2307
2316
2325
2335
2344
2353
2360
2367
2373
2380
2387
2394
2400
2406
2410
2415
2419
2421
2423
2424
2426
2428
2431
2433
2432
2429
2423
2416
2411
2406
2402
2398
2395
2392
2389
2386
2382
2377
2372
2366
2361
2356
2350
2344
2337
2329
2322
2314
2306
2298
2291
2283
2276
2269
2262
2255
2248
2241
2234
2226
2219
2213
2207
2202
2196
2191
2185
2181
2176
2172
2167
2162
2157
2151
2147
2143
2139
2135
2131
2128
2124
2122
2119
2116
2112
2107
2103
2100
2097
2093
2089
2084
2078
2073
2068
2064
2058
2052
2046
2040
2034
2030
2026
2022
2019
2014
2011
2007
2004
2001
1998
1995
1993
1991
1990
1987
1985
1984
1984
1985
1987
1989
1989
1989
1987
1986
1985
1984
1984
1983
1982
1981
1981
1980
1979
1978
1977
1976
1975
1975
1974
1974
1975
1975
1976
1977
1977
1977
1976
1974
1972
1971
1969
1968
1966
1964
1962
1961
1959
1957
1954
1949
1944
1939
1935
1932
1929
1927
1926
1925
1925
1925
1924
1922
1921
1923
1931
1946
1964
1981
1992
1998
2003
2009
2012
2007
1987
1951
1910
1878
1865
1874
1894
1917
1935
1944
1947
1947
1946
1946
1947
1948
1950
1952
1954
1954
1955
1956
1957
1959
1962
1965
1967
1969
1970
1971
1971
1972
1973
1974
1975
1976
1977
1979
1980
1982
1982
1983
1985
1986
1988
1991
1993
1994
1995
1995
1995
1995
1995
1996
1997
1998
1998
1998
1997
1995
1991
1987
1983
1980
1977
1975
1971
1965
1959
1951
1945
1940
1938
1938
1939
1941
1942
1942
1941
1940
1940
1940
1940
1941
1942
1943
1946
1948
1950
1952
1952
1953
1954
1955
1957
1957
1957
1957
1957
1958
1958
1959
1960
1960
1961
1961
1962
1962
1962
1961
1960
1960
1959
1959
1959
1960
1961
1962
1963
1963
1962
1961
1961
1960
1960
1961
1962
1965
1966
1967
1967
1966
1965
1966
1968
1970
1972
1972
1971
1970
1970
1970
1970
1971
1971
1971
1971
1971
1971
1972
1972
1971
1971
1971
1972
1972
1973
1973
1973
1973
1973
1973
1973
1974
1975
1977
1978
1979
1978
1977
1976
1975
1975
1976
1977
1978
1979
1979
1978
1977
1976
1976
1976
1977
1978
1979
1980
1982
1983
1983
1982
1980
1977
1975
1974
1974
1974
1974
1973
1972
1970
1969
1967
1967
1970
1979
1995
2016
2034
2047
2052
2056
2060
2060
2051
2026
1986
1943
1910
1898
1905
1925
1947
1964
1975
1980
1982
1983
1983
1983
1984
1984
1984
1984
1985
1985
1986
1987
1987
1988
1987
1987
1988
1990
1992
1993
1994
1993
1993
1994
1995
1996
1997
1998
1998
1999
2001
2004
2006
2008
2010
2011
2012
2013
2014
2015
2015
2015
2015
2014
2014
2012
2010
2007
2004
2000
1997
1993
1988
1982
1975
1969
1964
1961
1958
1954
1951
1948
1946
1945
1944
1943
1941
1940
1938
1938
1939
1940
1941
1941
1941
1940
1939
1939
1939
1940
1940
1940
1940
1940
1940
1940
1941
1942
1943
1943
1943
1944
1945
1946
1946
1946
1945
1945
1945
1947
1947
1947
1946
1944
1943
1942
1941
1941
1941
1941
1941
1942
1942
1943
1943
1942
1942
1942
1942
1943
1944
1945
1944
1942
1940
1939
1940
1941
1942
1944
1944
1944
1944
1945
1945
1946
1946
1946
1946
1947
1948
1948
1949
1949
1949
1949
1949
1949
1949
1950
1952
1953
1954
1955
1954
1954
1954
1955
1957
1958
1959
1959
1958
1958
1958
1958
1958
1959
1961
1962
1964
1964
1964
1963
1961
1960
1958
1958
1959
1961
1964
1966
1966
1965
1962
1960
1959
1958
1957
1957
1956
1956
1956
1956
1956
1956
1955
1953
1951
1951
1957
1971
1989
2006
2018
2024
2027
2032
2036
2034
2019
1989
1950
1917
1899
1902
1919
1942
1961
1974
1979
1980
1980
1980
1980
1980
1980
1980
1980
1981
1982
1984
1985
1985
1985
1985
1985
1986
1987
1989
1990
1991
1992
1994
1996
1997
1998
1999
2000
2001
2004
2006
2008
2009
2010
2012
2014
2016
2018
2020
2022
2024
2025
2026
2025
2023
2021
2019
2017
2016
2014
2012
2008
2003
1998
1992
1986
1981
1977
1974
1971
1969
1966
1963
1960
1958
1957
1956
1955
1955
1956
1956
1957
1958
1958
1958
1959
1959
1960
1961
1962
1963
1963
1963
1963
1963
1963
1963
1964
1964
1965
1965
1966
1966
1967
1967
1967
1968
1970
1971
1972
1972
1973
1974
1974
1974
1973
1972
1972
1972
1973
1974
1975
1975
1975
1975
1975
1975
1976
1977
1978
1979
1980
1980
1979
1978
1977
1977
1978
1980
1982
1983
1983
1983
1983
1984
1984
1985
1986
1986
1986
1985
1985
1986
1986
1987
1986
1986
1985
1984
1984
1985
1985
1986
1986
1986
1986
1986
1986
1987
1988
1988
1987
1987
1986
1986
1985
1985
1985
1986
1986
1986
1987
1986
1985
1983
1981
1981
1981
1983
1986
1989
1991
1992
1992
1990
1989
1988
1988
1988
1988
1987
1986
1986
1986
1987
1990
1993
1994
1995
1995
1999
2010
2028
2047
2061
2071
2075
2079
2083
2080
2065
2035
1994
1958
1937
1937
1952
1975
1995
2009
2017
2021
2022
2022
2023
2024
2024
2025
2025
2026
2028
2029
2031
2033
2034
2035
2035
2036
2038
2039
2040
2040
2041
2041
2042
2043
2044
2046
2048
2049
2050
2051
2052
2054
2056
2058
2059
2060
2061
2062
2063
2064
2066
2067
2067
2067
2065
2064
2061
2058
2054
2049
2044
2037
2031
2026
2021
2016
2011
2006
2002
1999
1996
1994
1992
1989
1988
1987
1986
1986
1986
1986
1987
1987
1988
1988
1989
1989
1989
1989
1989
1989
1989
1989
1988
1989
1989
1990
1991
1992
1992
1992
1992
1991
1990
1989
1988
1988
1989
1990
1990
1991
1991
1990
1988
1986
1985
1984
1985
1987
1988
1989
1989
1989
1989
1989
1988
1988
1988
1989
1990
1991
1991
1990
1990
1989
1990
1990
1990
1990
1991
1992
1992
1992
1991
1990
1989
1989
1990
1991
1992
1992
1991
1989
1988
1987
1987
1988
1989
1990
1991
1990
1990
1989
1988
1989
1989
1989
1988
1988
1988
1987
1987
1987
1986
1986
1985
1984
1983
1983
1983
1984
1985
1985
1984
1981
1978
1975
1974
1973
1973
1971
1969
1967
1965
1965
1966
1966
1966
1964
1962
1963
1970
1985
2003
2019
2030
2036
2040
2044
2042
2029
2001
1960
1918
1889
1881
1892
1914
1937
1955
1965
1969
1969
1968
1966
1966
1966
1967
1968
1969
1969
1969
1969
1968
1968
1969
1969
1970
1971
1972
1973
1974
1973
1973
1972
1973
1974
1977
1979
1980
1980
1980
1981
1981
1982
1983
1985
1987
1989
1991
1991
1991
1991
1991
1990
1989
1987
1984
1980
1976
1971
1967
1962
1957
1952
1946
1941
1936
1931
1927
1923
1919
1916
1914
1912
1911
1909
1908
1907
1907
1908
1910
1911
1911
1912
1914
1915
1917
1920
1921
1923
1924
1925
1925
1926
1927
1928
1929
1930
1932
1933
1935
1936
1936
1936
1936
1937
1938
1940
1942
1943
1943
1943
1943
1943
1943
1943
1944
1945
1946
1947
1947
1947
1947
1948
1949
1951
1952
1953
1952
1952
1951
1952
1952
1953
1953
1953
1953
1954
1955
1956
1956
1956
1956
1957
1958
1959
1959
1959
1960
1960
1962
1962
1962
1961
1961
1961
1961
1962
1964
1965
1966
1966
1966
1966
1967
1969
1971
1973
1974
1975
1976
1976
1976
1977
1978
1980
1981
1982
1983
1982
1982
1981
1980
1980
1981
1983
1986
1989
1990
1990
1989
1987
1986
1985
1984
1984
1984
1984
1983
1983
1984
1985
1985
1984
1982
1982
1987
1999
2016
2034
2048
2055
2058
2061
2064
2064
2053
2027
1990
1954
1932
1930
1946
1969
1990
2004
2009
2010
2009
2008
2007
2007
2007
2007
2007
2007
2007
2008
2008
2010
2011
2012
2013
2013
2013
2014
2015
2016
2017
2017
2018
2018
2019
2021
2022
2023
2024
2024
2025
2026
2027
2029
2030
2031
2032
2033
2034
2035
2035
2036
2036
2035
2035
2034
2032
2030
2026
2021
2016
2011
2006
2000
1994
1988
1983
1978
1975
1973
1970
1968
1965
1962
1960
1958
1957
1957
1958
1958
1958
1957
1956
1955
1955
1955
1955
1956
1956
1957
1957
1957
1956
1956
1956
1957
1957
1958
1958
1958
1958
1958
1959
1959
1959
1959
1960
1960
1960
1960
1961
1961
1961
1960
1960
1960
1960
1961
1962
1963
1964
1964
1964
1964
1963
1964
1965
1965
1966
1965
1963
1962
1962
1963
1964
1964
1965
1966
1967
1969
1970
1972
1973
1973
1973
1973
1973
1973
1974
1975
1977
1978
1978
1978
1978
1978
1978
1978
1979
1980
1980
1981
1981
1980
1979
1978
1977
1977
1977
1977
1977
1976
1975
1974
1974
1974
1975
1976
1977
1978
1978
1978
1978
1978
1977
1977
1977
1978
1980
1983
1985
1988
1989
1989
1988
1988
1987
1987
1987
1987
1986
1986
1985
1985
1984
1985
1985
1984
1983
1983
1986
1995
2011
2030
2045
2052
2056
2058
2061
2061
2050
2025
1986
1945
1917
1908
1919
1941
1963
1980
1989
1993
1994
1993
1993
1993
1994
1994
1994
1995
1997
1999
2001
2003
2004
2004
2005
2005
2007
2008
2010
2012
2013
2013
2012
2012
2012
2013
2014
2016
2018
2020
2022
2024
2026
2029
2031
2034
2036
2038
2040
2040
2040
2040
2040
2040
2040
2040
2039
2038
2036
2035
2032
2028
2021
2014
2007
2001
1996
1993
1990
1987
1984
1981
1978
1976
1975
1974
1975
1975
1976
1976
1976
1975
1975
1975
1976
1977
1978
1979
1979
1979
1980
1980
1981
1981
1982
1982
1983
1985
1986
1986
1986
1986
1985
1985
1985
1986
1987
1988
1988
1987
1987
1986
1985
1985
1985
1985
1985
1986
1986
1987
1987
1987
1987
1987
1987
1987
1987
1987
1988
1988
1989
1989
1989
1988
1987
1986
1986
1986
1987
1987
1988
1988
1987
1987
1988
1987
1987
1987
1987
1986
1986
1985
1985
1984
1985
1985
1986
1987
1986
1985
1984
1983
1983
1982
1982
1982
1982
1982
1982
1982
1983
1983
1984
1984
1983
1983
1983
1983
1985
1986
1988
1989
1989
1987
1985
1982
1980
1979
1978
1977
1976
1975
1974
1974
1975
1975
1975
1973
1969
1967
1970
1981
1998
2017
2031
2040
2045
2048
2048
2042
2021
1986
1943
1907
1889
1893
1912
1936
1957
1969
1975
1976
1976
1976
1975
1975
1975
1977
1979
1980
1980
1980
1979
1980
1981
1984
1987
1988
1988
1987
1985
1983
1982
1980
1978
1976
1973
1970
1967
1965
1962
1959
1958
1957
1959
1961
1965
1969
1972
1976
1979
1983
1987
1992
1998
2003
2006
2008
2008
2009
2011
2013
2016
2020
2023
2025
2025
2025
2025
2026
2028
2032
2038
2045
2053
2062
2071
2079
2085
2089
2091
2095
2099
2104
2109
2114
2118
2122
2127
2132
2136
2140
2143
2145
2147
2151
2155
2157
2160
2162
2165
2167
2170
2172
2175
2178
2182
2187
2194
2199
2203
2207
2210
2214
2218
2222
2226
2229
2231
2233
2235
2237
2238
2240
2242
2246
2251
2255
2256
2257
2257
2260
2265
2272
2278
2282
2285
2286
2289
2292
2294
2295
2296
2297
2300
2304
2306
2308
2307
2307
2308
2310
2312
2313
2315
2316
2317
2318
2320
2321
2324
2326
2328
2329
2329
2329
2330
2332
2334
2336
2338
2339
2339
2339
2340
2343
2347
2350
2353
2353
2352
2351
2352
2354
2355
2355
2354
2353
2352
2352
2353
2355
2356
2356
2356
2355
2355
2355
2355
2353
2351
2347
2344
2342
2340
2340
2340
2339
2339
2337
2335
2332
2332
2338
2351
2365
2377
2385
2389
2395
2402
2407
2399
2372
2331
2289
2261
2253
2264
2284
2303
2313
2317
2316
2314
2311
2309
2308
2307
2308
2309
2308
2308
2306
2305
2305
2305
2304
2302
2299
2297
2297
2297
2296
2294
2292
2291
2290
2289
2287
2284
2281
2280
2281
2283
2284
2285
2285
2285
2283
2282
2281
2279
2277
2275
2273
2272
2270
2268
2264
2258
2252
2246
2240
2235
2228
2220
2211
2202
2193
2184
2177
2169
2163
2156
2151
2147
2145
2142
2139
2135
2129
2122
2116
2112
2109
2108
2106
2104
2100
2097
2095
2093
2092
2091
2088
2085
2082
2080
2078
2078
2078
2078
2077
2075
2074
2073
2072
2072
2072
2071
2068
2065
2063
2061
2059
2058
2057
2055
2052
2048
2045
2041
2038
2037
2036
2035
2034
2032
2029
2027
2024
2021
2019
2016
2015
2013
2012
2010
2009
2008
2007
2006
2006
2005
2005
2005
2005
2004
2003
2001
2000
1999
1998
1998
1999
1999
1999
1999
1998
1996
1994
1993
1992
1992
1991
1990
1990
1989
1990
1991
1992
1991
1990
1988
1987
1988
1989
1991
1991
1991
1990
1990
1990
1992
1993
1994
1994
1993
1992
1991
1989
1989
1989
1990
1991
1991
1991
1989
1986
1983
1980
1979
1978
1977
1977
1977
1977
1976
1976
1975
1973
1970
1968
1970
1981
1998
2017
2032
2041
2045
2048
2051
2051
2039
2007
1960
1910
1869
1846
1841
1844
1844
1837
1821
1799
1775
1752
1733
1718
1706
