1957
1952
1958
1981
2020
2071
2129
2176
2196
2180
2128
2058
1993
1951
1938
1946
1961
1971
1975
1974
1974
1974
1975
1977
1977
1978
1979
1980
1981
1981
1981
1981
1981
1981
1982
1983
1984
1985
1986
1986
1986
1986
1987
1987
1988
1990
1991
1993
1995
1997
1998
2000
2002
2004
2007
2010
2013
2015
2018
2020
2022
2023
2024
2024
2024
2024
2022
2019
2014
2009
2003
1997
1992
1988
1985
1983
1981
1980
1978
1977
1976
1975
1975
1975
1975
1976
1976
1977
1977
1976
1976
1976
1975
1975
1976
1976
1977
1977
1977
1977
1977
1977
1977
1978
1979
1980
1981
1982
1983
1983
1983
1982
1982
1982
1982
1983
1984
1984
1984
1984
1983
1982
1982
1982
1982
1982
1983
1983
1983
1983
1982
1982
1981
1981
1981
1982
1982
1983
1983
1983
1982
1981
1980
1980
1980
1980
1981
1982
1982
1982
1982
1981
1981
1980
1980
1980
1981
1981
1980
1980
1979
1979
1979
1979
1979
1980
1979
1978
1977
1975
1974
1974
1975
1976
1978
1979
1980
1981
1981
1982
1982
1983
1982
1982
1981
1981
1981
1980
1980
1980
1979
1979
1979
1979
1978
1978
1979
1980
1979
1976
1970
1962
1960
1968
1992
2032
2084
2141
2187
2206
2187
2133
2061
1995
1954
1942
1951
1967
1979
1982
1982
1981
1982
1983
1984
1985
1986
1986
1986
1987
1987
1987
1986
1986
1987
1988
1988
1989
1990
1990
1990
1990
1991
1991
1992
1993
1994
1995
1997
1997
1998
1999
2001
2003
2005
2008
2011
2014
2017
2019
2020
2021
2022
2023
2024
2025
2025
2023
2020
2015
2010
2004
1998
1993
1989
1986
1984
1981
1980
1978
1977
1976
1976
1976
1976
1977
1978
1978
1977
1977
1976
1975
1975
1976
1976
1977
1977
1978
1978
1977
1976
1976
1976
1976
1977
1978
1978
1979
1979
1979
1978
1978
1978
1978
1978
1979
1979
1980
1980
1980
1979
1978
1978
1977
1977
1978
1978
1979
1979
1979
1979
1979
1978
1978
1978
1978
1978
1978
1978
1978
1978
1978
1977
1977
1977
1978
1978
1979
1979
1979
1979
1978
1978
1977
1977
1977
1977
1977
1978
1979
1980
1981
1982
1982
1983
1984
1985
1986
1987
1986
1985
1984
1983
1982
1982
1981
1981
1982
1982
1982
1982
1982
1982
1983
1984
1982
1975
1965
1957
1956
1970
2001
2048
2105
2158
2189
2185
2142
2073
2003
1951
1929
1933
1950
1965
1974
1975
1974
1975
1976
1978
1979
1979
1980
1980
1981
1982
1983
1984
1984
1984
1984
1983
1984
1984
1985
1986
1987
1988
1988
1989
1989
1990
1991
1992
1994
1996
1997
1999
2001
2003
2005
2008
2011
2014
2017
2019
2021
2023
2024
2024
2023
2022
2020
2017
2013
2008
2002
1997
1991
1987
1982
1979
1976
1975
1974
1973
1973
1973
1973
1973
1972
1971
1971
1971
1971
1971
1972
1972
1972
1972
1972
1972
1972
1973
1973
1974
1975
1975
1975
1975
1975
1976
1976
1977
1977
1978
1978
1978
1979
1978
1978
1978
1978
1978
1978
1978
1979
1979
1978
1978
1977
1976
1976
1976
1976
1977
1977
1977
1977
1976
1975
1975
1975
1976
1976
1977
1977
1977
1977
1977
1977
1976
1976
1977
1977
1977
1978
1977
1976
1975
1974
1973
1973
1975
1977
1979
1980
1981
1982
1982
1982
1983
1983
1983
1983
1983
1982
1981
1980
1979
1979
1978
1978
1978
1979
1979
1981
1982
1982
1979
1971
1961
1952
1951
1965
1995
2040
2095
2150
2185
2187
2152
2087
2017
1962
1935
1934
1947
1961
1968
1969
1968
1968
1970
1971
1973
1974
1974
1974
1974
1974
1974
1975
1975
1976
1977
1979
1979
1980
1980
1980
1980
1980
1981
1983
1984
1986
1987
1988
1989
1990
1991
1993
1995
1998
2001
2004
2006
2009
2011
2013
2014
2016
2017
2019
2019
2019
2017
2014
2010
2004
1999
1993
1989
1985
1982
1980
1978
1977
1975
1975
1974
1973
1973
1974
1974
1974
1974
1974
1974
1974
1973
1973
1974
1974
1975
1976
1976
1977
1976
1976
1976
1976
1976
1977
1978
1978
1978
1978
1978
1978
1978
1978
1978
1978
1979
1979
1979
1980
1979
1979
1979
1979
1979
1979
1980
1980
1981
1981
1981
1981
1980
1980
1981
1981
1981
1981
1981
1981
1981
1980
1980
1980
1980
1980
1980
1980
1980
1980
1979
1979
1978
1978
1978
1978
1978
1978
1977
1977
1977
1977
1978
1979
1981
1982
1984
1984
1985
1985
1985
1985
1984
1984
1983
1983
1982
1982
1981
1981
1981
1981
1981
1981
1981
1983
1985
1985
1982
1974
1963
1954
1953
1968
1999
2046
2102
2156
2189
2188
2149
2082
2012
1959
1934
1936
1951
1965
1973
1973
1973
1974
1975
1976
1977
1978
1979
1979
1980
1980
1981
1981
1981
1981
1982
1983
1984
1985
1985
1985
1986
1986
1986
1987
1988
1989
1991
1993
1994
1995
1996
1998
1999
2001
2004
2007
2010
2013
2015
2017
2019
2020
2021
2022
2022
2022
2020
2017
2013
2008
2003
1997
1992
1987
1983
1981
1979
1978
1977
1977
1976
1975
1974
1974
1975
1975
1976
1976
1976
1975
1975
1974
1974
1975
1975
1976
1976
1977
1977
1976
1976
1975
1974
1973
1973
1974
1974
1975
1975
1975
1975
1975
1974
1974
1974
1975
1975
1975
1976
1975
1975
1975
1974
1974
1974
1974
1975
1975
1975
1975
1975
1974
1974
1974
1974
1974
1975
1976
1976
1976
1976
1975
1975
1975
1975
1976
1976
1976
1976
1976
1975
1974
1974
1974
1974
1975
1976
1976
1976
1976
1975
1975
1974
1973
1972
1972
1973
1974
1975
1977
1977
1978
1978
1978
1979
1980
1981
1982
1981
1980
1979
1978
1977
1976
1976
1976
1977
1978
1978
1978
1977
1977
1978
1979
1977
1971
1962
1952
1948
1955
1980
2021
2075
2133
2176
2188
2161
2101
2028
1966
1931
1924
1936
1952
1962
1966
1966
1967
1968
1969
1970
1970
1970
1970
1971
1972
1973
1974
1974
1974
1974
1974
1974
1974
1975
1976
1977
1978
1979
1980
1980
1981
1982
1983
1984
1985
1987
1989
1991
1994
1996
1999
2001
2003
2006
2009
2011
2014
2015
2016
2016
2015
2013
2011
2008
2003
1998
1993
1987
1982
1976
1972
1969
1967
1966
1966
1966
1966
1966
1966
1965
1965
1964
1964
1964
1964
1965
1965
1966
1966
1965
1965
1964
1964
1964
1964
1965
1966
1966
1966
1966
1965
1965
1964
1964
1965
1965
1965
1965
1965
1965
1964
1964
1964
1964
1964
1964
1965
1965
1965
1965
1964
1963
1963
1963
1963
1964
1965
1965
1965
1965
1965
1965
1965
1966
1966
1967
1967
1967
1967
1967
1966
1966
1967
1967
1968
1969
1969
1969
1970
1969
1968
1967
1967
1966
1967
1968
1969
1971
1972
1973
1973
1973
1974
1975
1976
1976
1977
1977
1976
1975
1974
1973
1972
1972
1972
1973
1974
1974
1974
1974
1974
1975
1975
1971
1963
1953
1945
1947
1966
2001
2051
2109
2158
2181
2166
2116
2045
1977
1932
1917
1925
1942
1955
1961
1962
1962
1964
1965
1966
1967
1967
1967
1968
1969
1970
1971
1971
1971
1972
1972
1972
1973
1973
1974
1975
1976
1977
1978
1978
1979
1979
1980
1981
1983
1985
1987
1989
1992
1994
1996
1998
2001
2003
2006
2009
2011
2013
2014
2015
2015
2013
2010
2007
2002
1997
1991
1986
1981
1976
1972
1969
1967
1966
1965
1965
1965
1966
1966
1965
1965
1965
1964
1964
1964
1964
1965
1965
1965
1964
1964
1964
1963
1963
1964
1964
1965
1966
1966
1966
1966
1966
1966
1966
1966
1966
1967
1968
1968
1968
1968
1968
1967
1967
1967
1967
1968
1968
1968
1968
1967
1967
1966
1966
1966
1967
1968
1968
1968
1968
1967
1966
1966
1966
1967
1967
1968
1968
1968
1968
1967
1967
1966
1966
1967
1967
1968
1968
1969
1968
1968
1968
1967
1968
1968
1968
1969
1969
1969
1969
1969
1968
1967
1966
1965
1965
1966
1967
1968
1970
1970
1971
1971
1972
1973
1974
1975
1976
1976
1975
1974
1972
1971
1969
1969
1969
1970
1972
1972
1972
1972
1972
1973
1973
1970
1964
1955
1946
1944
1954
1980
2022
2075
2131
2172
2183
2157
2098
2027
1966
1932
1925
1935
1950
1959
1961
1961
1962
1963
1965
1965
1965
1965
1966
1966
1967
1968
1969
1969
1969
1969
1969
1970
1970
1971
1972
1973
1974
1975
1975
1975
1976
1977
1978
1979
1981
1982
1984
1987
1989
1991
1993
1996
1998
2000
2003
2005
2007
2010
2011
2011
2010
2008
2005
2002
1998
1994
1989
1984
1979
1975
1971
1968
1966
1965
1964
1964
1964
1964
1965
1964
1964
1964
1964
1964
1964
1964
1965
1965
1965
1964
1964
1964
1964
1964
1965
1965
1966
1966
1966
1966
1965
1965
1965
1965
1965
1966
1966
1966
1966
1965
1965
1965
1965
1966
1966
1967
1967
1967
1967
1966
1966
1965
1965
1965
1965
1966
1966
1967
1967
1967
1966
1966
1966
1967
1967
1968
1968
1968
1968
1968
1967
1967
1967
1968
1968
1969
1969
1970
1969
1969
1969
1969
1970
1970
1970
1971
1971
1972
1972
1972
1971
1969
1968
1968
1969
1971
1973
1974
1975
1975
1975
1975
1976
1977
1978
1979
1978
1978
1977
1976
1975
1974
1974
1974
1974
1975
1975
1975
1976
1976
1977
1977
1974
1967
1958
1950
1948
1960
1989
2032
2086
2139
2176
2182
2150
2088
2019
1962
1932
1929
1941
1955
1963
1964
1964
1965
1966
1967
1968
1969
1969
1969
1969
1970
1971
1972
1973
1973
1973
1973
1973
1974
1974
1975
1976
1977
1978
1980
1980
1981
1981
1982
1983
1985
1987
1989
1991
1993
1996
1998
2001
2003
2006
2008
2010
2012
2014
2015
2016
2015
2013
2010
2006
2001
1996
1991
1987
1982
1978
1975
1971
1969
1968
1967
1967
1968
1968
1968
1968
1967
1967
1966
1966
1966
1967
1967
1967
1967
1967
1967
1966
1966
1966
1966
1967
1967
1968
1968
1969
1969
1969
1969
1969
1968
1969
1969
1969
1970
1970
1969
1969
1969
1968
1968
1968
1969
1969
1969
1970
1970
1969
1969
1968
1968
1968
1969
1969
1970
1969
1968
1968
1967
1967
1968
1968
1969
1969
1969
1969
1968
1967
1967
1967
1968
1969
1969
1970
1969
1969
1968
1967
1966
1965
1965
1965
1966
1967
1969
1970
1971
1971
1971
1972
1973
1973
1974
1974
1974
1973
1972
1971
1970
1969
1969
1969
1969
1970
1970
1970
1970
1971
1972
1972
1969
1962
1952
1944
1944
1959
1993
2042
2100
2153
2181
2173
2128
2058
1988
1938
1917
1922
1937
1951
1959
1960
1961
1962
1964
1966
1967
1967
1968
1968
1969
1970
1971
1972
1972
1972
1973
1973
1973
1974
1976
1977
1978
1980
1981
1982
1983
1983
1984
1985
1987
1990
1993
1996
1998
2001
2003
2005
2008
2011
2014
2018
2021
2023
2024
2025
2024
2023
2020
2017
2012
2006
2000
1995
1990
1985
1980
1976
1973
1971
1970
1970
1970
1970
1970
1971
1971
1970
1969
1969
1969
1969
1970
1970
1971
1970
1970
1969
1969
1969
1969
1971
1972
1973
1973
1973
1973
1973
1973
1974
1974
1975
1975
1976
1976
1976
1976
1976
1975
1975
1975
1975
1976
1976
1976
1976
1976
1975
1975
1975
1975
1976
1976
1977
1976
1976
1976
1975
1975
1975
1976
1976
1977
1977
1978
1977
1977
1976
1975
1975
1974
1975
1976
1977
1978
1979
1980
1980
1980
1980
1981
1982
1982
1982
1982
1982
1981
1980
1979
1978
1978
1979
1980
1980
1980
1979
1980
1981
1981
1979
1974
1964
1954
1949
1957
1982
2024
2077
2134
2177
2188
2161
2101
2029
1967
1933
1928
1940
1956
1966
1968
1968
1969
1970
1972
1973
1974
1974
1974
1974
1975
1976
1977
1978
1978
1978
1978
1978
1979
1979
1980
1981
1982
1983
1984
1985
1986
1986
1987
1988
1989
1991
1993
1996
1998
2001
2003
2005
2008
2011
2013
2016
2018
2020
2021
2021
2020
2017
2014
2009
2004
1998
1993
1988
1984
1980
1976
1973
1971
1970
1970
1970
1971
1971
1971
1971
1970
1970
1970
1970
1970
1970
1970
1971
1970
1970
1970
1969
1969
1969
1970
1970
1971
1971
1972
1972
1972
1971
1971
1971
1972
1973
1974
1974
1975
1975
1975
1974
1974
1974
1974
1974
1975
1975
1975
1975
1975
1974
1974
1973
1973
1974
1974
1975
1975
1975
1974
1974
1974
1974
1974
1975
1976
1976
1977
1977
1976
1976
1975
1975
1975
1976
1977
1977
1978
1978
1977
1976
1975
1974
1973
1973
1974
1976
1977
1978
1979
1979
1979
1980
1981
1981
1982
1983
1983
1982
1981
1980
1979
1978
1977
1977
1978
1979
1979
1979
1979
1980
1980
1980
1976
1969
1959
1951
1952
1966
1997
2044
2099
2153
2187
2188
2150
2084
2014
1959
1933
1933
1945
1959
1966
1967
1967
1968
1970
1971
1971
1971
1971
1972
1973
1973
1974
1974
1975
1975
1975
1976
1976
1976
1977
1978
1979
1981
1982
1983
1983
1984
1985
1986
1987
1989
1991
1993
1996
1998
2000
2002
2004
2007
2009
2012
2015
2017
2019
2020
2020
2019
2016
2013
2009
2004
1998
1993
1989
1985
1981
1978
1976
1974
1973
1973
1973
1973
1974
1973
1973
1973
1972
1972
1972
1973
1973
1973
1973
1973
1973
1973
1973
1973
1973
1974
1974
1974
1973
1973
1973
1973
1973
1974
1974
1974
1975
1976
1976
1977
1976
1976
1976
1975
1976
1976
1976
1977
1977
1977
1976
1976
1975
1975
1976
1976
1977
1977
1977
1977
1976
1976
1976
1976
1976
1976
1977
1978
1978
1978
1978
1978
1977
1977
1978
1978
1979
1979
1979
1979
1979
1978
1978
1978
1978
1978
1978
1978
1977
1976
1974
1974
1974
1976
1978
1980
1981
1982
1983
1983
1983
1983
1983
1982
1982
1982
1981
1981
1980
1979
1978
1978
1978
1978
1978
1978
1979
1981
1982
1980
1974
1964
1953
1949
1956
1980
2021
2074
2131
2176
2192
2170
2114
2043
1979
1940
1931
1941
1956
1967
1969
1968
1968
1969
1970
1972
1973
1974
1975
1975
1975
1975
1975
1975
1976
1976
1977
1978
1979
1979
1980
1980
1980
1980
1981
1982
1983
1985
1986
1987
1988
1989
1990
1991
1994
1997
2000
2003
2006
2008
2010
2011
2013
2014
2016
2017
2017
2016
2013
2009
2004
1999
1993
1987
1982
1978
1975
1973
1971
1970
1969
1967
1966
1966
1966
1966
1967
1967
1967
1966
1966
1965
1965
1965
1965
1965
1965
1965
1965
1965
1965
1965
1964
1964
1964
1964
1964
1965
1965
1966
1966
1966
1966
1966
1966
1967
1967
1967
1966
1966
1965
1964
1964
1965
1965
1965
1965
1965
1964
1964
1963
1963
1962
1962
1961
1962
1962
1962
1962
1962
1961
1961
1960
1961
1961
1961
1961
1961
1961
1961
1961
1960
1960
1959
1959
1959
1959
1960
1960
1960
1960
1959
1959
1958
1957
1957
1956
1956
1956
1957
1958
1959
1960
1960
1960
1960
1961
1961
1962
1962
1961
1960
1959
1958
1957
1957
1957
1956
1956
1955
1955
1954
1954
1954
1956
1957
1957
1952
1943
1933
1926
1930
1952
1993
2048
2107
2153
2168
2144
2084
2009
1941
1900
1890
1901
1919
1931
1935
1935
1934
1934
1935
1937
1939
1940
1940
1941
1941
1942
1942
1942
1942
1943
1943
1944
1945
1946
1946
1947
1947
1948
1948
1948
1949
1950
1952
1953
1955
1957
1959
1960
1962
1965
1968
1971
1974
1977
1980
1982
1984
1986
1987
1988
1988
1987
1985
1981
1976
1970
1964
1957
1951
1945
1941
1938
1936
1935
1934
1933
1932
1931
1930
1930
1929
1929
1930
1930
1930
1930
1930
1930
1930
1929
1929
1929
1930
1931
1931
1932
1932
1932
1931
1931
1931
1931
1932
1933
1933
1934
1934
1933
1933
1932
1932
1932
1933
1934
1934
1934
1934
1934
1934
1933
1933
1933
1934
1934
1935
1935
1935
1935
1935
1934
1934
1935
1935
1936
1937
1937
1937
1937
1936
1936
1936
1937
1937
1938
1938
1938
1938
1938
1937
1936
1936
1936
1937
1939
1941
1943
1944
1944
1945
1945
1946
1947
1947
1948
1948
1948
1947
1946
1945
1944
1943
1944
1944
1945
1946
1946
1947
1948
1949
1948
1944
1935
1925
1918
1922
1942
1978
2029
2085
2134
2158
2146
2097
2028
1961
1915
1899
1905
1920
1932
1937
1937
1938
1940
1942
1944
1945
1946
1946
1947
1948
1949
1950
1951
1952
1952
1952
1953
1953
1954
1954
1955
1956
1957
1958
1958
1959
1960
1960
1961
1962
1964
1966
1969
1972
1974
1977
1979
1981
1984
1987
1990
1993
1996
1998
1999
2000
1998
1996
1991
1987
1981
1976
1972
1968
1964
1960
1957
1954
1953
1952
1952
1952
1953
1954
1954
1954
1953
1953
1953
1953
1953
1954
1954
1954
1954
1954
1954
1953
1953
1953
1953
1954
1955
1956
1956
1956
1956
1955
1955
1956
1956
1956
1957
1957
1958
1958
1958
1958
1958
1958
1958
1959
1959
1960
1960
1960
1959
1959
1958
1959
1959
1960
1960
1961
1961
1961
1961
1961
1961
1961
1961
1962
1962
1963
1963
1963
1963
1962
1962
1962
1963
1964
1964
1965
1965
1965
1964
1964
1964
1965
1966
1966
1966
1965
1965
1964
1964
1964
1965
1966
1967
1969
1970
1971
1971
1972
1971
1971
1970
1969
1968
1968
1968
1968
1968
1968
1968
1967
1966
1966
1966
1968
1970
1969
1965
1956
1946
1939
1942
1960
1995
2045
2102
2152
2179
2171
2125
2056
1987
1939
1921
1925
1940
1952
1957
1957
1956
1957
1957
1959
1960
1961
1962
1963
1964
1964
1964
1964
1964
1965
1965
1966
1967
1967
1968
1968
1969
1969
1969
1971
1972
1974
1976
1978
1979
1981
1982
1983
1985
1987
1990
1993
1996
2000
2003
2005
2008
2009
2010
2011
2011
2011
2010
2007
2002
1997
1991
1985
1980
1976
1972
1970
1968
1966
1965
1964
1964
1963
1963
1963
1963
1963
1964
1964
1964
1964
1964
1964
1964
1964
1964
1964
1965
1966
1966
1966
1965
1965
1965
1965
1965
1966
1966
1966
1967
1967
1967
1966
1966
1966
1967
1968
1969
1969
1970
1969
1969
1968
1968
1968
1968
1969
1969
1970
1970
1970
1970
1969
1969
1969
1969
1970
1971
1972
1972
1972
1971
1970
1970
1970
1971
1971
1972
1972
1972
1972
1972
1971
1971
1971
1971
1971
1972
1972
1972
1972
1972
1971
1971
1971
1971
1972
1972
1971
1970
1969
1969
1969
1970
1971
1972
1974
1975
1976
1976
1977
1977
1977
1977
1976
1975
1975
1975
1974
1974
1973
1973
1973
1972
1972
1972
1973
1975
1976
1975
1969
1959
1948
1943
1951
1975
2016
2070
2127
2171
2187
2163
2106
2034
1970
1932
1924
1934
1950
1960
1963
1962
1962
1963
1964
1966
1967
1968
1968
1969
1969
1969
1969
1969
1970
1971
1972
1973
1974
1974
1974
1974
1974
1974
1975
1976
1978
1979
1980
1981
1982
1984
1985
1987
1989
1992
1994
1997
2000
2003
2006
2008
2009
2011
2012
2013
2013
2013
2011
2007
2003
1997
1992
1986
1981
1976
1973
1970
1969
1968
1967
1966
1965
1963
1963
1962
1963
1964
1965
1965
1965
1964
1964
1963
1963
1963
1963
1964
1964
1965
1965
1965
1965
1965
1965
1965
1966
1967
1968
1968
1968
1969
1968
1968
1968
1968
1968
1969
1969
1969
1969
1969
1968
1967
1968
1968
1968
1969
1968
1968
1968
1968
1969
1969
1969
1969
1969
1969
1970
1970
1971
1971
1970
1970
1970
1971
1971
1972
1972
1972
1971
1971
1971
1971
1971
1972
1972
1972
1973
1973
1972
1971
1970
1970
1970
1972
1974
1976
1977
1978
1978
1979
1979
1979
1980
1980
1980
1980
1980
1979
1977
1976
1975
1974
1973
1974
1974
1975
1975
1975
1975
1975
1971
1965
1955
1946
1945
1957
1988
2035
2092
2148
2184
2183
2142
2073
2000
1944
1919
1923
1940
1956
1965
1966
1965
1966
1969
1971
1974
1975
1975
1975
1976
1976
1977
1978
1979
1980
1981
1982
1982
1983
1983
1983
1984
1985
1986
1987
1988
1990
1991
1993
1994
1995
1997
1999
2001
2004
2007
2010
2013
2016
2018
2021
2023
2026
2028
2030
2031
2030
2028
2025
2020
2014
2008
2002
1996
1991
1987
1984
1981
1978
1976
1975
1975
1975
1975
1976
1976
1976
1977
1977
1976
1976
1976
1976
1976
1976
1976
1976
1976
1976
1976
1975
1975
1975
1976
1977
1978
1978
1978
1978
1978
1978
1978
1978
1979
1980
1980
1980
1980
1980
1980
1979
1979
1979
1979
1980
1980
1980
1980
1979
1979
1978
1978
1978
1979
1980
1980
1980
1980
1980
1979
1979
1979
1979
1979
1979
1979
1979
1979
1979
1979
1979
1979
1979
1979
1978
1978
1977
1977
1977
1978
1979
1980
1982
1983
1983
1984
1985
1985
1985
1985
1984
1983
1983
1982
1981
1980
1980
1980
1979
1979
1979
1978
1979
1981
1983
1982
1977
1968
1957
1950
1955
1976
2014
2065
2122
2169
2190
2173
2121
2050
1985
1943
1930
1938
1954
1966
1970
1970
1970
1970
1971
1972
1973
1974
1975
1976
1977
1977
1977
1977
1977
1978
1979
1980
1981
1982
1982
1982
1983
1983
1983
1984
1985
1986
1988
1990
1991
1993
1994
1996
1998
2001
2004
2008
2012
2016
2019
2022
2023
2024
2025
2026
2026
2026
2024
2020
2016
2010
2004
1999
1994
1990
1988
1986
1984
1983
1982
1981
1980
1980
1980
1980
1980
1981
1981
1982
1981
1981
1980
1979
1979
1979
1980
1980
1981
1981
1981
1981
1981
1981
1981
1981
1981
1981
1982
1982
1983
1983
1983
1982
1982
1983
1983
1984
1984
1984
1984
1984
1983
1983
1983
1983
1983
1983
1984
1984
1985
1984
1984
1984
1983
1983
1983
1984
1985
1985
1985
1985
1985
1984
1983
1983
1984
1985
1985
1986
1986
1985
1985
1985
1985
1985
1985
1986
1986
1985
1984
1983
1982
1982
1983
1984
1986
1987
1989
1990
1990
1990
1990
1990
1990
1990
1990
1990
1990
1989
1988
1987
1987
1987
1986
1986
1987
1987
1988
1990
1991
1988
1981
1970
1960
1957
1967
1994
2037
2091
2147
2187
2198
2171
2111
2039
1978
1944
1937
1949
1964
1973
1975
1974
1975
1975
1977
1978
1979
1980
1980
1980
1980
1980
1980
1980
1980
1981
1982
1983
1984
1984
1984
1984
1984
1985
1986
1987
1989
1990
1991
1992
1993
1994
1995
1997
2000
2003
2007
2010
2013
2016
2018
2020
2021
2023
2024
2026
2026
2025
2022
2017
2012
2006
1999
1994
1989
1986
1983
1981
1979
1978
1977
1976
1975
1975
1976
1976
1976
1977
1976
1976
1976
1976
1975
1975
1975
1976
1976
1977
1977
1978
1977
1977
1977
1977
1977
1977
1977
1978
1978
1978
1978
1978
1978
1977
1977
1978
1978
1978
1978
1978
1978
1977
1976
1976
1977
1977
1978
1978
1979
1978
1978
1978
1978
1978
1978
1979
1979
1979
1979
1979
1978
1978
1978
1978
1978
1979
1979
1979
1979
1979
1978
1978
1977
1977
1978
1979
1979
1979
1979
1977
1976
1975
1974
1974
1976
1978
1979
1981
1981
1981
1982
1982
1982
1982
1982
1982
1981
1980
1980
1979
1977
1976
1976
1975
1975
1976
1976
1977
1978
1979
1979
1976
1968
1958
1949
1947
1959
1988
2032
2087
2141
2178
2184
2150
2087
2016
1958
1928
1926
1938
1953
1960
1961
1960
1961
1963
1964
1965
1966
1965
1965
1965
1966
1966
1966
1967
1967
1968
1968
1968
1968
1967
1967
1967
1967
1968
1969
1969
1970
1970
1970
1970
1970
1971
1972
1974
1976
1979
1982
1984
1986
1988
1989
1991
1993
1995
1996
1997
1996
1993
1990
1985
1979
1973
1966
1960
1955
1951
1948
1945
1942
1940
1938
1937
1937
1937
1937
1937
1937
1936
1936
1936
1935
1935
1935
1935
1935
1935
1935
1935
1934
1933
1933
1933
1933
1933
1933
1934
1934
1934
1934
1934
1934
1934
1934
1934
1935
1935
1936
1936
1936
1936
1937
1937
1937
1937
1937
1938
1938
1938
1938
1938
1937
1937
1937
1938
1939
1940
1941
1941
1941
1941
1940
1940
1940
1941
1941
1942
1942
1942
1942
1941
1941
1941
1942
1942
1942
1942
1942
1942
1942
1942
1942
1943
1944
1946
1947
1948
1949
1950
1950
1950
1950
1950
1950
1950
1950
1950
1949
1948
1948
1947
1947
1948
1948
1949
1950
1952
1953
1951
1945
1935
1925
1921
1930
1959
2004
2061
2119
2158
2162
2127
2060
1986
1926
1896
1895
1910
1927
1937
1939
1937
1937
1938
1940
1942
1944
1945
1945
1945
1945
1946
1947
1948
1949
1950
1951
1952
1953
1953
1954
1955
1956
1957
1959
1960
1962
1963
1965
1967
1968
1969
1971
1973
1976
1979
1984
1988
1992
1995
1997
1999
2001
2003
2004
2006
2006
2005
2001
1997
1990
1984
1977
1971
1967
1963
1960
1958
1956
1955
1954
1954
1954
1954
1954
1955
1955
1956
1956
1956
1956
1955
1955
1955
1956
1957
1959
1960
1960
1961
1961
1961
1961
1961
1961
1962
1963
1964
1964
1964
1964
1964
1964
1965
1965
1966
1966
1966
1967
1967
1967
1966
1966
1966
1966
1966
1967
1967
1968
1968
1967
1967
1967
1967
1968
1968
1969
1970
1970
1970
1970
1970
1970
1970
1971
1971
1971
1972
1971
1970
1969
1968
1968
1969
1971
1973
1975
1976
1976
1976
1976
1977
1977
1977
1977
1977
1977
1977
1977
1976
1975
1974
1974
1974
1974
1975
1975
1976
1977
1978
1977
1972
1963
1952
1945
1950
1969
2006
2056
2113
2161
2184
2170
2120
2049
1983
1939
1924
1932
1947
1959
1964
1964
1964
1964
1966
1967
1969
1970
1970
1971
1971
1971
1971
1972
1973
1974
1975
1976
1977
1977
1977
1977
1977
1978
1979
1981
1982
1983
1983
1984
1984
1985
1987
1989
1991
1994
1997
1999
2002
2004
2006
2008
2010
2012
2014
2015
2016
2014
2011
2006
2000
1994
1989
1984
1980
1976
1973
1970
1968
1966
1965
1964
1963
1963
1964
1964
1965
1965
1965
1965
1964
1964
1964
1964
1964
1964
1965
1965
1965
1965
1965
1964
1964
1965
1966
1967
1968
1969
1969
1969
1968
1968
1968
1969
1970
1971
1972
1973
1973
1972
1969
1965
1960
1956
1955
1955
1957
1958
1959
1958
1958
1958
1958
1959
1960
1962
1964
1965
1966
1967
1966
1966
1966
1967
1969
1974
1978
1983
1986
1987
1987
1987
1988
1988
1989
1990
1990
1989
1989
1990
1991
1992
1994
1996
1997
1999
2000
2002
2002
2003
2003
2002
2002
2002
2002
2001
2001
2000
2000
2000
1999
1999
1999
1999
2000
2002
2003
2001
1995
1985
1974
1968
1974
1996
2035
2086
2140
2180
2190
2161
2100
2028
1967
1934
1929
1941
1957
1966
1968
1967
1967
1967
1968
1969
1970
1971
1972
1973
1974
1974
1973
1973
1973
1974
1975
1976
1977
1978
1978
1978
1979
1979
1980
1981
1982
1983
1985
1986
1987
1988
1989
1991
1993
1996
1999
2002
2005
2008
2011
2013
2014
2016
2017
2018
2018
2017
2014
2010
2006
2000
1994
1989
1984
1980
1977
1975
1974
1973
1972
1971
1970
1969
1969
1969
1970
1971
1971
1972
1972
1972
1971
1971
1971
1971
1971
1972
1973
1973
1973
1973
1973
1972
1972
1972
1973
1973
1974
1974
1975
1975
1974
1974
1974
1975
1975
1976
1977
1977
1976
1976
1976
1975
1975
1976
1976
1977
1978
1978
1978
1977
1976
1976
1977
1977
1978
1979
1979
1979
1979
1979
1978
1978
1978
1979
1979
1979
1979
1979
1978
1978
1977
1977
1977
1977
1977
1977
1976
1975
1975
1975
1975
1976
1977
1979
1980
1981
1982
1983
1984
1984
1983
1983
1982
1982
1981
1981
1980
1980
1979
1979
1979
1978
1978
1978
1979
1980
1982
1982
1977
1967
1956
1948
1952
1972
2009
2060
2118
2167
2190
2176
2126
2055
1988
1943
1928
1935
1951
1963
1968
1968
1967
1968
1969
1970
1971
1973
1974
1975
1976
1976
1976
1975
1975
1975
1976
1978
1979
1980
1980
1980
1980
1980
1981
1982
1983
1984
1985
1986
1986
1988
1989
1991
1994
1997
2000
2003
2006
2009
2012
2014
2016
2017
2018
2019
2019
2018
2016
2013
2008
2002
1996
1990
1984
1981
1978
1975
1974
1972
1972
1971
1970
1970
1969
1969
1969
1970
1970
1970
1969
1968
1967
1967
1967
1968
1968
1969
1969
1969
1970
1970
1970
1969
1969
1970
1970
1971
1971
1972
1972
1971
1971
1971
1970
1970
1970
1970
1970
1970
1970
1969
1968
1968
1968
1968
1969
1970
1971
1971
1971
1970
1969
1969
1969
1970
1971
1972
1972
1972
1972
1972
1971
1970
1970
1970
1971
1971
1971
1970
1969
1969
1969
1969
1968
1968
1968
1968
1969
1970
1971
1972
1973
1973
1973
1974
1974
1975
1976
1977
1977
1976
1975
1974
1973
1973
1973
1973
1974
1975
1975
1975
1975
1976
1977
1977
1973
1966
1956
1949
1951
1969
2005
2056
2115
2165
2188
2172
2118
2045
1975
1929
1916
1926
1944
1960
1966
1967
1968
1969
1971
1972
1974
1974
1975
1975
1976
1978
1979
1979
1980
1980
1980
1981
1981
1981
1982
1983
1985
1986
1987
1987
1988
1988
1989
1990
1992
1995
1997
1999
2001
2003
2005
2007
2010
2013
2017
2021
2023
2025
2027
2027
2026
2024
2022
2018
2013
2008
2002
1996
1990
1984
1979
1976
1974
1972
1972
1971
1971
1971
1970
1970
1969
1969
1969
1969
1970
1970
1970
1970
1970
1970
1970
1970
1970
1971
1972
1973
1973
1973
1973
1973
1972
1973
1973
1974
1975
1976
1977
1977
1977
1977
1977
1977
1977
1977
1978
1978
1978
1978
1978
1978
1977
1977
1977
1977
1977
1978
1978
1978
1977
1977
1977
1976
1977
1977
1978
1978
1979
1979
1979
1978
1978
1978
1978
1979
1979
1979
1980
1980
1980
1980
1980
1979
1978
1977
1977
1977
1978
1979
1980
1981
1982
1982
1983
1983
1984
1985
1986
1986
1986
1985
1984
1983
1982
1981
1981
1981
1982
1982
1982
1982
1982
1982
1983
1983
1979
1971
1961
1954
1956
1973
2006
2053
2110
2161
2190
2184
2140
2072
2004
1954
1934
1937
1951
1965
1971
1971
1971
1972
1973
1974
1975
1975
1975
1976
1977
1978
1979
1980
1980
1980
1980
1980
1980
1981
1982
1984
1985
1986
1986
1987
1987
1987
1988
1989
1991
1992
1994
1996
1998
2001
2003
2006
2008
2011
2014
2017
2020
2022
2023
2024
2024
2024
2022
2020
2016
2011
2006
2001
1996
1991
1987
1984
1982
1980
1980
1980
1980
1980
1980
1979
1979
1979
1979
1979
1980
1981
1981
1981
1981
1981
1981
1981
1981
1981
1982
1982
1982
1982
1982
1982
1981
1981
1981
1982
1983
1984
1984
1985
1985
1984
1984
1984
1984
1984
1985
1985
1985
1985
1985
1984
1984
1983
1983
1983
1984
1984
1985
1985
1986
1985
1985
1984
1984
1984
1984
1985
1986
1986
1986
1986
1985
1985
1985
1985
1986
1986
1987
1987
1987
1986
1986
1985
1985
1985
1986
1986
1987
1986
1985
1984
1983
1983
1984
1985
1987
1988
1989
1990
1990
1990
1991
1991
1991
1992
1992
1991
1991
1990
1989
1988
1987
1986
1987
1987
1988
1988
1989
1990
1991
1989
1984
1976
1966
1959
1962
1981
2016
2065
2121
2171
2197
2188
2142
2074
2006
1959
1940
1945
1959
1971
1976
1976
1976
1977
1978
1980
1981
1982
1982
1982
1982
1983
1983
1983
1984
1985
1985
1986
1987
1987
1987
1987
1988
1989
1990
1991
1992
1992
1993
1994
1995
1996
1998
2000
2003
2005
2008
2011
2014
2016
2018
2020
2022
2024
2025
2027
2028
2027
2025
2022
2017
2012
2006
2001
1997
1993
1989
1986
1983
1981
1979
1978
1977
1977
1977
1977
1977
1977
1976
1976
1975
1974
1974
1974
1974
1975
1975
1976
1975
1975
1975
1975
1975
1975
1976
1976
1977
1977
1977
1977
1976
1976
1976
1977
1977
1978
1978
1978
1977
1977
1976
1976
1976
1976
1977
1977
1978
1977
1977
1976
1976
1976
1976
1976
1977
1977
1978
1978
1978
1977
1977
1976
1977
1977
1978
1978
1979
1979
1978
1978
1978
1978
1978
1978
1979
1979
1980
1980
1980
1979
1979
1978
1978
1978
1979
1979
1979
1979
1979
1978
1977
1975
1974
1974
1974
1976
1978
1980
1981
1981
1981
1981
1981
1981
1982
1983
1983
1983
1982
1981
1979
1977
1975
1975
1975
1975
1976
1975
1974
1974
1974
1974
1971
1965
1955
1946
1942
1951
1977
2018
2071
2126
2166
2174
2144
2082
2010
1948
1914
1909
1922
1937
1947
1950
1950
1950
1952
1953
1953
1953
1952
1952
1952
1952
1953
1954
1954
1954
1954
1953
1953
1953
1953
1954
1955
1956
1957
1958
1959
1960
1960
1961
1962
1964
1967
1970
1972
1974
1977
1979
1981
1983
1986
1989
1993
1996
1998
2000
2001
2001
1999
1997
1993
1989
1985
1980
1975
1970
1965
1961
1958
1956
1954
1953
1953
1952
1952
1952
1951
1950
1949
1948
1948
1948
1949
1950
1950
1950
1950
1949
1949
1949
1950
1951
1952
1953
1954
1954
1954
1954
1954
1954
1955
1957
1958
1958
1958
1958
1958
1958
1958
1958
1958
1958
1958
1959
1959
1960
1960
1960
1960
1960
1960
1960
1960
1961
1962
1962
1963
1963
1963
1962
1962
1962
1963
1964
1965
1965
1965
1965
1965
1965
1965
1965
1966
1967
1966
1966
1966
1965
1966
1967
1969
1970
1971
1972
1973
1974
1975
1976
1976
1975
1974
1974
1974
1974
1975
1974
1974
1973
1973
1972
1972
1972
1973
1975
1977
1977
1973
1965
1954
1945
1946
1963
1998
2048
2106
2156
2180
2167
2117
2046
1977
1931
1915
1923
1941
1956
1963
1963
1963
1964
1966
1968
1969
1971
1971
1972
1973
1973
1973
1973
1974
1974
1975
1976
1978
1979
1979
1979
1979
1980
1981
1982
1984
1985
1987
1988
1989
1990
1991
1993
1995
1998
2001
2005
2008
2012
2014
2017
2019
2020
2022
2023
2024
2023
2021
2018
2013
2007
2001
1995
1989
1984
1980
1978
1976
1974
1973
1972
1971
1971
1971
1971
1971
1972
1972
1972
1972
1972
1971
1971
1971
1971
1971
1972
1973
1973
1973
1972
1972
1972
1973
1973
1974
1974
1975
1975
1975
1975
1975
1975
1976
1976
1976
1977
1977
1977
1978
1977
1977
1977
1977
1977
1977
1977
1978
1978
1978
1978
1977
1977
1976
1976
1977
1977
1978
1978
1978
1978
1977
1977
1977
1977
1978
1978
1979
1979
1979
1978
1977
1976
1975
1975
1976
1978
1980
1981
1982
1982
1982
1982
1983
1984
1984
1985
1985
1984
1984
1983
1982
1981
1980
1980
1980
1981
1981
1982
1982
1983
1984
1982
1977
1969
1959
1953
1958
1978
2013
2062
2118
2166
2190
2177
2128
2059
1993
1949
1933
1940
1955
1966
1970
1970
1971
1973
1975
1976
1977
1977
1977
1977
1977
1978
1979
1980
1981
1982
1982
1982
1982
1982
1981
1982
1983
1986
1991
1996
2000
2003
2005
2006
2008
2010
2012
2015
2017
2020
2022
2024
2027
2029
2031
2034
2036
2038
2040
2041
2039
2036
2031
2025
2018
2011
2004
1998
1992
1987
1983
1979
1976
1974
1973
1972
1972
1972
1973
1973
1972
1971
1971
1970
1970
1970
1971
1971
1972
1972
1972
1972
1972
1971
1971
1971
1971
1972
1972
1973
1973
1973
1973
1973
1973
1973
1973
1974
1974
1975
1975
1975
1975
1975
1975
1976
1976
1977
1977
1978
1977
1977
1977
1976
1977
1977
1978
1979
1979
1980
1980
1980
1979
1979
1979
1979
1980
1981
1982
1982
1982
1982
1982
1982
1981
1980
1980
1980
1980
1980
1981
1982
1983
1984
1985
1985
1986
1987
1988
1989
1989
1989
1988
1987
1986
1985
1985
1985
1986
1986
1986
1985
1985
1984
1985
1987
1988
1985
1979
1969
1960
1957
1969
1996
2040
2093
2148
2186
2192
2160
2098
2027
1969
1938
1935
1948
1963
1972
1974
1975
1975
1976
1977
1978
1978
1978
1979
1981
1982
1983
1983
1983
1982
1982
1982
1983
1984
1985
1986
1986
1987
1987
1987
1988
1988
1989
1991
1992
1994
1996
1998
2000
2002
2004
2007
2010
2014
2017
2020
2022
2024
2025
2026
2026
2025
2024
2021
2017
2012
2006
2000
1995
1990
1986
1983
1981
1979
1979
1979
1978
1978
1977
1976
1976
1975
1975
1976
1977
1977
1977
1977
1976
1975
1975
1975
1975
1976
1977
1977
1978
1977
1977
1976
1975
1975
1975
1976
1976
1977
1977
1977
1976
1976
1976
1976
1976
1977
1977
1977
1976
1975
1975
1974
1973
1973
1973
1974
1974
1974
1975
1975
1974
1974
1974
1974
1974
1974
1975
1975
1976
1976
1976
1975
1975
1975
1975
1976
1977
1977
1976
1975
1974
1972
1972
1972
1973
1975
1977
1978
1979
1979
1979
1979
1979
1979
1979
1980
1980
1980
1979
1978
1977
1976
1975
1975
1976
1976
1977
1977
1979
1979
1978
1972
1963
1952
1946
1951
1972
2009
2060
2118
2164
2185
2167
2114
2044
1977
1935
1922
1930
1947
1959
1964
1963
1963
1964
1966
1968
1969
1970
1971
1971
1971
1971
1971
1972
1972
1973
1973
1974
1974
1974
1973
1973
1973
1974
1974
1975
1977
1978
1979
1980
1980
1981
1982
1984
1986
1989
1992
1996
1999
2002
2004
2006
2008
2009
2011
2012
2012
2011
2008
2004
1998
1992
1985
1979
1974
1970
1967
1964
1962
1960
1959
1958
1957
1957
1957
1957
1958
1958
1958
1957
1956
1955
1955
1955
1955
1955
1956
1957
1957
1958
1958
1958
1958
1958
1959
1960
1961
1962
1961
1960
1959
1959
1958
1959
1959
1960
1960
1960
1960
1960
1959
1959
1960
1960
1961
1962
1963
1963
1963
1963
1963
1963
1963
1964
1965
1966
1966
1966
1966
1965
1965
1966
1967
1968
1969
1970
1970
1970
1970
1969
1969
1968
1969
1970
1972
1974
1975
1976
1977
1977
1978
1978
1978
1979
1980
1980
1980
1979
1978
1977
1976
1976
1976
1977
1977
1978
1979
1980
1981
1979
1973
1962
1951
1947
1955
1982
2026
2081
2137
2175
2180
2146
2082
2010
1951
1922
1922
1937
1955
1965
1966
1966
1966
1968
1971
1973
1975
1975
1976
1976
1977
1977
1978
1979
1980
1981
1981
1982
1982
1982
1982
1983
1984
1985
1986
1987
1988
1989
1991
1992
1993
1994
1996
1998
2001
2004
2007
2010
2013
2015
2018
2020
2022
2024
2025
2026
2025
2024
2020
2015
2009
2003
1997
1991
1987
1983
1981
1978
1976
1974
1973
1972
1972
1972
1972
1973
1973
1973
1972
1972
1971
1970
1970
1970
1970
1971
1971
1971
1971
1970
1970
1970
1970
1970
1971
1972
1973
1973
1973
1973
1973
1973
1973
1974
1975
1975
1975
1975
1975
1975
1974
1974
1974
1974
1974
1975
1975
1975
1975
1975
1974
1974
1973
1974
1974
1974
1975
1975
1975
1975
1975
1975
1976
1976
1977
1977
1978
1978
1978
1978
1977
1977
1977
1976
1976
1975
1975
1975
1976
1977
1978
1978
1979
1980
1981
1983
1984
1985
1985
1985
1984
1983
1982
1982
1982
1982
1982
1981
1981
1981
1980
1980
1980
1982
1984
1983
1978
1969
1959
1952
1957
1977
2014
2065
2122
2170
2192
2177
2126
2055
1989
1946
1932
1939
1955
1967
1972
1972
1972
1973
1974
1975
1975
1976
1976
1977
1979
1979
1980
1980
1980
1980
1980
1981
1982
1983
1984
1985
1985
1986
1986
1986
1987
1988
1990
1992
1994
1995
1997
1999
2000
2003
2006
2009
2012
2015
2018
2020
2022
2024
2024
2025
2025
2024
2022
2019
2014
2009
2003
1997
1992
1987
1984
1981
1979
1979
1978
1978
1978
1977
1977
1976
1976
1976
1977
1977
1978
1978
1978
1978
1977
1977
1976
1977
1977
1978
1978
1979
1978
1978
1977
1977
1977
1977
1978
1979
1979
1979
1979
1979
1979
1979
1979
1979
1980
1980
1981
1981
1981
1980
1980
1979
1979
1979
1980
1981
1981
1981
1981
1981
1981
1980
1980
1981
1981
1982
1982
1983
1983
1982
1982
1981
1981
1982
1982
1982
1983
1983
1983
1982
1982
1981
1981
1980
1980
1980
1981
1982
1983
1984
1985
1985
1986
1986
1987
1988
1988
1988
1987
1987
1986
1984
1983
1982
1981
1982
1982
1982
1982
1982
1982
1983
1984
1985
1982
1976
1967
1958
1955
1966
1993
2036
2090
2145
2183
2190
2159
2097
2026
1967
1935
1932
1944
1960
1969
1971
1971
1972
1973
1974
1975
1975
1975
1976
1977
1978
1979
1980
1980
1980
1980
1980
1981
1982
1983
1984
1985
1985
1985
1986
1986
1986
1987
1989
1990
1992
1994
1996
1998
2000
2002
2005
2007
2010
2013
2016
2018
2020
2022
2022
2023
2022
2020
2018
2014
2010
2005
2000
1995
1990
1985
1982
1980
1978
1978
1978
1978
1978
1978
1978
1977
1977
1976
1977
1977
1977
1978
1978
1978
1978
1977
1977
1977
1977
1977
1978
1979
1979
1979
1979
1978
1978
1977
1978
1979
1979
1980
1980
1980
1980
1979
1978
1978
1979
1979
1980
1980
1981
1980
1980
1979
1979
1979
1979
1979
1980
1980
1980
1980
1979
1979
1979
1979
1980
1980
1981
1981
1981
1981
1980
1979
1979
1979
1980
1981
1981
1981
1981
1981
1981
1980
1980
1980
1980
1980
1980
1980
1980
1979
1977
1976
1976
1976
1977
1979
1981
1982
1983
1984
1984
1984
1983
1983
1983
1983
1983
1984
1984
1983
1981
1980
1978
1978
1978
1979
1979
1980
1982
1983
1982
1977
1968
1958
1951
1954
1974
2010
2060
2117
2166
2189
2176
2127
2056
1988
1942
1926
1933
1949
1962
1967
1966
1966
1967
1969
1971
1972
1973
1973
1973
1973
1973
1974
1974
1975
1975
1976
1977
1976
1976
1976
1977
1977
1978
1979
1980
1980
1981
1982
1983
1984
1986
1988
1990
1992
1996
1999
2002
2005
2008
2010
2012
2013
2015
2018
2019
2020
2019
2017
2013
2008
2002
1996
1990
1985
1981
1977
1974
1971
1968
1966
1965
1965
1965
1966
1966
1966
1966
1965
1965
1965
1965
1965
1965
1966
1967
1967
1967
1967
1967
1966
1967
1967
1968
1969
1970
1970
1971
1971
1971
1971
1971
1970
1971
1971
1972
1972
1973
1972
1972
1971
1970
1969
1969
1969
1969
1970
1970
1970
1970
1969
1969
1969
1969
1970
1971
1971
1972
1972
1972
1972
1972
1972
1972
1973
1973
1974
1974
1974
1974
1973
1972
1971
1971
1972
1973
1974
1976
1977
1977
1977
1977
1978
1979
1980
1981
1981
1981
1980
1979
1978
1977
1976
1976
1976
1977
1978
1978
1978
1978
1978
1979
1979
1976
1968
1958
1950
1951
1968
2002
2051
2108
2158
2183
2171
2122
2052
1983
1936
1919
1926
1943
1958
1965
1967
1967
1969
1971
1972
1973
1973
1973
1974
1975
1977
1978
1979
1980
1980
1980
1980
1981
1981
1982
1983
1984
1985
1986
1987
1988
1988
1989
1990
1991
1993
1996
1998
2001
2003
2006
2008
2011
2014
2016
2019
2022
2024
2025
2026
2026
2024
2022
2018
2013
2008
2002
1996
1991
1986
1981
1978
1975
1973
1972
1972
1972
1972
1973
1973
1972
1971
1971
1970
1970
1971
1971
1971
1971
1971
1971
1970
1970
1970
1971
1971
1972
1972
1972
1973
1973
1973
1973
1973
1974
1974
1975
1976
1976
1976
1976
1976
1975
1975
1976
1977
1977
1977
1977
1977
1977
1976
1976
1976
1976
1977
1977
1978
1978
1977
1977
1977
1976
1976
1977
1977
1978
1979
1979
1979
1979
1978
1978
1978
1978
1979
1980
1980
1980
1980
1979
1978
1977
1976
1976
1977
1979
1981
1982
1983
1983
1983
1983
1984
1985
1986
1986
1986
1985
1984
1983
1982
1981
1981
1981
1982
1983
1983
1983
1983
1984
1984
1983
1978
1970
1960
1954
1959
1979
2015
2063
2119
2167
2191
2179
2130
2061
1994
1948
1932
1937
1952
1963
1968
1968
1969
1970
1972
1973
1974
1974
1974
1974
1975
1975
1976
1977
1978
1978
1978
1978
1978
1978
1979
1980
1981
1982
1983
1984
1984
1984
1985
1985
1986
1988
1991
1994
1996
1999
2001
2003
2005
2007
2010
2012
2015
2017
2019
2020
2020
2019
2016
2012
2008
2002
1997
1992
1987
1983
1979
1976
1973
1971
1970
1969
1969
1969
1969
1969
1969
1969
1968
1968
1967
1967
1968
1968
1968
1968
1968
1968
1967
1966
1966
1966
1966
1967
1968
1968
1968
1968
1967
1966
1966
1966
1966
1967
1968
1968
1968
1968
1967
1966
1966
1966
1967
1969
1973
1976
1979
1980
1981
1981
1982
1982
1982
1983
1983
1983
1983
1983
1982
1982
1982
1982
1982
1983
1983
1983
1983
1983
1982
1982
1982
1982
1982
1982
1982
1982
1981
1981
1981
1982
1983
1984
1985
1985
1986
1986
1987
1987
1986
1985
1985
1984
1984
1983
1983
1982
1981
1980
1979
1979
1978
1978
1980
1982
1983
1982
1976
1967
1956
1949
1954
1976
2014
2065
2122
2168
2188
2171
2118
2047
1980
1937
1924
1933
1948
1960
1964
1964
1964
1964
1965
1966
1967
1968
1969
1970
1971
1971
1970
1970
1970
1971
1971
1972
1973
1973
1972
1972
1972
1972
1973
1974
1975
1976
1977
1979
1980
1981
1982
1983
1985
1988
1991
1995
1998
2000
2003
2004
2005
2007
2008
2008
2008
2008
2005
2002
1997
1991
1985
1979
1973
1969
1966
1963
1961
1960
1958
1957
1955
1955
1955
1956
1957
1957
1958
1958
1957
1957
1956
1956
1956
1956
1957
1957
1958
1958
1957
1957
1956
1956
1956
1957
1958
1959
1959
1960
1959
1959
1959
1958
1959
1959
1960
1961
1961
1962
1962
1962
1962
1961
1962
1962
1963
1963
1964
1964
1964
1963
1963
1962
1962
1963
1963
1964
1965
1965
1964
1964
1963
1962
1962
1963
1964
1964
1965
1965
1964
1964
1963
1963
1963
1962
1962
1962
1962
1961
1961
1962
1963
1964
1965
1965
1966
1966
1967
1968
1968
1968
1967
1965
1964
1963
1963
1963
1963
1962
1958
1951
1945
1939
1936
1935
1936
1936
1932
1923
1913
1906
1909
1928
1964
2015
2072
2121
2143
2128
2075
2003
1933
1888
1874
1883
1900
1914
1919
1919
1918
1919
1920
1921
1922
1922
1923
1923
1924
1925
1925
1926
1926
1926
1927
1928
1929
1930
1932
1932
1933
1933
1933
1934
1936
1938
1940
1942
1944
1946
1948
1950
1953
1957
1960
1963
1967
1971
1974
1978
1981
1984
1986
1986
1986
1985
1984
1981
1977
1971
1965
1959
1952
1947
1942
1939
1937
1936
1935
1935
1935
1935
1934
1934
1934
1934
1934
1935
1936
1936
1936
1935
1935
1935
1935
1935
1936
1937
1938
1938
1938
1938
1938
1938
1938
1939
1939
1940
1941
1941
1942
1942
1942
1943
1944
1945
1945
1946
1946
1947
1947
1947
1947
1946
1946
1946
1947
1947
1948
1948
1948
1948
1947
1947
1947
1948
1948
1949
1950
1950
1950
1950
1950
1950
1949
1949
1948
1947
1947
1947
1946
1946
1947
1947
1947
1948
1948
1950
1951
1951
1951
1951
1950
1949
1949
1949
1949
1949
1949
1950
1950
1950
1950
1951
1952
1954
1956
1955
1951
1942
1931
1925
1931
1954
1994
2048
2106
2152
2169
2146
2089
2016
1951
1913
1904
1917
1934
1947
1951
1951
1951
1952
1954
1955
1957
1958
1959
1960
1961
1962
1963
1963
1964
1964
1965
1966
1967
1969
1970
1970
1971
1971
1971
1972
1973
1974
1976
1978
1980
1983
1984
1986
1988
1990
1993
1996
2000
2004
2007
2010
2012
2014
2015
2015
2015
2014
2011
2008
2003
1997
1991
1985
1980
1976
1972
1970
1969
1968
1968
1968
1967
1967
1967
1967
1967
1967
1967
1968
1968
1968
1968
1968
1968
1967
1967
1968
1968
1969
1970
1970
1970
1970
1969
1969
1970
1970
1971
1972
1973
1974
1974
1974
1974
1974
1974
1974
1975
1976
1976
1976
1976
1976
1975
1975
1975
1976
1976
1977
1977
1977
1977
1977
1977
1976
1976
1977
1978
1978
1979
1979
1979
1979
1979
1979
1978
1979
1979
1979
1980
1981
1981
1980
1980
1979
1979
1978
1978
1978
1979
1980
1981
1982
1983
1983
1984
1985
1986
1987
1988
1988
1987
1986
1985
1984
1984
1983
1983
1984
1984
1985
1985
1984
1984
1986
1987
1987
1982
1974
1965
1958
1962
1981
2016
2064
2120
2169
2194
2184
2137
2068
2001
1954
1936
1942
1957
1970
1977
1978
1978
1979
1980
1981
1982
1982
1983
1984
1985
1986
1986
1987
1987
1988
1988
1988
1988
1989
1990
1991
1992
1992
1993
1994
1994
1995
1996
1997
1999
2001
2003
2005
2007
2009
2011
2013
2016
2019
2022
2025
2027
2029
2032
2035
2036
2036
2033
2028
2023
2017
2011
2006
2001
1996
1991
1988
1986
1985
1984
1984
1984
1984
1983
1981
1980
1980
1982
1985
1989
1993
1996
1997
1997
1997
1997
1997
1997
1997
1998
1998
1998
1999
1999
1998
1998
1998
1998
1998
1998
1999
1999
2000
1999
1998
1998
1997
1997
1997
1997
1998
1998
1998
1997
1996
1996
1995
1995
1995
1995
1996
1996
1996
1995
1995
1994
1993
1993
1993
1994
1994
1995
1995
1994
1994
1993
1993
1993
1993
1994
1994
1995
1995
1995
1994
1994
1993
1992
1992
1992
1992
1993
1995
1996
1997
1998
1999
2000
2001
2002
2003
2003
2003
2003
2002
2001
2000
1999
1999
1999
2000
2001
2001
2001
2000
2000
2001
2002
2002
1998
1991
1981
1974
1976
1994
2028
2076
2133
2184
2210
2201
2155
2085
2017
1969
1950
1955
1970
1983
1989
1990
1990
1991
1992
1992
1993
1993
1994
1994
1995
1996
1997
1997
1997
1997
1997
1997
1997
1997
1997
1998
1999
2000
2001
2001
2001
2001
2001
2002
2003
2005
2007
2009
2010
2012
2013
2015
2017
2020
2023
2026
2028
2030
2031
2031
2030
2029
2027
2023
2018
2012
2007
2001
1995
1990
1985
1982
1979
1977
1976
1976
1975
1974
1973
1972
1971
1970
1970
1970
1970
1970
1970
1970
1970
1969
1968
1967
1967
1967
1968
1969
1970
1970
1970
1969
1969
1968
1969
1969
1970
1971
1972
1971
1971
1970
1969
1969
1970
1970
1971
1971
1972
1972
1972
1972
1972
1971
1971
1972
1972
1973
1974
1975
1975
1975
1974
1974
1973
1973
1973
1974
1974
1975
1974
1974
1973
1972
1972
1971
1971
1970
1970
1970
1969
1968
1966
1965
1964
1965
1966
1968
1970
1971
1972
1972
1972
1973
1974
1974
1975
1975
1975
1975
1974
1974
1973
1973
1973
1972
1970
1967
1963
1960
1958
1957
1957
1954
1947
1937
1929
1927
1940
1970
2017
2073
2127
2161
2161
2121
2054
1982
1926
1900
1901
1917
1934
1944
1946
1947
1948
1950
1953
1955
1956
1957
1957
1958
1959
1960
1961
1963
1964
1965
1965
1965
1965
1966
1966
1967
1968
1970
1971
1972
1973
1974
1975
1976
1977
1979
1982
1985
1988
1991
1994
1996
1999
2002
2005
2008
2010
2013
2015
2016
2015
2013
2009
2004
1998
1991
1985
1980
1975
1971
1967
1964
1961
1959
1958
1958
1958
1958
1958
1958
1958
1957
1957
1957
1956
1956
1957
1958
1958
1958
1958
1958
1957
1957
1957
1958
1958
1959
1960
1961
1961
1961
1962
1962
1963
1964
1965
1965
1966
1966
1966
1966
1966
1965
1965
1965
1965
1966
1966
1966
1965
1965
1964
1964
1964
1964
1965
1965
1965
1965
1965
1965
1965
1965
1965
1965
1966
1967
1968
1968
1968
1968
1967
1967
1966
1966
1966
1966
1967
1968
1968
1969
1970
1970
1970
1971
1972
1974
1975
1975
1975
1974
1973
1972
1971
1970
1970
1970
1970
1971
1970
1969
1968
1969
1972
1977
1980
1978
1972
1963
1958
1965
1989
2029
2081
2138
2181
2195
2172
2115
2043
1980
1943
1935
1946
1962
1974
1977
1977
1978
1979
1980
1981
1981
1981
1982
1984
1985
1986
1987
1987
1987
1987
1987
1987
1988
1989
1990
1991
1992
1992
1993
1993
1994
1994
1995
1997
1999
2001
2003
2005
2007
2009
2011
2014
2016
2019
2022
2025
2028
2029
2031
2031
2030
2029
2026
2022
2018
2012
2007
2001
1996
1991
1988
1985
1983
1982
1981
1981
1981
1982
1982
1981
1981
1980
1980
1980
1980
1981
1981
1981
1981
1980
1980
1980
1980
1981
1982
1982
1983
1983
1983
1983
1983
1983
1984
1985
1986
1986
1987
1987
1987
1987
1987
1987
1987
1988
1988
1988
1988
1988
1988
1987
1987
1987
1987
1988
1988
1989
1990
1990
1989
1989
1989
1989
1990
1991
1992
1992
1993
1993
1992
1992
1992
1992
1993
1994
1994
1993
1993
1992
1991
1992
1993
1994
1996
1997
1997
1997
1998
1998
1998
1998
1997
1996
1996
1995
1994
1994
1993
1992
1991
1990
1990
1989
1988
1989
1990
1991
1988
1981
1971
1962
1959
1969
1996
2039
2092
2147
2186
2195
2165
2104
2033
1973
1940
1935
1948
1964
1974
1976
1975
1975
1976
1978
1979
1980
1981
1982
1983
1983
1983
1983
1983
1983
1983
1984
1985
1986
1987
1987
1988
1988
1988
1988
1989
1990
1992
1994
1995
1996
1998
1999
2000
2002
2006
2009
2013
2017
2020
2023
2025
2026
2028
2029
2030
2031
2030
2027
2023
2017
2010
2004
1998
1993
1989
1986
1984
1982
1980
1979
1978
1977
1976
1976
1976
1976
1976
1976
1976
1976
1976
1975
1974
1974
1974
1974
1975
1975
1975
1974
1974
1973
1972
1972
1972
1973
1973
1974
1975
1975
1975
1974
1974
1975
1975
1975
1976
1977
1977
1977
1977
1976
1976
1975
1975
1975
1976
1976
1976
1975
1975
1974
1973
1972
1972
1973
1973
1973
1973
1973
1973
1973
1973
1973
1973
1973
1974
1973
1973
1972
1971
1970
1970
1971
1973
1974
1975
1976
1976
1976
1976
1976
1976
1976
1976
1975
1975
1973
1972
1970
1969
1969
1968
1968
1968
1968
1969
1970
1971
1970
1965
1955
1945
1939
1946
1970
2011
2065
2123
2168
2183
2159
2101
2028
1963
1925
1917
1929
1947
1958
1962
1961
1961
1962
1964
1966
1968
1969
1970
1970
1970
1970
1971
1971
1971
1972
1972
1973
1973
1974
1974
1974
1975
1975
1975
1975
1976
1977
1978
1979
1980
1980
1982
1984
1986
1989
1993
1997
2001
2004
2007
2009
2011
2013
2014
2016
2016
2016
2013
2009
2003
1996
1989
1982
1977
1973
1970
1968
1966
1964
1963
1961
1961
1960
1960
1961
1961
1961
1961
1961
1961
1961
1961
1961
1961
1962
1962
1962
1963
1963
1963
1963
1963
1963
1964
1965
1966
1967
1968
1968
1968
1968
1968
1968
1968
1969
1970
1971
1972
1973
1974
1973
1973
1973
1973
1973
1974
1974
1974
1975
1975
1974
1975
1975
1975
1976
1977
1977
1978
1978
1977
1976
1976
1975
1976
1977
1979
1981
1982
1983
1983
1983
1983
1983
1984
1985
1985
1986
1985
1985
1984
1983
1982
1981
1981
1981
1982
1982
1983
1983
1983
1984
1985
1983
1978
1968
1958
1954
1964
1992
2037
2094
2150
2187
2188
2150
2082
2009
1951
1924
1925
1941
1958
1969
1972
1972
1974
1975
1977
1979
1980
1981
1981
1982
1983
1984
1985
1986
1986
1987
1987
1987
1988
1989
1990
1991
1993
1994
1995
1995
1996
1997
1998
1999
2001
2003
2006
2008
2011
2014
2016
2019
2022
2025
2028
2031
2033
2035
2037
2037
2036
2033
2029
2024
2019
2013
2007
2001
1995
1991
1987
1984
1982
1980
1980
1980
1980
1981
1981
1981
1981
1980
1980
1980
1980
1980
1981
1982
1982
1982
1982
1982
1982
1982
1982
1983
1984
1984
1984
1984
1984
1984
1984
1984
1985
1985
1986
1987
1987
1987
1987
1986
1986
1986
1986
1987
1988
1988
1989
1988
1988
1987
1987
1987
1987
1988
1988
1989
1989
1989
1989
1989
1989
1989
1989
1990
1991
1991
1990
1989
1988
1987
1987
1988
1990
1991
1993
1993
1994
1994
1994
1994
1993
1993
1993
1992
1992
1992
1991
1990
1989
1989
1988
1988
1988
1989
1989
1991
1991
1989
1983
1974
1963
1957
1963
1986
2025
2078
2135
2181
2198
2178
2122
2050
1985
1944
1933
1943
1959
1970
1973
1972
1971
1972
1974
1975
1976
1977
1978
1979
1979
1979
1979
1980
1980
1981
1983
1984
1985
1985
1985
1985
1985
1986
1987
1988
1990
1992
1993
1994
1996
1997
1998
2000
2002
2006
2009
2013
2016
2019
2021
2023
2025
2026
2028
2029
2030
2029
2027
2022
2017
2010
2004
1998
1994
1990
1987
1985
1983
1982
1981
1980
1979
1979
1979
1979
1979
1980
1980
1980
1980
1979
1978
1978
1977
1977
1978
1979
1980
1980
1980
1980
1979
1979
1979
1980
1981
1982
1983
1983
1983
1982
1982
1982
1983
1983
1984
1985
1985
1985
1985
1986
1986
1986
1987
1988
1989
1990
1990
1991
1991
1991
1991
1992
1993
1994
1995
1997
1997
1998
1998
1998
1997
1997
1997
1997
1997
1997
1998
1999
2000
2002
2003
2003
2004
2005
2006
2007
2007
2007
2006
2006
2005
2004
2004
2003
2003
2003
2003
2003
2002
2001
2001
2001
2003
2004
2002
1996
1986
1975
1971
1980
2005
2048
2102
2158
2200
2211
2183
2123
2049
1987
1951
1944
1956
1972
1983
1986
1986
1987
1988
1989
1990
1991
1991
1992
1992
1993
1993
1993
1993
1993
1993
1994
1994
1995
1996
1997
1998
1998
1998
1998
1999
1999
2001
2002
2004
2006
2008
2009
2011
2013
2016
2018
2022
2025
2028
2031
2034
2035
2037
2038
2038
2037
2036
2033
2028
2023
2017
2011
2005
1999
1994
1991
1988
1987
1986
1985
1984
1984
1983
1982
1982
1981
1981
1982
1982
1983
1983
1982
1982
1981
1980
1980
1980
1980
1980
1981
1981
1981
1980
1980
1980
1980
1980
1980
1980
1981
1981
1980
1979
1978
1978
1977
1977
1977
1978
1978
1978
1978
1977
1976
1976
1975
1975
1975
1975
1975
1975
1975
1974
1972
1971
1969
1969
1968
1969
1969
1969
1969
1968
1966
1965
1965
1965
1966
1966
1967
1967
1967
1966
1964
1962
1961
1961
1962
1964
1965
1967
1967
1967
1966
1966
1966
1967
1967
1967
1967
1966
1964
1963
1961
1959
1958
1958
1958
1958
1958
1957
1956
1956
1957
1956
1951
1942
1930
1921
1920
1935
1967
2014
2070
2120
2147
2138
2092
2022
1949
1898
1877
1882
1897
1911
1917
1918
1918
1920
1923
1926
1928
1929
1929
1928
1927
1926
1926
1926
1927
1928
1929
1929
1929
1928
1928
1929
1930
1931
1933
1935
1936
1937
1938
1939
1939
1940
1941
1943
1947
1951
1956
1960
1963
1967
1970
1972
1975
1978
1980
1982
1982
1980
1978
1974
1969
1963
1956
1949
1943
1937
1933
1929
1926
1923
1921
1920
1921
1921
1922
1922
1922
1922
1922
1922
1922
1922
1922
1923
1923
1923
1923
1922
1921
1920
1920
1921
1923
1926
1929
1930
1931
1932
1932
1933
1934
1935
1937
1939
1939
1939
1940
1942
1944
1945
1943
1939
1933
1928
1924
1923
1923
1923
1924
1926
1928
1932
1937
1942
1947
1951
1953
1952
1948
1942
1937
1934
1934
1935
1936
1936
1936
1935
1935
1936
1938
1940
1942
1943
1945
1946
1946
1947
1948
1950
1952
1953
1954
1955
1955
1955
1955
1955
1955
1955
1955
1955
1954
1953
1952
1952
1953
1951
1946
1936
1922
1912
1912
1929
1964
2016
2072
2118
2135
2112
2054
1980
1912
1870
1859
1869
1887
1901
1907
1907
1908
1909
1912
1915
1918
1921
1924
1927
1929
1931
1932
1933
1935
1936
1937
1938
1939
1940
1941
1943
1946
1949
1954
1959
1963
1966
1967
1966
1965
1965
1964
1965
1967
1970
1976
1982
1988
1992
1996
1999
2003
2007
2010
2013
2013
2012
2009
2004
1998
1991
1985
1980
1976
1973
1971
1968
1965
1963
1962
1962
1963
1964
1964
1965
1966
1967
1967
1966
1965
1965
1964
1965
1965
1966
1967
1967
1967
1966
1966
1965
1965
1966
1967
1968
1969
1969
1969
1968
1968
1967
1967
1968
1968
1969
1969
1969
1969
1968
1968
1967
1967
1966
1967
1967
1967
1967
1966
1965
1964
1964
1965
1966
1967
1967
1966
1964
1963
1963
1963
1963
1963
1963
1964
1964
1964
1964
1964
1963
1961
1961
1961
1961
1962
1962
1961
1960
1958
1956
1955
1954
1955
1957
1959
1960
1961
1962
1961
1961
1961
1962
1963
1964
1965
1964
1962
1959
1957
1956
1955
1956
1956
1956
1957
1957
1958
1958
1955
1949
1940
1930
1924
1930
1950
1987
2037
2092
2138
2160
2145
2095
2026
1960
1917
1902
1908
1922
1932
1935
1934
1933
1934
1935
1936
1937
1937
1937
1936
1935
1934
1934
1934
1934
1935
1936
1936
1935
1935
1934
1935
1936
1937
1938
1939
1939
1939
1939
1939
1939
1941
1942
1944
1946
1948
1951
1954
1957
1960
1962
1963
1965
1966
1968
1970
1971
1970
1968
1963
1957
1950
1943
1937
1933
1930
1928
1925
1920
1915
1911
1908
1907
1907
1908
1908
1906
1904
1901
1899
1897
1897
1897
1897
1897
1897
1896
1895
1895
1895
1894
1891
1889
1888
1888
1889
1888
1886
1883
1878
1874
1871
1869
1867
1864
1862
1860
1858
1858
1857
1855
1852
1849
1846
1846
1848
1851
1852
1853
1852
1850
1848
1846
1845
1845
1846
1846
1847
1847
1846
1846
1845
1844
1843
1844
1845
1846
1847
1848
1848
1848
1848
1849
1848
1847
1846
1844
1843
1843
1845
1847
1850
1852
1853
1854
1856
1857
1858
1859
1859
1858
1858
1858
1858
1858
1859
1858
1857
1857
1856
1855
1853
1852
1851
1852
1853
1854
1852
1846
1836
1827
1825
1837
1866
1909
1964
2017
2055
2064
2037
1980
1911
1853
1822
1817
1830
1847
1858
1862
1863
1864
1865
1867
1870
1872
1874
1876
1878
1880
1881
1881
1881
1883
1885
1888
1890
1893
1894
1896
1897
1899
1901
1903
1904
1906
1908
1913
1917
1921
1925
1927
1928
1930
1932
1936
1941
1947
1952
1957
1960
1962
1964
1966
1968
1970
1971
1971
1969
1964
1958
1951
1946
1942
1940
1938
1937
1936
1935
1935
1934
1933
1932
1933
1933
1935
1937
1939
1941
1941
1941
1940
1939
1939
1940
1941
1942
1943
1943
1944
1945
1947
1949
1952
1953
1954
1955
1954
1953
1953
1953
1954
1955
1956
1957
1958
1958
1959
1959
1958
1958
1959
1960
1961
1963
1964
1965
1965
1964
1964
1963
1964
1965
1967
1969
1971
1973
1975
1976
1976
1975
1973
1971
1970
1970
1971
1972
1973
1974
1975
1975
1975
1975
1974
1974
1974
1976
1977
1978
1977
1976
1974
1973
1973
1974
1976
1978
1980
1981
1982
1981
1980
1979
1979
1979
1979
1979
1979
1979
1978
1977
1975
1973
1973
1975
1979
1983
1986
1987
1985
1980
1973
1964
1957
1960
1978
2011
2058
2113
2162
2188
2181
2137
2071
2005
1957
1938
1943
1958
1972
1979
1980
1981
1983
1985
1987
1988
1987
1986
1985
1985
1987
1990
1992
1994
1994
1994
1993
1992
1993
1994
1997
1998
2000
2000
2001
2002
2004
2007
2009
2012
2014
2016
2018
2019
2020
2022
2025
2029
2033
2037
2040
2043
2046
2047
2048
2048
2049
2049
2048
2045
2039
2032
2025
2018
2014
2012
2011
2011
2010
2010
2009
2008
2007
2007
2006
2007
2007
2008
2008
2008
2009
2009
2010
2009
2008
2007
2006
2006
2006
2007
2007
2007
2007
2007
2007
2007
2007
2006
2005
2004
2003
2002
2002
2001
2001
2001
2001
2000
1999
1998
1997
1997
1997
1997
1998
1998
1998
1997
1996
1994
1993
1992
1991
1992
1992
1993
1994
1994
1994
1994
1993
1993
1992
1992
1991
1991
1991
1992
1993
1994
1993
1992
1991
1991
1991
1991
1991
1991
1991
1991
1991
1991
1991
1992
1992
1993
1995
1996
1996
1996
1994
1993
1991
1990
1990
1989
1988
1987
1986
1985
1984
1984
1984
1985
1986
1987
1985
1979
1971
1962
1957
1963
1983
2019
2067
2119
2161
2177
2158
2106
2040
1977
1938
1927
1936
1952
1964
1969
1969
1969
1969
1968
1968
1967
1967
1968
1969
1970
1971
1970
1968
1967
1966
1967
1969
1971
1972
1973
1973
1974
1974
1974
1974
1975
1976
1976
1976
1976
1977
1980
1984
1988
1991
1993
1995
1997
2001
2005
2008
2009
2010
2010
2010
2011
2011
2010
2007
2003
1998
1993
1987
1981
1976
1971
1968
1966
1965
1965
1965
1964
1963
1960
1959
1958
1958
1960
1962
1962
1962
1961
1960
1960
1960
1961
1960
1959
1959
1959
1960
1961
1961
1962
1963
1964
1966
1968
1968
1968
1967
1967
1966
1966
1966
1967
1968
1969
1970
1970
1969
1968
1967
1967
1966
1965
1965
1965
1967
1969
1970
1971
1970
1968
1966
1964
1964
1964
1965
1966
1967
1967
1967
1967
1966
1966
1967
1969
1971
1972
1971
1970
1969
1969
1970
1972
1973
1974
1974
1975
1977
1978
1978
1978
1978
1977
1977
1976
1974
1973
1972
1972
1973
1974
1976
1977
1977
1978
1979
1978
1974
1966
1955
1947
1948
1964
1998
2045
2099
2147
2172
2163
2119
2053
1989
1943
1925
1930
1946
1960
1967
1968
1967
1966
1967
1968
1969
1971
1973
1975
1976
1976
1975
1975
1974
1975
1975
1976
1978
1979
1980
1980
1980
1980
1981
1981
1982
1984
1985
1986
1988
1989
1991
1993
1995
1998
2001
2004
2007
2008
2010
2012
2015
2018
2021
2023
2024
2024
2023
2020
2016
2011
2005
1998
1992
1987
1982
1979
1976
1975
1973
1972
1970
1969
1968
1967
1966
1967
1968
1970
1971
1970
1968
1966
1965
1965
1967
1968
1970
1970
1969
1968
1967
1967
1967
1968
1968
1968
1968
1968
1967
1967
1966
1965
1964
1964
1965
1965
1966
1966
1965
1965
1964
1964
1964
1965
1966
1967
1967
1967
1967
1967
1967
1967
1966
1966
1966
1966
1966
1965
1966
1967
1969
1971
1973
1973
1974
1973
1974
1974
1974
1974
1975
1974
1974
1974
1974
1973
1971
1969
1967
1967
1967
1969
1970
1972
1973
1973
1970
1963
1954
1946
1946
1960
1992
2039
2093
2142
2167
2156
2110
2042
1975
1929
1912
1919
1935
1950
1957
1958
1958
1960
1961
1962
1963
1962
1962
1963
1965
1967
1970
1972
1973
1974
1973
1972
1971
1971
1972
1973
1975
1976
1977
1977
1978
1979
1981
1983
1985
1987
1988
1990
1991
1992
1994
1995
1996
1998
2001
2005
2009
2011
2013
2012
2011
2010
2008
2005
2001
1996
1990
1984
1978
1972
1967
1963
1960
1958
1956
1955
1955
1955
1956
1956
1956
1955
1954
1953
1954
1955
1955
1955
1955
1954
1954
1955
1955
1956
1956
1956
1957
1957
1957
1958
1958
1959
1960
1961
1962
1963
1963
1963
1963
1963
1963
1963
1963
1962
1962
1962
1962
1961
1960
1958
1957
1957
1960
1963
1967
1969
1968
1965
1962
1959
1958
1960
1963
1965
1967
1968
1968
1968
1967
1967
1967
1968
1969
1970
1971
1971
1971
1971
1971
1970
1968
1967
1967
1966
1966
1966
1965
1964
1964
1966
1969
1971
1970
1964
1954
1943
1938
1944
1966
2003
2053
2109
2155
2175
2158
2106
2038
1975
1935
1923
1930
1944
1954
1957
1959
1961
1964
1966
1966
1963
1960
1959
1959
1962
1966
1969
1971
1970
1969
1968
1969
1971
1972
1973
1974
1975
1976
1977
1977
1977
1977
1978
1982
1985
1989
1992
1993
1994
1995
1997
2000
2004
2008
2013
2018
2021
2023
2024
2024
2024
2023
2022
2019
2016
2011
2006
2000
1996
1992
1990
1988
1986
1984
1982
1981
1981
1983
1986
1988
1989
1988
1987
1988
1990
1994
1997
1999
1999
1999
1999
1999
1999
1999
2000
2000
2001
2002
2002
2002
2002
2003
2003
2004
2004
2005
2004
2003
2002
2001
2001
2001
2003
2004
2005
2006
2005
2005
2005
2005
2005
2005
2004
2004
2004
2004
2004
2003
2003
2004
2005
2006
2007
2007
2007
2007
2007
2006
2005
2004
2004
2005
2007
2009
2011
2013
2014
2014
2015
2015
2014
2013
2013
2012
2012
2012
2012
2011
2010
2008
2007
2008
2009
2010
2011
2012
2012
2010
2006
1999
1989
1981
1982
1996
2027
2072
2126
2177
2207
2204
2164
2099
2031
1980
1958
1960
1975
1988
1994
1994
1993
1994
1996
1998
1999
1999
1999
1999
1999
1999
1999
1999
1999
1999
2000
2002
2003
2005
2006
2006
2006
2006
2006
2006
2007
2007
2008
2008
2009
2010
2013
2015
2018
2020
2022
2025
2029
2033
2036
2038
2038
2039
2039
2040
2041
2042
2041
2039
2035
2030
2024
2019
2015
2013
2011
2008
2006
2003
2001
2000
2000
1999
1998
1998
1999
2001
2002
2004
2003
2002
2000
1998
1996
1995
1995
1995
1996
1997
1997
1996
1995
1993
1991
1990
1989
1989
1988
1988
1987
1987
1985
1982
1980
1977
1976
1976
1977
1977
1976
1976
1976
1976
1976
1975
1975
1976
1977
1977
1978
1979
1979
1980
1980
1979
1979
1978
1978
1978
1978
1979
1979
1979
1979
1979
1978
1978
1978
1978
1977
1976
1973
1971
1970
1969
1968
1968
1967
1965
1963
1961
1961
1961
1963
1966
1968
1968
1964
1956
1944
1935
1936
1954
1989
2038
2090
2133
2150
2132
2082
2016
1955
1916
1904
1912
1928
1941
1945
1945
1944
1944
1945
1948
1950
1952
1953
1954
1955
1955
1955
1955
1955
1955
1955
1957
1958
1960
1961
1963
1963
1963
1962
1962
1962
1964
1966
1968
1970
1971
1972
1974
1976
1980
1983
1987
1991
1996
1999
2002
2004
2005
2005
2005
2004
2003
2001
1998
1993
1987
1980
1973
1967
1962
1959
1957
1955
1952
1950
1947
1946
1946
1948
1950
1951
1950
1948
1946
1944
1944
1945
1947
1949
1950
1949
1948
1946
1946
1946
1947
1948
1949
1949
1950
1950
1950
1951
1952
1953
1955
1956
1955
1953
1951
1950
1951
1954
1956
1958
1957
1956
1955
1955
1955
1956
1956
1955
1955
1956
1956
1957
1957
1957
1956
1955
1955
1955
1957
1959
1961
1963
1964
1963
1963
1962
1962
1963
1963
1964
1964
1962
1960
1958
1956
1955
1955
1955
1955
1956
1957
1959
1960
1960
1956
1947
1935
1926
1926
1940
1972
2019
2073
2123
2151
2147
2107
2044
1976
1925
1902
1903
1916
1929
1937
1939
1939
1940
1941
1943
1944
1945
1945
1944
1944
1944
1944
1946
1948
1950
1950
1950
1950
1950
1950
1951
1953
1955
1957
1959
1960
1961
1963
1964
1966
1969
1971
1973
1976
1979
1983
1986
1990
1994
1996
1998
2001
2003
2006
2008
2009
2008
2005
2001
1996
1991
1985
1981
1976
1971
1967
1962
1959
1956
1955
1956
1957
1959
1961
1961
1961
1961
1961
1961
1962
1962
1963
1963
1964
1965
1965
1966
1966
1965
1963
1962
1962
1962
1963
1965
1966
1968
1968
1969
1969
1969
1970
1970
1970
1971
1972
1972
1971
1970
1970
1969
1969
1970
1972
1973
1974
1974
1973
1972
1971
1971
1971
1971
1970
1969
1968
1967
1967
1968
1969
1971
1972
1973
1973
1973
1973
1973
1973
1973
1973
1973
1973
1973
1972
1972
1971
1971
1970
1970
1969
1969
1970
1972
1973
1970
1963
1953
1944
1943
1956
1987
2032
2086
2138
2171
2172
2135
2073
2005
1953
1928
1930
1944
1958
1965
1965
1964
1964
1965
1966
1967
1968
1969
1969
1970
1971
1971
1972
1972
1972
1972
1972
1972
1974
1975
1977
1979
1980
1980
1980
1979
1978
1979
1981
1984
1986
1988
1989
1990
1992
1994
1998
2002
2005
2008
2009
2009
2009
2009
2009
2011
2012
2013
2012
2008
2002
1994
1988
1982
1978
1975
1973
1970
1967
1965
1964
1963
1963
1963
1963
1964
1964
1964
1963
1963
1963
1963
1962
1961
1960
1960
1962
1964
1966
1966
1964
1963
1961
1960
1960
1962
1964
1965
1966
1965
1965
1965
1965
1966
1966
1966
1965
1965
1965
1965
1965
1964
1964
1963
1964
1964
1965
1965
1965
1965
1964
1964
1964
1964
1964
1964
1964
1965
1966
1967
1968
1969
1969
1969
1969
1970
1971
1972
1973
1972
1971
1969
1967
1967
1967
1968
1970
1970
1970
1970
1969
1969
1971
1972
1972
1969
1962
1952
1943
1944
1960
1993
2041
2096
2144
2170
2161
2117
2053
1990
1945
1927
1932
1946
1958
1963
1963
1964
1966
1970
1972
1972
1972
1972
1972
1974
1976
1979
1981
1983
1985
1985
1985
1984
1984
1984
1985
1986
1987
1989
1990
1990
1990
1990
1989
1990
1991
1993
1996
1999
2002
2005
2008
2009
2010
2010
2011
2012
2015
2017
2019
2019
2019
2016
2012
2007
2000
1994
1988
1983
1979
1975
1971
1967
1964
1963
1963
1964
1965
1965
1964
1963
1962
1962
1961
1960
1958
1957
1957
1956
1956
1955
1953
1952
1951
1950
1951
1952
1953
1953
1954
1954
1954
1952
1951
1951
1951
1952
1953
1953
1953
1951
1949
1947
1946
1947
1947
1947
1947
1947
1947
1947
1947
1947
1947
1947
1947
1947
1947
1946
1945
1944
1943
1944
1945
1946
1947
1949
1949
1949
1948
1947
1947
1948
1950
1952
1953
1953
1953
1951
1949
1947
1946
1946
1948
1950
1952
1952
1952
1951
1950
1947
1941
1932
1924
1921
1932
1959
2003
2055
2108
2142
2145
2111
2050
1982
1928
1900
1899
1912
1927
1936
1938
1939
1940
1941
1942
1943
1943
1944
1945
1946
1947
1946
1946
1946
1946
1947
1948
1950
1952
1954
1955
1956
1957
1958
1959
1961
1964
1966
1968
1970
1970
1971
1972
1975
1978
1982
1986
1989
1991
1992
1994
1995
1997
1999
2001
2001
2001
1999
1996
1991
1984
1977
1969
1963
1958
1954
1951
1949
1947
1946
1946
1945
1945
1945
1946
1947
1949
1949
1949
1948
1947
1947
1947
1948
1949
1949
1949
1949
1949
1950
1951
1951
1951
1951
1952
1953
1955
1956
1957
1957
1957
1957
1956
1956
1956
1957
1958
1960
1961
1961
1960
1960
1959
1958
1958
1959
1961
1962
1962
1963
1963
1965
1967
1969
1971
1971
1971
1970
1970
1970
1970
1969
1968
1968
1968
1969
1969
1969
1969
1969
1968
1967
1967
1966
1967
1970
1972
1973
1969
1962
1953
1949
1959
1988
2036
2096
2153
2189
2187
2146
2077
2007
1957
1937
1943
1961
1976
1984
1984
1984
1986
1989
1992
1995
1997
1999
2001
2003
2006
2008
2010
2012
2013
2014
2015
2017
2019
2020
2022
2023
2024
2027
2030
2034
2040
2045
2050
2054
2058
2062
2065
2068
2072
2076
2081
2085
2090
2094
2098
2102
2105
2108
2110
2112
2112
2110
2107
2103
2098
2092
2087
2081
2075
2070
2066
2064
2062
2059
2055
2051
2048
2045
2043
2042
2041
2041
2041
2043
2045
2047
2048
2048
2048
2048
2048
2048
2048
2048
2048
2048
2046
2044
2043
2042
2042
2042
2042
2042
2041
2039
2038
2037
2036
2036
2035
2034
2033
2031
2030
2029
2027
2025
2023
2021
2019
2019
2019
2019
2018
2017
2016
2014
2012
2010
2008
2005
2004
2003
2003
2003
2002
2000
1998
1997
1996
1995
1994
1992
1989
1986
1983
1979
1976
1972
1969
1966
1964
1962
1959
1957
1955
1954
1955
1955
1952
1945
1933
1922
1917
1925
1950
1992
2048
2109
2155
2170
2145
2087
2016
1955
1919
1911
1919
1932
1940
1941
1941
1942
1943
1944
1945
1945
1945
1945
1946
1947
1948
1950
1950
1951
1951
1952
1953
1954
1955
1956
1958
1959
1961
1962
1963
1963
1964
1966
1968
1970
1972
1974
1976
1978
1980
1983
1986
1989
1991
1994
1997
1999
2001
2002
2003
2002
2000
1998
1994
1990
1986
1981
1976
1972
1968
1965
1962
1960
1960
1960
1961
1962
1962
1961
1961
1960
1960
1960
1961
1962
1963
1963
1963
1963
1962
1962
1962
1963
1964
1964
1964
1964
1964
1964
1964
1963
1963
1963
1963
1963
1963
1964
1965
1966
1967
1967
1966
1966
1966
1966
1966
1966
1966
1965
1965
1966
1966
1966
1967
1968
1969
1969
1969
1968
1967
1966
1967
1968
1970
1972
1973
1975
1976
1976
1976
1976
1975
1975
1974
1974
1974
1974
1974
1973
1972
1971
1971
1970
1970
1971
1973
1974
1974
1970
1963
1951
1941
1937
1947
1974
2019
2076
2135
2177
2187
2157
2096
2026
1967
1935
1930
1940
1953
1959
1959
1958
1958
1959
1961
1962
1963
1963
1964
1965
1966
1966
1965
1965
1965
1965
1965
1966
1967
1968
1969
1969
1970
1970
1971
1971
1971
1972
1974
1976
1978
1980
1982
1983
1984
1986
1988
1992
1995
1998
1999
2000
2001
2002
2004
2005
2005
2004
2000
1996
1991
1985
1980
1975
1971
1968
1965
1964
1963
1962
1961
1961
1960
1960
1960
1960
1961
1962
1962
1961
1960
1960
1960
1960
1960
1961
1962
1963
1963
1963
1963
1962
1962
1961
1962
1962
1963
1964
1964
1965
1965
1965
1965
1966
1967
1968
1969
1969
1969
1969
1969
1969
1969
1969
1969
1969
1970
1970
1971
1970
1969
1968
1968
1968
1968
1968
1968
1968
1968
1968
1968
1967
1965
1964
1963
1963
1964
1965
1966
1967
1967
1967
1967
1968
1969
1970
1971
1971
1970
1969
1968
1967
1966
1965
1965
1965
1966
1966
1967
1967
1966
1966
1967
1966
1963
1956
1945
1936
1933
1942
1969
2012
2067
2124
2166
2176
2147
2086
2015
1956
1925
1920
1931
1944
1951
1951
1950
1950
1952
1953
1955
1955
1955
1955
1956
1956
1957
1956
1956
1956
1957
1958
1959
1960
1962
1963
1964
1964
1964
1964
1964
1964
1965
1966
1968
1970
1972
1974
1976
1979
1981
1983
1985
1987
1990
1993
1996
1998
2000
2002
2001
2001
1999
1997
1993
1989
1983
1978
1972
1967
1963
1959
1956
1955
1954
1953
1953
1953
1953
1952
1952
1952
1952
1953
1954
1954
1955
1955
1955
1955
1955
1954
1954
1953
1953
1953
1954
1955
1955
1955
1955
1955
1954
1954
1955
1956
1956
1957
1957
1957
1956
1956
1956
1956
1956
1957
1958
1959
1959
1958
1957
1957
1957
1958
1958
1959
1959
1960
1960
1961
1961
1961
1960
1960
1959
1960
1961
1962
1963
1962
1961
1960
1959
1959
1960
1961
1962
1963
1964
1965
1965
1966
1966
1967
1968
1969
1970
1970
1971
1970
1970
1969
1969
1968
1968
1968
1969
1970
1970
1971
1971
1972
1974
1973
1969
1961
1951
1944
1947
1965
2002
2053
2112
2160
2181
2163
2110
2041
1977
1937
1926
1935
1951
1962
1966
1965
1965
1965
1967
1969
1971
1972
1972
1973
1973
1974
1975
1975
1975
1975
1975
1976
1976
1976
1976
1977
1979
1981
1982
1983
1984
1984
1984
1984
1986
1988
1990
1993
1996
1998
2001
2004
2006
2008
2010
2012
2014
2017
2019
2020
2020
2018
2014
2010
2005
2000
1995
1990
1985
1981
1977
1974
1972
1971
1970
1970
1970
1970
1970
1970
1970
1970
1971
1972
1972
1972
1973
1973
1974
1974
1974
1974
1973
1973
1975
1977
1979
1981
1981
1981
1981
1980
1979
1979
1979
1980
1982
1984
1986
1986
1986
1984
1983
1983
1983
1983
1983
1984
1984
1984
1983
1982
1981
1980
1980
1981
1982
1982
1983
1982
1981
1980
1980
1979
1979
1980
1981
1981
1981
1981
1981
1980
1979
1979
1979
1981
1983
1984
1985
1984
1982
1980
1978
1977
1977
1978
1979
1981
1982
1982
1983
1983
1984
1985
1985
1986
1986
1986
1986
1985
1984
1983
1982
1982
1982
1982
1982
1981
1981
1981
1982
1983
1984
1981
1975
1965
1955
1950
1958
1982
2022
2074
2131
2174
2189
2166
2112
2045
1986
1951
1942
1949
1961
1969
1970
1969
1969
1970
1971
1971
1971
1970
1969
1969
1970
1972
1974
1975
1975
1974
1973
1973
1974
1974
1974
1974
1974
1975
1975
1975
1975
1975
1976
1977
1978
1980
1983
1985
1988
1990
1992
1993
1994
1997
1999
2002
2005
2008
2010
2010
2009
2007
2004
2000
1996
1992
1988
1983
1979
1976
1973
1970
1968
1966
1966
1965
1965
1965
1964
1963
1961
1960
1959
1959
1958
1957
1955
1953
1951
1950
1948
1947
1946
1946
1946
1947
1947
1948
1948
1949
1949
1949
1949
1949
1949
1949
1950
1950
1949
1949
1949
1948
1948
1948
1948
1948
1948
1948
1948
1947
1946
1945
1943
1942
1943
1944
1946
1946
1945
1942
1937
1932
1929
1927
1928
1931
1934
1938
1941
1942
1941
1940
1939
1939
1939
1940
1941
1941
1941
1941
1941
1941
1941
1941
1941
1940
1940
1940
1940
1940
1941
1943
1945
1948
1949
1950
1951
1952
1953
1953
1952
1951
1950
1950
1950
1951
1951
1951
1951
1951
1951
1951
1951
1952
1954
1955
1955
1951
1943
1933
1926
1929
1947
1982
2032
2089
2138
2162
2149
2102
2035
1970
1928
1914
1921
1936
1948
1952
1952
1951
1950
1951
1951
1952
1953
1954
1955
1956
1957
1957
1957
1958
1959
1960
1961
1962
1963
1964
1965
1966
1967
1968
1969
1970
1971
1973
1975
1978
1981
1983
1984
1985
1987
1989
1993
1997
2001
2004
2006
2008
2010
2011
2011
2012
2012
2011
2009
2005
2000
1995
1990
1985
1981
1977
1975
1973
1973
1972
1972
1971
1970
1970
1969
1970
1970
1971
1971
1972
1973
1974
1974
1974
1973
1973
1972
1972
1972
1972
1972
1972
1972
1972
1972
1973
1973
1974
1975
1975
1976
1976
1977
1977
1977
1978
1979
1979
1980
1979
1979
1979
1979
1979
1980
1980
1980
1981
1981
1981
1982
1982
1983
1983
1983
1983
1984
1984
1985
1986
1987
1988
1988
1988
1988
1988
1988
1988
1989
1990
1991
1990
1989
1987
1986
1985
1985
1986
1987
1989
1990
1991
1992
1993
1993
1994
1994
1995
1995
1995
1995
1995
1995
1994
1993
1993
1993
1994
1996
1997
1998
1999
2001
2002
2000
1995
1986
1976
1970
1977
2001
2042
2095
2151
2192
2202
2174
2115
2046
1988
1956
1952
1963
1977
1986
1987
1986
1986
1988
1990
1991
1992
1991
1990
1989
1990
1991
1992
1992
1992
1992
1992
1992
1993
1994
1995
1996
1997
1998
1999
2000
2000
2001
2002
2003
2004
2005
2006
2008
2010
2013
2015
2017
2020
2023
2026
2029
2031
2032
2032
2033
2033
2032
2029
2025
2019
2012
2005
2000
1996
1992
1989
1986
1982
1980
1978
1977
1976
1976
1976
1976
1976
1976
1975
1973
1972
1971
1971
1972
1973
1973
1972
1971
1970
1969
1970
1971
1972
1972
1973
1973
1973
1973
1973
1972
1972
1972
1972
1972
1973
1973
1973
1972
1971
1971
1970
1970
1971
1971
1971
1971
1970
1969
1968
1967
1967
1967
1967
1967
1968
1968
1967
1967
1966
1965
1964
1965
1965
1965
1965
1963
1963
1962
1963
1964
1965
1965
1965
1965
1965
1965
1965
1965
1965
1964
1963
1963
1962
1962
1961
1960
1959
1958
1958
1958
1958
1958
1959
1961
1961
1957
1948
1936
1926
1925
1939
1970
2017
2073
2125
2156
2151
2110
2046
1978
1930
1911
1916
1931
1944
1950
1949
1946
1945
1945
1946
1948
1950
1951
1953
1954
1954
1954
1953
1953
1953
1953
1954
1956
1957
1958
1958
1958
1957
1957
1957
1958
1960
1962
1963
1965
1966
1967
1968
1970
1972
1975
1978
1982
1985
1987
1988
1989
1989
1991
1992
1993
1993
1992
1989
1984
1978
1971
1965
1959
1954
1950
1948
1947
1946
1946
1946
1945
1944
1943
1942
1942
1942
1942
1943
1944
1944
1944
1943
1942
1942
1942
1943
1943
1943
1942
1941
1941
1941
1941
1941
1941
1941
1942
1943
1943
1944
1943
1943
1943
1943
1943
1943
1943
1943
1943
1942
1941
1940
1940
1940
1940
1941
1941
1941
1941
1941
1941
1941
1941
1942
1942
1942
1943
1943
1943
1942
1942
1941
1940
1940
1939
1939
1939
1939
1939
1939
1940
1941
1942
1944
1945
1946
1947
1948
1949
1949
1949
1948
1948
1947
1946
1945
1945
1945
1945
1946
1946
1947
1947
1949
1951
1950
1946
1938
1928
1919
1920
1934
1966
2012
2066
2118
2150
2148
2111
2048
1983
1933
1911
1912
1924
1936
1941
1941
1941
1942
1942
1943
1943
1943
1945
1946
1948
1949
1948
1948
1947
1947
1948
1949
1950
1951
1953
1954
1955
1955
1955
1955
1956
1957
1959
1961
1962
1964
1966
1968
1970
1972
1974
1977
1979
1981
1984
1986
1989
1992
1995
1996
1997
1996
1994
1991
1987
1982
1976
1971
1966
1961
1958
1956
1954
1954
1954
1954
1954
1954
1953
1953
1953
1953
1953
1954
1955
1956
1956
1955
1954
1953
1953
1954
1954
1955
1956
1958
1959
1960
1960
1960
1959
1959
1959
1960
1961
1961
1961
1961
1961
1961
1961
1962
1962
1962
1962
1963
1963
1964
1963
1963
1962
1963
1963
1964
1964
1965
1965
1966
1966
1965
1965
1964
1963
1963
1964
1965
1967
1967
1967
1967
1966
1965
1965
1966
1968
1970
1971
1972
1972
1972
1972
1973
1973
1974
1974
1973
1973
1972
1971
1971
1971
1971
1972
1973
1974
1974
1974
1974
1975
1975
1972
1964
1954
1945
1943
1955
1984
2029
2083
2137
2171
2173
2137
2074
2007
1956
1932
1932
1944
1956
1962
1962
1961
1962
1964
1965
1965
1965
1965
1965
1965
1966
1967
1968
1969
1969
1970
1970
1970
1970
1971
1971
1972
1973
1974
1975
1976
1977
1978
1979
1980
1982
1984
1987
1990
1993
1996
1998
2000
2002
2005
2007
2009
2011
2014
2016
2017
2016
2014
2010
2005
1999
1993
1988
1983
1979
1976
1974
1971
1969
1967
1966
1965
1966
1966
1967
1967
1967
1967
1967
1967
1966
1966
1966
1967
1967
1967
1967
1967
1966
1967
1967
1968
1969
1970
1970
1971
1970
1970
1969
1969
1968
1968
1968
1968
1969
1970
1971
1971
1970
1969
1968
1969
1970
1971
1972
1973
1973
1972
1972
1971
1971
1971
1972
1973
1975
1976
1976
1976
1975
1973
1972
1972
1973
1974
1977
1979
1981
1982
1982
1981
1981
1981
1982
1984
1986
1986
1986
1985
1984
1984
1983
1984
1984
1985
1985
1986
1986
1987
1989
1991
1990
1986
1977
1965
1957
1959
1977
2014
2066
2126
2174
2193
2173
2118
2048
1984
1946
1937
1948
1964
1975
1978
1978
1978
1979
1981
1982
1981
1980
1980
1981
1983
1985
1987
1988
1988
1987
1987
1987
1987
1988
1988
1990
1991
1992
1993
1994
1995
1997
1998
2000
2001
2002
2005
2008
2011
2015
2017
2020
2022
2026
2029
2033
2035
2037
2038
2038
2037
2036
2033
2029
2023
2017
2010
2003
1997
1992
1987
1983
1980
1979
1979
1980
1981
1981
1981
1980
1978
1977
1977
1977
1977
1977
1977
1977
1977
1978
1978
1978
1978
1978
1978
1980
1981
1982
1983
1982
1982
1982
1982
1983
1983
1983
1984
1984
1984
1984
1984
1983
1982
1983
1984
1985
1986
1985
1984
1984
1983
1983
1983
1982
1981
1980
1980
1982
1984
1985
1985
1983
1981
1979
1979
1981
1984
1987
1989
1989
1988
1988
1987
1988
1988
1990
1992
1994
1995
1996
1995
1994
1993
1992
1992
1993
1993
1993
1993
1992
1992
1993
1994
1991
1984
1974
1964
1960
1970
1997
2040
2093
2146
2183
2189
2158
2099
2032
1977
1947
1942
1953
1965
1973
1973
1972
1972
1972
1973
1973
1972
1970
1968
1966
1966
1967
1968
1969
1968
1967
1964
1963
1962
1963
1965
1966
1966
1966
1966
1966
1966
1967
1967
1968
1970
1972
1974
1976
1978
1981
1984
1986
1989
1991
1994
1997
2000
2003
2005
2006
2005
2003
2000
1996
1991
1985
1980
1975
1971
1968
1965
1964
1962
1962
1962
1963
1965
1967
1969
1970
1970
1969
1969
1969
1968
1968
1968
1969
1970
1970
1971
1971
1971
1971
1972
1972
1973
1973
1973
1973
1973
1974
1974
1974
1975
1976
1977
1978
1978
1977
1976
1976
1976
1976
1978
1979
1980
1981
1981
1982
1983
1984
1984
1985
1986
1986
1986
1985
1983
1981
1980
1979
1980
1980
1981
1981
1981
1981
1981
1981
1981
1981
1981
1981
1982
1983
1985
1986
1987
1987
1987
1986
1985
1985
1984
1983
1983
1982
1981
1980
1979
1978
1976
1975
1976
1977
1978
1976
1970
1960
1950
1943
1949
1971
2010
2063
2122
2169
2188
2169
2114
2044
1980
1941
1930
1940
1955
1966
1969
1968
1968
1968
1969
1969
1970
1970
1971
1972
1973
1974
1974
1974
1973
1972
1971
1971
1972
1973
1974
1975
1975
1975
1974
1975
1976
1977
1979
1981
1983
1985
1987
1988
1990
1992
1995
1999
2002
2006
2008
2011
2013
2014
2016
2016
2017
2016
2014
2010
2005
1999
1993
1988
1983
1980
1978
1977
1978
1979
1980
1980
1979
1977
1975
1974
1974
1974
1974
1976
1978
1980
1981
1981
1979
1977
1976
1976
1976
1976
1975
1974
1973
1973
1973
1974
1975
1977
1977
1978
1978
1978
1978
1978
1978
1978
1978
1979
1980
1980
1979
1979
1978
1979
1979
1980
1980
1981
1981
1981
1982
1982
1981
1981
1981
1982
1982
1982
1983
1983
1984
1984
1985
1985
1984
1983
1982
1981
1982
1983
1984
1986
1987
1987
1987
1988
1989
1991
1992
1992
1991
1991
1990
1990
1989
1989
1989
1988
1989
1989
1989
1990
1989
1989
1990
1991
1991
1987
1979
1969
1960
1960
1974
2005
2052
2111
2165
2198
2195
2153
2087
2018
1968
1946
1949
1963
1976
1982
1982
1981
1981
1981
1982
1983
1983
1984
1984
1985
1985
1986
1986
1986
1987
1987
1988
1988
1988
1989
1990
1991
1991
1991
1992
1992
1993
1995
1997
1999
2001
2003
2005
2007
2008
2008
2008
2009
2011
2014
2017
2021
2023
2024
2024
2024
2022
2020
2017
2013
2008
2003
1997
1992
1988
1984
1981
1980
1980
1980
1980
1981
1980
1980
1980
1980
1980
1980
1980
1980
1980
1980
1979
1978
1978
1978
1979
1980
1980
1981
1981
1981
1981
1982
1981
1980
1980
1979
1980
1981
1983
1984
1984
1984
1983
1983
1982
1983
1983
1984
1984
1984
1983
1983
1983
1983
1983
1982
1982
1983
1984
1984
1985
1985
1984
1984
1983
1983
1982
1982
1983
1983
1983
1983
1983
1982
1982
1983
1984
1985
1986
1987
1987
1987
1987
1988
1988
1989
1988
1988
1987
1986
1986
1986
1985
1985
1985
1984
1984
1984
1984
1985
1986
1988
1988
1985
1978
1967
1957
1953
1963
1989
2032
2086
2141
2178
2184
2152
2091
2024
1971
1944
1943
1956
1969
1975
1975
1973
1973
1975
1976
1977
1978
1978
1977
1977
1977
1978
1978
1978
1979
1980
1981
1982
1982
1982
1982
1982
1983
1983
1984
1985
1986
1987
1987
1987
1988
1990
1992
1994
1997
1999
2002
2005
2007
2010
2012
2013
2015
2018
2020
2021
2021
2018
2014
2008
2002
1996
1990
1985
1981
1977
1974
1972
1970
1968
1967
1966
1966
1966
1967
1967
1968
1968
1968
1968
1968
1968
1967
1967
1967
1969
1970
1971
1972
1972
1972
1974
1976
1977
1977
1977
1977
1980
1986
1993
1998
1999
1996
1990
1985
1980
1977
1974
1972
1970
1969
1969
1968
1969
1969
1969
1969
1969
1968
1967
1966
1965
1965
1965
1966
1967
1967
1967
1967
1966
1965
1964
1964
1964
1964
1965
1964
1964
1964
1964
1964
1963
1961
1960
1958
1958
1960
1961
1963
1964
1964
1965
1966
1968
1969
1970
1970
1970
1969
1968
1967
1966
1966
1966
1967
1967
1967
1967
1965
1965
1965
1966
1965
1961
1952
1943
1937
1941
1960
1996
2048
2105
2155
2178
2165
2116
2049
1988
1948
1936
1943
1956
1966
1968
1967
1967
1968
1969
1971
1971
1971
1972
1973
1974
1976
1976
1976
1976
1976
1977
1977
1977
1977
1975
1974
1972
1971
1970
1970
1970
1971
1972
1973
1974
1976
1977
1979
1980
1982
1984
1987
1990
1994
1997
2001
2004
2005
2006
2006
2005
2003
1999
1995
1990
1986
1982
1979
1976
1973
1970
1967
1965
1963
1963
1962
1963
1963
1963
1963
1963
1963
1963
1963
1963
1963
1963
1963
1962
1962
1961
1961
1962
1963
1964
1965
1965
1965
1965
1966
1966
1967
1967
1968
1969
1971
1973
1974
1973
1971
1969
1968
1969
1970
1971
1971
1970
1969
1967
1966
1966
1965
1965
1965
1966
1966
1967
1967
1967
1967
1967
1967
1967
1968
1968
1969
1969
1970
1971
1971
1970
1969
1967
1966
1966
1967
1969
1970
1970
1970
1969
1969
1968
1967
1967
1966
1966
1967
1969
1970
1971
1972
1973
1974
1976
1978
1980
1980
1979
1978
1976
1975
1974
1973
1974
1974
1974
1974
1973
1972
1971
1971
1972
1974
1974
1971
1964
1955
1948
1951
1969
2004
2054
2112
2164
2192
2185
2141
2076
2012
1969
1952
1957
1971
1982
1986
1986
1985
1985
1986
1987
1987
1988
1989
1989
1988
1987
1985
1984
1983
1982
1982
1982
1983
1983
1983
1983
1982
1981
1980
1978
1977
1977
1977
1978
1980
1982
1983
1984
1986
1987
1988
1990
1992
1994
1997
2001
2004
2006
2007
2007
2007
2006
2004
2002
1998
1993
1988
1983
1979
1974
1970
1967
1965
1964
1964
1963
1963
1963
1963
1962
1962
1962
1961
1961
1962
1963
1964
1964
1964
1964
1963
1962
1961
1962
1962
1963
1964
1964
1963
1962
1962
1961
1962
1963
1964
1964
1964
1964
1964
1964
1964
1964
1964
1964
1965
1966
1967
1967
1966
1965
1965
1966
1967
1969
1970
1971
1971
1972
1972
1972
1972
1972
1973
1974
1975
1976
1976
1977
1977
1976
1976
1976
1976
1977
1978
1978
1979
1979
1978
1977
1977
1977
1977
1977
1978
1978
1979
1979
1978
1978
1978
1977
1977
1977
1978
1978
1978
1978
1977
1975
1974
1973
1974
1975
1977
1979
1980
1980
1981
1981
1981
1981
1980
1979
1978
1977
1976
1975
1974
1973
1972
1972
1973
1974
1976
1977
1978
1979
1979
1977
1973
1966
1956
1947
1945
1956
1983
2025
2078
2132
2170
2178
2148
2091
2025
1971
1943
1940
1951
1963
1969
1969
1968
1969
1970
1972
1973
1973
1973
1973
1973
1973
1974
1974
1975
1976
1977
1978
1978
1979
1979
1980
1981
1982
1983
1984
1985
1986
1986
1986
1987
1988
1990
1993
1995
1998
2000
2002
2003
2005
2008
2010
2012
2015
2017
2018
2019
2019
2018
2015
2012
2007
2002
1998
1994
1991
1987
1984
1980
1977
1975
1973
1973
1973
1974
1974
1974
1974
1974
1973
1973
1974
1974
1974
1974
1975
1975
1975
1975
1974
1973
1973
1973
1974
1975
1976
1977
1977
1976
1975
1975
1975
1975
1976
1977
1978
1979
1978
1978
1977
1976
1976
1977
1977
1978
1978
1978
1978
1978
1978
1978
1979
1979
1980
1981
1982
1983
1983
1983
1982
1982
1982
1981
1981
1982
1982
1983
1983
1983
1982
1981
1980
1980
1981
1982
1983
1983
1982
1982
1983
1983
1983
1983
1982
1981
1981
1981
1982
1982
1983
1984
1984
1985
1985
1986
1987
1988
1988
1989
1989
1988
1988
1987
1987
1986
1986
1985
1986
1986
1986
1986
1986
1987
1988
1989
1986
1979
1969
1960
1958
1970
1999
2045
2101
2154
2185
2181
2140
2073
2005
1955
1934
1939
1955
1970
1978
1979
1977
1977
1978
1979
1981
1982
1982
1983
1984
1984
1985
1985
1985
1985
1985
1986
1988
1990
1991
1992
1992
1992
1992
1992
1992
1993
1994
1996
1998
2000
2002
2003
2005
2006
2008
2011
2014
2016
2019
2021
2023
2024
2026
2026
2027
2027
2027
2025
2022
2017
2010
2003
1997
1992
1988
1985
1984
1983
1982
1981
1980
1979
1978
1978
1978
1978
1978
1979
1979
1979
1979
1979
1978
1978
1977
1978
1978
1979
1980
1981
1981
1981
1981
1980
1979
1980
1980
1982
1983
1984
1983
1982
1981
1981
1981
1982
1984
1984
1984
1984
1984
1984
1984
1984
1983
1982
1982
1983
1984
1986
1986
1984
1982
1981
1980
1981
1983
1983
1984
1983
1983
1983
1982
1982
1981
1981
1981
1982
1982
1983
1982
1982
1981
1980
1979
1979
1980
1980
1980
1979
1979
1980
1981
1983
1984
1984
1985
1985
1986
1986
1987
1986
1985
1984
1983
1983
1983
1983
1983
1983
1982
1982
1980
1980
1981
1983
1983
1981
1974
1964
1955
1952
1963
1991
2035
2089
2141
2175
2176
2140
2079
2013
1963
1940
1941
1954
1966
1973
1973
1972
1973
1973
1973
1972
1971
1971
1973
1974
1976
1978
1978
1978
1977
1977
1977
1977
1978
1979
1980
1981
1982
1982
1982
1982
1983
1983
1984
1985
1987
1988
1989
1991
1992
1995
1997
2000
2003
2006
2008
2011
2014
2015
2016
2016
2015
2014
2012
2009
2004
1998
1993
1987
1983
1979
1975
1973
1972
1971
1971
1971
1971
1970
1969
1969
1968
1968
1968
1968
1968
1969
1969
1969
1968
1968
1968
1968
1969
1969
1970
1970
1970
1969
1968
1967
1967
1967
1968
1969
1971
1972
1973
1973
1973
1972
1972
1971
1971
1972
1972
1972
1972
1972
1971
1970
1970
1970
1971
1972
1972
1973
1973
1972
1972
1972
1972
1972
1973
1973
1973
1973
1973
1973
1973
1973
1973
1973
1973
1973
1973
1973
1973
1973
1973
1974
1975
1976
1977
1978
1979
1980
1980
1980
1980
1979
1978
1978
1976
1974
1972
1970
1968
1967
1967
1966
1967
1969
1972
1974
1973
1967
1957
1946
1940
1947
1970
2009
2059
2113
2154
2167
2142
2086
2019
1960
1928
1922
1934
1949
1958
1960
1959
1958
1958
1958
1959
1961
1962
1964
1965
1966
1966
1965
1965
1965
1966
1967
1969
1971
1973
1974
1975
1975
1975
1976
1977
1978
1979
1981
1982
1984
1985
1987
1989
1991
1993
1995
1998
2002
2005
2008
2011
2012
2013
2014
2015
2016
2015
2014
2011
2007
2001
1994
1986
1978
1971
1967
1965
1965
1964
1964
1963
1962
1961
1960
1960
1960
1960
1961
1963
1963
1962
1962
1961
1960
1960
1961
1961
1962
1962
1962
1962
1962
1962
1962
1962
1962
1962
1963
1963
1962
1963
1963
1964
1965
1966
1966
1966
1966
1966
1966
1965
1965
1964
1964
1964
1965
1966
1966
1966
1966
1965
1965
1965
1964
1965
1965
1965
1965
1966
1966
1965
1965
1964
1964
1964
1966
1968
1969
1970
1970
1970
1970
1970
1971
1971
1971
1971
1971
1971
1970
1969
1968
1967
1966
1966
1966
1966
1967
1968
1969
1970
1971
1967
1960
1950
1939
1935
1944
1971
2015
2070
2125
2162
2164
2129
2066
1997
1943
1917
1917
1932
1947
1956
1956
1955
1955
1956
1958
1960
1960
1961
1961
1961
1961
1961
1962
1963
1964
1965
1966
1966
1966
1966
1966
1967
1968
1969
1970
1972
1973
1973
1973
1974
1975
1977
1980
1982
1986
1989
1992
1994
1996
1998
2000
2003
2005
2007
2009
2010
2010
2008
2005
2000
1994
1986
1980
1974
1970
1966
1963
1960
1957
1954
1953
1952
1951
1952
1953
1955
1955
1955
1954
1952
1951
1951
1951
1952
1953
1954
1954
1954
1953
1952
1952
1953
1954
1955
1956
1957
1957
1957
1956
1956
1956
1956
1957
1958
1959
1959
1959
1959
1959
1958
1958
1957
1957
1958
1958
1959
1960
1960
1959
1958
1957
1955
1955
1956
1957
1958
1959
1959
1959
1959
1959
1960
1961
1962
1964
1964
1964
1963
1962
1962
1961
1960
1960
1959
1959
1959
1960
1960
1959
1960
1961
1963
1963
1959
1951
1940
1932
1934
1952
1987
2038
2095
2143
2165
2150
2100
2033
1969
1929
1916
1924
1939
1950
1954
1954
1953
1954
1955
1956
1957
1957
1958
1958
1959
1960
1961
1962
1962
1963
1963
1963
1963
1963
1964
1965
1966
1968
1969
1969
1970
1971
1972
1973
1975
1977
1979
1982
1984
1987
1989
1992
1995
1999
2003
2006
2009
2011
2013
2014
2014
2013
2010
2006
2001
1996
1990
1984
1978
1974
1971
1969
1968
1968
1968
1968
1968
1969
1969
1968
1968
1968
1968
1969
1969
1970
1970
1970
1971
1970
1970
1970
1970
1970
1971
1972
1973
1973
1972
1972
1972
1972
1973
1974
1975
1976
1976
1976
1976
1976
1976
1976
1976
1976
1977
1977
1978
1979
1979
1978
1978
1978
1978
1979
1980
1981
1981
1981
1981
1980
1980
1980
1981
1981
1981
1981
1980
1980
1980
1980
1981
1982
1982
1983
1984
1985
1985
1986
1985
1985
1985
1985
1986
1986
1987
1986
1985
1983
1982
1981
1981
1981
1982
1983
1985
1986
1984
1978
1968
1957
1951
1957
1981
2021
2075
2132
2176
2190
2168
2113
2045
1985
1949
1941
1950
1963
1972
1974
1973
1974
1976
1978
1980
1981
1983
1984
1985
1985
1985
1985
1984
1984
1984
1985
1986
1987
1987
1988
1988
1988
1989
1988
1987
1987
1988
1989
1991
1992
1992
1991
1990
1991
1993
1996
1999
2002
2005
2008
2012
2015
2018
2019
2019
2018
2016
2015
2013
2009
2005
1999
1992
1987
1982
1978
1975
1973
1972
1972
1971
1969
1968
1966
1965
1964
1964
1965
1965
1965
1964
1963
1961
1959
1958
1958
1959
1960
1961
1961
1961
1961
1961
1962
1964
1966
1968
1969
1969
1969
1969
1969
1969
1969
1970
1970
1972
1973
1973
1973
1973
1973
1973
1974
1975
1976
1977
1978
1978
1978
1978
1978
1978
1978
1977
1977
1975
1974
1972
1971
1969
1969
1968
1969
1969
1970
1971
1972
1972
1973
1973
1973
1973
1973
1972
1972
1972
1971
1971
1971
1970
1970
1970
1969
1968
1968
1969
1971
1974
1977
1977
1972
1963
1951
1940
1938
1950
1979
2025
2080
2134
2168
2168
2132
2069
2002
1952
1928
1929
1941
1954
1960
1959
1957
1955
1956
1958
1961
1964
1966
1968
1968
1968
1967
1967
1967
1968
1970
1972
1973
1974
1973
1973
1972
1972
1973
1975
1978
1982
1985
1986
1985
1983
1982
1982
1984
1987
1992
1997
2002
2006
2008
2008
2008
2010
2013
2017
2020
2020
2017
2012
2006
2000
1994
1988
1982
1976
1972
1970
1970
1969
1968
1967
1965
1965
1965
1965
1966
1966
1965
1964
1964
1965
1966
1966
1967
1966
1966
1965
1965
1965
1965
1966
1967
1968
1970
1971
1971
1972
1972
1973
1975
1977
1979
1982
1987
1991
1996
1999
2000
2001
2001
2002
2006
2010
2016
2021
2025
2030
2034
2039
2043
2046
2048
2048
2050
2053
2058
2063
2069
2073
2075
2077
2078
2079
2081
2083
2087
2091
2095
2097
2098
2097
2096
2096
2098
2101
2105
2110
2113
2115
2116
2115
2113
2112
2113
2115
2117
2120
2123
2123
2124
2126
2129
2131
2130
2123
2113
2101
2097
2108
2139
2189
2251
2311
2347
2345
2301
2229
2152
2095
2068
2069
2082
2095
2101
2101
2100
2101
2102
2104
2104
2103
2101
2101
2101
2103
2104
2104
2103
2100
2098
2097
2097
2099
2100
2100
2099
2098
2096
2096
2097
2098
2099
2099
2099
2100
2101
2104
2106
2108
2110
2112
2114
2117
2120
2123
2126
2127
2128
2128
2128
2126
2123
2119
2113
2105
2097
2090
2083
2078
2072
2067
2062
2058
2056
2056
2056
2056
2056
2055
2053
2052
2051
2051
2050
2050
2050
2051
2051
2051
2050
2048
2044
2042
2041
2042
2043
2045
2045
2045
2044
2042
2041
2041
2042
2043
2044
2044
2044
2042
2041
2040
2040
2040
2040
2040
2040
2039
2039
2038
2037
2037
2036
2037
2037
2037
2037
2036
2035
2034
2033
2032
2032
2032
2032
2032
2032
2030
2029
2027
2026
2025
2026
2027
2028
2029
2029
2029
2029
2028
2029
2029
2029
2029
2028
2027
2026
2026
2026
2026
2025
2024
2022
2021
2021
2023
2024
2024
2020
2012
2001
1991
1988
1999
2029
2075
2135
2195
2235
2240
2204
2137
2062
2004
1975
1973
1985
1998
2004
2003
2001
2001
2001
2003
2004
2005
2006
2008
2009
2010
2010
2009
2009
2009
2010
2011
2012
2012
2012
2012
2013
2015
2016
2017
2018
2019
2021
2022
2024
2025
2025
2026
2027
2028
2030
2032
2035
2039
2043
2047
2048
2050
2051
2053
2054
2054
2052
2049
2045
2039
2032
2025
2018
2013
2008
2006
2004
2003
2003
2003
2003
2002
2002
2001
2001
2000
2001
2002
2003
2003
2003
2003
2002
2002
2002
2003
2004
2005
2005
2005
2005
2004
2004
2005
2006
2007
2007
2007
2006
2006
2005
2004
2004
2004
2005
2006
2007
2008
2008
2007
2007
2006
2006
2005
2006
2007
2008
2008
2008
2007
2005
2005
2004
2005
2006
2007
2007
2007
2007
2006
2007
2007
2008
2008
2007
2006
2005
2005
2005
2005
2005
2004
2002
2000
2000
2000
2002
2005
2006
2006
2004
2003
2002
2003
2005
2006
2007
2007
2006
2004
2002
2001
2000
2000
2000
2001
2001
2000
1999
1999
2001
2002
2001
1995
1984
1973
1965
1969
1989
2027
2079
2141
2197
2228
2221
2174
2102
2030
1977
1955
1957
1969
1981
1986
1986
1986
1987
1989
1990
1990
1989
1989
1991
1992
1994
1994
1994
1993
1992
1992
1992
1992
1992
1992
1992
1992
1993
1993
1993
1993
1993
1993
1993
1995
1997
1999
2002
2004
2007
2010
2013
2016
2019
2021
2024
2027
2031
2034
2037
2037
2036
2033
2029
2024
2019
2014
2009
2005
2001
1996
1992
1988
1985
1983
1984
1985
1986
1986
1986
1985
1984
1983
1982
1981
1982
1983
1984
1985
1985
1985
1984
1983
1982
1982
1982
1983
1983
1984
1984
1984
1984
1984
1984
1984
1984
1985
1986
1988
1989
1989
1988
1987
1985
1985
1986
1987
1988
1989
1988
1987
1987
1986
1986
1986
1987
1988
1989
1991
1991
1990
1989
1988
1988
1989
1990
1991
1992
1992
1991
1990
1988
1987
1986
1987
1988
1989
1989
1988
1987
1987
1987
1988
1988
1987
1986
1983
1981
1980
1979
1979
1981
1982
1983
1983
1983
1984
1986
1988
1989
1989
1987
1984
1982
1980
1979
1978
1978
1979
1979
1980
1980
1980
1980
1981
1983
1984
1980
1972
1961
1952
1953
1970
2006
2056
2116
2171
2202
2197
2153
2083
2012
1959
1935
1937
1950
1964
1970
1971
1971
1972
1973
1974
1974
1974
1975
1976
1977
1979
1980
1980
1980
1980
1981
1981
1982
1982
1982
1983
1984
1985
1986
1985
1985
1985
1986
1988
1990
1991
1993
1994
1996
1999
2001
2004
2007
2009
2012
2015
2018
2022
2024
2026
2026
2025
2023
2021
2018
2014
2010
2004
1997
1991
1986
1983
1981
1981
1981
1981
1980
1978
1977
1976
1976
1976
1977
1978
1979
1979
1979
1978
1978
1978
1978
1978
1978
1978
1979
1980
1980
1980
1979
1978
1977
1976
1977
1978
1980
1982
1983
1982
1981
1980
1979
1979
1979
1980
1980
1981
1981
1982
1982
1981
1980
1980
1980
1981
1982
1983
1983
1983
1983
1982
1982
1981
1981
1981
1981
1982
1983
1983
1983
1982
1982
1981
1981
1981
1981
1981
1981
1980
1980
1981
1981
1981
1982
1982
1982
1982
1982
1982
1982
1981
1980
1979
1979
1979
1979
1978
1977
1975
1973
1972
1971
1971
1972
1974
1975
1975
1975
1975
1975
1975
1974
1974
1972
1971
1970
1969
1968
1967
1967
1966
1966
1967
1967
1969
1971
1973
1973
1969
1961
1950
1943
1945
1962
1997
2046
2103
2155
2183
2175
2128
2057
1985
1933
1912
1916
1931
1945
1952
1953
1954
1955
1955
1955
1955
1953
1951
1949
1947
1946
1946
1946
1946
1946
1946
1946
1946
1945
1945
1945
1944
1942
1941
1940
1941
1944
1947
1948
1948
1946
1945
1945
1948
1953
1960
1966
1971
1974
1975
1974
1974
1973
1974
1975
1976
1976
1973
1969
1963
1955
1947
1939
1932
1926
1921
1917
1914
1912
1911
1911
1911
1911
1912
1914
1917
1921
1924
1925
1926
1927
1928
1929
1931
1933
1934
1936
1939
1942
1944
1947
1948
1950
1951
1952
1955
1957
1959
1961
1962
1962
1963
1965
1967
1969
1970
1971
1971
1972
1972
1973
1974
1974
1975
1975
1976
1976
1977
1978
1978
1978
1978
1977
1977
1977
1978
1980
1982
1983
1984
1984
1984
1983
1983
1983
1983
1984
1984
1985
1986
1987
1987
1986
1986
1986
1986
1986
1986
1986
1985
1985
1985
1986
1988
1990
1992
1992
1993
1992
1992
1992
1992
1991
1990
1989
1989
1990
1991
1990
1987
1983
1979
1978
1978
1978
1975
1970
1962
1956
1951
1947
1943
1942
1951
1976
2020
2075
2128
2157
2149
2102
2031
1958
1904
1879
1878
1889
1899
1903
1901
1899
1898
1897
1896
1896
1895
1896
1896
1896
1895
1895
1894
1895
1897
1899
1900
1901
1902
1902
1903
1903
1903
1904
1905
1907
1909
1912
1914
1916
1918
1919
1922
1925
1927
1929
1931
1932
1934
1937
1940
1943
1946
1949
1951
1953
1953
1952
1950
1946
1941
1934
1927
1921
1915
1911
1908
1906
1903
1901
1900
1899
1898
1898
1899
1899
1900
1901
1902
1902
1903
1903
1903
1902
1902
1902
1903
1904
1905
1906
1907
1908
1908
1909
1909
1909
1910
1910
1910
1910
1909
1908
1907
1906
1905
1906
1907
1909
1911
1912
1912
1912
1911
1911
1911
1912
1913
1915
1917
1918
1919
1919
1919
1919
1920
1921
1922
1923
1924
1925
1927
1928
1928
1928
1927
1928
1930
1931
1932
1932
1932
1931
1931
1932
1933
1935
1935
1936
1937
1938
1939
1939
1939
1938
1938
1938
1939
1940
1941
1942
1943
1943
1943
1942
1942
1943
1945
1948
1950
1951
1951
1950
1948
1947
1946
1946
1946
1948
1949
1950
1951
1951
1952
1951
1948
1941
1931
1922
1919
1930
1956
1998
2050
2104
2144
2156
2131
2075
2007
1948
1914
1906
1916
1929
1938
1939
1939
1939
1940
1942
1943
1943
1943
1942
1943
1943
1945
1946
1948
1949
1950
1950
1950
1950
1950
1950
1951
1952
1954
1956
1957
1959
1960
1961
1962
1963
1964
1967
1970
1973
1975
1978
1980
1982
1985
1988
1991
1994
1997
1999
2001
2001
1999
1997
1993
1989
1985
1981
1976
1971
1966
1962
1957
1954
1952
1951
1950
1950
1950
1949
1948
1948
1948
1950
1951
1953
1953
1954
1954
1954
1954
1953
1952
1951
1951
1952
1953
1954
1954
1953
1953
1954
1955
1956
1958
1959
1959
1959
1959
1959
1959
1960
1960
1961
1961
1961
1961
1963
1964
1964
1963
1961
1959
1960
1962
1965
1968
1970
1971
1970
1969
1969
1968
1968
1968
1969
1970
1970
1971
1971
1971
1971
1970
1970
1970
1971
1972
1972
1973
1973
1972
1971
1970
1969
1968
1969
1971
1973
1975
1977
1977
1977
1977
1978
1979
1980
1981
1982
1982
1983
1983
1983
1982
1981
1980
1980
1981
1982
1981
1980
1980
1980
1980
1978
1972
1962
1951
1945
1950
1972
2011
2063
2121
2168
2186
2167
2114
2046
1983
1944
1933
1940
1953
1963
1966
1965
1965
1966
1968
1970
1971
1972
1973
1974
1974
1974
1974
1975
1975
1976
1976
1977
1978
1978
1978
1978
1979
1979
1979
1980
1981
1981
1982
1982
1983
1984
1986
1990
1993
1996
1998
2000
2001
2003
2007
2010
2014
2017
2019
2020
2019
2017
2015
2011
2006
2000
1993
1987
1981
1976
1973
1969
1965
1960
1956
1952
1950
1949
1950
1949
1948
1946
1942
1938
1935
1933
1933
1933
1933
1933
1931
1930
1929
1929
1930
1930
1931
1933
1936
1938
1939
1939
1938
1936
1935
1936
1936
1936
1935
1934
1932
1931
1929
1927
1926
1926
1926
1927
1928
1927
1926
1926
1925
1924
1923
1922
1921
1919
1919
1919
1919
1919
1920
1921
1921
1921
1920
1920
1921
1921
1922
1923
1924
1925
1926
1927
1928
1929
1930
1930
1931
1931
1930
1930
1929
1929
1930
1931
1933
1934
1934
1934
1934
1934
1934
1936
1938
1939
1937
1931
1921
1911
1907
1917
1944
1989
2047
2103
2140
2142
2106
2043
1974
1922
1898
1899
1913
1928
1936
1937
1937
1937
1938
1940
1942
1944
1946
1948
1950
1951
1952
1952
1952
1952
1953
1955
1957
1960
1962
1963
1964
1964
1964
1965
1966
1968
1970
1972
1973
1975
1977
1979
1982
1985
1987
1990
1994
1998
2003
2008
2011
2014
2016
2018
2019
2019
2019
2017
2013
2008
2002
1995
1988
1982
1977
1974
1971
1970
1968
1967
1966
1965
1964
1964
1963
1964
1965
1966
1968
1968
1968
1968
1967
1966
1966
1967
1967
1968
1969
1970
1971
1971
1972
1972
1973
1973
1974
1975
1976
1978
1979
1980
1980
1980
1981
1982
1984
1985
1987
1987
1988
1989
1989
1989
1989
1988
1989
1990
1991
1992
1992
1992
1991
1991
1991
1991
1992
1994
1995
1995
1995
1995
1994
1996
1998
2002
2005
2008
2009
2008
2007
2007
2008
2009
2009
2010
2009
2009
2010
2010
2010
2010
2009
2008
2008
2008
2009
2010
2011
2013
2015
2014
2009
2000
1988
1980
1982
1998
2032
2080
2137
2187
2215
2208
2166
2101
2036
1991
1972
1976
1987
1997
1999
1998
1997
1998
2000
2002
2004
2004
2004
2003
2003
2002
2002
2002
2003
2004
2006
2007
2008
2008
2007
2007
2007
2008
2009
2010
2011
2012
2012
2013
2014
2015
2016
2017
2019
2022
2024
2027
2030
2033
2035
2037
2039
2041
2043
2045
2046
2046
2045
2042
2039
2035
2030
2025
2021
2017
2014
2011
2009
2007
2006
2006
2006
2007
2007
2007
2006
2005
2005
2004
2003
2003
2002
2001
2001
2001
2002
2003
2004
2003
2002
2001
2000
2000
2000
2000
2001
2001
2001
2001
2000
1999
1999
1999
1999
1999
1999
2000
2000
2000
2000
1999
1998
1998
1998
1998
1997
1997
1996
1995
1995
1994
1994
1994
1994
1994
1994
1993
1992
1991
1990
1989
1990
1991
1992
1992
1991
1989
1987
1986
1985
1984
1985
1986
1988
1989
1990
1989
1988
1987
1986
1985
1983
1982
1980
1979
1977
1976
1975
1974
1973
1971
1969
1966
1965
1964
1964
1962
1956
1946
1934
1924
1923
1936
1965
2011
2067
2121
2155
2155
2118
2053
1985
1932
1905
1904
1915
1926
1932
1931
1930
1929
1930
1931
1931
1932
1932
1932
1932
1932
1932
1931
1931
1930
1930
1931
1932
1933
1934
1936
1937
1938
1938
1939
1940
1941
1943
1944
1945
1946
1947
1949
1951
1954
1958
1962
1967
1971
1976
1980
1983
1986
1989
1991
1993
1994
1993
1992
1988
1983
1978
1972
1968
1964
1961
1958
1956
1954
1952
1951
1950
1950
1950
1951
1951
1952
1953
1953
1953
1953
1952
1952
1953
1955
1956
1957
1958
1959
1958
1959
1959
1959
1959
1960
1960
1961
1961
1962
1963
1963
1963
1964
1965
1966
1967
1967
1967
1967
1966
1966
1965
1965
1965
1966
1967
1968
1968
1968
1967
1966
1966
1966
1967
1968
1969
1970
1970
1971
1971
1972
1971
1971
1971
1971
1971
1971
1972
1973
1975
1976
1976
1976
1976
1977
1979
1980
1981
1981
1981
1980
1979
1978
1978
1977
1977
1978
1978
1978
1978
1978
1978
1979
1980
1979
1974
1965
1956
1950
1955
1977
2016
2068
2125
2171
2189
2169
2116
2048
1987
1949
1938
1945
1958
1966
1968
1968
1969
1971
1973
1974
1974
1974
1974
1975
1976
1977
1978
1979
1979
1979
1978
1978
1979
1980
1981
1982
1983
1983
1983
1984
1984
1984
1985
1986
1988
1990
1992
1994
1996
1998
2000
2002
2005
2008
2011
2014
2017
2019
2021
2023
2023
2022
2020
2018
2014
2010
2005
2000
1995
1990
1987
1984
1982
1982
1981
1981
1981
1981
1981
1980
1979
1979
1979
1979
1980
1981
1981
1981
1981
1981
1981
1981
1980
1980
1981
1981
1981
1982
1982
1981
1981
1981
1981
1982
1982
1982
1983
1982
1982
1982
1981
1981
1981
1982
1982
1983
1983
1983
1982
1982
1981
1981
1982
1983
1983
1984
1983
1983
1983
1984
1986
1987
1988
1988
1988
1988
1987
1987
1986
1985
1983
1982
1981
1982
1984
1987
1990
1992
1992
1992
1992
1991
1991
1991
1991
1991
1991
1991
1989
1988
1986
1984
1984
1984
1985
1986
1987
1988
1990
1989
1985
1977
1966
1956
1952
1962
1989
2033
2088
2145
2184
2192
2163
2103
2034
1978
1949
1946
1958
1971
1978
1979
1978
1979
1981
1984
1986
1988
1989
1989
1989
1990
1990
1990
1991
1993
1994
1996
1996
1995
1994
1993
1993
1993
1994
1995
1996
1997
1998
1998
1999
2000
2001
2004
2007
2009
2012
2015
2017
2020
2022
2024
2027
2029
2032
2034
2035
2034
2033
2029
2025
2020
2014
2008
2003
1999
1995
1991
1988
1985
1983
1981
1981
1981
1981
1981
1980
1980
1979
1979
1978
1978
1978
1978
1978
1978
1979
1979
1979
1978
1978
1978
1978
1979
1979
1980
1980
1981
1981
1981
1981
1981
1981
1982
1982
1983
1983
1983
1983
1982
1982
1982
1982
1983
1983
1984
1983
1982
1982
1981
1982
1982
1983
1983
1983
1984
1984
1984
1984
1984
1983
1982
1981
1980
1980
1980
1981
1982
1982
1983
1983
1983
1983
1984
1985
1986
1986
1986
1985
1984
1984
1983
1983
1982
1982
1982
1982
1982
1981
1980
1980
1981
1982
1980
1975
1965
1953
1946
1949
1970
2009
2061
2119
2164
2180
2157
2100
2030
1967
1930
1921
1930
1944
1953
1955
1954
1953
1953
1954
1954
1954
1954
1954
1954
1955
1956
1956
1957
1957
1956
1955
1955
1955
1955
1955
1956
1956
1957
1957
1958
1958
1958
1959
1959
1960
1960
1961
1963
1964
1966
1968
1971
1973
1977
1980
1983
1985
1987
1988
1988
1988
1986
1984
1980
1976
1971
1966
1960
1954
1949
1945
1942
1939
1938
1938
1939
1939
1940
1940
1939
1938
1937
1937
1937
1937
1938
1939
1940
1940
1940
1940
1939
1939
1940
1940
1941
1941
1942
1942
1943
1943
1943
1943
1944
1946
1948
1949
1950
1951
1951
1950
1950
1951
1952
1954
1955
1956
1957
1956
1956
1956
1956
1957
1958
1959
1959
1960
1960
1961
1961
1962
1963
1964
1965
1966
1967
1968
1970
1971
1971
1971
1971
1970
1970
1971
1972
1973
1975
1977
1978
1979
1981
1982
1984
1987
1988
1990
1990
1990
1990
1989
1989
1989
1990
1991
1992
1994
1995
1996
1996
1998
2000
2001
2000
1995
1986
1977
1973
1982
2007
2048
2104
2162
2207
2222
2199
2144
2075
2017
1982
1975
1985
1999
2008
2010
2010
2011
2012
2014
2015
2015
2016
2017
2019
2020
2022
2023
2023
2024
2024
2024
2024
2024
2025
2025
2026
2027
2027
2026
2026
2026
2026
2026
2027
2028
2030
2033
2035
2038
2040
2043
2045
2048
2050
2053
2056
2060
2063
2065
2066
2066
2065
2063
2060
2056
2052
2048
2043
2038
2034
2031
2028
2026
2024
2023
2023
2023
2022
2022
2022
2022
2022
2022
2022
2022
2022
2022
2022
2022
2022
2021
2021
2020
2020
2021
2022
2023
2023
2023
2022
2022
2021
2021
2021
2021
2022
2022
2022
2022
2020
2017
2016
2015
2016
2019
2021
2023
2023
2023
2023
2022
2022
2021
2021
2021
2022
2022
2023
2024
2024
2024
2024
2023
2023
2023
2023
2024
2023
2023
2022
2021
2020
2019
2019
2019
2019
2019
2018
2017
2016
2015
2015
2016
2017
2018
2018
2018
2018
2017
2016
2015
2014
2013
2013
2012
2012
2011
2010
2008
2007
2006
2005
2005
2006
2007
2010
2011
2010
2004
1993
1981
1973
1975
1994
2029
2079
2137
2186
2211
2198
2150
2082
2017
1974
1959
1964
1977
1987
1990
1989
1988
1988
1988
1989
1990
1991
1992
1992
1993
1993
1992
1992
1992
1992
1993
1993
1994
1994
1994
1994
1994
1993
1993
1994
1994
1995
1995
1996
1997
1997
1998
1998
2000
2001
2004
2008
2011
2014
2016
2016
2016
2016
2016
2017
2019
2020
2020
2018
2014
2009
2003
1998
1992
1987
1984
1980
1978
1976
1973
1971
1970
1969
1968
1968
1968
1968
1968
1968
1968
1968
1968
1968
1968
1968
1968
1969
1969
1970
1970
1970
1970
1970
1969
1970
1970
1971
1971
1971
1971
1970
1970
1970
1970
1970
1970
1971
1971
1971
1971
1971
1971
1970
1970
1970
1970
1970
1971
1971
1971
1970
1970
1970
1970
1970
1970
1970
1971
1971
1971
1971
1971
1970
1970
1970
1971
1971
1972
1972
1972
1972
1971
1970
1969
1969
1969
1969
1970
1971
1972
1973
1974
1974
1974
1975
1976
1977
1977
1977
1976
1975
1974
1973
1972
1972
1972
1972
1973
1972
1971
1970
1970
1972
1973
1971
1965
1954
1943
1937
1944
1970
2013
2068
2124
2165
2174
2145
2086
2017
1959
1927
1921
1929
1941
1947
1947
1946
1946
1946
1946
1945
1944
1941
1940
1939
1939
1939
1939
1939
1938
1938
1937
1937
1936
1936
1936
1936
1937
1937
1937
1937
1937
1936
1936
1937
1937
1938
1939
1941
1942
1943
1944
1945
1947
1949
1951
1953
1955
1956
1956
1955
1954
1952
1950
1946
1942
1938
1933
1929
1924
1920
1916
1913
1910
1909
1908
1908
1908
1908
1909
1909
1909
1908
1908
1908
1909
1910
1911
1912
1913
1914
1914
1913
1914
1915
1916
1917
1918
1918
1918
1918
1918
1919
1919
1919
1919
1920
1921
1923
1925
1926
1926
1925
1925
1926
1927
1928
1930
1930
1930
1929
1928
1928
1928
1929
1930
1931
1932
1933
1933
1934
1934
1934
1934
1934
1934
1934
1935
1936
1937
1937
1937
1936
1936
1935
1936
1937
1939
1942
1943
1944
1944
1945
1945
1947
1949
1951
1952
1953
1952
1951
1950
1949
1949
1949
1950
1952
1953
1953
1953
1953
1955
1955
1952
1945
1935
1927
1925
1939
1970
2018
2074
2126
2154
2148
2104
2038
1970
1922
1904
