2042
2043
2043
2043
2043
2044
2044
2045
2046
2047
2047
2047
2048
2048
2048
2050
2050
2050
2049
2048
2046
2046
2048
2049
2050
2049
2047
2044
2041
2040
2039
2039
2040
2040
2040
2039
2039
2039
2038
2039
2038
2038
2037
2038
2039
2040
2040
2042
2041
2039
2035
2032
2033
2037
2042
2046
2045
2042
2039
2038
2037
2040
2039
2039
2038
2038
2039
2039
2038
2038
2038
2039
2039
2040
2040
2040
2040
2040
2040
2040
2040
2039
2038
2037
2038
2040
2042
2044
2043
2041
2038
2037
2038
2038
2040
2039
2039
2039
2038
2038
2038
2038
2038
2038
2039
2039
2039
2039
2038
2038
2038
2038
2038
2036
2036
2037
2040
2040
2039
2037
2037
2039
2043
2046
2046
2043
2039
2036
2036
2037
2038
2038
2038
2038
2039
2039
2039
2038
2036
2035
2038
2046
2057
2070
2080
2083
2078
2067
2055
2046
2038
2034
2033
2033
2035
2037
2038
2038
2038
2037
2037
2037
2038
2038
2038
2038
2038
2038
2038
2038
2038
2038
2040
2039
2039
2037
2035
2035
2038
2042
2045
2046
2044
2042
2040
2039
2042
2041
2042
2042
2043
2043
2044
2045
2046
2046
2047
2047
2047
2048
2048
2048
2048
2049
2049
2049
2048
2046
2044
2044
2045
2047
2048
2046
2044
2041
2038
2039
2038
2039
2039
2038
2039
2038
2039
2039
2039
2039
2039
2039
2039
2039
2038
2036
2038
2039
2039
2038
2035
2033
2033
2037
2042
2045
2044
2041
2038
2035
2035
2037
2037
2038
2038
2038
2038
2038
2039
2038
2038
2038
2037
2037
2038
2038
2039
2040
2040
2040
2038
2036
2035
2036
2039
2042
2044
2044
2041
2039
2037
2038
2038
2038
2038
2038
2038
2038
2039
2039
2039
2039
2038
2038
2038
2038
2040
2040
2040
2042
2040
2038
2035
2033
2034
2039
2044
2047
2046
2043
2040
2037
2038
2041
2040
2039
2039
2038
2038
2039
2039
2039
2039
2039
2039
2039
2039
2040
2039
2039
2039
2037
2035
2035
2039
2049
2064
2080
2088
2087
2075
2059
2044
2033
2032
2032
2034
2036
2037
2038
2038
2038
2037
2037
2038
2038
2039
2038
2038
2038
2037
2038
2037
2037
2036
2035
2036
2038
2042
2044
2044
2043
2040
2039
2037
2039
2040
2040
2041
2041
2041
2041
2042
2042
2042
2043
2043
2045
2046
2046
2046
2046
2047
2047
2048
2048
2047
2046
2045
2047
2048
2049
2048
2046
2043
2041
2040
2039
2039
2038
2037
2036
2036
2035
2036
2035
2035
2035
2035
2035
2035
2034
2035
2034
2036
2035
2035
2032
2031
2031
2034
2037
2040
2041
2040
2038
2037
2034
2036
2035
2035
2036
2036
2036
2036
2036
2036
2036
2037
2037
2037
2036
2036
2035
2035
2037
2037
2037
2035
2033
2032
2033
2035
2038
2040
2039
2037
2035
2033
2034
2034
2035
2034
2034
2035
2035
2036
2036
2036
2036
2035
2036
2035
2035
2035
2034
2036
2037
2036
2034
2031
2029
2030
2035
2040
2044
2043
2040
2037
2034
2033
2034
2034
2034
2035
2036
2036
2036
2036
2035
2035
2035
2035
2034
2032
2031
2032
2039
2050
2064
2076
2081
2077
2067
2055
2045
2038
2034
2032
2031
2030
2032
2033
2034
2036
2035
2035
2035
2036
2036
2035
2035
2035
2035
2035
2036
2038
2039
2040
2042
2040
2038
2033
2029
2030
2036
2044
2049
2050
2048
2044
2041
2041
2044
2044
2045
2044
2044
2044
2046
2046
2047
2048
2048
2049
2049
2050
2050
2050
2050
2050
2050
2050
2048
2046
2043
2043
2045
2047
2048
2044
2040
2038
2035
2036
2037
2038
2038
2036
2036
2034
2035
2035
2037
2037
2037
2038
2036
2035
2034
2034
2036
2037
2039
2037
2034
2032
2033
2036
2040
2044
2042
2040
2036
2034
2036
2037
2039
2039
2038
2038
2039
2039
2038
2038
2036
2036
2037
2039
2041
2041
2040
2040
2039
2040
2038
2037
2036
2036
2039
2043
2045
2045
2043
2040
2038
2037
2038
2039
2040
2039
2040
2040
2040
2041
2041
2041
2041
2041
2041
2040
2040
2040
2040
2042
2042
2041
2038
2036
2035
2039
2044
2048
2048
2046
2041
2037
2037
2046
2057
2071
2083
2089
2086
2075
2061
2048
2039
2034
2035
2036
2038
2039
2039
2040
2042
2042
2041
2039
2036
2035
2037
2042
2047
2048
2048
2044
2040
2037
2038
2038
2039
2040
2041
2043
2043
2043
2043
2042
2041
2041
2041
2043
2043
2045
2043
2045
2047
2048
2046
2044
2042
2043
2048
2055
2059
2060
2056
2052
2049
2048
2050
2051
2050
2050
2048
2048
2048
2046
2043
2039
2037
2037
2041
2046
2048
2046
2043
2039
2037
2037
2036
2035
2035
2037
2041
2044
2044
2043
2040
2039
2039
2039
2039
2039
2038
2040
2042
2043
2043
2042
2039
2038
2037
2038
2039
2041
2042
2043
2044
2043
2041
2038
2035
2035
2038
2044
2048
2048
2046
2042
2039
2038
2040
2041
2041
2040
2040
2039
2040
2040
2039
2040
2040
2040
2041
2041
2040
2040
2040
2040
2041
2041
2039
2038
2037
2037
2040
2043
2045
2044
2042
2040
2038
2039
2038
2038
2037
2037
2038
2039
2039
2038
2038
2038
2040
2042
2042
2042
2040
2038
2038
2040
2042
2041
2039
2038
2037
2040
2043
2045
2045
2043
2040
2039
2040
2041
2041
2038
2037
2040
2048
2062
2078
2088
2089
2081
2067
2054
2044
2039
2037
2037
2040
2042
2041
2039
2037
2036
2039
2042
2045
2045
2043
2041
2039
2039
2040
2041
2041
2041
2041
2041
2041
2042
2042
2043
2044
2044
2044
2044
2043
2041
2041
2041
2041
2042
2040
2039
2040
2043
2047
2049
2050
2050
2048
2048
2047
2048
2049
2049
2049
2049
2050
2050
2050
2050
2049
2048
2047
2046
2045
2044
2043
2042
2043
2043
2042
2038
2035
2034
2036
2040
2045
2047
2046
2043
2039
2037
2038
2039
2039
2039
2039
2039
2039
2039
2039
2039
2039
2039
2039
2039
2039
2039
2038
2039
2041
2040
2038
2035
2033
2034
2039
2044
2047
2046
2043
2039
2037
2036
2038
2038
2038
2038
2039
2039
2040
2040
2039
2039
2039
2038
2038
2038
2038
2038
2039
2039
2039
2038
2036
2035
2036
2039
2041
2043
2043
2040
2039
2036
2037
2037
2037
2038
2038
2038
2038
2038
2037
2037
2037
2037
2037
2037
2037
2039
2038
2040
2040
2039
2037
2034
2033
2033
2036
2040
2044
2044
2042
2038
2035
2036
2038
2039
2041
2041
2040
2039
2039
2038
2039
2038
2038
2038
2038
2038
2038
2037
2039
2040
2041
2039
2035
2031
2029
2033
2044
2058
2074
2084
2087
2082
2070
2058
2047
2038
2033
2032
2034
2036
2038
2038
2037
2037
2036
2037
2037
2037
2037
2037
2038
2038
2038
2037
2035
2035
2037
2039
2042
2043
2042
2040
2038
2038
2039
2039
2039
2039
2039
2039
2040
2040
2040
2040
2041
2042
2043
2045
2046
2047
2047
2046
2047
2048
2048
2047
2047
2046
2047
2049
2051
2051
2049
2048
2045
2044
2043
2043
2043
2041
2040
2040
2040
2040
2039
2039
2038
2037
2037
2037
2037
2037
2037
2038
2038
2038
2036
2035
2035
2037
2040
2042
2042
2041
2038
2037
2036
2037
2037
2037
2037
2037
2037
2038
2038
2038
2037
2037
2037
2037
2037
2036
2036
2036
2038
2038
2039
2037
2035
2034
2034
2037
2040
2042
2041
2039
2038
2036
2037
2036
2037
2036
2036
2036
2036
2037
2037
2037
2037
2036
2036
2036
2036
2036
2036
2038
2038
2037
2036
2033
2032
2033
2036
2040
2042
2041
2039
2036
2035
2035
2035
2036
2036
2036
2036
2036
2036
2036
2037
2037
2037
2037
2037
2037
2037
2037
2037
2038
2037
2035
2033
2031
2032
2036
2041
2044
2044
2042
2039
2035
2033
2032
2033
2037
2047
2060
2074
2083
2084
2075
2061
2047
2037
2031
2031
2032
2034
2035
2036
2037
2036
2035
2033
2033
2035
2038
2040
2042
2041
2038
2036
2035
2036
2037
2038
2039
2039
2039
2039
2038
2038
2039
2039
2040
2040
2040
2040
2041
2040
2042
2042
2042
2041
2040
2040
2042
2046
2049
2051
2051
2049
2048
2046
2048
2048
2049
2049
2048
2049
2048
2048
2047
2046
2045
2044
2043
2042
2041
2040
2037
2038
2037
2036
2034
2032
2031
2033
2038
2042
2044
2042
2039
2036
2033
2034
2035
2035
2036
2036
2036
2037
2037
2036
2036
2037
2037
2038
2038
2038
2038
2037
2038
2038
2039
2036
2036
2036
2037
2037
2036
2036
2037
2039
2042
2044
2044
2041
2038
2035
2036
2037
2039
2039
2039
2039
2039
2039
2039
2039
2039
2039
2037
2039
2040
2039
2039
2036
2034
2034
2036
2040
2043
2044
2042
2040
2037
2037
2038
2038
2039
2039
2039
2039
2039
2040
2040
2040
2040
2040
2040
2039
2039
2037
2038
2039
2039
2039
2037
2035
2036
2037
2040
2041
2041
2041
2046
2056
2069
2083
2087
2083
2071
2056
2044
2036
2032
2032
2033
2035
2037
2038
2038
2038
2038
2037
2039
2039
2039
2038
2035
2034
2036
2039
2044
2045
2045
2043
2040
2039
2039
2040
2041
2041
2041
2041
2042
2042
2042
2042
2042
2043
2043
2044
2045
2046
2047
2047
2048
2048
2048
2046
2045
2046
2049
2054
2058
2059
2057
2054
2051
2050
2050
2050
2049
2048
2047
2046
2045
2044
2043
2042
2041
2041
2041
2042
2042
2041
2040
2041
2041
2040
2039
2037
2037
2038
2042
2045
2045
2044
2042
2040
2038
2038
2039
2040
2041
2042
2042
2041
2040
2040
2040
2041
2041
2041
2040
2040
2041
2041
2043
2042
2041
2038
2035
2035
2037
2042
2046
2048
2046
2042
2039
2036
2039
2039
2040
2040
2040
2040
2040
2040
2040
2040
2040
2040
2040
2040
2040
2041
2040
2040
2040
2039
2039
2038
2038
2039
2040
2042
2042
2042
2040
2038
2038
2038
2039
2039
2039
2039
2038
2038
2038
2038
2038
2038
2038
2039
2040
2041
2041
2041
2040
2039
2039
2038
2038
2037
2037
2038
2039
2040
2041
2040
2039
2038
2038
2037
2036
2035
2036
2042
2052
2065
2079
2086
2085
2076
2062
2048
2038
2032
2032
2034
2037
2037
2037
2035
2034
2034
2036
2039
2041
2041
2040
2037
2036
2035
2037
2037
2037
2037
2037
2038
2038
2038
2039
2039
2039
2039
2039
2039
2039
2039
2039
2041
2041
2042
2040
2039
2039
2040
2043
2047
2049
2049
2048
2048
2046
2048
2048
2048
2048
2048
2048
2048
2048
2048
2048
2046
2045
2044
2043
2042
2041
2039
2040
2040
2039
2038
2035
2033
2034
2036
2040
2042
2042
2040
2037
2036
2036
2036
2037
2037
2038
2038
2038
2037
2037
2038
2037
2038
2037
2037
2037
2038
2038
2038
2039
2038
2035
2033
2031
2033
2037
2042
2045
2044
2041
2038
2035
2036
2037
2037
2037
2037
2037
2038
2038
2038
2038
2038
2037
2037
2038
2039
2040
2039
2039
2040
2039
2037
2035
2033
2034
2036
2040
2043
2043
2041
2039
2036
2036
2037
2037
2038
2038
2040
2040
2040
2039
2039
2039
2038
2039
2038
2038
2039
2039
2039
2040
2040
2038
2036
2034
2034
2038
2043
2047
2048
2045
2042
2038
2036
2038
2038
2039
2039
2039
2040
2040
2040
2040
2039
2038
2036
2036
2039
2047
2058
2071
2083
2087
2082
2069
2052
2040
2033
2033
2037
2040
2041
2040
2037
2037
2037
2037
2038
2037
2037
2037
2037
2037
2038
2038
2038
2038
2038
2040
2040
2041
2041
2040
2039
2039
2038
2038
2037
2038
2040
2043
2045
2045
2044
2042
2041
2041
2042
2043
2044
2044
2044
2045
2046
2047
2047
2047
2048
2048
2048
2048
2048
2048
2048
2048
2048
2047
2044
2042
2040
2040
2042
2044
2044
2041
2038
2036
2035
2036
2036
2037
2036
2036
2036
2036
2036
2037
2037
2037
2036
2036
2036
2036
2036
2036
2037
2037
2037
2035
2033
2033
2033
2036
2039
2041
2040
2038
2037
2035
2037
2036
2036
2036
2035
2036
2036
2036
2036
2037
2037
2036
2036
2036
2036
2036
2035
2037
2038
2038
2037
2034
2033
2033
2036
2040
2041
2041
2039
2036
2035
2035
2035
2036
2036
2037
2037
2037
2037
2036
2036
2036
2036
2036
2036
2036
2036
2037
2036
2038
2038
2036
2034
2033
2034
2037
2042
2045
2044
2042
2039
2036
2036
2037
2037
2038
2037
2038
2039
2040
2038
2034
2030
2029
2033
2042
2055
2069
2080
2086
2084
2076
2062
2048
2036
2029
2029
2033
2037
2039
2040
2038
2038
2036
2037
2037
2037
2036
2038
2039
2040
2041
2040
2040
2039
2040
2041
2040
2040
2040
2039
2041
2041
2040
2039
2038
2037
2040
2044
2048
2049
2048
2045
2043
2041
2044
2045
2047
2048
2048
2049
2049
2050
2051
2051
2052
2052
2053
2053
2053
2053
2052
2052
2050
2049
2048
2045
2043
2043
2043
2045
2045
2045
2043
2040
2039
2038
2038
2039
2039
2039
2039
2039
2039
2039
2038
2038
2038
2038
2040
2040
2041
2040
2040
2039
2040
2038
2038
2037
2038
2039
2042
2043
2043
2042
2040
2038
2039
2039
2040
2040
2040
2040
2040
2040
2040
2041
2041
2041
2041
2041
2040
2040
2039
2041
2042
2041
2041
2038
2036
2036
2039
2043
2045
2046
2044
2041
2039
2038
2040
2040
2040
2040
2040
2040
2040
2040
2040
2040
2040
2040
2040
2040
2039
2038
2039
2041
2040
2040
2038
2036
2036
2038
2043
2046
2047
2046
2044
2041
2039
2041
2040
2040
2039
2039
2040
2040
2040
2041
2041
2041
2041
2040
2038
2036
2037
2042
2053
2067
2080
2087
2084
2074
2062
2051
2045
2040
2038
2037
2037
2038
2039
2040
2040
2039
2039
2039
2039
2039
2039
2040
2039
2040
2040
2040
2041
2041
2041
2040
2042
2041
2039
2037
2036
2037
2041
2045
2048
2048
2045
2043
2042
2041
2043
2044
2044
2044
2045
2046
2047
2048
2048
2048
2048
2049
2050
2051
2052
2052
2052
2052
2052
2051
2048
2046
2044
2045
2047
2048
2048
2046
2043
2040
2038
2040
2040
2040
2039
2038
2038
2039
2039
2040
2040
2040
2040
2039
2038
2039
2038
2038
2040
2040
2039
2037
2035
2035
2037
2041
2045
2046
2045
2042
2039
2036
2038
2038
2039
2039
2039
2039
2039
2039
2039
2039
2039
2039
2039
2039
2039
2039
2038
2039
2039
2039
2038
2037
2036
2037
2038
2041
2042
2041
2040
2038
2038
2037
2038
2038
2038
2038
2037
2037
2037
2037
2037
2037
2038
2038
2039
2039
2039
2039
2038
2038
2038
2038
2038
2037
2037
2037
2039
2040
2041
2041
2039
2038
2037
2038
2039
2039
2039
2039
2040
2040
2041
2040
2040
2039
2039
2038
2039
2039
2039
2038
2039
2039
2039
2038
2037
2036
2036
2037
2039
2044
2051
2063
2075
2082
2085
2078
2065
2050
2040
2033
2031
2032
2035
2037
2037
2037
2037
2037
2037
2037
2036
2038
2038
2038
2037
2035
2035
2036
2039
2042
2043
2043
2041
2039
2037
2039
2038
2039
2039
2039
2039
2040
2040
2041
2041
2041
2042
2042
2042
2042
2043
2042
2045
2046
2046
2046
2045
2044
2046
2048
2051
2053
2053
2051
2049
2048
2047
2046
2045
2045
2044
2042
2041
2040
2040
2039
2038
2038
2037
2037
2037
2038
2038
2038
2038
2037
2035
2033
2032
2034
2038
2043
2045
2044
2040
2037
2035
2035
2036
2036
2036
2036
2036
2037
2037
2037
2037
2036
2036
2037
2037
2038
2038
2037
2038
2038
2038
2036
2034
2032
2032
2035
2039
2042
2042
2040
2037
2034
2034
2035
2036
2036
2036
2036
2034
2034
2035
2036
2036
2036
2036
2035
2035
2034
2035
2035
2037
2036
2034
2032
2030
2030
2033
2038
2042
2043
2040
2037
2034
2032
2035
2034
2035
2035
2035
2036
2036
2036
2036
2036
2036
2036
2036
2036
2036
2036
2034
2036
2036
2035
2034
2032
2032
2034
2038
2041
2041
2038
2035
2036
2044
2057
2071
2082
2084
2077
2063
2049
2038
2031
2028
2029
2031
2032
2035
2036
2037
2037
2036
2035
2036
2035
2035
2034
2034
2036
2039
2041
2041
2040
2038
2037
2037
2038
2038
2039
2038
2038
2038
2039
2039
2039
2040
2040
2040
2040
2041
2041
2041
2042
2044
2044
2044
2044
2044
2045
2046
2047
2048
2049
2052
2055
2056
2055
2054
2050
2048
2047
2046
2046
2044
2043
2043
2042
2041
2040
2039
2039
2038
2038
2037
2038
2038
2039
2037
2035
2034
2035
2037
2040
2042
2041
2040
2039
2037
2038
2037
2038
2037
2037
2038
2038
2038
2039
2039
2039
2039
2039
2039
2039
2039
2038
2040
2041
2041
2039
2037
2036
2036
2039
2043
2045
2045
2043
2041
2039
2039
2040
2040
2040
2041
2040
2041
2041
2041
2041
2040
2041
2040
2040
2040
2040
2041
2040
2042
2041
2039
2037
2035
2036
2039
2043
2046
2047
2044
2042
2040
2039
2040
2040
2040
2040
2041
2041
2040
2040
2039
2039
2039
2039
2040
2041
2042
2041
2039
2038
2036
2037
2042
2051
2066
2080
2090
2090
2081
2065
2049
2038
2032
2032
2034
2037
2039
2039
2039
2039
2038
2039
2041
2041
2042
2041
2040
2039
2039
2040
2042
2042
2041
2039
2038
2037
2040
2043
2047
2048
2047
2044
2041
2039
2042
2043
2044
2044
2044
2045
2045
2045
2045
2046
2047
2048
2048
2049
2050
2051
2051
2052
2052
2052
2052
2051
2051
2052
2053
2054
2053
2051
2048
2046
2044
2043
2042
2042
2042
2041
2041
2041
2041
2041
2040
2040
2040
2040
2041
2042
2041
2041
2041
2040
2040
2038
2037
2037
2038
2040
2043
2045
2044
2042
2040
2038
2040
2040
2040
2040
2040
2040
2040
2040
2041
2041
2041
2041
2040
2040
2040
2040
2039
2040
2041
2040
2039
2037
2037
2037
2040
2044
2046
2046
2044
2042
2040
2039
2040
2040
2040
2039
2039
2039
2039
2040
2040
2040
2040
2040
2040
2040
2040
2039
2040
2041
2041
2040
2038
2036
2036
2038
2042
2045
2046
2044
2041
2038
2038
2041
2040
2040
2037
2036
2036
2038
2041
2043
2044
2044
2044
2042
2042
2042
2042
2040
2042
2042
2041
2039
2036
2035
2037
2042
2046
2048
2045
2040
2035
2037
2047
2061
2078
2089
2091
2084
2070
2054
2042
2034
2032
2033
2035
2037
2040
2040
2042
2040
2041
2040
2037
2032
2030
2031
2036
2042
2048
2048
2046
2042
2039
2037
2039
2040
2041
2041
2041
2041
2041
2041
2041
2041
2040
2041
2041
2042
2044
2044
2044
2046
2046
2046
2045
2043
2043
2045
2049
2053
2055
2055
2052
2050
2048
2049
2050
2050
2050
2048
2048
2047
2045
2043
2042
2043
2043
2044
2043
2042
2040
2037
2039
2038
2039
2039
2037
2035
2036
2040
2044
2047
2046
2042
2039
2036
2038
2038
2039
2039
2039
2039
2039
2039
2039
2039
2039
2039
2039
2039
2039
2039
2039
2039
2039
2040
2039
2037
2036
2036
2039
2043
2044
2044
2040
2037
2036
2038
2040
2041
2041
2038
2037
2037
2038
2038
2039
2039
2039
2039
2039
2039
2039
2039
2039
2038
2039
2038
2037
2036
2036
2037
2040
2042
2043
2041
2039
2037
2036
2037
2038
2038
2037
2038
2037
2037
2037
2037
2038
2038
2038
2037
2036
2036
2036
2037
2039
2040
2039
2036
2035
2035
2036
2039
2041
2041
2041
2039
2037
2037
2036
2036
2036
2036
2036
2036
2035
2033
2033
2034
2041
2051
2064
2078
2084
2084
2074
2061
2048
2037
2031
2027
2028
2031
2035
2040
2042
2041
2039
2037
2035
2036
2036
2036
2035
2035
2036
2037
2036
2036
2036
2036
2037
2037
2038
2037
2038
2037
2039
2041
2041
2039
2036
2034
2034
2039
2045
2048
2048
2046
2043
2041
2040
2043
2043
2045
2045
2046
2047
2047
2047
2047
2048
2048
2048
2048
2048
2047
2046
2046
2045
2044
2041
2038
2035
2035
2038
2042
2044
2044
2041
2037
2034
2033
2033
2033
2035
2035
2037
2036
2036
2036
2035
2035
2034
2034
2034
2034
2037
2037
2038
2040
2039
2037
2035
2032
2033
2036
2041
2045
2046
2044
2039
2036
2034
2036
2037
2037
2038
2038
2038
2037
2033
2032
2032
2035
2040
2044
2045
2043
2039
2035
2036
2036
2036
2036
2033
2032
2033
2038
2044
2047
2045
2040
2035
2031
2033
2033
2036
2037
2036
2037
2037
2038
2037
2037
2037
2037
2037
2037
2037
2037
2036
2038
2037
2037
2037
2036
2036
2037
2038
2039
2039
2041
2048
2059
2073
2084
2085
2077
2062
2047
2036
2030
2029
2030
2031
2033
2034
2035
2036
2036
2036
2036
2036
2036
2037
2036
2035
2034
2034
2035
2037
2039
2039
2039
2037
2036
2036
2037
2038
2038
2038
2038
2039
2039
2040
2041
2041
2041
2040
2041
2041
2042
2043
2044
2045
2046
2047
2046
2046
2047
2048
2051
2052
2053
2052
2050
2049
2048
2048
2048
2047
2045
2043
2042
2042
2040
2040
2039
2038
2038
2037
2037
2036
2037
2036
2037
2037
2037
2035
2034
2033
2034
2036
2040
2041
2041
2040
2038
2036
2038
2038
2039
2038
2038
2038
2038
2039
2039
2039
2039
2039
2039
2039
2039
2040
2039
2041
2042
2041
2039
2037
2036
2036
2040
2043
2046
2046
2044
2041
2039
2039
2039
2039
2040
2040
2040
2040
2040
2040
2040
2040
2040
2040
2040
2040
2040
2040
2041
2040
2041
2040
2038
2037
2036
2038
2041
2044
2045
2044
2042
2038
2035
2034
2035
2041
2050
2064
2078
2087
2087
2079
2066
2050
2039
2033
2032
2034
2037
2038
2041
2039
2038
2036
2034
2035
2037
2041
2045
2046
2044
2041
2039
2037
2039
2039
2040
2041
2041
2042
2041
2042
2041
2041
2041
2041
2041
2042
2044
2044
2044
2045
2045
2044
2044
2044
2044
2046
2048
2051
2053
2052
2050
2049
2048
2050
2051
2052
2052
2051
2051
2050
2049
2048
2047
2046
2045
2045
2043
2042
2041
2038
2040
2040
2039
2037
2035
2033
2034
2039
2043
2046
2045
2042
2039
2037
2038
2040
2040
2041
2040
2041
2041
2040
2040
2040
2040
2041
2042
2042
2042
2041
2039
2040
2040
2041
2040
2038
2037
2038
2040
2043
2044
2043
2041
2039
2037
2038
2038
2039
2038
2037
2037
2037
2037
2038
2038
2038
2038
2037
2038
2038
2038
2038
2038
2039
2039
2040
2039
2038
2038
2039
2041
2043
2044
2044
2042
2041
2040
2039
2040
2040
2040
2040
2041
2042
2041
2040
2038
2037
2040
2047
2059
2074
2085
2089
2085
2072
2056
2042
2032
2029
2032
2037
2042
2044
2043
2041
2039
2037
2038
2038
2038
2038
2038
2039
2039
2040
2040
2040
2040
2040
2040
2040
2040
2040
2039
2042
2042
2042
2040
2038
2036
2038
2041
2046
2048
2048
2046
2045
2043
2044
2045
2045
2046
2047
2048
2048
2049
2049
2049
2049
2049
2049
2049
2049
2048
2048
2048
2048
2047
2045
2041
2038
2037
2039
2043
2047
2047
2044
2040
2038
2036
2038
2038
2038
2038
2038
2039
2040
2040
2040
2039
2039
2039
2039
2039
2039
2039
2039
2039
2040
2039
2037
2034
2033
2035
2039
2044
2046
2044
2041
2037
2035
2035
2037
2037
2037
2037
2037
2037
2036
2035
2037
2037
2038
2038
2037
2036
2036
2037
2038
2038
2037
2036
2036
2035
2036
2038
2039
2041
2040
2038
2037
2035
2036
2036
2036
2036
2035
2035
2035
2036
2036
2037
2038
2037
2038
2037
2037
2037
2036
2037
2036
2036
2036
2035
2035
2035
2037
2040
2042
2042
2040
2036
2033
2033
2038
2048
2061
2076
2085
2085
2077
2062
2048
2036
2030
2029
2032
2034
2036
2036
2036
2035
2035
2034
2032
2031
2031
2033
2036
2037
2037
2036
2033
2032
2032
2032
2033
2033
2032
2032
2031
2031
2031
2031
2031
2032
2031
2032
2032
2033
2033
2033
2034
2035
2035
2034
2034
2036
2038
2042
2045
2046
2046
2045
2044
2044
2045
2046
2046
2046
2046
2046
2046
2046
2045
2044
2043
2042
2041
2041
2041
2041
2040
2043
2043
2043
2042
2042
2042
2045
2046
2047
2048
2048
2051
2055
2056
2056
2052
2049
2047
2047
2048
2048
2048
2047
2046
2045
2045
2044
2043
2042
2041
2040
2040
2042
2041
2038
2035
2032
2032
2035
2040
2044
2044
2041
2038
2035
2034
2037
2036
2038
2037
2037
2037
2038
2038
2038
2038
2038
2038
2038
2039
2039
2040
2041
2042
2041
2039
2036
2034
2035
2040
2045
2048
2048
2044
2041
2039
2039
2040
2041
2040
2040
2040
2040
2040
2040
2039
2038
2037
2037
2038
2039
2040
2040
2039
2037
2034
2033
2034
2041
2054
2072
2088
2094
2089
2074
2055
2041
2032
2030
2031
2033
2034
2036
2037
2037
2037
2037
2037
2036
2036
2036
2036
2037
2038
2038
2040
2041
2040
2037
2035
2034
2037
2041
2045
2047
2045
2042
2040
2038
2038
2040
2041
2041
2042
2043
2043
2044
2045
2046
2047
2048
2048
2049
2050
2051
2051
2053
2053
2053
2053
2051
2050
2052
2053
2056
2055
2052
2048
2046
2043
2043
2043
2043
2042
2041
2040
2040
2040
2040
2039
2039
2039
2039
2041
2041
2042
2041
2040
2039
2040
2039
2039
2038
2038
2039
2041
2043
2044
2043
2041
2039
2039
2039
2040
2040
2040
2040
2040
2040
2040
2040
2040
2040
2040
2041
2041
2041
2040
2040
2041
2041
2041
2039
2038
2038
2039
2042
2045
2046
2045
2042
2040
2039
2039
2040
2039
2039
2039
2039
2040
2040
2040
2040
2039
2038
2038
2039
2039
2040
2039
2041
2040
2039
2038
2036
2035
2036
2038
2041
2042
2042
2041
2040
2037
2037
2035
2033
2032
2035
2044
2057
2073
2085
2089
2083
2070
2054
2041
2033
2030
2031
2034
2039
2039
2038
2035
2032
2033
2037
2042
2046
2046
2043
2040
2037
2037
2039
2039
2040
2040
2040
2040
2040
2040
2040
2041
2041
2040
2040
2040
2040
2040
2042
2042
2042
2041
2040
2040
2041
2045
2048
2051
2052
2051
2050
2049
2050
2051
2053
2054
2054
2055
2055
2055
2055
2054
2053
2050
2048
2048
2047
2048
2048
2048
2048
2046
2044
2040
2037
2036
2038
2043
2046
2047
2044
2040
2038
2035
2038
2038
2040
2040
2040
2040
2040
2040
2040
2040
2041
2042
2042
2042
2041
2041
2041
2043
2045
2046
2044
2043
2041
2042
2045
2048
2050
2049
2048
2047
2045
2046
2047
2047
2047
2048
2048
2047
2047
2046
2046
2047
2047
2048
2047
2047
2047
2046
2047
2046
2047
2046
2045
2045
2046
2048
2049
2050
2050
2049
2048
2049
2050
2051
2053
2053
2053
2053
2054
2055
2056
2056
2056
2057
2056
2057
2057
2057
2057
2055
2055
2055
2054
2054
2052
2051
2051
2053
2055
2055
2052
2048
2044
2043
2048
2058
2073
2086
2094
2093
2083
2068
2053
2043
2037
2036
2038
2040
2041
2041
2040
2041
2038
2036
2034
2033
2033
2035
2038
2038
2037
2035
2033
2032
2031
2033
2033
2032
2033
2033
2034
2035
2035
2035
2035
2034
2035
2035
2035
2035
2036
2035
2036
2037
2036
2036
2035
2035
2037
2039
2043
2045
2046
2046
2044
2042
2042
2041
2041
2041
2040
2039
2038
2037
2036
2035
2034
2033
2032
2031
2030
2029
2028
2030
2030
2030
2028
2027
2026
2027
2031
2035
2037
2038
2037
2036
2033
2034
2034
2034
2035
2037
2038
2039
2039
2039
2039
2039
2039
2039
2039
2039
2040
2040
2040
2040
2040
2039
2037
2036
2036
2038
2040
2042
2042
2040
2038
2037
2036
2037
2038
2039
2038
2038
2037
2036
2036
2036
2036
2035
2034
2034
2035
2036
2036
2036
2037
2036
2035
2033
2031
2031
2032
2036
2039
2040
2038
2036
2033
2031
2034
2034
2035
2036
2036
2036
2036
2037
2037
2037
2038
2038
2038
2039
2039
2038
2037
2037
2038
2040
2040
2040
2036
2034
2036
2043
2052
2066
2077
2083
2083
2077
2065
2053
2043
2037
2033
2031
2032
2035
2040
2046
2048
2047
2043
2039
2037
2036
2039
2040
2040
2038
2036
2036
2036
2040
2044
2046
2045
2043
2040
2039
2038
2041
2041
2041
2041
2041
2041
2041
2041
2042
2043
2044
2045
2046
2046
2046
2046
2047
2048
2049
2049
2049
2048
2048
2049
2052
2054
2055
2054
2052
2050
2048
2048
2048
2048
2046
2044
2044
2043
2043
2042
2042
2041
2041
2041
2041
2041
2041
2041
2041
2040
2040
2038
2038
2038
2039
2042
2044
2045
2044
2042
2041
2040
2040
2041
2041
2041
2041
2041
2041
2041
2041
2041
2042
2042
2042
2042
2041
2041
2041
2042
2042
2041
2039
2037
2037
2038
2040
2043
2044
2044
2042
2041
2039
2040
2040
2040
2039
2039
2039
2039
2038
2039
2039
2039
2039
2039
2039
2039
2039
2038
2040
2040
2039
2038
2036
2035
2035
2037
2040
2042
2043
2041
2039
2037
2037
2037
2037
2036
2034
2033
2035
2041
2053
2068
2080
2085
2080
2068
2052
2041
2032
2031
2031
2034
2034
2033
2033
2033
2037
2040
2043
2043
2040
2037
2034
2033
2033
2035
2037
2037
2037
2037
2037
2037
2037
2037
2037
2037
2038
2038
2039
2039
2038
2040
2039
2039
2038
2036
2036
2038
2042
2046
2048
2048
2047
2045
2042
2045
2045
2046
2047
2047
2047
2047
2047
2048
2047
2046
2045
2043
2043
2041
2040
2038
2037
2036
2035
2033
2032
2031
2032
2034
2036
2037
2037
2034
2031
2029
2030
2030
2031
2032
2032
2032
2032
2032
2032
2032
2032
2032
2032
2033
2034
2034
2033
2034
2036
2035
2035
2032
2031
2031
2034
2039
2043
2043
2041
2037
2034
2033
2035
2034
2036
2035
2036
2036
2036
2035
2036
2037
2038
2039
2040
2040
2041
2041
2041
2042
2044
2043
2042
2042
2043
2045
2048
2050
2050
2049
2047
2046
2046
2046
2047
2047
2047
2047
2048
2048
2048
2048
2047
2046
2043
2042
2041
2045
2052
2066
2082
2092
2095
2087
2073
2058
2048
2044
2043
2045
2045
2044
2044
2043
2045
2044
2043
2042
2042
2042
2042
2042
2041
2041
2040
2040
2040
2040
2040
2040
2039
2040
2040
2041
2040
2038
2036
2037
2039
2043
2046
2047
2045
2044
2042
2043
2044
2046
2046
2047
2047
2048
2048
2049
2050
2050
2050
2050
2050
2050
2051
2050
2051
2051
2049
2047
2044
2041
2040
2041
2042
2043
2043
2041
2039
2036
2036
2035
2034
2034
2034
2034
2035
2035
2034
2034
2033
2033
2033
2033
2033
2034
2034
2035
2035
2036
2035
2033
2032
2032
2035
2038
2040
2041
2038
2036
2034
2034
2034
2035
2036
2036
2037
2036
2037
2037
2037
2037
2036
2036
2035
2035
2036
2036
2035
2037
2035
2034
2032
2030
2030
2031
2035
2039
2040
2039
2036
2034
2031
2032
2032
2033
2033
2033
2032
2032
2032
2033
2033
2034
2034
2034
2034
2036
2036
2036
2037
2036
2036
2035
2036
2037
2038
2040
2042
2044
2041
2038
2035
2035
2043
2055
2070
2082
2087
2083
2071
2056
2044
2035
2033
2034
2036
2038
2040
2040
2040
2042
2042
2042
2040
2038
2037
2038
2042
2047
2049
2049
2047
2044
2041
2040
2043
2043
2044
2044
2044
2044
2044
2044
2044
2044
2045
2046
2047
2047
2047
2047
2048
2048
2048
2049
2049
2050
2051
2055
2058
2060
2060
2059
2058
2057
2058
2058
2059
2059
2058
2058
2058
2057
2056
2055
2054
2053
2052
2051
2050
2049
2048
2048
2048
2047
2047
2045
2043
2042
2042
2044
2047
2048
2048
2046
2044
2042
2042
2043
2044
2043
2043
2042
2042
2042
2042
2041
2041
2041
2040
2041
2040
2040
2040
2041
2041
2040
2040
2038
2037
2039
2041
2045
2047
2047
2045
2043
2040
2041
2041
2041
2041
2041
2041
2041
2041
2041
2041
2041
2041
2040
2039
2039
2039
2038
2039
2040
2038
2037
2034
2031
2032
2034
2038
2040
2040
2039
2036
2033
2032
2033
2032
2034
2034
2035
2035
2035
2035
2034
2034
2033
2033
2034
2034
2034
2034
2036
2036
2037
2036
2033
2031
2030
2034
2041
2052
2065
2075
2081
2079
2072
2059
2046
2036
2030
2029
2031
2033
2035
2036
2036
2034
2034
2034
2035
2037
2037
2037
2039
2038
2037
2034
2032
2032
2034
2038
2042
2044
2043
2040
2038
2035
2037
2038
2038
2037
2037
2037
2037
2038
2038
2039
2040
2040
2041
2042
2043
2044
2044
2046
2046
2046
2045
2046
2047
2050
2056
2060
2062
2062
2060
2059
2057
2058
2058
2058
2057
2056
2056
2055
2055
2055
2055
2057
2058
2060
2061
2063
2064
2063
2065
2064
2062
2060
2056
2054
2053
2056
2060
2061
2060
2056
2052
2049
2048
2049
2048
2048
2047
2046
2045
2044
2043
2042
2041
2041
2041
2041
2041
2040
2038
2036
2033
2032
2031
2031
2032
2033
2035
2038
2040
2040
2039
2037
2035
2035
2036
2038
2038
2039
2038
2039
2038
2037
2037
2036
2035
2035
2035
2035
2036
2034
2033
2035
2034
2035
2033
2032
2031
2033
2037
2040
2041
2039
2037
2034
2032
2033
2034
2035
2034
2035
2034
2035
2035
2036
2036
2035
2035
2032
2032
2033
2039
2048
2062
2074
2078
2073
2061
2047
2035
2030
2031
2033
2035
2035
2035
2033
2035
2034
2034
2033
2033
2034
2035
2035
2035
2035
2035
2035
2036
2036
2036
2037
2037
2039
2038
2038
2037
2033
2031
2031
2034
2039
2040
2041
2039
2036
2035
2036
2037
2036
2036
2035
2036
2037
2039
2041
2041
2043
2044
2043
2042
2042
2042
2042
2044
2046
2045
2043
2039
2036
2035
2038
2042
2044
2045
2042
2038
2034
2031
2032
2032
2033
2033
2033
2034
2035
2035
2036
2036
2035
2035
2036
2037
2038
2038
2038
2039
2039
2039
2037
2034
2034
2036
2040
2044
2045
2043
2039
2037
2035
2036
2037
2038
2037
2036
2036
2036
2036
2036
2037
2037
2037
2036
2036
2036
2037
2036
2038
2038
2037
2037
2035
2035
2036
2039
2043
2046
2048
2047
2044
2040
2039
2039
2038
2040
2041
2042
2042
2042
2042
2042
2043
2043
2042
2042
2042
2042
2041
2042
2044
2043
2042
2038
2036
2037
2041
2046
2048
2048
2048
2052
2061
2072
2084
2085
2079
2065
2051
2041
2034
2033
2034
2036
2039
2042
2043
2043
2042
2041
2042
2041
2042
2041
2038
2037
2037
2040
2045
2048
2048
2046
2043
2041
2041
2041
2042
2042
2043
2042
2042
2043
2043
2043
2044
2045
2046
2046
2045
2045
2045
2045
2048
2048
2048
2047
2046
2046
2048
2051
2055
2056
2055
2052
2050
2048
2049
2049
2049
2048
2047
2046
2045
2044
2043
2042
2041
2041
2040
2039
2039
2038
2038
2039
2040
2040
2039
2037
2034
2035
2038
2041
2044
2043
2041
2038
2036
2037
2038
2038
2036
2036
2036
2038
2039
2040
2040
2038
2037
2036
2037
2037
2040
2038
2039
2039
2038
2037
2035
2035
2035
2038
2043
2045
2045
2042
2039
2037
2037
2038
2038
2039
2038
2038
2038
2039
2040
2042
2042
2041
2039
2038
2037
2037
2038
2038
2039
2038
2037
2035
2034
2034
2036
2039
2042
2042
2041
2039
2038
2037
2038
2037
2035
2034
2037
2045
2057
2071
2081
2084
2078
2065
2051
2041
2034
2032
2032
2035
2036
2037
2036
2035
2035
2036
2039
2041
2042
2041
2039
2037
2035
2037
2038
2039
2039
2040
2040
2040
2040
2040
2040
2040
2040
2040
2041
2041
2042
2041
2043
2044
2042
2042
2040
2040
2042
2046
2050
2053
2053
2051
2050
2048
2048
2049
2049
2050
2050
2051
2051
2051
2050
2049
2048
2048
2047
2045
2045
2044
2042
2042
2041
2040
2038
2036
2036
2037
2039
2042
2043
2042
2039
2038
2036
2036
2038
2038
2039
2037
2034
2033
2034
2039
2043
2045
2044
2041
2038
2036
2037
2038
2038
2040
2039
2038
2036
2033
2033
2036
2042
2046
2047
2044
2039
2037
2035
2037
2038
2039
2039
2038
2038
2039
2039
2039
2039
2039
2039
2039
2038
2038
2038
2039
2039
2039
2038
2037
2036
2037
2038
2042
2044
2044
2044
2041
2039
2039
2039
2040
2040
2040
2039
2039
2040
2040
2041
2041
2041
2041
2040
2041
2040
2040
2039
2037
2038
2040
2047
2057
2070
2082
2087
2084
2072
2056
2042
2034
2030
2032
2035
2037
2038
2038
2039
2038
2038
2038
2038
2038
2038
2039
2038
2038
2038
2038
2040
2040
2040
2038
2037
2037
2038
2042
2045
2046
2045
2043
2041
2040
2040
2041
2041
2042
2042
2043
2044
2044
2045
2045
2045
2046
2047
2047
2048
2048
2048
2049
2050
2050
2049
2047
2046
2046
2048
2051
2052
2050
2048
2044
2041
2040
2040
2040
2040
2039
2039
2038
2039
2038
2038
2038
2038
2038
2039
2039
2039
2039
2038
2038
2038
2038
2037
2035
2035
2036
2039
2042
2043
2042
2040
2038
2036
2038
2039
2040
2040
2040
2040
2040
2040
2040
2040
2039
2040
2040
2040
2041
2041
2040
2041
2041
2039
2039
2036
2035
2036
2039
2044
2047
2047
2044
2041
2039
2039
2040
2040
2041
2040
2040
2040
2040
2040
2039
2040
2040
2040
2040
2040
2041
2040
2041
2041
2041
2040
2039
2038
2038
2040
2043
2045
2044
2043
2040
2039
2040
2041
2041
2041
2039
2037
2036
2039
2047
2058
2071
2082
2084
2080
2068
2054
2042
2034
2033
2034
2036
2035
2034
2034
2036
2040
2044
2045
2043
2040
2038
2036
2038
2038
2039
2039
2039
2039
2040
2040
2040
2041
2041
2041
2041
2040
2040
2041
2041
2042
2043
2043
2042
2041
2041
2042
2045
2048
2048
2048
2047
2047
2047
2048
2048
2048
2049
2049
2049
2050
2050
2050
2050
2049
2049
2048
2048
2046
2046
2045
2044
2043
2042
2040
2038
2037
2038
2039
2041
2042
2041
2039
2038
2036
2037
2037
2038
2038
2038
2039
2039
2039
2039
2039
2039
2039
2039
2039
2040
2040
2039
2040
2040
2039
2038
2036
2036
2036
2039
2042
2044
2044
2042
2040
2038
2039
2040
2040
2040
2040
2040
2041
2041
2041
2041
2041
2041
2040
2040
2040
2041
2041
2042
2043
2042
2041
2039
2037
2038
2040
2044
2047
2046
2045
2042
2040
2039
2039
2040
2040
2041
2041
2042
2042
2041
2041
2040
2040
2041
2041
2042
2042
2041
2042
2042
2041
2041
2040
2039
2038
2039
2041
2045
2050
2059
2070
2079
2083
2082
2072
2059
2047
2038
2034
2035
2037
2039
2040
2040
2041
2041
2040
2040
2039
2039
2040
2041
2040
2037
2035
2035
2037
2041
2044
2046
2045
2043
2042
2040
2041
2041
2042
2041
2043
2043
2043
2043
2043
2043
2044
2044
2045
2045
2045
2046
2045
2047
2047
2046
2046
2045
2045
2048
2050
2053
2054
2052
2050
2048
2048
2048
2047
2046
2045
2043
2042
2041
2040
2039
2038
2037
2037
2037
2038
2039
2038
2038
2036
2037
2035
2035
2032
2030
2030
2033
2038
2042
2043
2041
2037
2034
2033
2034
2034
2035
2035
2034
2035
2036
2036
2037
2037
2037
2037
2037
2036
2036
2036
2036
2037
2037
2037
2036
2034
2034
2035
2037
2039
2040
2040
2038
2037
2035
2036
2036
2037
2036
2036
2036
2037
2036
2036
2036
2036
2036
2036
2036
2036
2037
2037
2038
2038
2039
2038
2037
2036
2036
2037
2039
2040
2040
2039
2038
2036
2036
2036
2037
2037
2036
2037
2036
2035
2033
2034
2040
2049
2063
2075
2082
2079
2067
2054
2041
2033
2028
2025
2026
2027
2031
2036
2039
2039
2038
2035
2034
2034
2034
2034
2034
2034
2035
2035
2036
2036
2036
2035
2035
2035
2037
2039
2039
2037
2034
2033
2034
2038
2043
2045
2044
2042
2041
2041
2041
2043
2042
2041
2041
2043
2044
2044
2044
2045
2046
2047
2047
2047
2046
2047
2047
2047
2048
2047
2045
2043
2042
2041
2040
2038
2036
2035
2035
2037
2039
2039
2038
2036
2034
2032
2034
2035
2036
2036
2037
2036
2036
2036
2036
2037
2037
2037
2037
2036
2036
2036
2035
2038
2039
2039
2037
2034
2032
2034
2037
2042
2044
2042
2040
2038
2038
2040
2040
2039
2038
2037
2036
2037
2037
2037
2037
2037
2036
2036
2036
2036
2037
2035
2036
2036
2036
2035
2033
2033
2034
2036
2040
2041
2040
2038
2035
2034
2034
2035
2035
2035
2035
2035
2036
2036
2037
2037
2037
2036
2035
2035
2037
2044
2055
2067
2082
2087
2082
2068
2051
2038
2032
2034
2039
2042
2042
2039
2037
2036
2038
2039
2040
2039
2040
2040
2040
2040
2041
2041
2041
2041
2041
2041
2040
2040
2041
2042
2042
2042
2041
2040
2041
2043
2046
2048
2048
2048
2046
2045
2045
2046
2047
2048
2048
2048
2048
2050
2051
2052
2052
2053
2053
2053
2054
2053
2054
2054
2054
2052
2050
2048
2046
2044
2046
2047
2048
2048
2045
2041
2039
2037
2038
2038
2038
2038
2038
2038
2038
2038
2038
2037
2037
2036
2037
2037
2038
2038
2038
2039
2039
2038
2036
2034
2034
2035
2038
2041
2043
2043
2041
2039
2038
2037
2038
2037
2037
2037
2038
2038
2038
2038
2038
2038
2038
2038
2038
2038
2038
2038
2040
2040
2040
2039
2037
2036
2037
2039
2042
2044
2044
2043
2041
2040
2041
2041
2042
2042
2041
2041
2041
2041
2041
2040
2039
2038
2039
2040
2040
2041
2041
2040
2043
2042
2040
2036
2034
2038
2050
2069
2087
2097
2095
2082
2065
2048
2040
2035
2035
2036
2038
2040
2040
2040
2039
2038
2038
2037
2038
2038
2039
2039
2038
2039
2039
2038
2035
2032
2031
2032
2037
2043
2046
2045
2041
2037
2034
2035
2039
2040
2040
2040
2040
2039
2038
2040
2040
2041
2041
2042
2043
2044
2044
2043
2044
2045
2046
2046
2045
2043
2043
2045
2047
2048
2048
2046
2043
2041
2040
2040
2041
2040
2040
2040
2039
2039
2038
2038
2038
2038
2037
2038
2039
2039
2039
2038
2038
2038
2037
2036
2035
2034
2035
2038
2040
2041
2041
2039
2036
2036
2036
2037
2038
2037
2037
2038
2037
2038
2038
2038
2038
2037
2037
2036
2036
2035
2036
2037
2038
2037
2035
2033
2032
2033
2035
2038
2039
2039
2037
2035
2034
2034
2035
2035
2035
2035
2035
2036
2035
2035
2035
2034
2034
2034
2035
2035
2035
2035
2036
2036
2035
2034
2034
2034
2036
2038
2040
2040
2038
2037
2035
2034
2036
2035
2036
2036
2036
2037
2037
2036
2034
2032
2031
2034
2043
2054
2068
2079
2082
2078
2065
2050
2037
2027
2023
2025
2030
2036
2039
2040
2037
2034
2032
2031
2032
2032
2033
2033
2033
2034
2034
2035
2034
2034
2034
2034
2035
2036
2036
2036
2036
2037
2037
2036
2035
2033
2033
2035
2039
2043
2044
2043
2041
2038
2037
2040
2041
2043
2043
2044
2044
2044
2045
2046
2047
2046
2046
2046
2047
2048
2047
2047
2048
2044
2042
2038
2035
2034
2036
2039
2041
2042
2040
2037
2035
2033
2035
2035
2036
2036
2037
2036
2036
2036
2036
2036
2036
2036
2037
2037
2037
2037
2036
2038
2038
2037
2035
2032
2031
2034
2038
2044
2046
2044
2039
2034
2033
2034
2037
2038
2038
2037
2037
2037
2037
2037
2037
2037
2037
2037
2038
2038
2038
2036
2037
2037
2036
2035
2033
2032
2034
2037
2040
2042
2041
2039
2037
2035
2035
2036
2035
2035
2035
2035
2035
2035
2036
2036
2036
2036
2037
2038
2038
2038
2037
2037
2037
2037
2037
2035
2033
2033
2035
2038
2040
2040
2040
2038
2036
2034
2033
2031
2031
2032
2036
2042
2049
2059
2069
2077
2081
2076
2065
2050
2039
2032
2030
2032
2035
2036
2036
2035
2034
2035
2038
2040
2041
2040
2038
2037
2035
2036
2036
2036
2036
2036
2036
2037
2037
2038
2037
2037
2037
2036
2037
2037
2038
2038
2038
2038
2038
2038
2037
2037
2039
2041
2044
2046
2046
2045
2044
2042
2043
2044
2045
2046
2046
2047
2047
2048
2047
2045
2044
2043
2042
2041
2041
2040
2038
2038
2037
2036
2034
2031
2030
2028
2030
2033
2035
2036
2034
2032
2029
2029
2029
2029
2029
2029
2029
2029
2029
2029
2029
2028
2028
2028
2028
2028
2029
2030
2030
2032
2032
2031
2030
2028
2029
2032
2037
2040
2041
2040
2037
2036
2035
2037
2037
2038
2038
2038
2038
2037
2037
2036
2036
2036
2037
2037
2037
2036
2035
2034
2034
2034
2034
2032
2030
2029
2030
2033
2036
2036
2035
2032
2029
2027
2029
2030
2030
2029
2029
2028
2029
2029
2030
2030
2030
2031
2031
2031
2032
2032
2030
2032
2032
2030
2028
2025
2024
2025
2029
2033
2036
2035
2032
2027
2023
2022
2024
2031
2043
2057
2070
2077
2075
2065
2051
2038
2027
2022
2021
2022
2024
2025
2028
2029
2029
2028
2026
2024
2025
2028
2032
2034
2034
2033
2031
2030
2031
2033
2034
2034
2034
2034
2034
2034
2035
2036
2037
2038
2038
2039
2039
2040
2041
2040
2043
2043
2044
2042
2041
2042
2045
2049
2053
2055
2054
2051
2049
2048
2050
2050
2051
2051
2050
2049
2048
2047
2046
2046
2045
2045
2044
2044
2043
2041
2041
2041
2041
2041
2040
2040
2041
2042
2044
2046
2045
2044
2041
2039
2038
2038
2039
2039
2040
2039
2040
2040
2039
2040
2039
2039
2039
2038
2039
2038
2039
2039
2040
2040
2039
2038
2036
2035
2037
2039
2042
2043
2041
2039
2037
2036
2037
2038
2038
2038
2038
2039
2038
2037
2037
2036
2036
2036
2037
2036
2037
2038
2037
2039
2038
2038
2037
2035
2035
2036
2040
2043
2045
2045
2043
2041
2039
2039
2037
2035
2034
2037
2047
2062
2080
2093
2096
2088
2073
2057
2046
2040
2039
2041
2043
2045
2046
2045
2043
2042
2042
2045
2049
2052
2052
2051
2049
2049
2051
2052
2052
2051
2050
2049
2049
2049
2048
2048
2047
2047
2047
2048
2049
2051
2053
2055
2057
2057
2058
2058
2056
2055
2056
2058
2060
2062
2062
2062
2061
2060
2063
2064
2065
2066
2067
2066
2066
2065
2063
2060
2057
2055
2052
2050
2048
2048
2048
2048
2051
2051
2051
2049
2048
2050
2054
2061
2065
2064
2059
2052
2047
2044
2043
2042
2041
2040
2039
2037
2036
2034
2033
2032
2031
2030
2030
2029
2028
2026
2026
2027
2026
2025
2023
2021
2022
2024
2028
2031
2032
2030
2028
2027
2027
2029
2030
2030
2029
2028
2028
2027
2028
2028
2029
2030
2030
2032
2032
2033
2033
2032
2033
2033
2032
2030
2028
2028
2030
2034
2038
2039
2038
2036
2034
2033
2034
2035
2036
2037
2037
2037
2037
2037
2037
2035
2033
2030
2030
2033
2043
2056
2071
2083
2086
2080
2067
2050
2038
2031
2030
2034
2036
2038
2037
2035
2034
2034
2034
2034
2034
2034
2034
2035
2036
2037
2037
2038
2038
2038
2039
2040
2042
2042
2043
2044
2044
2043
2042
2042
2043
2045
2047
2048
2048
2048
2047
2045
2046
2046
2047
2047
2048
2048
2049
2050
2050
2050
2051
2051
2052
2052
2052
2052
2052
2053
2053
2052
2050
2047
2045
2044
2047
2049
2051
2050
2048
2045
2043
2042
2043
2043
2043
2042
2042
2041
2041
2041
2041
2041
2041
2042
2042
2042
2042
2041
2042
2042
2043
2042
2040
2039
2038
2040
2043
2045
2046
2045
2043
2042
2041
2042
2043
2045
2046
2046
2047
2047
2046
2046
2044
2043
2043
2044
2043
2040
2036
2034
2036
2040
2046
2048
2045
2040
2037
2038
2041
2044
2045
2043
2041
2038
2037
2037
2037
2039
2042
2044
2046
2046
2045
2043
2042
2041
2041
2042
2043
2044
2043
2045
2045
2044
2042
2039
2038
2040
2044
2049
2052
2052
2048
2048
2044
2045
2045
2045
2046
2048
2049
2048
2046
2042
2040
2044
2051
2067
2081
2090
2093
2085
2073
2059
2048
2041
2038
2038
2041
2045
2049
2051
2052
2050
2048
2048
2048
2048
2048
2047
2047
2048
2048
2049
2049
2048
2046
2044
2044
2045
2047
2048
2048
2045
2046
2045
2045
2042
2038
2036
2039
2046
2052
2056
2056
2052
2048
2046
2048
2049
2051
2052
2052
2053
2053
2053
2053
2053
2053
2054
2054
2054
2054
2053
2052
2052
2050
2050
2048
2045
2043
2043
2046
2048
2049
2048
2044
2041
2039
2040
2040
2041
2040
2040
2040
2040
2040
2041
2040
2040
2040
2039
2040
2039
2040
2040
2040
2041
2041
2039
2037
2036
2036
2038
2041
2043
2043
2042
2039
2038
2037
2038
2037
2035
2035
2036
2037
2038
2039
2038
2036
2036
2035
2037
2038
2038
2036
2035
2035
2035
2034
2033
2033
2032
2036
2039
2042
2042
2040
2038
2035
2034
2034
2034
2035
2035
2034
2034
2035
2035
2037
2039
2039
2038
2036
2036
2036
2036
2039
2041
2040
2038
2036
2034
2035
2038
2043
2045
2045
2042
2040
2037
2037
2038
2038
2040
2040
2040
2039
2038
2036
2036
2039
2048
2061
2075
2086
2088
2081
2069
2055
2043
2036
2032
2031
2032
2035
2040
2045
2047
2046
2043
2040
2037
2038
2038
2038
2039
2039
2039
2039
2039
2039
2040
2040
2041
2041
2042
2042
2042
2041
2043
2043
2043
2041
2040
2040
2042
2045
2049
2051
2051
2048
2046
2047
2048
2048
2048
2048
2049
2052
2054
2055
2054
2053
2053
2052
2051
2052
2051
2050
2049
2049
2049
2048
2045
2040
2036
2037
2041
2047
2050
2050
2047
2041
2038
2037
2039
2040
2040
2039
2039
2039
2039
2038
2038
2038
2039
2040
2040
2041
2040
2040
2041
2041
2042
2041
2038
2036
2036
2039
2043
2046
2046
2044
2041
2039
2039
2039
2040
2041
2040
2039
2040
2040
2040
2041
2041
2040
2039
2038
2038
2039
2040
2040
2043
2042
2042
2041
2039
2039
2040
2042
2044
2044
2042
2040
2038
2037
2039
2039
2040
2040
2041
2041
2041
2041
2041
2041
2041
2041
2041
2041
2040
2040
2040
2041
2041
2042
2041
2040
2039
2040
2041
2041
2041
2040
2043
2050
2063
2078
2086
2087
2078
2064
2050
2040
2035
2033
2034
2036
2037
2038
2039
2040
2040
2039
2040
2040
2040
2040
2038
2037
2038
2040
2044
2046
2047
2046
2044
2042
2041
2042
2042
2043
2044
2044
2045
2045
2045
2045
2045
2046
2047
2048
2048
2048
2048
2048
2050
2050
2050
2049
2048
2049
2051
2055
2058
2059
2057
2055
2053
2052
2052
2052
2051
2050
2048
2048
2047
2046
2045
2044
2042
2042
2041
2042
2042
2041
2041
2042
2041
2041
2039
2036
2035
2036
2039
2043
2045
2044
2042
2041
2038
2040
2040
2040
2041
2041
2041
2041
2041
2041
2041
2041
2042
2042
2042
2042
2042
2041
2042
2042
2042
2041
2039
2038
2039
2042
2044
2047
2046
2044
2042
2040
2041
2042
2043
2042
2041
2041
2040
2042
2043
2044
2045
2043
2042
2042
2041
2042
2041
2042
2043
2042
2041
2038
2037
2037
2041
2046
2048
2048
2046
2043
2041
2040
2042
2043
2043
2042
2042
2042
2042
2042
2042
2042
2042
2042
2043
2043
2043
2043
2042
2041
2040
2039
2039
2044
2054
2069
2084
2092
2090
2078
2062
2048
2039
2036
2036
2039
2040
2041
2042
2041
2042
2041
2041
2041
2040
2041
2041
2041
2041
2040
2043
2042
2043
2040
2038
2037
2039
2043
2046
2048
2048
2046
2042
2037
2038
2040
2045
2048
2051
2050
2048
2045
2044
2045
2047
2048
2048
2048
2049
2049
2050
2051
2052
2052
2051
2050
2049
2050
2052
2054
2055
2053
2050
2047
2044
2043
2042
2042
2041
2041
2041
2041
2040
2040
2040
2040
2039
2039
2039
2040
2040
2040
2040
2040
2039
2038
2036
2036
2038
2040
2043
2044
2043
2041
2038
2038
2038
2039
2039
2039
2039
2039
2039
2039
2039
2039
2039
2039
2039
2040
2040
2040
2040
2040
2040
2039
2038
2036
2035
2036
2039
2042
2045
2044
2042
2040
2038
2038
2038
2038
2039
2038
2038
2038
2038
2039
2039
2038
2038
2038
2039
2040
2040
2040
2040
2041
2039
2038
2036
2034
2034
2036
2039
2043
2045
2044
2043
2041
2038
2039
2038
2038
2039
2039
2039
2038
2038
2038
2038
2038
2038
2039
2039
2039
2039
2036
2035
2036
2041
2049
2061
2072
2081
2083
2078
2067
2052
2040
2033
2030
2032
2035
2038
2038
2037
2036
2034
2035
2035
2037
2039
2039
2039
2038
2038
2038
2037
2038
2038
2038
2037
2035
2035
2035
2037
2041
2043
2043
2042
2039
2038
2038
2040
2040
2041
2040
2040
2041
2041
2042
2042
2043
2043
2044
2046
2047
2048
2048
2047
2048
2048
2048
2047
2044
2042
2042
2045
2048
2050
2048
2045
2040
2036
2036
2035
2036
2035
2035
2034
2035
2035
2035
2035
2035
2035
2035
2035
2036
2036
2036
2038
2038
2038
2036
2034
2033
2034
2038
2042
2043
2042
2039
2037
2035
2037
2037
2037
2038
2038
2037
2037
2037
2037
2037
2037
2037
2037
2037
2037
2037
2036
2037
2038
2038
2037
2035
2033
2033
2036
2040
2042
2042
2041
2038
2036
2036
2037
2037
2037
2036
2037
2037
2037
2037
2036
2036
2036
2035
2036
2036
2036
2036
2037
2038
2038
2037
2036
2036
2036
2038
2040
2042
2042
2041
2038
2037
2036
2037
2037
2037
2038
2038
2038
2038
2037
2036
2034
2035
2039
2048
2061
2074
2082
2082
2075
2061
2048
2037
2030
2029
2032
2036
2040
2041
2040
2038
2036
2035
2036
2036
2037
2037
2037
2038
2038
2039
2039
2038
2038
2038
2039
2039
2040
2040
2039
2040
2040
2039
2038
2036
2035
2037
2041
2045
2047
2047
2045
2043
2040
2042
2043
2044
2045
2046
2046
2047
2047
2047
2048
2048
2048
2049
2049
2049
2048
2048
2048
2047
2045
2042
2040
2038
2038
2041
2043
2045
2043
2040
2037
2035
2037
2037
2038
2038
2037
2037
2036
2036
2036
2037
2038
2039
2039
2039
2037
2038
2036
2037
2038
2037
2036
2034
2032
2033
2038
2042
2045
2045
2042
2039
2036
2036
2038
2039
2039
2039
2039
2038
2038
2038
2038
2039
2039
2039
2039
2039
2039
2038
2038
2038
2038
2037
2035
2034
2035
2037
2040
2043
2042
2041
2039
2037
2038
2039
2039
2039
2039
2039
2039
2039
2040
2040
2039
2039
2039
2039
2039
2040
2039
2039
2041
2039
2036
2032
2033
2040
2054
2074
2088
2092
2084
2068
2051
2039
2035
2033
2033
2035
2036
2037
2038
2039
2039
2039
2039
2038
2038
2038
2038
2038
2038
2039
2039
2041
2040
2039
2038
2039
2041
2043
2046
2046
2045
2044
2042
2042
2042
2043
2043
2043
2044
2044
2045
2045
2046
2046
2046
2047
2048
2049
2050
2050
2051
2051
2051
2050
2049
2049
2050
2052
2054
2055
2054
2051
2048
2046
2044
2044
2043
2042
2041
2041
2041
2040
2040
2039
2039
2039
2039
2039
2039
2039
2039
2039
2039
2039
2038
2037
2036
2037
2038
2041
2043
2043
2042
2040
2039
2038
2038
2039
2039
2039
2040
2040
2041
2041
2040
2040
2039
2039
2040
2041
2042
2042
2041
2042
2041
2040
2039
2037
2036
2038
2041
2045
2047
2046
2044
2042
2039
2040
2039
2040
2040
2040
2040
2040
2040
2040
2039
2041
2042
2042
2040
2037
2036
2036
2041
2046
2048
2045
2040
2035
2034
2038
2042
2046
2045
2044
2041
2038
2037
2036
2037
2041
2049
2062
2075
2084
2084
2077
2064
2050
2042
2037
2036
2036
2037
2038
2039
2039
2039
2036
2033
2033
2038
2043
2047
2048
2045
2041
2039
2038
2040
2040
2040
2040
2040
2040
2040
2040
2040
2040
2041
2042
2043
2043
2043
2042
2043
2044
2046
2046
2044
2043
2043
2044
2048
2050
2051
2051
2049
2048
2048
2050
2050
2051
2050
2050
2051
2050
2050
2049
2048
2048
2046
2045
2044
2044
2042
2041
2043
2042
2041
2038
2036
2035
2037
2042
2045
2046
2044
2042
2039
2037
2040
2040
2041
2040
2040
2041
2041
2041
2041
2041
2041
2041
2041
2040
2040
2040
2041
2041
2042
2042
2040
2039
2038
2039
2042
2044
2046
2045
2044
2042
2040
2041
2040
2041
2040
2041
2041
2041
2041
2040
2040
2040
2040
2040
2039
2040
2040
2039
2040
2040
2040
2038
2036
2036
2037
2040
2044
2046
2045
2043
2040
2037
2038
2038
2039
2039
2040
2039
2039
2039
2039
2039
2039
2041
2040
2040
2038
2037
2036
2040
2048
2060
2071
2079
2080
2075
2065
2054
2047
2040
2036
2035
2035
2037
2038
2039
2039
2039
2039
2038
2038
2039
2038
2038
2038
2038
2039
2040
2040
2040
2040
2041
2041
2040
2037
2035
2034
2036
2041
2046
2048
2046
2043
2041
2038
2040
2041
2042
2043
2043
2044
2045
2046
2046
2047
2047
2048
2048
2048
2048
2048
2048
2049
2049
2049
2048
2046
2044
2043
2045
2047
2048
2046
2042
2039
2036
2038
2038
2039
2039
2038
2038
2037
2038
2038
2037
2036
2035
2036
2036
2038
2039
2038
2038
2037
2036
2035
2033
2032
2032
2036
2040
2044
2044
2041
2038
2035
2035
2036
2037
2038
2037
2037
2037
2036
2036
2035
2035
2035
2036
2036
2036
2035
2034
2034
2034
2035
2034
2032
2031
2030
2031
2034
2037
2038
2037
2034
2033
2032
2033
2034
2035
2034
2034
2035
2035
2036
2037
2037
2037
2037
2037
2036
2036
2036
2036
2039
2039
2038
2036
2033
2032
2034
2040
2044
2046
2043
2037
2034
2034
2045
2056
2070
2079
2080
2074
2061
2048
2037
2031
2029
2030
2032
2034
2035
2035
2036
2036
2036
2037
2036
2035
2034
2034
2036
2038
2040
2040
2039
2038
2036
2037
2037
2038
2037
2037
2037
2037
2037
2038
2038
2038
2038
2038
2038
2039
2040
2040
2041
2042
2043
2042
2041
2040
2041
2044
2048
2049
2049
2048
2046
2046
2046
2048
2048
2047
2046
2044
2043
2042
2041
2040
2038
2038
2037
2036
2036
2036
2036
2036
2036
2035
2034
2032
2031
2031
2033
2036
2039
2039
2038
2036
2034
2033
2033
2034
2034
2035
2035
2035
2035
2035
2034
2034
2034
2035
2035
2036
2037
2037
2036
2037
2037
2037
2036
2035
2034
2036
2039
2042
2044
2043
2042
2040
2037
2038
2037
2038
2037
2037
2037
2037
2038
2038
2039
2039
2038
2038
2038
2038
2038
2038
2039
2039
2038
2035
2034
2033
2034
2037
2040
2042
2041
2038
2035
2034
2035
2034
2033
2031
2030
2031
2037
2049
2063
2075
2078
2071
2058
2044
2033
2028
2026
2028
2029
2029
2028
2026
2025
2026
2029
2033
2034
2033
2028
2024
2021
2021
2022
2023
2023
2023
2024
2024
2026
2027
2028
2029
2031
2033
2035
2036
2036
2035
2037
2039
2040
2040
2039
2039
2040
2044
2048
2052
2054
2053
2052
2051
2052
2054
2055
2056
2056
2056
2056
2056
2056
2055
2054
2052
2050
2049
2048
2046
2044
2043
2044
2042
2041
2037
2034
2033
2035
2039
2041
2042
2040
2038
2036
2034
2036
2035
2036
2036
2036
2036
2036
2037
2037
2038
2038
2038
2038
2038
2039
2039
2039
2040
2040
2040
2038
2037
2037
2039
2041
2044
2045
2043
2039
2035
2033
2036
2039
2044
2045
2043
2041
2038
2036
2037
2038
2039
2038
2037
2036
2037
2037
2036
2036
2036
2035
2034
2033
2034
2034
2036
2038
2038
2038
2036
2034
2034
2033
2035
2036
2037
2038
2038
2039
2039
2039
2037
2034
2033
2035
2042
2053
2068
2081
2086
2084
2073
2058
2045
2035
2032
2034
2039
2044
2046
2045
2044
2042
2042
2042
2043
2044
2045
2045
2045
2046
2046
2046
2046
2047
2047
2047
2048
2048
2048
2048
2048
2047
2046
2044
2042
2042
2043
2047
2049
2051
2050
2049
2048
2045
2048
2048
2049
2050
2051
2051
2052
2052
2052
2052
2052
2053
2053
2052
2052
2052
2051
2050
2049
2048
2045
2041
2038
2038
2042
2047
2049
2048
2044
2039
2036
2036
2037
2039
2039
2039
2039
2039
2038
2038
2038
2040
2039
2039
2038
2037
2037
2037
2039
2041
2039
2038
2035
2033
2033
2039
2043
2046
2046
2043
2040
2039
2039
2041
2040
2041
2041
2041
2041
2041
2040
2040
2040
2040
2041
2042
2042
2041
2040
2039
2038
2040
2039
2039
2038
2039
2040
2041
2043
2043
2042
2040
2038
2039
2039
2040
2040
2040
2040
2040
2040
2041
2041
2040
2039
2037
2038
2043
2054
2068
2082
2089
2086
2075
2058
2043
2033
2029
2031
2035
2037
2039
2038
2038
2038
2038
2037
2037
2037
2037
2037
2038
2038
2038
2038
2038
2038
2037
2038
2038
2039
2040
2040
2040
2040
2039
2037
2037
2038
2040
2043
2046
2045
2045
2044
2042
2043
2044
2046
2047
2048
2049
2050
2051
2052
2052
2053
2053
2054
2055
2056
2056
2054
2055
2053
2050
2048
2044
2043
2042
2044
2045
2043
2040
2037
2036
2035
2036
2036
2034
2034
2034
2034
2034
2034
2033
2034
2033
2034
2034
2034
2034
2033
2032
2033
2034
2034
2034
2032
2031
2033
2036
2040
2043
2043
2042
2040
2039
2040
2042
2042
2043
2043
2044
2044
2043
2042
2041
2039
2038
2038
2039
2039
2039
2038
2037
2038
2037
2036
2034
2031
2031
2033
2037
2040
2040
2038
2036
2035
2033
2035
2035
2035
2035
2035
2034
2035
2035
2035
2035
2034
2034
2033
2033
2032
2033
2032
2033
2033
2029
2026
2023
2024
2033
2048
2066
2082
2088
2083
2069
2050
2035
2025
2021
2023
2026
2029
2030
2030
2029
2029
2029
2028
2028
2028
2029
2031
2032
2033
2035
2034
2032
2029
2026
2026
2031
2036
2040
2040
2036
2031
2028
2028
2031
2032
2033
2033
2034
2034
2035
2036
2037
2039
2041
2042
2043
2043
2044
2044
2045
2046
2048
2048
2047
2045
2044
2046
2049
2052
2053
2051
2048
2044
2042
2041
2040
2039
2037
2036
2036
2035
2035
2035
2035
2035
2035
2035
2035
2035
2035
2034
2036
2036
2036
2036
2035
2035
2036
2038
2040
2041
2040
2038
2036
2035
2035
2034
2034
2034
2033
2033
2033
2032
2032
2032
2031
2031
2031
2031
2032
2032
2032
2032
2032
2031
2030
2029
2029
2030
2031
2032
2034
2033
2032
2031
2029
2030
2029
2029
2029
2029
2030
2030
2029
2029
2030
2030
2029
2028
2027
2027
2028
2031
2034
2035
2036
2034
2030
2029
2029
2031
2034
2036
2038
2037
2035
2035
2034
2036
2039
2039
2039
2037
2036
2037
2043
2052
2067
2081
2089
2090
2082
2067
2053
2041
2035
2032
2033
2032
2032
2032
2034
2039
2043
2044
2044
2041
2040
2040
2042
2044
2046
2046
2047
2048
2048
2049
2050
2050
2051
2052
2052
2053
2053
2052
2050
2052
2053
2052
2049
2046
2043
2045
2050
2058
2062
2062
2057
2053
2050
2051
2054
2056
2056
2056
2055
2056
2056
2056
2056
2056
2056
2054
2053
2051
2050
2048
2049
2048
2047
2044
2041
2038
2038
2041
2045
2048
2047
2044
2041
2038
2039
2038
2039
2039
2038
2039
2039
2039
2038
2038
2038
2035
2033
2031
2030
2033
2036
2041
2044
2042
2038
2032
2028
2029
2033
2039
2042
2043
2041
2039
2036
2034
2035
2035
2037
2037
2037
2038
2037
2037
2037
2038
2039
2040
2040
2040
2039
2038
2039
2040
2041
2040
2038
2037
2037
2040
2044
2047
2047
2046
2044
2042
2042
2043
2045
2044
2043
2042
2041
2041
2041
2042
2042
2042
2042
2041
2040
2039
2040
2039
2041
2041
2042
2041
2038
2036
2035
2037
2042
2046
2047
2044
2039
2035
2035
2036
2040
2040
2036
2033
2031
2033
2041
2054
2071
2083
2089
2085
2073
2055
2041
2031
2027
2030
2031
2031
2030
2031
2035
2041
2044
2043
2038
2032
2030
2032
2036
2039
2039
2037
2036
2037
2039
2041
2040
2040
2039
2040
2042
2043
2044
2043
2044
2045
2044
2044
2042
2042
2044
2048
2050
2052
2049
2047
2046
2046
2049
2052
2051
2051
2050
2049
2049
2051
2051
2051
2051
2051
2050
2048
2048
2046
2044
2044
2043
2043
2040
2036
2033
2032
2034
2039
2044
2044
2043
2039
2033
2032
2034
2039
2042
2041
2040
2037
2036
2039
2041
2042
2041
2039
2038
2038
2040
2042
2043
2043
2042
2042
2039
2037
2035
2036
2039
2043
2046
2045
2043
2041
2039
2043
2045
2047
2048
2048
2048
2048
2049
2050
2050
2050
2050
2050
2050
2051
2051
2049
2050
2050
2051
2049
2048
2046
2046
2048
2050
2052
2051
2048
2045
2042
2042
2042
2043
2043
2043
2043
2041
2038
2036
2034
2033
2034
2035
2034
2034
2034
2033
2035
2036
2036
2035
2033
2032
2033
2036
2040
2043
2042
2040
2038
2036
2036
2036
2037
2037
2036
2036
2036
2036
2036
2036
2036
2036
2034
2034
2035
2040
2049
2061
2075
2081
2082
2070
2052
2037
2027
2026
2031
2037
2039
2037
2032
2029
2029
2029
2031
2031
2031
2031
2031
2031
2031
2032
2033
2034
2035
2035
2036
2036
2036
2038
2039
2039
2037
2036
2035
2037
2041
2045
2046
2045
2042
2041
2039
2041
2042
2043
2043
2043
2043
2044
2045
2045
2046
2046
2046
2047
2047
2047
2047
2048
2048
2048
2048
2047
2044
2043
2042
2042
2043
2043
2042
2040
2038
2036
2036
2036
2037
2037
2037
2037
2037
2037
2038
2038
2038
2039
2039
2039
2039
2039
2038
2040
2040
2040
2039
2037
2036
2037
2040
2043
2045
2044
2042
2039
2038
2038
2039
2040
2040
2040
2040
2041
2041
2041
2041
2040
2040
2039
2039
2040
2040
2040
2040
2040
2039
2039
2039
2037
2037
2038
2039
2042
2044
2044
2042
2039
2037
2037
2037
2039
2039
2039
2039
2039
2038
2038
2038
2037
2037
2037
2038
2040
2041
2041
2042
2042
2041
2039
2037
2037
2037
2040
2042
2045
2045
2044
2041
2038
2038
2038
2037
2039
2039
2039
2037
2035
2035
2038
2047
2058
2072
2079
2080
2072
2058
2047
2038
2032
2027
2025
2025
2028
2035
2042
2047
2046
2041
2036
2032
2033
2035
2037
2037
2037
2038
2038
2038
2038
2039
2039
2039
2041
2042
2042
2041
2040
2041
2042
2044
2045
2044
2042
2041
2043
2046
2049
2050
2049
2048
2047
2047
2048
2048
2049
2050
2050
2050
2050
2050
2050
2050
2051
2051
2052
2052
2051
2050
2048
2047
2047
2045
2042
2039
2038
2040
2044
2048
2048
2046
2043
2040
2039
2042
2043
2043
2043
2043
2043
2043
2044
2044
2045
2045
2045
2045
2045
2045
2045
2045
2046
2046
2046
2045
2044
2044
2045
2047
2048
2049
2049
2048
2047
2046
2046
2047
2048
2048
2048
2048
2048
2048
2048
2048
2048
2048
2048
2048
2048
2048
2048
2048
2048
2046
2044
2043
2041
2041
2042
2043
2045
2045
2044
2043
2041
2041
2040
2041
2041
2041
2042
2042
2042
2042
2042
2042
2042
2042
2042
2043
2044
2043
2042
2041
2042
2046
2053
2066
2077
2085
2086
2077
2061
2045
2033
2029
2031
2038
2042
2042
2040
2038
2037
2037
2038
2039
2038
2039
2039
2039
2040
2040
2040
2040
2040
2040
2038
2038
2038
2040
2041
2043
2043
2042
2040
2039
2039
2039
2040
2040
2041
2041
2041
2041
2041
2042
2042
2043
2043
2045
2046
2047
2048
2049
2049
2051
2050
2049
2048
2047
2047
2048
2049
2051
2051
2049
2047
2044
2040
2041
2041
2041
2040
2040
2040
2040
2040
2040
2039
2039
2039
2039
2039
2039
2039
2039
2041
2040
2041
2040
2038
2037
2038
2041
2045
2047
2047
2045
2043
2041
2042
2042
2042
2042
2042
2042
2041
2041
2041
2041
2041
2041
2042
2042
2042
2042
2041
2042
2043
2044
2044
2041
2039
2040
2042
2046
2047
2047
2045
2041
2039
2040
2040
2041
2041
2041
2041
2041
2040
2040
2040
2040
2041
2041
2043
2043
2043
2043
2041
2042
2042
2044
2042
2038
2035
2035
2039
2045
2049
2050
2048
2043
2039
2039
2038
2040
2039
2037
2037
2040
2048
2059
2073
2082
2085
2079
2067
2053
2042
2035
2035
2036
2037
2037
2036
2036
2038
2041
2044
2045
2043
2040
2039
2036
2039
2038
2039
2039
2038
2038
2039
2039
2039
2039
2039
2040
2040
2040
2039
2039
2039
2040
2040
2041
2040
2039
2038
2039
2043
2045
2047
2047
2045
2043
2042
2043
2044
2045
2044
2045
2046
2046
2047
2046
2046
2047
2046
2046
2045
2044
2043
2042
2041
2040
2040
2038
2035
2034
2033
2036
2040
2042
2043
2041
2038
2036
2036
2037
2037
2038
2039
2040
2041
2041
2040
2040
2040
2041
2041
2042
2043
2043
2044
2044
2045
2045
2045
2044
2043
2043
2045
2047
2048
2049
2048
2046
2043
2042
2041
2042
2042
2042
2042
2042
2042
2041
2041
2040
2039
2039
2039
2039
2041
2041
2040
2041
2040
2039
2037
2036
2035
2037
2040
2043
2045
2044
2042
2040
2037
2039
2039
2040
2041
2041
2041
2040
2041
2040
2040
2040
2041
2041
2041
2039
2037
2035
2038
2044
2055
2067
2076
2079
2075
2067
2056
2047
2039
2033
2031
2031
2033
2035
2036
2037
2037
2037
2037
2037
2037
2038
2038
2038
2038
2039
2039
2040
2039
2039
2039
2039
2040
2039
2039
2039
2040
2043
2045
2045
2044
2042
2041
2040
2041
2042
2042
2043
2043
2044
2044
2045
2045
2046
2047
2048
2049
2050
2050
2051
2049
2051
2050
2052
2049
2047
2044
2044
2047
2051
2053
2052
2048
2042
2038
2038
2037
2040
2039
2038
2038
2038
2037
2037
2038
2038
2038
2038
2038
2038
2038
2037
2039
2039
2039
2038
2036
2036
2037
2040
2043
2044
2042
2040
2039
2037
2039
2038
2039
2038
2038
2039
2039
2040
2040
2040
2040
2039
2039
2039
2039
2039
2039
2040
2040
2041
2040
2040
2039
2039
2041
2043
2045
2044
2043
2041
2039
2039
2039
2040
2040
2040
2041
2040
2040
2040
2040
2041
2041
2041
2041
2041
2041
2041
2042
2042
2042
2041
2039
2039
2039
2040
2043
2044
2044
2043
2041
2040
2040
2041
2042
2042
2041
2040
2039
2041
2047
2057
2069
2081
2086
2083
2073
2059
2048
2039
2035
2036
2037
2038
2039
2039
2041
2043
2044
2045
2043
2042
2040
2040
2040
2041
2042
2042
2042
2042
2042
2042
2042
2042
2041
2042
2042
2042
2043
2043
2044
2045
2044
2044
2042
2040
2041
2042
2046
2048
2050
2050
2049
2048
2047
2048
2048
2049
2049
2050
2050
2050
2051
2051
2051
2051
2051
2050
2049
2048
2047
2046
2045
2045
2045
2042
2039
2036
2036
2040
2045
2048
2048
2044
2040
2037
2036
2038
2039
2039
2039
2040
2040
2040
2040
2039
2039
2039
2040
2040
2040
2041
2040
2040
2040
2039
2038
2037
2036
2038
2040
2044
2045
2045
2042
2039
2037
2035
2037
2037
2038
2038
2038
2038
2038
2039
2039
2039
2037
2035
2036
2038
2043
2047
2047
2045
2042
2039
2035
2034
2034
2036
2039
2042
2043
2042
2039
2036
2034
2035
2036
2037
2036
2036
2037
2038
2038
2039
2039
2039
2038
2038
2038
2038
2038
2038
2039
2039
2039
2039
2037
2037
2038
2039
2040
2040
2039
2039
2044
2053
2066
2078
2083
2081
2071
2058
2047
2038
2034
2034
2036
2037
2038
2040
2040
2041
2042
2042
2042
2041
2041
2040
2039
2041
2042
2043
2045
2044
2043
2041
2040
2040
2040
2041
2041
2041
2042
2042
2043
2043
2043
2044
2044
2045
2045
2047
2048
2048
2048
2048
2048
2048
2047
2047
2048
2049
2052
2054
2054
2053
2051
2050
2048
2049
2049
2048
2048
2047
2046
2044
2043
2042
2041
2040
2039
2038
2038
2037
2038
2036
2037
2036
2034
2034
2034
2035
2036
2037
2038
2036
2034
2033
2033
2033
2034
2034
2034
2033
2033
2033
2034
2033
2033
2033
2032
2032
2032
2033
2034
2034
2034
2035
2034
2034
2032
2031
2031
2032
2035
2038
2040
2039
2037
2035
2033
2035
2036
2037
2038
2038
2037
2037
2037
2036
2036
2036
2036
2037
2036
2036
2035
2033
2034
2034
2034
2031
2029
2027
2028
2031
2035
2038
2037
2034
2031
2029
2027
2027
2027
2029
2037
2049
2063
2074
2078
2072
2061
2047
2036
2030
2029
2031
2033
2039
2042
2045
2046
2044
2043
2044
2047
2050
2051
2049
2047
2043
2042
2042
2042
2042
2041
2042
2044
2047
2049
2052
2053
2053
2054
2053
2053
2052
2051
2049
2048
2048
2048
2048
2046
2041
2038
2037
2041
2047
2051
2051
2048
2043
2038
2037
2037
2039
2039
2038
2037
2036
2034
2033
2032
2030
2029
2028
2026
2025
2024
2023
2023
2022
2021
2020
2018
2018
2019
2021
2024
2025
2025
2023
2021
2020
2020
2020
2020
2020
2020
2021
2022
2022
2022
2021
2021
2021
2021
2022
2022
2023
2023
2023
2023
2023
2023
2023
2022
2023
2025
2027
2030
2031
2031
2029
2026
2026
2025
2026
2026
2026
2027
2027
2028
2028
2028
2028
2027
2028
2028
2028
2029
2028
2028
2028
2027
2027
2025
2024
2023
2024
2027
2029
2029
2027
2024
2023
2027
2040
2055
2071
2080
2077
2067
2051
2038
2028
2024
2024
2026
2028
2030
2032
2033
2033
2034
2033
2031
2030
2029
2030
2033
2036
2037
2037
2035
2035
2034
2035
2038
2039
2040
2041
2041
2041
2041
2042
2042
2042
2041
2042
2042
2044
2046
2047
2047
2048
2047
2048
2047
2047
2048
2048
2051
2054
2056
2056
2054
2051
2049
2050
2050
2050
2050
2049
2048
2048
2046
2045
2043
2042
2041
2041
2040
2040
2040
2038
2039
2039
2039
2037
2036
2035
2035
2037
2040
2042
2041
2039
2037
2036
2036
2036
2037
2036
2036
2036
2036
2037
2037
2037
2038
2037
2037
2037
2037
2036
2035
2036
2037
2037
2037
2035
2032
2030
2032
2036
2041
2043
2042
2039
2036
2034
2035
2036
2037
2037
2038
2038
2038
2037
2037
2036
2037
2038
2038
2038
2037
2036
2035
2036
2038
2038
2037
2034
2032
2032
2033
2037
2044
2052
2065
2076
2083
2084
2074
2060
2045
2034
2029
2029
2032
2034
2036
2037
2037
2037
2036
2036
2035
2034
2037
2037
2038
2036
2036
2036
2037
2041
2043
2044
2043
2041
2040
2039
2041
2041
2042
2041
2041
2041
2042
2043
2043
2043
2043
2044
2044
2045
2046
2046
2046
2047
2048
2048
2048
2048
2047
2047
2048
2052
2054
2054
2052
2050
2048
2047
2046
2046
2044
2042
2042
2041
2041
2041
2040
2039
2038
2038
2038
2039
2039
2039
2039
2039
2039
2038
2036
2036
2037
2039
2042
2044
2043
2042
2039
2038
2037
2038
2039
2039
2039
2039
2039
2039
2039
2038
2038
2038
2038
2039
2040
2039
2039
2039
2039
2038
2037
2036
2035
2037
2040
2041
2040
2038
2035
2035
2036
2041
2043
2043
2040
2036
2035
2036
2037
2039
2039
2039
2038
2038
2038
2038
2039
2039
2040
2041
2040
2039
2037
2036
2036
2039
2043
2045
2045
2042
2039
2040
2047
2061
2075
2086
2089
2083
2069
2054
2042
2035
2032
2034
2036
2039
2040
2040
2039
2039
2039
2039
2039
2037
2034
2033
2034
2039
2044
2048
2047
2044
2040
2038
2037
2038
2039
2039
2039
2040
2040
2041
2041
2042
2042
2042
2042
2043
2044
2045
2045
2046
2046
2045
2046
2045
2045
2046
2048
2051
2053
2054
2054
2052
2050
2049
2049
2048
2049
2048
2048
2047
2046
2045
2044
2043
2043
2043
2043
2042
2041
2041
2040
2041
2040
2038
2036
2034
2035
2038
2043
2047
2048
2045
2040
2037
2036
2038
2039
2039
2039
2039
2039
2038
2038
2039
2039
2039
2040
2039
2039
2038
2038
2038
2039
2040
2040
2039
2038
2037
2038
2039
2041
2042
2042
2041
2039
2038
2039
2039
2039
2039
2039
2039
2040
2039
2039
2039
2039
2039
2039
2039
2038
2039
2039
2040
2041
2040
2039
2039
2039
2040
2041
2043
2044
2044
2042
2040
2039
2039
2038
2039
2039
2040
2041
2042
2042
2041
2039
2037
2037
2042
2049
2063
2076
2085
2088
2081
2068
2054
2041
2034
2032
2035
2040
2043
2044
2043
2041
2040
2039
2039
2039
2039
2040
2040
2040
2041
2041
2042
2041
2041
2041
2041
2041
2042
2043
2042
2042
2041
2040
2040
2040
2042
2045
2046
2046
2045
2043
2042
2042
2042
2045
2045
2047
2047
2048
2048
2048
2048
2048
2048
2048
2048
2048
2049
2051
2051
2050
2049
2048
2046
2044
2042
2041
2042
2044
2046
2046
2045
2042
2040
2038
2039
2039
2039
2039
2039
2039
2039
2039
2039
2039
2039
2039
2039
2038
2038
2038
2037
2038
2039
2038
2036
2034
2034
2036
2039
2042
2044
2043
2041
2038
2037
2037
2038
2039
2039
2039
2039
2039
2040
2039
2039
2039
2039
2040
2040
2040
2040
2039
2039
2039
2038
2039
2037
2036
2036
2038
2041
2043
2045
2044
2042
2041
2039
2040
2040
2041
2040
2040
2039
2039
2038
2038
2038
2039
2039
2041
2042
2042
2041
2038
2037
2036
2040
2047
2056
2069
2081
2087
2083
2069
2052
2037
2028
2026
2031
2034
2036
2036
2035
2035
2035
2035
2035
2035
2034
2034
2034
2034
2034
2033
2034
2036
2036
2036
2034
2031
2031
2033
2037
2041
2044
2043
2040
2038
2036
2037
2038
2039
2040
2040
2041
2042
2042
2044
2045
2046
2047
2047
2048
2048
2048
2048
2050
2051
2050
2048
2046
2045
2047
2049
2052
2054
2051
2048
2044
2041
2041
2041
2041
2040
2040
2039
2039
2039
2039
2041
2041
2042
2042
2042
2041
2041
2041
2043
2045
2046
2044
2041
2040
2041
2045
2048
2051
2050
2048
2045
2044
2043
2045
2046
2047
2048
2048
2048
2048
2048
2048
2048
2048
2048
2048
2048
2048
2048
2048
2048
2049
2048
2046
2045
2044
2047
2050
2053
2053
2049
2046
2041
2042
2045
2048
2049
2048
2046
2043
2042
2042
2044
2045
2043
2042
2041
2042
2042
2044
2043
2044
2044
2044
2042
2038
2036
2036
2043
2054
2069
2082
2089
2089
2080
2068
2055
2044
2037
2035
2037
2039
2041
2043
2044
2044
2044
2044
2042
2041
2041
2041
2043
2043
2043
2041
2039
2038
2040
2043
2047
2049
2048
2047
2045
2043
2044
2045
2046
2046
2046
2045
2046
2047
2047
2048
2048
2049
2049
2050
2051
2052
2052
2052
2054
2055
2055
2052
2050
2049
2052
2058
2063
2065
2062
2057
2053
2049
2049
2049
2049
2048
2048
2046
2045
2044
2044
2044
2045
2045
2045
2045
2044
2044
2042
2044
2045
2044
2041
2038
2038
2041
2046
2050
2051
2049
2046
2042
2040
2042
2043
2044
2043
2042
2042
2044
2045
2044
2042
2039
2038
2040
2045
2048
2049
2048
2045
2042
2041
2040
2039
2038
2040
2043
2046
2048
2046
2043
2040
2038
2039
2040
2040
2040
2039
2040
2040
2041
2041
2040
2040
2039
2039
2039
2041
2042
2043
2044
2042
2041
2039
2037
2037
2037
2040
2042
2045
2044
2044
2043
2043
2042
2042
2041
2041
2040
2041
2043
2044
2043
2044
2042
2040
2040
2040
2040
2042
2043
2044
2044
2043
2040
2037
2033
2036
2044
2056
2073
2087
2092
2088
2078
2061
2048
2040
2035
2035
2037
2039
2039
2040
2041
2041
2041
2041
2041
2040
2041
2041
2042
2042
2042
2041
2040
2040
2040
2041
2041
2042
2041
2040
2039
2039
2039
2040
2040
2041
2041
2042
2043
2043
2043
2043
2044
2043
2044
2044
2046
2048
2047
2048
2049
2048
2048
2047
2046
2047
2048
2051
2053
2054
2052
2049
2047
2045
2044
2043
2043
2042
2041
2040
2039
2039
2038
2038
2038
2038
2039
2039
2039
2038
2038
2039
2039
2038
2037
2035
2034
2035
2039
2042
2045
2044
2041
2038
2037
2037
2038
2039
2039
2039
2039
2039
2039
2039
2039
2039
2038
2039
2039
2039
2040
2039
2039
2039
2039
2039
2036
2033
2033
2036
2041
2047
2048
2046
2043
2039
2036
2038
2038
2039
2038
2038
2038
2038
2038
2037
2037
2038
2038
2039
2039
2038
2038
2037
2038
2039
2038
2036
2034
2034
2037
2041
2045
2045
2043
2040
2037
2036
2038
2039
2040
2040
2040
2039
2039
2039
2039
2040
2040
2040
2040
2040
2039
2039
2039
2040
2041
2041
2039
2036
2035
2036
2042
2053
2066
2078
2085
2084
2076
2063
2050
2040
2034
2032
2033
2036
2037
2038
2038
2038
2038
2037
2037
2037
2038
2037
2038
2038
2038
2037
2037
2036
2037
2038
2041
2042
2042
2041
2039
2037
2037
2037
2038
2039
2039
2040
2040
2040
2040
2040
2041
2041
2041
2042
2043
2044
2044
2045
2045
2046
2046
2044
2045
2045
2047
2049
2051
2051
2050
2048
2045
2043
2043
2043
2042
2041
2039
2038
2037
2037
2037
2036
2036
2036
2035
2035
2035
2036
2035
2037
2036
2035
2034
2034
2036
2038
2040
2040
2039
2037
2036
2035
2035
2037
2037
2038
2038
2038
2038
2039
2038
2038
2038
2037
2037
2037
2038
2039
2040
2040
2041
2040
2039
2037
2035
2036
2036
2039
2041
2042
2042
2040
2038
2036
2036
2036
2037
2037
2037
2036
2036
2035
2035
2036
2037
2037
2038
2037
2037
2036
2036
2037
2038
2038
2037
2034
2033
2033
2035
2039
2041
2040
2038
2036
2035
2036
2037
2037
2036
2034
2033
2035
2042
2052
2067
2080
2085
2081
2070
2056
2044
2035
2031
2030
2031
2032
2033
2034
2035
2036
2038
2039
2039
2039
2038
2038
2037
2037
2037
2037
2037
2039
2039
2039
2039
2038
2039
2039
2040
2042
2042
2042
2042
2041
2042
2042
2044
2042
2040
2039
2041
2045
2049
2053
2054
2052
2049
2048
2048
2048
2051
2052
2052
2052
2052
2051
2051
2051
2050
2050
2049
2048
2047
2046
2043
2043
2042
2041
2040
2038
2037
2037
2040
2043
2044
2043
2041
2039
2036
2038
2038
2038
2038
2038
2038
2038
2038
2038
2038
2039
2040
2040
2040
2040
2040
2040
2040
2040
2041
2040
2038
2038
2039
2041
2043
2044
2044
2042
2040
2040
2040
2040
2041
2041
2041
2041
2041
2041
2041
2041
2041
2041
2041
2041
2041
2041
2041
2042
2042
2042
2041
2039
2038
2039
2041
2044
2045
2045
2043
2041
2040
2040
2040
2041
2040
2041
2040
2041
2041
2040
2040
2040
2040
2041
2041
2042
2042
2042
2042
2041
2040
2039
2037
2036
2037
2040
2043
2045
2046
2044
2042
2039
2038
2037
2036
2038
2043
2052
2065
2078
2086
2086
2078
2064
2049
2039
2034
2035
2036
2040
2042
2040
2039
2036
2036
2037
2040
2041
2040
2038
2038
2040
2042
2045
2045
2041
2038
2036
2037
2038
2040
2039
2038
2039
2039
2039
2039
2039
2039
2039
2039
2040
2040
2039
2038
2037
2038
2040
2044
2047
2048
2048
2046
2045
2044
2045
2045
2046
2046
2046
2047
2047
2046
2045
2044
2043
2041
2041
2040
2039
2039
2037
2036
2038
2037
2036
2033
2031
2030
2033
2037
2041
2042
2040
2037
2035
2034
2036
2036
2037
2035
2035
2035
2035
2035
2036
2036
2037
2037
2037
2037
2037
2036
2036
2037
2038
2037
2036
2035
2035
2036
2038
2040
2041
2039
2037
2035
2034
2035
2036
2037
2037
2037
2037
2036
2037
2036
2036
2036
2036
2037
2036
2036
2036
2035
2038
2037
2037
2035
2034
2033
2034
2038
2040
2042
2041
2038
2036
2034
2035
2034
2035
2035
2035
2035
2036
2037
2038
2038
2038
2037
2037
2037
2037
2037
2037
2037
2038
2038
2036
2035
2034
2034
2036
2038
2040
2039
2036
2033
2031
2034
2043
2056
2070
2080
2083
2075
2062
2048
2036
2030
2027
2029
2030
2032
2034
2035
2035
2035
2035
2035
2033
2033
2033
2034
2037
2038
2039
2038
2036
2036
2035
2035
2036
2037
2038
2039
2040
2040
2039
2039
2038
2039
2039
2040
2040
2041
2042
2042
2043
2044
2044
2044
2043
2043
2045
2048
2051
2052
2051
2050
2048
2047
2047
2048
2048
2048
2048
2047
2046
2045
2043
2042
2040
2039
2038
2038
2039
2039
2039
2039
2037
2037
2035
2034
2034
2035
2037
2039
2040
2039
2037
2035
2033
2034
2035
2036
2036
2036
2037
2037
2037
2037
2036
2036
2037
2037
2038
2039
2039
2038
2038
2039
2039
2038
2037
2036
2036
2039
2042
2045
2044
2042
2039
2038
2039
2040
2040
2041
2040
2039
2039
2040
2040
2040
2040
2039
2039
2039
2039
2040
2040
2041
2042
2041
2040
2038
2036
2037
2040
2043
2045
2045
2042
2040
2039
2039
2041
2040
2041
2040
2040
2038
2036
2034
2035
2043
2055
2072
2086
2091
2086
2073
2058
2045
2037
2033
2031
2032
2034
2038
2042
2045
2045
2043
2040
2038
2038
2040
2040
2041
2040
2040
2041
2041
2042
2042
2042
2042
2041
2042
2042
2042
2042
2042
2044
2044
2044
2041
2039
2038
2040
2046
2048
2051
2049
2048
2046
2045
2048
2048
2048
2048
2048
2049
2050
2050
2051
2052
2052
2051
2050
2049
2048
2047
2046
2046
2045
2043
2041
2038
2036
2037
2039
2042
2043
2042
2039
2037
2036
2036
2036
2037
2037
2037
2037
2037
2037
2037
2037
2037
2037
2037
2037
2037
2038
2038
2039
2039
2038
2038
2036
2035
2035
2038
2041
2044
2045
2042
2040
2038
2037
2038
2038
2038
2038
2038
2038
2039
2039
2040
2040
2039
2039
2039
2040
2040
2040
2040
2040
2041
2040
2039
2038
2037
2038
2040
2042
2044
2043
2041
2039
2038
2038
2039
2040
2040
2040
2040
2041
2040
2041
2041
2040
2040
2040
2041
2042
2042
2042
2042
2040
2039
2038
2036
2037
2038
2041
2042
2042
2040
2037
2037
2042
2053
2068
2081
2088
2086
2075
2060
2046
2036
2032
2032
2035
2037
2038
2038
2037
2036
2038
2038
2038
2037
2035
2034
2035
2038
2041
2043
2042
2040
2038
2037
2038
2040
2040
2040
2040
2040
2040
2040
2040
2040
2041
2041
2041
2041
2042
2042
2042
2043
2043
2043
2043
2043
2043
2045
2047
2050
2052
2052
2050
2048
2047
2047
2048
2048
2048
2047
2044
2043
2041
2041
2040
2040
2040
2039
2039
2039
2038
2037
2035
2037
2036
2037
2035
2033
2031
2032
2035
2040
2044
2045
2042
2038
2034
2035
2034
2037
2037
2036
2036
2036
2037
2037
2038
2038
2038
2038
2038
2038
2038
2037
2040
2040
2040
2039
2038
2038
2039
2042
2044
2045
2044
2042
2040
2038
2040
2040
2040
2040
2039
2040
2041
2040
2038
2036
2035
2037
2041
2045
2046
2044
2041
2038
2037
2039
2039
2038
2037
2037
2039
2041
2043
2042
2040
2039
2038
2038
2039
2039
2039
2039
2040
2040
2041
2041
2040
2040
2040
2040
2040
2040
2039
2039
2039
2039
2038
2037
2035
2036
2037
2039
2041
2040
2039
2038
2041
2050
2064
2077
2085
2083
2073
2058
2045
2035
2030
2029
2030
2031
2032
2033
2034
2034
2034
2034
2034
2034
2033
2031
2030
2030
2033
2036
2039
2039
2038
2036
2033
2034
2034
2035
2037
2037
2037
2037
2038
2038
2038
2039
2038
2038
2038
2039
2041
2042
2044
2046
2044
2043
2042
2042
2044
2048
2051
2052
2052
2049
2048
2047
2046
2048
2047
2047
2046
2045
2044
2042
2041
2039
2038
2037
2037
2037
2037
2037
2036
2036
2037
2037
2037
2035
2033
2032
2033
2036
2039
2041
2040
2038
2035
2034
2035
2036
2036
2036
2036
2036
2036
2035
2035
2036
2036
2036
2036
2036
2036
2036
2036
2037
2037
2038
2037
2036
2035
2036
2037
2040
2040
2041
2039
2036
2034
2033
2034
2036
2039
2040
2039
2038
2036
2036
2035
2037
2037
2037
2037
2038
2037
2037
2036
2038
2039
2040
2038
2034
2031
2032
2036
2043
2048
2049
2046
2040
2035
2035
2035
2038
2038
2038
2038
2038
2038
2039
2039
2038
2037
2035
2036
2042
2051
2065
2079
2087
2086
2077
2061
2047
2036
2032
2034
2037
2039
2039
2038
2036
2036
2037
2037
2037
2037
2037
2038
2037
2038
2038
2038
2038
2038
2039
2038
2038
2038
2038
2038
2038
2038
2037
2037
2038
2040
2042
2044
2044
2043
2042
2041
2042
2043
2044
2044
2044
2045
2046
2047
2048
2048
2048
2048
2048
2048
2049
2049
2049
2049
2048
2048
2047
2044
2042
2040
2041
2043
2044
2043
2041
2038
2036
2035
2036
2037
2038
2038
2038
2037
2037
2037
2037
2037
2038
2038
2038
2038
2039
2039
2038
2039
2039
2037
2037
2037
2038
2040
2042
2042
2041
2039
2038
2037
2037
2039
2039
2040
2040
2040
2039
2039
2038
2039
2039
2039
2039
2039
2039
2040
2040
2040
2042
2041
2041
2040
2039
2039
2040
2043
2045
2046
2045
2043
2040
2039
2039
2040
2041
2041
2042
2042
2042
2042
2041
2041
2041
2041
2041
2041
2041
2040
2039
2040
2040
2039
2040
2038
2037
2037
2039
2042
2046
2047
2045
2043
2040
2039
2039
2039
2040
2039
2040
2040
2040
2039
2039
2040
2040
2040
2039
2038
2036
2037
2042
2050
2062
2075
2083
2084
2079
2068
2057
2048
2040
2036
2037
2037
2038
2038
2038
2038
2039
2040
2040
2039
2039
2038
2038
2038
2039
2040
2040
2040
2040
2040
2040
2040
2039
2037
2035
2035
2037
2041
2044
2045
2043
2041
2038
2038
2040
2041
2043
2043
2043
2044
2044
2046
2046
2047
2048
2048
2049
2049
2050
2050
2052
2054
2054
2053
2049
2047
2045
2046
2049
2052
2053
2051
2048
2044
2041
2042
2042
2041
2040
2039
2039
2040
2040
2041
2041
2041
2040
2040
2039
2039
2039
2039
2040
2041
2041
2039
2037
2036
2038
2041
2044
2047
2046
2043
2041
2039
2040
2040
2041
2041
2041
2042
2041
2041
2041
2041
2041
2042
2042
2042
2043
2043
2044
2044
2044
2043
2042
2040
2038
2038
2041
2045
2048
2048
2046
2043
2041
2039
2041
2040
2041
2041
2040
2040
2041
2041
2040
2040
2039
2039
2038
2038
2038
2038
2039
2039
2039
2038
2037
2036
2036
2038
2040
2041
2042
2040
2039
2038
2037
2037
2037
2037
2037
2037
2038
2038
2039
2039
2039
2038
2036
2035
2034
2035
2039
2047
2058
2071
2081
2082
2076
2063
2049
2039
2034
2032
2032
2033
2033
2033
2034
2035
2036
2036
2036
2036
2035
2034
2034
2035
2036
2037
2037
2036
2036
2035
2035
2035
2036
2035
2034
2033
2034
2035
2035
2035
2034
2034
2036
2040
2043
2043
2040
2036
2033
2034
2036
2039
2039
2040
2040
2040
2040
2041
2042
2043
2044
2044
2044
2043
2042
2041
2038
2036
2035
2036
2038
2038
2038
2035
2032
2030
2030
2030
2030
2029
2029
2029
2031
2032
2032
2031
2030
2029
2030
2032
2034
2034
2034
2032
2034
2034
2036
2035
2032
2030
2030
2033
2038
2042
2042
2040
2036
2032
2033
2033
2036
2036
2035
2035
2036
2036
2036
2035
2036
2036
2036
2036
2035
2035
2033
2035
2035
2035
2034
2032
2032
2033
2036
2039
2041
2040
2039
2039
2038
2041
2042
2042
2042
2041
2041
2041
2041
2042
2042
2042
2041
2040
2039
2039
2039
2040
2042
2042
2040
2036
2034
2037
2048
2065
2083
2096
2097
2086
2069
2051
2040
2033
2032
2033
2034
2036
2038
2039
2040
2040
2040
2040
2040
2040
2040
2040
2041
2042
2042
2042
2040
2037
2036
2037
2040
2044
2045
2045
2043
2040
2039
2039
2040
2041
2042
2042
2043
2044
2044
2044
2045
2045
2047
2047
2048
2048
2049
2050
2051
2052
2053
2052
2050
2049
2049
2051
2054
2056
2055
2052
2049
2045
2044
2042
2042
2043
2042
2041
2040
2039
2038
2037
2037
2037
2038
2038
2038
2038
2036
2037
2038
2036
2034
2032
2030
2030
2033
2037
2039
2040
2037
2035
2032
2031
2033
2033
2033
2033
2032
2032
2032
2032
2031
2030
2028
2028
2029
2032
2035
2037
2037
2037
2037
2037
2037
2036
2036
2036
2038
2042
2044
2043
2041
2038
2038
2039
2040
2040
2039
2037
2036
2036
2035
2036
2036
2036
2037
2038
2039
2040
2040
2039
2038
2036
2033
2031
2031
2039
2053
2071
2088
2094
2088
2072
2053
2039
2032
2029
2030
2031
2031
2033
2035
2036
2037
2036
2035
2035
2036
2036
2038
2037
2037
2037
2039
2040
2041
2039
2037
2036
2037
2041
2046
2049
2050
2049
2047
2044
2046
2046
2048
2048
2048
2048
2049
2050
2051
2052
2052
2052
2053
2053
2054
2055
2056
2059
2060
2061
2060
2058
2057
2057
2060
2062
2063
2060
2055
2051
2048
2047
2046
2046
2045
2045
2045
2045
2044
2042
2042
2042
2044
2044
2045
2043
2042
2040
2039
2039
2038
2036
2034
2031
2032
2035
2042
2047
2048
2047
2043
2040
2038
2039
2039
2039
2039
2039
2040
2041
2041
2041
2041
2040
2040
2039
2040
2040
2041
2042
2043
2043
2042
2040
2038
2037
2039
2044
2046
2047
2047
2044
2043
2042
2042
2041
2042
2043
2043
2044
2044
2045
2045
2046
2045
2044
2042
2043
2043
2043
2041
2040
2041
2047
2058
2076
2092
2104
2105
2096
2080
2063
2049
2041
2038
2039
2041
2043
2044
2045
2046
2046
2045
2045
2044
2044
2045
2046
2047
2048
2048
2048
2048
2049
2050
2049
2047
2045
2045
2048
2052
2055
2055
2053
2051
2048
2049
2050
2052
2053
2053
2054
2055
2055
2056
2057
2058
2059
2061
2062
2062
2062
2061
2062
2063
2064
2063
2061
2058
2058
2059
2062
2064
2062
2058
2052
2049
2048
2048
2048
2048
2048
2048
2047
2047
2046
2047
2047
2047
2047
2047
2046
2046
2045
2046
2046
2046
2046
2044
2043
2043
2046
2049
2052
2052
2050
2047
2045
2044
2046
2047
2048
2047
2047
2046
2046
2047
2047
2047
2047
2047
2048
2046
2048
2046
2046
2047
2046
2047
2044
2041
2041
2043
2047
2051
2054
2054
2051
2048
2046
2047
2047
2049
2048
2048
2048
2048
2047
2047
2047
2047
2048
2047
2047
2046
2046
2045
2048
2048
2048
2047
2043
2039
2038
2041
2048
2060
2074
2090
2104
2112
2111
2098
2079
2059
2046
2039
2041
2043
2046
2047
2046
2046
2045
2044
2044
2044
2044
2044
2047
2046
2045
2042
2040
2040
2044
2049
2053
2053
2051
2048
2045
2044
2046
2046
2047
2048
2048
2048
2047
2044
2044
2046
2050
2055
2058
2057
2055
2053
2053
2055
2056
2056
2054
2053
2054
2056
2060
2062
2061
2059
2056
2054
2052
2051
2050
2049
2048
2047
2047
2046
2045
2045
2044
2045
2044
2044
2044
2044
2044
2044
2044
2044
2043
2043
2041
2041
2042
2044
2046
2047
2046
2045
2044
2043
2043
2044
2044
2043
2043
2043
2044
2044
2044
2044
2044
2044
2045
2045
2045
2045
2044
2045
2045
2046
2045
2042
2041
2042
2045
2048
2049
2049
2048
2045
2043
2044
2045
2046
2046
2046
2046
2046
2045
2044
2045
2045
2046
2047
2046
2046
2045
2045
2046
2047
2046
2045
2044
2042
2043
2044
2048
2048
2048
2047
2045
2044
2044
2045
2046
2046
2047
2047
2047
2047
2046
2046
2046
2046
2046
2046
2045
2046
2045
2046
2047
2047
2047
2044
2040
2036
2038
2045
2058
2076
2094
2106
2109
2102
2087
2069
2053
2044
2041
2041
2043
2044
2045
2046
2046
2046
2045
2045
2044
2044
2043
2045
2045
2047
2045
2043
2041
2041
2044
2048
2050
2051
2048
2046
2043
2043
2042
2045
2045
2045
2045
2045
2046
2047
2048
2048
2049
2049
2049
2050
2050
2050
2053
2053
2054
2054
2053
2052
2053
2056
2059
2060
2059
2056
2053
2049
2049
2048
2048
2047
2046
2045
2045
2044
2043
2042
2041
2041
2041
2042
2042
2042
2041
2042
2043
2041
2039
2036
2034
2035
2039
2044
2047
2048
2045
2041
2039
2038
2039
2040
2040
2040
2040
2040
2040
2040
2040
2040
2041
2040
2040
2040
2040
2040
2041
2041
2040
2039
2037
2036
2037
2041
2045
2047
2046
2044
2041
2039
2039
2040
2040
2040
2041
2040
2041
2041
2041
2041
2040
2041
2040
2040
2040
2040
2039
2040
2041
2041
2040
2038
2037
2038
2040
2043
2044
2044
2041
2039
2037
2037
2038
2039
2039
2039
2039
2039
2040
2040
2040
2039
2038
2038
2039
2040
2040
2040
2040
2041
2040
2039
2038
2036
2036
2037
2040
2042
2043
2042
2039
2037
2035
2036
2036
2036
2037
2037
2036
2034
2032
2030
2030
2036
2047
2062
2078
2088
2090
2080
2063
2046
2032
2023
2021
2023
2026
2029
2032
2034
2034
2032
2031
2030
2030
2031
2033
2033
2035
2036
2036
2037
2037
2036
2037
2037
2038
2039
2039
2039
2038
2038
2038
2038
2039
2038
2037
2037
2040
2044
2047
2048
2047
2045
2044
2045
2048
2049
2050
2050
2050
2050
2050
2052
2053
2053
2053
2052
2051
2050
2050
2049
2048
2048
2048
2047
2043
2039
2036
2036
2040
2046
2048
2048
2044
2040
2036
2037
2037
2039
2039
2040
2040
2041
2041
2041
2041
2041
2041
2041
2041
2041
2040
2039
2041
2042
2042
2041
2039
2038
2038
2040
2042
2043
2043
2041
2040
2038
2039
2038
2038
2038
2038
2039
2040
2040
2040
2039
2039
2038
2038
2038
2037
2036
2036
2037
2038
2040
2039
2038
2036
2035
2037
2039
2042
2043
2042
2040
2038
2038
2038
2039
2040
2041
2042
2042
2041
2040
2040
2040
2040
2040
2041
2042
2042
2042
2043
2044
2044
2043
2041
2040
2040
2042
2045
2047
2048
2046
2044
2043
2042
2043
2044
2044
2044
2044
2044
2043
2043
2043
2043
2044
2044
2045
2045
2045
2046
2045
2045
2044
2041
2037
2035
2038
2048
2063
2082
2094
2097
2090
2074
2057
2045
2038
2037
2038
2040
2041
2042
2042
2043
2042
2041
2041
2040
2039
2040
2040
2041
2043
2042
2040
2038
2037
2038
2040
2042
2044
2043
2041
2038
2036
2034
2036
2036
2036
2037
2038
2039
2040
2041
2042
2043
2044
2044
2045
2046
2047
2048
2048
2050
2052
2051
2050
2048
2048
2049
2053
2056
2058
2055
2051
2047
2044
2042
2041
2039
2037
2036
2035
2035
2035
2035
2035
2036
2036
2037
2038
2038
2039
2038
2038
2038
2037
2036
2035
2035
2036
2037
2038
2038
2037
2038
2040
2042
2044
2043
2040
2038
2036
2036
2036
2036
2036
2036
2038
2039
2040
2039
2038
2037
2036
2037
2039
2038
2039
2036
2033
2031
2033
2039
2045
2048
2048
2044
2039
2035
2036
2037
2039
2039
2039
2039
2039
2039
2039
2039
2040
2040
2040
2040
2041
2041
2039
2041
2041
2041
2039
2038
2037
2039
2042
2045
2047
2045
2042
2040
2038
2041
2041
2042
2042
2042
2043
2043
2043
2043
2043
2043
2044
2044
2043
2043
2042
2040
2041
2042
2043
2043
2041
2040
2039
2039
2040
2043
2046
2051
2063
2076
2087
2090
2085
2071
2056
2045
2038
2035
2036
2037
2039
2039
2040
2041
2041
2042
2042
2043
2043
2043
2042
2040
2040
2041
2043
2046
2047
2048
2047
2045
2044
2043
2043
2044
2044
2045
2045
2046
2046
2045
2046
2046
2047
2048
2048
2049
2049
2050
2050
2051
2052
2052
2053
2052
2053
2055
2059
2062
2064
2063
2062
2059
2058
2057
2057
2057
2056
2054
2052
2051
2049
2048
2048
2046
2045
2044
2044
2046
2046
2045
2046
2045
2044
2042
2040
2039
2040
2042
2044
2045
2045
2044
2042
2040
2041
2041
2041
2041
2041
2041
2041
2041
2042
2042
2042
2042
2041
2041
2041
2041
2041
2042
2042
2041
2039
2038
2037
2038
2040
2043
2045
2045
2043
2041
2039
2040
2040
2041
2041
2041
2041
2041
2041
2041
2040
2040
2039
2039
2040
2041
2041
2041
2041
2041
2040
2040
2039
2038
2039
2041
2043
2044
2045
2043
2042
2041
2041
2042
2041
2041
2043
2043
2043
2042
2041
2040
2041
2042
2043
2043
2042
2040
2039
2038
2041
2040
2042
2040
2036
2033
2032
2035
2043
2054
2068
2080
2088
2088
2084
2072
2059
2047
2039
2036
2037
2039
2042
2043
2043
2043
2043
2042
2042
2042
2041
2044
2044
2045
2044
2042
2042
2043
2046
2048
2050
2050
2048
2046
2043
2044
2045
2046
2046
2045
2045
2046
2046
2046
2047
2047
2048
2048
2048
2048
2050
2050
2051
2054
2053
2053
2050
2048
2049
2052
2058
2062
2064
2062
2058
2054
2051
2051
2050
2049
2048
2047
2046
2046
2045
2044
2043
2042
2041
2041
2040
2040
2040
2041
2042
2041
2040
2038
2037
2038
2040
2043
2045
2044
2042
2039
2037
2036
2036
2036
2036
2037
2037
2038
2039
2039
2039
2039
2039
2039
2039
2039
2040
2040
2040
2040
2040
2039
2037
2035
2035
2038
2041
2044
2044
2042
2039
2037
2037
2037
2038
2039
2038
2038
2038
2038
2038
2038
2038
2037
2037
2037
2038
2040
2041
2041
2042
2040
2039
2039
2037
2036
2037
2039
2043
2045
2046
2045
2043
2041
2042
2042
2042
2043
2043
2043
2043
2043
2042
2042
2042
2043
2043
2043
2042
2041
2041
2043
2043
2042
2039
2037
2037
2045
2058
2078
2096
2106
2106
2097
2082
2068
2057
2052
2050
2051
2053
2054
2054
2053
2052
2050
2050
2049
2049
2049
2049
2048
2048
2048
2048
2048
2046
2044
2043
2044
2046
2047
2047
2044
2041
2039
2038
2038
2038
2039
2039
2038
2040
2040
2040
2040
2041
2043
2045
2047
2048
2047
2046
2044
2046
2045
2048
2046
2044
2042
2043
2046
2049
2051
2050
2047
2043
2039
2038
2037
2037
2036
2034
2033
2032
2032
2031
2031
2031
2031
2031
2031
2031
2031
2030
2032
2032
2032
2031
2029
2029
2030
2033
2037
2039
2039
2037
2036
2034
2034
2035
2035
2036
2036
2037
2039
2039
2041
2041
2042
2042
2042
2042
2041
2042
2041
2042
2044
2042
2041
2038
2036
2037
2040
2045
2048
2048
2045
2041
2038
2037
2039
2039
2038
2038
2038
2039
2039
2040
2040
2040
2040
2039
2039
2039
2039
2039
2039
2040
2040
2039
2036
2034
2033
2035
2038
2040
2039
2037
2033
2030
2027
2025
2023
2024
2025
2023
2021
2018
2017
2022
2034
2051
2066
2076
2076
2067
2053
2040
2030
2025
2022
2023
2024
2027
2030
2033
2035
2035
2031
2026
2019
2013
2009
2008
2009
2012
2015
2017
2017
2016
2015
2015
2014
2015
2016
2017
2017
2017
2016
2018
2019
2020
2021
2021
2021
2023
2027
2031
2034
2035
2035
2034
2032
2034
2035
2037
2038
2039
2040
2041
2041
2042
2042
2042
2043
2042
2042
2041
2041
2039
2039
2039
2038
2035
2031
2028
2029
2033
2039
2043
2043
2039
2035
2031
2031
2032
2033
2033
2032
2032
2032
2032
2032
2032
2032
2032
2032
2032
2032
2032
2030
2030
2030
2029
2029
2027
2026
2026
2028
2031
2034
2034
2032
2030
2028
2028
2028
2028
2029
2028
2028
2028
2027
2028
2027
2027
2027
2027
2028
2028
2029
2030
2030
2031
2030
2031
2029
2028
2027
2028
2033
2037
2040
2040
2037
2034
2031
2031
2030
2033
2033
2033
2033
2033
2033
2034
2034
2034
2032
2031
2032
2037
2047
2059
2073
2077
2073
2059
2043
2030
2023
2024
2028
2031
2032
2030
2029
2028
2030
2030
2031
2032
2032
2032
2033
2033
2034
2034
2035
2035
2035
2035
2035
2036
2036
2037
2038
2037
2036
2033
2031
2032
2035
2040
2044
2045
2043
2040
2039
2038
2041
2042
2042
2042
2042
2043
2044
2045
2046
2047
2048
2048
2048
2048
2048
2048
2048
2048
2048
2046
2043
2040
2039
2039
2042
2043
2043
2041
2037
2035
2032
2033
2032
2033
2034
2034
2034
2034
2033
2032
2032
2032
2032
2032
2033
2033
2033
2032
2034
2034
2033
2032
2029
2029
2030
2034
2038
2039
2038
2035
2033
2031
2032
2033
2034
2034
2034
2035
2035
2035
2035
2035
2035
2035
2036
2036
2037
2037
2035
2036
2036
2036
2036
2034
2033
2033
2036
2039
2041
2041
2040
2037
2035
2036
2036
2037
2038
2038
2037
2037
2035
2033
2032
2034
2041
2051
2065
2077
2082
2078
2067
2053
2042
2033
2029
2028
2029
2033
2037
2041
2041
2039
2037
2035
2035
2036
2037
2037
2037
2037
2036
2037
2037
2037
2038
2038
2038
2038
2038
2038
2038
2039
2039
2039
2039
2037
2037
2037
2040
2043
2045
2047
2045
2043
2042
2042
2043
2044
2046
2046
2047
2047
2046
2046
2046
2046
2047
2047
2047
2047
2047
2047
2045
2045
2042
2042
2038
2036
2034
2034
2037
2040
2043
2043
2041
2038
2035
2035
2035
2036
2036
2035
2036
2036
2036
2037
2037
2037
2037
2037
2037
2037
2037
2036
2038
2039
2038
2037
2035
2034
2035
2039
2042
2043
2043
2040
2038
2035
2036
2037
2038
2038
2038
2038
2038
2038
2039
2039
2039
2040
2039
2038
2038
2039
2039
2040
2042
2041
2040
2037
2034
2034
2036
2042
2046
2048
2046
2042
2038
2036
2036
2038
2038
2037
2035
2034
2033
2035
2043
2053
2066
2076
2080
2075
2064
2049
2040
2033
2030
2029
2029
2029
2031
2035
2039
2042
2042
2040
2037
2036
2035
2036
2036
2037
2037
2038
2039
2039
2039
2039
2038
2038
2037
2038
2038
2039
2040
2039
2039
2039
2039
2039
2039
2039
2040
2043
2046
2048
2048
2048
2047
2046
2046
2047
2048
2048
2048
2049
2049
2049
2050
2049
2049
2049
2049
2049
2048
2048
2045
2046
2045
2044
2041
2038
2036
2036
2040
2044
2046
2046
2043
2040
2037
2038
2038
2039
2039
2039
2039
2039
2038
2038
2038
2038
2038
2038
2038
2038
2037
2037
2038
2039
2038
2038
2036
2034
2035
2037
2040
2043
2043
2041
2039
2038
2038
2039
2039
2039
2039
2039
2039
2039
2039
2039
2039
2039
2039
2039
2040
2041
2040
2040
2040
2040
2039
2038
2037
2037
2038
2040
2041
2042
2040
2039
2038
2037
2038
2038
2037
2035
2034
2036
2042
2051
2063
2073
2078
2074
2064
2051
2040
2033
2030
2033
2035
2037
2037
2037
2038
2038
2042
2042
2041
2040
2038
2038
2038
2039
2039
2040
2040
2040
2040
2040
2041
2041
2041
2042
2041
2041
2041
2042
2042
2042
2043
2043
2043
2041
2041
2041
2043
2047
2049
2051
2051
2050
2049
2048
2049
2050
2051
2051
2052
2052
2052
2052
2052
2052
2051
2050
2049
2048
2047
2046
2045
2045
2045
2044
2042
2040
2038
2038
2040
2043
2046
2046
2044
2042
2040
2040
2040
2041
2040
2040
2040
2041
2041
2042
2042
2042
2042
2041
2041
2041
2041
2042
2041
2042
2041
2042
2040
2037
2036
2037
2040
2043
2045
2045
2044
2042
2042
2041
2039
2040
2040
2039
2040
2039
2040
2039
2039
2039
2039
2039
2040
2041
2041
2040
2043
2041
2041
2038
2035
2034
2036
2042
2047
2049
2048
2046
2042
2038
2038
2037
2038
2040
2047
2057
2069
2079
2083
2079
2067
2054
2043
2035
2033
2033
2034
2038
2039
2040
2038
2035
2034
2034
2037
2041
2043
2043
2040
2038
2035
2036
2037
2038
2038
2038
2038
2039
2039
2040
2041
2041
2040
2039
2038
2038
2040
2041
2044
2045
2043
2041
2038
2037
2039
2043
2048
2052
2054
2053
2049
2047
2046
2047
2048
2048
2048
2048
2047
2047
2046
2046
2045
2043
2042
2041
2040
2039
2038
2038
2038
2037
2037
2035
2033
2031
2033
2036
2040
2041
2040
2038
2036
2034
2035
2035
2037
2037
2038
2037
2036
2034
2035
2035
2037
2038
2039
2037
2037
2037
2037
2039
2040
2041
2039
2035
2033
2033
2035
2040
2044
2045
2043
2040
2036
2036
2035
2035
2036
2036
2037
2037
2038
2038
2038
2038
2037
2037
2036
2036
2036
2035
2037
2037
2037
2036
2033
2031
2032
2035
2039
2041
2040
2037
2037
2041
2054
2068
2077
2079
2071
2058
2046
2038
2033
2030
2030
2029
2031
2032
2035
2036
2035
2034
2036
2036
2034
2033
2030
2030
2034
2040
2045
2046
2044
2040
2037
2036
2037
2038
2038
2038
2039
2039
2039
2039
2039
2040
2040
2041
2041
2042
2042
2043
2044
2045
2046
2046
2044
2043
2042
2044
2048
2053
2055
2055
2052
2048
2047
2046
2046
2047
2046
2045
2045
2043
2042
2042
2040
2040
2039
2037
2038
2038
2038
2038
2040
2040
2038
2034
2031
2029
2032
2038
2044
2047
2045
2041
2037
2034
2035
2036
2037
2037
2038
2038
2039
2039
2038
2038
2037
2038
2038
2039
2039
2039
2038
2039
2039
2040
2038
2035
2034
2033
2036
2040
2043
2044
2042
2039
2036
2036
2037
2038
2038
2038
2038
2039
2038
2038
2038
2039
2040
2040
2038
2038
2037
2037
2038
2039
2040
2038
2034
2032
2032
2037
2047
2060
2073
2082
2084
2078
2067
2053
2042
2034
2031
2033
2034
2036
2037
2038
2039
2038
2037
2038
2039
2041
2042
2042
2041
2039
2038
2035
2035
2036
2038
2041
2042
2043
2041
2039
2038
2038
2040
2041
2041
2041
2040
2041
2041
2042
2042
2042
2043
2044
2046
2047
2048
2048
2047
2048
2048
2049
2049
2049
2048
2048
2050
2052
2053
2053
2049
2047
2045
2044
2044
2043
2042
2041
2040
2040
2039
2039
2039
2038
2038
2038
2038
2038
2038
2038
2039
2039
2039
2038
2036
2035
2036
2038
2041
2044
2043
2042
2041
2039
2040
2040
2040
2040
2040
2039
2040
2040
2041
2041
2041
2041
2041
2040
2040
2040
2039
2040
2042
2042
2041
2038
2035
2035
2038
2042
2046
2047
2045
2042
2039
2038
2039
2039
2039
2039
2039
2039
2040
2040
2040
2041
2041
2040
2040
2040
2040
2040
2040
2041
2040
2040
2038
2036
2036
2037
2041
2044
2046
2044
2040
2037
2035
2041
2050
2064
2078
2085
2084
2075
2062
2048
2039
2034
2033
2035
2038
2040
2041
2040
2042
2041
2039
2038
2035
2035
2036
2040
2043
2045
2045
2043
2041
2038
2039
2040
2041
2041
2039
2037
2037
2039
2043
2046
2048
2046
2044
2042
2042
2043
2043
2046
2046
2046
2047
2045
2044
2044
2046
2048
2052
2053
2053
2051
2049
2049
2049
2049
2050
2049
2048
2048
2047
2046
2046
2044
2044
2043
2042
2041
2041
2040
2040
2041
2040
2039
2038
2038
2038
2040
2042
2043
2043
2041
2040
2039
2039
2040
2040
2040
2040
2040
2040
2039
2039
2040
2040
2040
2040
2040
2040
2040
2040
2040
2040
2040
2040
2039
2038
2037
2038
2041
2043
2044
2042
2040
2039
2039
2039
2040
2040
2040
2039
2039
2039
2040
2039
2039
2040
2040
2041
2042
2042
2041
2039
2039
2038
2039
2039
2039
2039
2039
2041
2043
2044
2044
2042
2040
2038
2039
2039
2040
2039
2039
2039
2039
2039
2039
2040
2039
2038
2036
2035
2038
2046
2056
2071
2081
2084
2077
2063
2048
2038
2034
2035
2038
2038
2038
2037
2036
2038
2038
2038
2038
2037
2037
2038
2038
2038
2039
2038
2039
2039
2039
2039
2039
2038
2039
2040
2041
2040
2039
2037
2037
2039
2042
2045
2046
2044
2043
2041
2041
2042
2043
2044
2044
2045
2046
2047
2047
2048
2048
2048
2048
2048
2049
2050
2050
2049
2050
2048
2047
2043
2039
2038
2040
2044
2048
2048
2045
2041
2038
2036
2038
2037
2038
2037
2037
2037
2037
2038
2038
2038
2038
2037
2037
2037
2037
2038
2038
2039
2039
2039
2037
2035
2034
2036
2038
2041
2043
2042
2040
2037
2035
2037
2037
2039
2039
2039
2038
2038
2037
2038
2038
2037
2038
2037
2038
2039
2039
2039
2041
2040
2039
2036
2034
2033
2035
2039
2044
2046
2045
2041
2038
2036
2037
2038
2038
2038
2037
2037
2038
2038
2038
2038
2038
2038
2038
2039
2039
2040
2039
2040
2040
2038
2038
2036
2035
2034
2037
2040
2044
2045
2043
2039
2035
2036
2040
2049
2063
2075
2083
2081
2073
2059
2047
2038
2034
2033
2034
2037
2038
2039
2040
2040
2039
2039
2037
2036
2036
2038
2041
2043
2044
2044
2042
2040
2039
2039
2039
2041
2041
2041
2041
2040
2040
2040
2041
2042
2043
2043
2044
2043
2043
2043
2044
2045
2045
2043
2042
2043
2046
2050
2053
2054
2052
2050
2048
2048
2049
2049
2049
2048
2048
2047
2046
2046
2045
2044
2043
2041
2041
2040
2039
2039
2038
2040
2040
2038
2038
2035
2033
2034
2037
2040
2043
2043
2041
2039
2037
2038
2038
2037
2038
2037
2038
2038
2038
2038
2037
2037
2038
2038
2038
2038
2038
2037
2037
2038
2039
2038
2037
2036
2035
2037
2040
2042
2043
2041
2039
2037
2037
2037
2038
2038
2038
2038
2038
2038
2038
2038
2038
2037
2037
2037
2037
2037
2037
2037
2039
2038
2036
2033
2030
2030
2034
2040
2044
2045
2042
2038
2036
2034
2037
2036
2037
2037
2037
2037
2037
2037
2038
2038
2039
2039
2039
2039
2039
2039
2039
2040
2040
2039
2038
2036
2035
2036
2039
2042
2044
2044
2042
2039
2035
2035
2035
2040
2048
2062
2075
2084
2085
2077
2063
2048
2038
2033
2032
2035
2038
2039
2042
2041
2040
2038
2035
2035
2036
2040
2044
2047
2046
2043
2040
2037
2038
2038
2040
2041
2041
2041
2041
2041
2040
2040
2040
2040
2040
2040
2041
2041
2042
2043
2043
2043
2043
2043
2042
2043
2045
2047
2049
2049
2048
2048
2047
2047
2047
2048
2048
2048
2048
2047
2047
2045
2044
2044
2043
2042
2041
2039
2038
2037
2037
2037
2038
2037
2036
2035
2035
2036
2039
2040
2041
2039
2037
2036
2035
2036
2036
2036
2036
2036
2036
2036
2036
2036
2036
2036
2036
2038
2038
2038
2038
2037
2037
2037
2036
2035
2034
2034
2035
2038
2040
2041
2039
2038
2035
2035
2036
2036
2037
2036
2036
2036
2036
2036
2037
2037
2037
2036
2037
2037
2038
2036
2032
2031
2031
2034
2038
2041
2041
2040
2038
2037
2039
2038
2039
2038
2036
2038
2038
2037
2037
2036
2036
2037
2037
2037
2037
2037
2037
2036
2036
2036
2037
2037
2038
2037
2035
2034
2036
2042
2053
2069
2082
2088
2082
2068
2052
2039
2032
2029
2031
2033
2034
2036
2037
2038
2038
2038
2038
2038
2038
2038
2038
2038
2038
2038
2040
2040
2039
2037
2034
2033
2036
2042
2047
2048
2048
2045
2041
2038
2040
2041
2042
2043
2043
2044
2045
2045
2045
2046
2047
2048
2048
2048
2049
2050
2051
2053
2053
2053
2051
2048
2047
2048
2050
2053
2055
2053
2050
2046
2042
2041
2041
2042
2041
2041
2040
2040
2039
2038
2038
2038
2038
2038
2039
2040
2040
2039
2041
2040
2038
2038
2035
2034
2035
2039
2043
2046
2045
2042
2039
2036
2037
2037
2038
2039
2039
2039
2040
2040
2040
2039
2039
2039
2039
2039
2039
2039
2039
2040
2040
2039
2038
2038
2037
2037
2039
2041
2043
2043
2042
2040
2038
2039
2039
2039
2039
2040
2040
2040
2040
2039
2038
2039
2038
2039
2039
2040
2039
2039
2039
2039
2040
2040
2039
2038
2038
2040
2042
2043
2043
2041
2039
2038
2038
2039
2040
2040
2040
2040
2040
2039
2038
2036
2037
2043
2052
2067
2080
2087
2085
2075
2062
2048
2039
2033
2031
2032
2035
2040
2044
2046
2044
2042
2039
2038
2038
2039
2040
2039
2039
2039
2039
2039
2039
2040
2040
2041
2041
2041
2041
2041
2039
2042
2042
2042
2041
2039
2039
2039
2043
2046
2048
2048
2047
2046
2045
2046
2047
2047
2048
2048
2048
2049
2050
2051
2051
2051
2051
2050
2049
2048
2048
2048
2047
2047
2045
2042
2039
2037
2037
2039
2044
2046
2046
2044
2040
2039
2037
2039
2039
2038
2038
2039
2039
2039
2040
2040
2039
2039
2039
2038
2038
2038
2039
2039
2041
2041
2040
2037
2034
2033
2035
2041
2046
2048
2046
2042
2039
2036
2038
2038
2039
2039
2039
2040
2040
2040
2040
2040
2040
2040
2039
2039
2040
2040
2040
2040
2040
2040
2039
2038
2037
2038
2040
2042
2044
2042
2041
2039
2038
2038
2038
2040
2039
2040
2040
2040
2039
2039
2039
2038
2038
2038
2038
2039
2040
2040
2042
2042
2042
2041
2039
2037
2037
2040
2043
2045
2045
2043
2040
2038
2038
2039
2040
2041
2041
2041
2039
2038
2036
2038
2045
2055
2069
2080
2085
2081
2070
2057
2046
2038
2033
2031
2031
2034
2039
2043
2046
2046
2043
2040
2038
2038
2038
2039
2039
2039
2040
2040
2040
2040
2040
2040
2039
2039
2040
2040
2040
2040
2041
2041
2041
2041
2039
2038
2040
2043
2046
2048
2048
2046
2044
2043
2044
2046
2047
2048
2048
2048
2048
2048
2048
2048
2048
2048
2048
2049
2049
2049
2047
2046
2045
2044
2042
2040
2037
2036
2036
2039
2043
2045
2045
2043
2039
2037
2037
2037
2036
2038
2038
2038
2037
2038
2038
2038
2039
2039
2040
2039
2039
2039
2038
2040
2039
2039
2038
2036
2036
2037
2040
2044
2045
2044
2041
2039
2038
2038
2038
2039
2039
2038
2038
2039
2039
2039
2039
2039
2040
2039
2039
2038
2038
2038
2038
2041
2040
2039
2036
2033
2033
2036
2042
2046
2047
2044
2040
2037
2036
2038
2039
2039
2039
2039
2039
2038
2038
2039
2039
2039
2039
2039
2038
2038
2038
2038
2041
2040
2040
2037
2034
2034
2037
2043
2047
2048
2045
2041
2038
2036
2039
2039
2039
2039
2039
2039
2040
2040
2040
2039
2037
2035
2037
2043
2053
2066
2078
2083
2081
2071
2056
2043
2034
2031
2033
2037
2040
2041
2040
2039
2038
2038
2038
2039
2039
2039
2039
2039
2039
2039
2039
2038
2038
2038
2039
2040
2040
2040
2042
2041
2040
2039
2037
2036
2037
2040
2044
2045
2046
2045
2044
2041
2040
2038
2039
2043
2048
2051
2052
2051
2048
2046
2046
2047
2048
2048
2048
2048
2048
2048
2048
2047
2045
2043
2041
2040
2041
2042
2044
2043
2041
2038
2036
2037
2037
2038
2038
2037
2037
2036
2037
2037
2037
2038
2037
2038
2038
2038
2038
2037
2037
2037
2038
2038
2037
2037
2036
2038
2040
2041
2041
2040
2039
2038
2037
2038
2038
2038
2038
2038
2038
2038
2038
2037
2037
2038
2038
2039
2040
2040
2039
2038
2039
2039
2037
2038
2036
2035
2036
2038
2040
2042
2042
2040
2038
2036
2037
2037
2037
2037
2037
2036
2037
2037
2037
2038
2038
2037
2038
2037
2037
2036
2035
2038
2037
2037
2035
2033
2032
2034
2037
2040
2042
2041
2040
2038
2037
2038
2038
2037
2037
2036
2036
2036
2037
2037
2037
2038
2038
2038
2038
2038
2037
2035
2034
2035
2040
2048
2058
2068
2075
2077
2072
2063
2050
2039
2032
2028
2029
2031
2034
2035
2035
2036
2035
2035
2035
2035
2035
2034
2035
2035
2035
2036
2036
2036
2037
2036
2035
2033
2032
2032
2035
2040
2043
2045
2042
2039
2037
2035
2038
2038
2039
2039
2039
2040
2040
2041
2041
2042
2042
2043
2044
2044
2045
2045
2045
2046
2047
2046
2044
2043
2041
2043
2045
2047
2048
2045
2043
2039
2036
2037
2036
2037
2036
2036
2035
2035
2035
2035
2035
2034
2034
2034
2034
2036
2036
2036
2038
2037
2036
2034
2032
2031
2032
2037
2041
2043
2042
2039
2037
2034
2035
2036
2036
2037
2037
2037
2037
2038
2037
2037
2037
2037
2038
2038
2038
2038
2038
2038
2038
2038
2036
2035
2034
2036
2038
2041
2042
2041
2039
2037
2036
2036
2036
2037
2037
2037
2037
2036
2037
2037
2037
2038
2038
2039
2038
2039
2038
2038
2038
2038
2038
2037
2035
2034
2035
2037
2040
2042
2042
2040
2038
2035
2034
2034
2035
2041
2051
2066
2078
2084
2080
2068
2052
2041
2034
2033
2034
2035
2035
2036
2037
2039
2038
2038
2036
2036
2037
2039
2041
2041
2040
2039
2039
2039
2040
2040
2040
2039
2038
2040
2040
2041
2041
2041
2041
2041
2041
2041
2041
2042
2042
2045
2045
2045
2043
2041
2040
2043
2048
2051
2054
2053
2051
2050
2049
2051
2051
2051
2051
2051
2051
2050
2050
2049
2048
2048
2046
2045
2043
2042
2041
2041
2040
2042
2042
2040
2037
2034
2034
2037
2043
2047
2047
2044
2040
2037
2036
2038
2038
2038
2038
2038
2038
2038
2038
2038
2038
2037
2037
2037
2037
2037
2038
2037
2039
2038
2038
2036
2034
2034
2035
2039
2042
2043
2042
2040
2038
2037
2039
2039
2039
2040
2040
2040
2041
2041
2041
2040
2040
2039
2039
2039
2039
2040
2038
2040
2039
2038
2036
2035
2036
2038
2042
2045
2045
2044
2041
2039
2037
2039
2039
2039
2039
2039
2039
2040
2040
2040
2039
2037
2036
2035
2038
2045
2055
2067
2080
2084
2082
2071
2055
2042
2034
2033
2037
2041
2043
2042
2040
2038
2039
2038
2039
2040
2039
2039
2038
2038
2038
2038
2038
2038
2039
2039
2039
2039
2039
2039
2040
2040
2039
2037
2036
2036
2038
2042
2045
2046
2045
2042
2041
2041
2042
2043
2044
2045
2046
2046
2047
2047
2048
2048
2048
2048
2049
2048
2049
2048
2047
2047
2046
2044
2041
2039
2038
2038
2039
2039
2039
2037
2035
2034
2033
2034
2035
2036
2036
2036
2037
2037
2038
2038
2038
2039
2039
2041
2042
2043
2043
2041
2041
2041
2041
2040
2039
2039
2039
2041
2042
2042
2041
2039
2038
2038
2040
2040
2040
2039
2037
2037
2036
2035
2034
2035
2037
2039
2041
2041
2041
2040
2038
2040
2040
2040
2038
2035
2033
2033
2036
2039
2041
2041
2039
2036
2033
2033
2033
2032
2031
2030
2029
2029
2028
2028
2028
2027
2028
2028
2030
2029
2028
2028
2031
2036
2040
2044
2045
2048
2058
2074
2094
2107
2109
2098
2082
2067
2057
2052
2052
2054
2056
2058
2058
2058
2056
2055
2054
2053
2053
2052
2051
2051
2050
2050
2049
2048
2047
2043
2041
2040
2044
2048
2051
2051
2048
2046
2042
2042
2044
