2039
2038
2037
2038
2040
2042
2045
2047
2048
2048
2048
2048
2049
2050
2051
2051
2050
2049
2048
2047
2047
2047
2047
2047
2048
2048
2050
2051
2052
2052
2051
2051
2050
2051
2053
2056
2059
2061
2061
2060
2058
2056
2056
2057
2058
2059
2059
2056
2052
2048
2047
2055
2080
2124
2177
2218
2232
2211
2166
2117
2085
2076
2083
2091
2091
2083
2071
2062
2057
2054
2051
2048
2047
2046
2046
2047
2048
2049
2050
2051
2051
2051
2051
2051
2052
2053
2054
2055
2056
2057
2057
2058
2058
2059
2060
2062
2064
2066
2068
2069
2071
2073
2075
2078
2081
2085
2088
2091
2094
2097
2100
2103
2107
2110
2113
2115
2117
2118
2118
2117
2115
2111
2106
2099
2092
2084
2077
2071
2064
2059
2054
2050
2048
2045
2044
2043
2043
2044
2045
2045
2045
2044
2044
2044
2045
2045
2046
2046
2046
2045
2045
2044
2044
2044
2045
2046
2047
2048
2048
2048
2049
2049
2049
2050
2050
2050
2050
2050
2050
2049
2049
2049
2048
2048
2048
2048
2048
2049
2049
2049
2050
2050
2050
2050
2050
2050
2050
2050
2051
2051
2050
2049
2048
2048
2048
2048
2048
2048
2049
2049
2048
2048
2048
2048
2048
2048
2048
2048
2047
2047
2048
2048
2048
2048
2048
2048
2048
2048
2048
2048
2048
2048
2048
2048
2048
2048
2048
2049
2049
2050
2050
2050
2049
2049
2049
2049
2049
2050
2050
2051
2051
2050
2050
2050
2050
2050
2050
2051
2052
2052
2051
2050
2049
2049
2049
2049
2050
2050
2050
2049
2048
2048
2046
2045
2046
2047
2049
2051
2054
2055
2056
2056
2057
2057
2058
2059
2060
2060
2060
2059
2057
2055
2053
2052
2052
2053
2054
2055
2055
2056
2056
2055
2056
2056
2056
2056
2057
2057
2057
2057
2057
2057
2057
2058
2059
2060
2060
2057
2051
2045
2038
2035
2042
2065
2109
2166
2217
2242
2231
2189
2136
2095
2076
2076
2084
2088
2084
2074
2065
2059
2055
2052
2050
2049
2049
2050
2050
2051
2052
2052
2053
2053
2053
2054
2054
2055
2056
2056
2058
2058
2059
2059
2060
2060
2061
2062
2063
2064
2066
2067
2068
2069
2070
2071
2073
2075
2078
2081
2085
2087
2090
2092
2094
2096
2098
2101
2103
2106
2108
2110
2111
2110
2107
2103
2098
2093
2087
2081
2074
2068
2062
2057
2053
2049
2047
2046
2044
2043
2042
2042
2042
2041
2041
2041
2042
2044
2046
2047
2047
2046
2045
2045
2045
2046
2048
2048
2050
2051
2051
2051
2051
2052
2054
2055
2057
2058
2059
2060
2060
2061
2061
2061
2061
2062
2062
2063
2063
2063
2065
2066
2066
2065
2063
2059
2055
2053
2053
2055
2058
2061
2062
2063
2063
2063
2063
2063
2064
2064
2064
2063
2063
2062
2062
2061
2061
2060
2060
2059
2059
2059
2058
2058
2057
2056
2056
2056
2056
2057
2057
2057
2057
2056
2056
2055
2055
2056
2056
2056
2056
2056
2056
2055
2055
2054
2054
2054
2054
2055
2055
2055
2055
2055
2055
2055
2054
2054
2055
2055
2055
2055
2055
2054
2053
2052
2051
2051
2051
2051
2052
2052
2052
2052
2051
2050
2050
2050
2050
2050
2051
2051
2052
2054
2055
2056
2056
2057
2058
2059
2060
2061
2061
2060
2059
2057
2056
2055
2055
2055
2055
2056
2056
2056
2056
2056
2055
2054
2053
2052
2051
2051
2049
2048
2048
2047
2046
2046
2047
2048
2049
2049
2048
2045
2038
2031
2025
2027
2041
2073
2124
2180
2219
2226
2197
2146
2097
2067
2061
2071
2081
2084
2077
2066
2057
2052
2048
2045
2044
2043
2044
2045
2046
2046
2046
2045
2044
2044
2044
2044
2045
2046
2047
2048
2048
2048
2048
2050
2052
2053
2055
2056
2057
2059
2060
2062
2064
2067
2069
2072
2074
2076
2079
2081
2084
2087
2091
2096
2101
2106
2109
2112
2115
2117
2119
2120
2121
2120
2117
2112
2105
2096
2087
2078
2069
2062
2055
2049
2047
2043
2041
2039
2037
2036
2035
2035
2036
2036
2036
2036
2036
2036
2036
2037
2036
2036
2035
2035
2035
2035
2035
2036
2036
2036
2036
2036
2036
2036
2037
2038
2038
2038
2038
2038
2038
2039
2039
2040
2041
2042
2043
2043
2044
2044
2044
2044
2044
2044
2045
2045
2045
2045
2046
2046
2046
2046
2046
2046
2046
2046
2047
2047
2047
2047
2046
2046
2047
2048
2048
2048
2048
2047
2047
2046
2046
2045
2045
2045
2046
2046
2047
2047
2047
2046
2047
2048
2048
2050
2051
2052
2053
2053
2052
2052
2051
2051
2051
2051
2051
2051
2052
2052
2053
2054
2054
2054
2054
2053
2053
2054
2056
2058
2060
2061
2061
2061
2062
2063
2065
2066
2066
2064
2061
2058
2055
2053
2052
2052
2053
2053
2054
2054
2054
2054
2054
2054
2054
2053
2054
2054
2054
2055
2055
2056
2056
2055
2056
2057
2057
2057
2055
2052
2048
2043
2039
2042
2058
2096
2151
2205
2238
2233
2191
2132
2082
2060
2065
2083
2097
2100
2091
2080
2071
2066
2062
2060
2058
2057
2056
2056
2057
2057
2058
2058
2059
2060
2061
2062
2064
2065
2066
2067
2067
2067
2068
2068
2069
2071
2074
2076
2078
2079
2080
2081
2082
2085
2088
2091
2094
2097
2101
2105
2109
2113
2117
2121
2125
2130
2134
2137
2141
2143
2145
2146
2144
2141
2135
2127
2119
2108
2098
2088
2078
2069
2062
2056
2051
2048
2047
2045
2044
2043
2043
2043
2042
2042
2041
2041
2041
2042
2042
2042
2042
2042
2042
2042
2042
2043
2043
2044
2044
2044
2043
2043
2042
2042
2043
2044
2045
2046
2047
2047
2047
2047
2047
2048
2048
2048
2048
2049
2049
2049
2049
2048
2047
2047
2047
2048
2048
2049
2049
2048
2048
2048
2048
2048
2048
2048
2048
2048
2048
2048
2048
2048
2048
2048
2047
2047
2048
2048
2048
2048
2047
2047
2046
2045
2044
2044
2044
2044
2045
2045
2045
2043
2041
2040
2040
2041
2044
2046
2048
2050
2050
2050
2050
2050
2050
2051
2052
2052
2052
2051
2050
2049
2048
2048
2048
2048
2048
2047
2047
2047
2047
2047
2047
2046
2046
2047
2047
2048
2048
2048
2049
2049
2049
2050
2052
2052
2051
2048
2042
2035
2030
2032
2047
2083
2138
2192
2224
2219
2178
2121
2074
2054
2059
2077
2089
2090
2081
2069
2061
2056
2052
2049
2048
2046
2046
2046
2047
2048
2048
2048
2048
2048
2048
2048
2049
2049
2050
2051
2052
2053
2053
2054
2054
2055
2056
2058
2060
2062
2064
2066
2068
2070
2072
2074
2077
2081
2084
2089
2093
2097
2102
2105
2109
2112
2115
2118
2120
2122
2122
2122
2120
2115
2109
2101
2092
2082
2072
2063
2055
2048
2042
2038
2034
2031
2029
2027
2027
2026
2026
2026
2027
2027
2027
2027
2027
2028
2029
2029
2030
2030
2030
2031
2031
2031
2031
2031
2032
2032
2032
2030
2028
2025
2022
2021
2022
2022
2024
2025
2025
2026
2027
2027
2027
2027
2027
2028
2029
2029
2030
2030
2030
2031
2032
2034
2036
2038
2039
2039
2040
2040
2040
2041
2041
2041
2042
2042
2043
2044
2045
2045
2045
2045
2044
2044
2044
2044
2045
2045
2046
2046
2046
2046
2045
2045
2045
2045
2045
2046
2046
2047
2047
2048
2048
2048
2048
2048
2048
2049
2049
2049
2049
2048
2048
2047
2047
2046
2045
2044
2045
2046
2047
2049
2050
2052
2053
2053
2054
2056
2057
2058
2058
2057
2055
2053
2052
2051
2051
2052
2052
2052
2051
2051
2050
2050
2050
2051
2051
2051
2051
2051
2051
2051
2051
2051
2051
2051
2052
2053
2054
2056
2056
2055
2051
2046
2038
2031
2027
2034
2057
2102
2160
2212
2238
2226
2184
2133
2094
2077
2079
2086
2086
2077
2064
2053
2047
2043
2038
2034
2030
2027
2026
2025
2026
2027
2028
2028
2029
2029
2030
2031
2033
2034
2034
2035
2035
2036
2038
2040
2042
2045
2047
2048
2048
2049
2049
2049
2051
2055
2059
2064
2067
2070
2072
2075
2078
2082
2087
2091
2095
2098
2100
2102
2103
2105
2107
2108
2107
2105
2101
2096
2090
2083
2075
2068
2060
2053
2047
2042
2038
2038
2038
2038
2038
2037
2036
2037
2038
2038
2038
2036
2034
2033
2033
2034
2035
2036
2037
2037
2037
2037
2036
2036
2036
2036
2036
2036
2037
2038
2039
2040
2040
2041
2041
2040
2040
2041
2041
2042
2043
2042
2042
2042
2042
2042
2043
2043
2044
2045
2045
2045
2045
2045
2044
2044
2044
2045
2045
2046
2046
2046
2046
2046
2046
2047
2047
2047
2047
2048
2048
2048
2048
2048
2047
2047
2048
2048
2048
2048
2048
2048
2048
2048
2048
2048
2048
2048
2048
2048
2048
2048
2048
2048
2047
2047
2048
2048
2048
2049
2049
2048
2048
2048
2048
2048
2049
2050
2050
2050
2050
2050
2050
2050
2050
2051
2051
2051
2051
2052
2052
2051
2050
2049
2048
2047
2046
2046
2047
2047
2048
2048
2048
2048
2048
2048
2048
2047
2047
2047
2047
2047
2046
2046
2046
2047
2048
2050
2052
2054
2055
2055
2055
2055
2056
2056
2057
2057
2057
2055
2054
2053
2052
2051
2051
2051
2051
2052
2052
2052
2053
2052
2052
2051
2051
2051
2051
2051
2051
2052
2052
2052
2052
2052
2053
2054
2053
2052
2048
2042
2034
2027
2026
2039
2072
2128
2192
2241
2256
2231
2179
2126
2090
2077
2080
2084
2083
2074
2064
2056
2052
2048
2047
2046
2045
2044
2044
2045
2045
2046
2047
2047
2048
2048
2048
2048
2048
2048
2048
2049
2050
2050
2051
2052
2052
2052
2053
2054
2056
2058
2060
2062
2063
2064
2066
2067
2069
2072
2075
2078
2082
2085
2088
2090
2092
2095
2098
2101
2103
2103
2101
2097
2092
2086
2081
2075
2070
2064
2057
2051
2047
2042
2038
2034
2031
2028
2025
2024
2025
2027
2030
2033
2036
2037
2038
2038
2038
2039
2040
2040
2040
2040
2040
2040
2040
2041
2041
2042
2043
2043
2044
2044
2045
2044
2044
2044
2044
2045
2045
2046
2047
2047
2047
2046
2046
2046
2046
2047
2047
2047
2047
2047
2047
2047
2047
2047
2047
2048
2048
2048
2048
2048
2048
2048
2048
2048
2048
2048
2048
2048
2048
2048
2048
2048
2048
2047
2047
2047
2047
2048
2048
2048
2048
2048
2047
2047
2048
2048
2048
2048
2049
2049
2049
2049
2048
2048
2048
2048
2049
2049
2049
2050
2049
2049
2049
2049
2049
2049
2050
2050
2051
2051
2051
2050
2050
2050
2050
2050
2051
2051
2051
2051
2051
2051
2050
2050
2051
2051
2052
2052
2053
2053
2053
2052
2052
2052
2052
2053
2053
2053
2053
2053
2053
2053
2052
2052
2052
2051
2051
2051
2050
2050
2050
2050
2050
2052
2054
2055
2056
2057
2057
2058
2058
2059
2059
2059
2059
2058
2057
2056
2055
2054
2053
2052
2052
2051
2050
2049
2048
2048
2047
2046
2045
2043
2042
2042
2041
2041
2042
2042
2042
2042
2043
2044
2044
2044
2041
2036
2029
2022
2018
2022
2042
2081
2139
2196
2231
2231
2196
2143
2096
2069
2065
2071
2074
2071
2062
2053
2048
2044
2041
2039
2038
2037
2037
2037
2038
2039
2039
2040
2041
2041
2042
2042
2042
2043
2043
2044
2045
2046
2047
2048
2048
2049
2049
2050
2051
2052
2054
2056
2058
2060
2062
2063
2065
2068
2070
2073
2077
2080
2084
2087
2090
2093
2095
2097
2100
2103
2105
2107
2107
2105
2102
2097
2091
2084
2078
2073
2069
2066
2063
2060
2056
2053
2051
2049
2048
2048
2048
2048
2048
2048
2048
2048
2048
2048
2048
2049
2049
2050
2050
2051
2050
2050
2050
2050
2050
2051
2051
2052
2052
2053
2052
2052
2052
2052
2052
2052
2053
2053
2053
2054
2054
2053
2053
2054
2054
2054
2054
2055
2055
2054
2054
2053
2053
2053
2053
2054
2054
2055
2055
2055
2055
2054
2054
2054
2054
2054
2054
2054
2055
2055
2055
2054
2054
2054
2054
2054
2055
2055
2055
2055
2055
2055
2054
2054
2054
2054
2055
2055
2055
2055
2055
2054
2054
2054
2054
2054
2054
2054
2054
2054
2054
2054
2054
2053
2053
2054
2054
2055
2055
2055
2055
2055
2054
2054
2055
2055
2055
2055
2056
2056
2056
2055
2055
2055
2055
2055
2056
2056
2056
2056
2056
2056
2056
2055
2055
2056
2056
2056
2056
2056
2056
2055
2055
2055
2054
2055
2055
2054
2053
2050
2047
2044
2042
2040
2040
2040
2040
2041
2041
2041
2040
2039
2038
2038
2038
2039
2041
2043
2046
2047
2048
2048
2048
2048
2049
2051
2052
2053
2053
2053
2051
2050
2049
2048
2048
2048
2049
2050
2050
2050
2049
2049
2048
2048
2049
2049
2049
2050
2050
2050
2051
2050
2051
2051
2053
2053
2051
2048
2042
2035
2030
2032
2047
2081
2134
2190
2227
2232
2201
2150
2102
2074
2068
2075
2081
2080
2072
2062
2056
2052
2048
2047
2045
2044
2044
2045
2046
2047
2047
2047
2047
2047
2048
2048
2048
2049
2051
2052
2053
2053
2054
2055
2055
2056
2057
2058
2060
2061
2063
2065
2066
2067
2068
2070
2072
2075
2078
2081
2084
2087
2090
2093
2096
2099
2102
2105
2108
2110
2111
2112
2112
2111
2108
2104
2099
2093
2086
2079
2072
2066
2060
2055
2050
2048
2045
2043
2042
2042
2041
2041
2040
2040
2039
2039
2040
2040
2041
2042
2042
2042
2042
2042
2042
2043
2043
2044
2044
2044
2045
2045
2045
2044
2044
2044
2044
2045
2045
2046
2046
2046
2046
2047
2046
2047
2047
2047
2047
2048
2048
2048
2048
2048
2048
2048
2048
2048
2048
2048
2048
2048
2048
2048
2048
2048
2048
2048
2048
2048
2048
2048
2048
2048
2048
2048
2048
2048
2048
2049
2049
2049
2049
2048
2048
2048
2048
2049
2049
2050
2050
2050
2050
2049
2049
2049
2049
2050
2050
2051
2051
2050
2050
2050
2050
2050
2050
2050
2050
2051
2051
2051
2051
2051
2051
2051
2051
2051
2052
2052
2052
2053
2053
2053
2052
2052
2051
2052
2052
2053
2053
2053
2053
2052
2052
2052
2052
2052
2052
2052
2053
2053
2053
2053
2052
2052
2052
2052
2053
2053
2052
2051
2050
2049
2049
2049
2051
2053
2055
2057
2058
2058
2058
2058
2059
2059
2060
2060
2060
2059
2057
2057
2056
2055
2055
2054
2054
2054
2055
2055
2055
2055
2055
2054
2054
2054
2054
2055
2055
2055
2055
2056
2056
2057
2057
2055
2051
2046
2040
2035
2036
2047
2075
2123
2177
2218
2230
2207
2160
2111
2079
2070
2076
2084
2085
2079
2069
2062
2057
2054
2052
2050
2049
2048
2048
2049
2049
2050
2051
2052
2052
2053
2053
2053
2052
2053
2053
2054
2055
2056
2057
2058
2059
2060
2060
2061
2063
2064
2066
2068
2070
2071
2073
2075
2077
2079
2082
2086
2089
2092
2096
2099
2102
2105
2107
2109
2111
2113
2115
2116
2116
2114
2110
2104
2097
2090
2082
2075
2069
2064
2058
2054
2050
2048
2045
2043
2041
2040
2040
2040
2041
2043
2044
2045
2045
2045
2044
2044
2044
2045
2045
2045
2045
2045
2044
2044
2044
2044
2044
2045
2045
2046
2046
2046
2046
2046
2046
2046
2047
2047
2048
2048
2048
2047
2047
2046
2047
2047
2047
2048
2048
2048
2048
2048
2048
2048
2048
2048
2048
2048
2048
2048
2048
2048
2048
2048
2048
2048
2048
2049
2049
2049
2049
2049
2049
2049
2049
2049
2050
2050
2050
2050
2050
2049
2049
2049
2049
2050
2050
2051
2051
2051
2051
2050
2050
2050
2050
2051
2051
2051
2052
2052
2052
2051
2051
2050
2050
2051
2051
2052
2052
2052
2053
2052
2052
2052
2052
2052
2052
2052
2053
2053
2053
2053
2052
2052
2052
2052
2053
2053
2053
2053
2053
2052
2051
2051
2050
2050
2050
2050
2050
2051
2052
2054
2055
2057
2058
2058
2059
2060
2061
2062
2061
2061
2059
2058
2057
2056
2056
2056
2056
2056
2055
2055
2055
2055
2055
2055
2055
2055
2055
2055
2054
2054
2054
2053
2054
2055
2056
2057
2057
2055
2049
2044
2037
2033
2039
2059
2098
2151
2200
2226
2218
2179
2127
2085
2065
2067
2077
2084
2082
2074
2065
2058
2054
2051
2049
2048
2048
2048
2049
2050
2050
2050
2049
2049
2050
2051
2052
2053
2054
2055
2055
2055
2056
2056
2057
2058
2060
2062
2063
2065
2066
2067
2068
2069
2071
2073
2076
2078
2081
2084
2087
2089
2092
2095
2098
2102
2106
2109
2111
2113
2115
2116
2116
2115
2113
2110
2105
2099
2092
2085
2078
2071
2064
2058
2053
2049
2047
2045
2044
2043
2042
2041
2040
2039
2039
2039
2040
2040
2041
2041
2041
2041
2040
2040
2041
2041
2042
2042
2042
2043
2043
2042
2042
2042
2042
2042
2042
2043
2043
2044
2044
2044
2044
2043
2043
2044
2044
2045
2045
2046
2045
2045
2045
2045
2045
2045
2046
2047
2047
2047
2046
2046
2046
2046
2046
2046
2047
2048
2048
2048
2048
2048
2047
2047
2047
2048
2048
2048
2048
2048
2048
2048
2048
2048
2048
2048
2048
2048
2049
2049
2049
2048
2048
2048
2048
2048
2049
2049
2050
2050
2050
2050
2049
2048
2048
2048
2048
2049
2049
2049
2048
2048
2048
2048
2048
2048
2049
2049
2049
2049
2049
2049
2049
2049
2050
2050
2050
2050
2050
2050
2050
2049
2048
2048
2048
2047
2047
2047
2048
2049
2051
2052
2053
2054
2055
2055
2056
2057
2058
2059
2059
2058
2057
2055
2053
2052
2052
2052
2052
2051
2051
2051
2051
2051
2050
2050
2051
2051
2051
2051
2051
2051
2050
2050
2051
2052
2053
2054
2053
2050
2045
2039
2032
2031
2040
2066
2110
2164
2208
2223
2204
2159
2108
2073
2061
2066
2076
2080
2077
2068
2060
2055
2051
2048
2048
2047
2048
2048
2048
2048
2048
2049
2049
2050
2050
2051
2052
2052
2053
2054
2054
2054
2055
2056
2057
2058
2060
2061
2063
2064
2065
2065
2066
2068
2070
2072
2075
2078
2081
2084
2086
2089
2092
2095
2098
2101
2104
2107
2110
2113
2116
2118
2118
2117
2115
2111
2106
2100
2093
2085
2077
2070
2064
2058
2054
2050
2048
2047
2046
2045
2045
2044
2043
2043
2043
2043
2043
2044
2044
2044
2044
2044
2043
2043
2044
2045
2046
2046
2046
2045
2043
2041
2039
2038
2038
2039
2040
2042
2043
2045
2046
2047
2047
2047
2048
2048
2049
2048
2048
2046
2045
2044
2044
2044
2045
2045
2045
2046
2046
2047
2047
2047
2047
2047
2048
2048
2048
2048
2048
2048
2048
2048
2048
2048
2048
2048
2048
2049
2049
2050
2050
2049
2049
2049
2049
2049
2049
2049
2049
2050
2050
2050
2050
2050
2050
2050
2050
2050
2051
2050
2050
2049
2049
2049
2049
2049
2049
2050
2049
2049
2049
2049
2050
2050
2050
2050
2050
2050
2050
2050
2049
2049
2049
2049
2049
2049
2049
2049
2049
2048
2048
2048
2047
2046
2046
2047
2048
2050
2052
2054
2055
2055
2055
2056
2056
2057
2058
2059
2059
2057
2055
2052
2050
2049
2049
2050
2050
2052
2053
2054
2055
2054
2052
2050
2048
2048
2048
2048
2049
2049
2049
2050
2051
2051
2050
2048
2043
2037
2032
2030
2039
2062
2105
2157
2200
2216
2196
2151
2102
2068
2059
2068
2082
2087
2083
2073
2064
2059
2056
2053
2051
2050
2049
2048
2048
2048
2049
2049
2050
2051
2051
2051
2051
2051
2053
2054
2056
2057
2057
2056
2056
2056
2056
2057
2059
2061
2062
2064
2066
2068
2070
2072
2075
2078
2081
2084
2088
2093
2097
2101
2104
2107
2109
2111
2113
2115
2117
2118
2119
2119
2117
2112
2105
2095
2085
2075
2067
2060
2054
2048
2043
2038
2034
2032
2032
2032
2033
2033
2034
2033
2032
2031
2030
2029
2030
2030
2031
2032
2033
2034
2034
2034
2034
2034
2034
2034
2035
2035
2035
2035
2036
2036
2036
2037
2038
2040
2041
2042
2042
2042
2042
2043
2044
2045
2046
2047
2048
2048
2048
2049
2050
2050
2050
2050
2051
2051
2052
2053
2053
2054
2053
2054
2054
2054
2054
2054
2054
2054
2055
2055
2055
2054
2053
2052
2051
2051
2052
2053
2054
2054
2054
2054
2053
2053
2054
2055
2056
2056
2056
2055
2055
2056
2057
2058
2058
2058
2057
2055
2053
2053
2053
2053
2054
2055
2056
2057
2058
2059
2061
2062
2064
2065
2064
2061
2057
2053
2050
2048
2048
2048
2048
2047
2046
2047
2048
2050
2052
2054
2055
2056
2057
2057
2058
2058
2058
2058
2060
2061
2062
2062
2060
2056
2050
2045
2042
2046
2063
2100
2152
2201
2227
2216
2172
2114
2068
2050
2058
2078
2093
2096
2088
2078
2070
2064
2059
2054
2049
2047
2046
2044
2043
2042
2042
2043
2045
2048
2049
2050
2049
2048
2048
2048
2049
2052
2055
2058
2061
2063
2064
2066
2067
2069
2071
2073
2075
2077
2080
2084
2088
2092
2095
2099
2102
2106
2110
2115
2120
2125
2129
2132
2135
2137
2138
2138
2137
2134
2129
2122
2112
2101
2090
2078
2068
2060
2053
2048
2045
2041
2039
2037
2035
2034
2033
2032
2033
2033
2034
2035
2036
2036
2036
2035
2035
2035
2035
2034
2035
2035
2036
2036
2037
2037
2036
2036
2036
2036
2037
2038
2038
2039
2039
2038
2037
2037
2037
2038
2038
2038
2038
2037
2037
2036
2036
2036
2037
2037
2038
2039
2039
2039
2039
2038
2038
2038
2038
2039
2040
2040
2040
2040
2040
2039
2039
2040
2040
2041
2041
2041
2041
2040
2040
2040
2040
2040
2040
2039
2039
2038
2037
2037
2036
2036
2036
2037
2038
2041
2043
2044
2045
2045
2046
2047
2047
2047
2047
2045
2044
2043
2043
2043
2043
2043
2042
2042
2041
2042
2042
2042
2043
2043
2042
2042
2041
2041
2040
2041
2041
2042
2042
2042
2043
2044
2044
2044
2041
2037
2030
2023
2016
2018
2034
2069
2121
2173
2202
2195
2154
2097
2051
2032
2036
2052
2064
2065
2056
2044
2035
2029
2025
2022
2020
2019
2019
2021
2023
2025
2026
2027
2026
2026
2026
2026
2027
2028
2029
2030
2031
2032
2034
2036
2038
2040
2042
2043
2044
2046
2048
2051
2054
2057
2061
2065
2068
2071
2073
2076
2080
2084
2088
2092
2096
2100
2104
2107
2111
2113
2114
2113
2111
2108
2104
2098
2091
2083
2074
2065
2057
2049
2043
2038
2035
2032
2030
2029
2028
2027
2027
2028
2029
2029
2028
2025
2021
2019
2019
2020
2022
2023
2024
2026
2027
2028
2028
2029
2029
2029
2029
2029
2029
2030
2030
2031
2031
2031
2031
2032
2032
2033
2034
2036
2036
2036
2034
2031
2029
2028
2028
2029
2029
2029
2029
2029
2029
2030
2030
2031
2031
2031
2031
2031
2031
2031
2031
2031
2031
2031
2032
2032
2033
2033
2033
2032
2032
2033
2034
2035
2036
2036
2037
2037
2037
2037
2037
2037
2036
2035
2035
2035
2035
2035
2036
2036
2036
2036
2037
2037
2037
2038
2038
2038
2037
2036
2036
2035
2035
2036
2038
2040
2043
2045
2045
2046
2046
2046
2047
2048
2048
2049
2049
2049
2048
2048
2048
2048
2048
2048
2048
2048
2049
2050
2050
2050
2050
2050
2050
2051
2051
2052
2052
2053
2053
2053
2053
2053
2053
2055
2056
2057
2056
2053
2048
2040
2032
2028
2035
2059
2107
2169
2225
2253
2242
2197
2142
2098
2078
2079
2087
2089
2084
2074
2064
2058
2054
2051
2050
2050
2051
2050
2048
2047
2046
2045
2045
2046
2046
2046
2046
2047
2048
2048
2048
2049
2049
2049
2051
2053
2055
2058
2060
2061
2062
2063
2065
2067
2069
2071
2073
2075
2076
2077
2079
2081
2084
2088
2092
2095
2098
2101
2104
2106
2107
2108
2107
2106
2103
2099
2093
2087
2081
2074
2067
2061
2055
2051
2048
2046
2045
2045
2044
2044
2043
2042
2042
2041
2041
2041
2042
2042
2042
2042
2042
2042
2042
2042
2043
2043
2044
2044
2044
2044
2045
2044
2044
2044
2044
2045
2045
2045
2045
2045
2045
2045
2044
2045
2045
2045
2046
2046
2046
2046
2046
2046
2046
2046
2046
2047
2048
2048
2049
2050
2049
2049
2048
2048
2048
2048
2048
2049
2049
2049
2049
2049
2049
2049
2049
2050
2050
2050
2051
2051
2051
2051
2050
2050
2050
2051
2051
2051
2051
2051
2051
2051
2051
2051
2051
2051
2051
2052
2052
2052
2052
2052
2052
2052
2052
2052
2053
2053
2054
2054
2054
2053
2053
2053
2053
2054
2054
2054
2054
2054
2054
2054
2054
2055
2054
2054
2054
2054
2054
2054
2053
2053
2052
2051
2051
2052
2053
2056
2058
2059
2060
2061
2060
2061
2061
2062
2063
2063
2063
2063
2061
2060
2058
2057
2057
2057
2057
2057
2058
2058
2058
2057
2057
2056
2056
2056
2056
2057
2057
2057
2057
2057
2057
2057
2057
2057
2059
2060
2060
2058
2054
2047
2040
2033
2034
2048
2081
2137
2198
2243
2254
2227
2175
2122
2089
2078
2083
2089
2088
2080
2069
2061
2056
2052
2050
2048
2048
2048
2049
2049
2049
2050
2050
2050
2050
2051
2052
2053
2054
2054
2054
2055
2055
2055
2056
2057
2059
2060
2061
2062
2063
2064
2065
2066
2068
2070
2072
2075
2077
2080
2083
2085
2088
2091
2094
2097
2101
2104
2106
2108
2110
2111
2112
2111
2109
2106
2102
2097
2091
2084
2076
2069
2062
2057
2052
2049
2048
2046
2045
2044
2043
2042
2041
2041
2041
2041
2041
2042
2043
2044
2044
2044
2044
2045
2045
2046
2046
2047
2047
2048
2048
2048
2047
2047
2048
2048
2049
2050
2050
2050
2050
2050
2049
2049
2049
2049
2050
2050
2051
2051
2051
2050
2050
2049
2049
2050
2051
2051
2052
2052
2051
2051
2051
2051
2051
2051
2052
2052
2052
2052
2052
2051
2051
2051
2051
2052
2052
2053
2053
2053
2053
2053
2053
2053
2053
2053
2053
2054
2055
2055
2055
2055
2054
2053
2053
2053
2053
2054
2054
2055
2055
2055
2055
2054
2054
2055
2055
2055
2055
2055
2055
2055
2055
2055
2054
2055
2055
2055
2055
2055
2055
2055
2055
2055
2055
2055
2056
2056
2056
2057
2057
2056
2056
2056
2056
2056
2057
2057
2057
2056
2056
2055
2055
2054
2053
2053
2053
2054
2055
2057
2059
2060
2061
2061
2061
2061
2062
2063
2064
2064
2064
2063
2061
2060
2059
2059
2059
2059
2059
2058
2058
2058
2058
2058
2057
2058
2058
2058
2058
2058
2058
2058
2057
2057
2057
2057
2057
2058
2059
2060
2060
2057
2052
2046
2039
2034
2037
2053
2090
2146
2204
2242
2245
2211
2158
2110
2082
2076
2083
2089
2087
2078
2068
2061
2057
2053
2052
2051
2051
2051
2050
2050
2050
2050
2051
2051
2052
2053
2053
2054
2054
2055
2055
2056
2057
2057
2059
2060
2061
2061
2062
2063
2064
2065
2066
2068
2070
2072
2075
2077
2079
2082
2084
2087
2090
2093
2097
2100
2104
2107
2109
2111
2112
2113
2113
2113
2111
2108
2104
2098
2091
2084
2076
2069
2063
2058
2054
2051
2048
2047
2046
2044
2043
2042
2042
2042
2043
2043
2043
2043
2043
2043
2042
2043
2043
2044
2044
2045
2045
2045
2045
2045
2044
2044
2044
2044
2045
2045
2046
2046
2046
2046
2046
2045
2045
2046
2046
2047
2047
2047
2047
2047
2046
2046
2046
2046
2047
2047
2047
2047
2047
2047
2046
2046
2046
2046
2048
2051
2053
2047
2034
2025
2037
2082
2160
2254
2338
2396
2423
2427
2421
2414
2411
2406
2403
2401
2401
2399
2389
2372
2356
2349
2357
2383
2420
2461
2493
2516
2528
2535
2539
2544
2546
2546
2547
2545
2539
2529
2517
2510
2509
2518
2528
2534
2531
2520
2508
2497
2493
2490
2484
2474
2458
2448
2438
2431
2426
2418
2411
2402
2395
2389
2387
2393
2401
2411
2415
2414
2411
2401
2389
2372
2350
2331
2314
2305
2298
2294
2289
2277
2258
2225
2189
2161
2150
2150
2145
2134
2106
2072
2038
2007
1979
1948
1917
1892
1877
1871
1869
1863
1850
1836
1823
1812
1802
1796
1792
1791
1791
1794
1797
1799
1800
1802
1804
1806
1809
1812
1816
1819
1821
1822
1821
1817
1813
1809
1810
1821
1850
1899
1958
2008
2029
2013
1969
1919
1884
1872
1878
1889
1894
1890
1881
1874
1871
1869
1869
1869
1871
1872
1874
1876
1877
1879
1881
1884
1887
1889
1892
1894
1895
1897
1899
1901
1903
1906
1909
1912
1914
1917
1919
1921
1923
1926
1929
1932
1935
1938
1942
1946
1949
1952
1956
1960
1965
1969
1974
1979
1983
1987
1991
1994
1997
2000
2002
2003
2003
2002
1999
1995
1989
1982
1976
1969
1964
1959
1955
1952
1950
1949
1948
1947
1946
1946
1947
1948
1949
1951
1952
1953
1954
1955
1956
1957
1957
1959
1960
1961
1963
1964
1964
1965
1965
1966
1966
1967
1969
1970
1971
1972
1973
1973
1974
1974
1975
1976
1977
1979
1980
1981
1981
1981
1982
1982
1983
1984
1985
1986
1987
1988
1988
1989
1989
1989
1990
1991
1992
1993
1994
1995
1995
1995
1995
1995
1995
1996
1997
1998
1999
2000
2001
2001
2002
2002
2003
2003
2004
2005
2005
2005
2005
2006
2006
2007
2007
2008
2008
2009
2010
2011
2011
2011
2011
2011
2012
2012
2013
2014
2015
2015
2015
2015
2015
2016
2016
2017
2018
2018
2019
2019
2020
2020
2020
2020
2020
2021
2021
2022
2023
2023
2023
2023
2023
2023
2024
2025
2025
2026
2026
2026
2026
2026
2026
2026
2025
2025
2025
2025
2026
2027
2029
2031
2032
2033
2034
2035
2036
2037
2039
2040
2040
2039
2038
2037
2036
2035
2035
2035
2036
2036
2036
2036
2036
2036
2036
2036
2036
2036
2037
2037
2037
2037
2037
2037
2037
2037
2038
2040
2041
2041
2039
2034
2027
2020
2015
2018
2034
2067
2119
2174
2211
2214
2183
2132
2085
2058
2054
2063
2071
2071
2063
2053
2046
2042
2038
2036
2035
2035
2035
2036
2036
2037
2037
2037
2037
2038
2039
2040
2041
2042
2042
2043
2043
2043
2044
2046
2047
2048
2050
2051
2052
2053
2054
2055
2056
2058
2061
2063
2066
2069
2072
2074
2077
2080
2083
2086
2090
2094
2097
2100
2102
2104
2105
2105
2105
2104
2101
2097
2092
2085
2077
2069
2061
2055
2049
2045
2041
2038
2036
2034
2033
2033
2032
2032
2032
2032
2032
2032
2032
2032
2032
2033
2033
2033
2034
2034
2034
2035
2035
2034
2034
2033
2033
2033
2034
2034
2035
2035
2036
2036
2037
2037
2037
2037
2037
2037
2038
2039
2039
2039
2038
2037
2035
2033
2031
2031
2030
2031
2031
2031
2031
2031
2031
2031
2031
2030
2029
2028
2028
2029
2029
2030
2030
2030
2030
2031
2031
2031
2031
2030
2030
2029
2028
2028
2029
2030
2031
2033
2034
2035
2035
2036
2036
2036
2036
2036
2036
2037
2037
2037
2038
2037
2037
2037
2037
2037
2038
2038
2038
2037
2037
2036
2036
2035
2035
2035
2036
2036
2037
2038
2038
2038
2038
2037
2038
2039
2040
2041
2042
2042
2041
2041
2042
2042
2043
2043
2043
2042
2041
2042
2044
2047
2049
2051
2052
2053
2054
2056
2057
2057
2055
2052
2050
2050
2051
2051
2051
2049
2048
2047
2047
2047
2048
2048
2047
2047
2047
2046
2046
2047
2046
2046
2046
2046
2046
2046
2047
2048
2048
2046
2043
2038
2032
2027
2026
2036
2062
2108
2163
2207
2221
2198
2148
2096
2063
2056
2069
2084
2091
2086
2073
2060
2051
2046
2045
2047
2038
2017
2015
2039
2092
2157
2200
2196
2147
2083
2037
2019
2026
2042
2049
2040
2039
2039
2041
2043
2046
2048
2049
2050
2052
2053
2055
2057
2059
2061
2063
2066
2069
2073
2077
2080
2083
2086
2090
2095
2100
2105
2109
2112
2115
2117
2118
2118
2117
2114
2110
2103
2095
2085
2074
2064
2055
2048
2044
2041
2044
2039
2023
2016
2022
2048
2086
2118
2124
2101
2063
2032
2019
2020
2032
2039
2034
2032
2031
2030
2031
2032
2033
2033
2033
2033
2032
2033
2034
2037
2040
2041
2040
2037
2033
2031
2031
2031
2033
2034
2035
2036
2037
2039
2041
2042
2043
2044
2043
2043
2042
2042
2042
2043
2043
2044
2044
2045
2046
2048
2048
2049
2050
2050
2050
2050
2050
2049
2048
2048
2047
2047
2046
2046
2047
2048
2048
2050
2051
2053
2053
2053
2053
2054
2054
2055
2055
2055
2054
2053
2053
2054
2054
2053
2050
2048
2046
2045
2045
2046
2047
2048
2048
2050
2052
2054
2056
2057
2058
2059
2060
2062
2063
2064
2064
2062
2061
2059
2058
2058
2059
2059
2059
2059
2060
2060
2059
2059
2058
2058
2058
2058
2059
2060
2060
2060
2059
2058
2057
2057
2059
2060
2062
2062
2060
2056
2050
2046
2042
2043
2055
2088
2142
2199
2238
2240
2202
2141
2086
2058
2062
2081
2100
2103
2095
2081
2071
2064
2060
2057
2055
2054
2053
2053
2054
2055
2055
2056
2057
2058
2060
2061
2061
2062
2062
2063
2064
2065
2067
2069
2071
2072
2072
2073
2074
2076
2078
2080
2081
2083
2085
2088
2091
2095
2099
2103
2107
2111
2116
2121
2126
2130
2135
2140
2143
2146
2147
2147
2146
2143
2137
2129
2120
2108
2097
2086
2076
2067
2060
2053
2048
2044
2040
2037
2035
2033
2033
2033
2034
2036
2037
2038
2039
2039
2039
2038
2037
2037
2036
2036
2037
2037
2038
2039
2039
2039
2038
2038
2038
2039
2040
2040
2040
2041
2041
2042
2042
2043
2042
2042
2041
2041
2042
2042
2042
2042
2041
2040
2040
2041
2042
2043
2044
2044
2044
2043
2042
2042
2042
2043
2044
2044
2044
2044
2043
2043
2043
2043
2043
2042
2042
2042
2042
2042
2043
2043
2043
2043
2043
2043
2043
2043
2043
2042
2041
2041
2040
2041
2043
2045
2047
2048
2048
2049
2050
2051
2051
2051
2050
2049
2048
2048
2048
2047
2047
2047
2047
2047
2047
2047
2047
2047
2047
2047
2046
2045
2044
2044
2045
2045
2045
2045
2044
2045
2046
2046
2046
2044
2039
2032
2026
2021
2026
2045
2086
2144
2199
2228
2216
2168
2107
2061
2046
2055
2075
2088
2088
2076
2063
2055
2049
2047
2045
2044
2043
2042
2042
2041
2042
2043
2044
2045
2046
2047
2047
2048
2048
2048
2049
2050
2050
2051
2053
2054
2055
2056
2057
2058
2058
2060
2061
2064
2067
2070
2073
2076
2078
2081
2084
2088
2094
2100
2106
2111
2114
2118
2121
2124
2127
2129
2129
2127
2123
2116
2107
2096
2085
2074
2063
2055
2048
2043
2039
2035
2032
2030
2028
2027
2027
2027
2027
2028
2028
2029
2029
2029
2029
2029
2029
2029
2030
2030
2030
2030
2030
2029
2029
2029
2029
2030
2031
2031
2032
2031
2030
2028
2026
2025
2025
2025
2025
2025
2026
2027
2027
2028
2028
2027
2027
2028
2029
2030
2031
2032
2032
2032
2032
2032
2032
2032
2033
2033
2034
2034
2034
2033
2033
2033
2033
2034
2034
2035
2035
2035
2035
2035
2034
2034
2033
2033
2033
2033
2033
2033
2033
2033
2033
2032
2032
2032
2032
2032
2032
2031
2031
2030
2031
2033
2036
2038
2040
2041
2041
2042
2043
2044
2045
2045
2045
2045
2045
2045
2045
2045
2044
2042
2040
2038
2038
2038
2039
2040
2040
2040
2040
2040
2040
2041
2041
2042
2044
2046
2047
2048
2048
2048
2048
2049
2048
2047
2043
2036
2028
2020
2018
2028
2056
2107
2169
2220
2239
2219
2171
2119
2084
2074
2080
2089
2089
2081
2069
2059
2053
2049
2046
2043
2040
2039
2040
2041
2042
2043
2044
2044
2044
2044
2044
2044
2045
2046
2047
2048
2048
2048
2049
2049
2050
2051
2052
2053
2054
2055
2057
2059
2061
2064
2066
2067
2068
2069
2070
2072
2075
2079
2083
2087
2090
2094
2098
2101
2103
2105
2106
2105
2103
2098
2092
2085
2076
2068
2061
2054
2048
2042
2038
2034
2032
2032
2031
2031
2031
2031
2032
2032
2033
2033
2032
2032
2031
2030
2029
2029
2030
2031
2032
2031
2030
2029
2029
2029
2029
2030
2031
2031
2031
2030
2029
2029
2030
2031
2032
2033
2033
2033
2033
2034
2034
2034
2034
2035
2036
2036
2037
2037
2037
2037
2036
2036
2036
2036
2036
2037
2037
2037
2037
2037
2037
2037
2038
2038
2039
2040
2040
2040
2040
2040
2040
2040
2040
2040
2040
2041
2042
2042
2043
2044
2044
2045
2046
2046
2046
2045
2044
2044
2043
2043
2042
2042
2042
2043
2043
2044
2045
2045
2045
2045
2044
2044
2044
2044
2045
2046
2046
2047
2046
2046
2046
2046
2045
2045
2045
2045
2044
2043
2043
2043
2044
2045
2047
2048
2048
2049
2050
2050
2050
2051
2052
2052
2052
2051
2050
2049
2048
2048
2048
2048
2047
2047
2048
2048
2048
2048
2048
2048
2048
2048
2048
2047
2047
2047
2047
2048
2048
2048
2047
2047
2047
2048
2048
2048
2048
2044
2038
2030
2022
2018
2028
2060
2117
2186
2242
2264
2244
2193
2137
2096
2078
2079
2083
2081
2073
2061
2053
2048
2043
2039
2036
2035
2035
2035
2036
2036
2037
2037
2038
2038
2038
2039
2039
2040
2041
2042
2044
2045
2046
2047
2047
2048
2048
2048
2049
2051
2052
2054
2055
2057
2058
2059
2061
2063
2066
2069
2073
2077
2080
2083
2086
2089
2092
2095
2097
2099
2101
2101
2100
2099
2095
2091
2085
2079
2072
2065
2059
2053
2048
2045
2041
2038
2036
2034
2033
2033
2033
2033
2033
2033
2032
2032
2032
2032
2032
2033
2034
2035
2035
2036
2035
2035
2035
2035
2036
2036
2036
2035
2034
2033
2033
2033
2033
2034
2034
2034
2034
2034
2033
2033
2033
2033
2032
2032
2032
2032
2032
2033
2033
2034
2033
2033
2033
2034
2034
2035
2036
2036
2035
2034
2033
2032
2032
2032
2034
2034
2034
2034
2034
2034
2034
2034
2035
2035
2036
2036
2037
2037
2037
2037
2037
2037
2037
2037
2038
2038
2039
2039
2039
2039
2038
2038
2037
2038
2038
2039
2039
2040
2040
2039
2039
2039
2039
2040
2041
2041
2041
2041
2041
2040
2040
2040
2040
2040
2041
2041
2042
2042
2042
2041
2041
2041
2041
2042
2042
2042
2043
2043
2042
2042
2041
2041
2040
2040
2040
2040
2041
2041
2042
2043
2044
2045
2047
2048
2048
2048
2050
2051
2051
2052
2051
2051
2049
2048
2048
2048
2047
2047
2047
2047
2046
2046
2046
2046
2046
2046
2046
2046
2047
2046
2045
2045
2045
2046
2046
2047
2047
2046
2046
2047
2047
2046
2044
2040
2034
2027
2020
2020
2035
2069
2125
2187
2232
2243
2216
2165
2114
2080
2068
2069
2071
2067
2058
2048
2040
2036
2033
2031
2030
2030
2029
2029
2029
2029
2030
2030
2031
2032
2033
2034
2035
2036
2037
2038
2039
2039
2039
2039
2039
2040
2041
2042
2043
2044
2046
2047
2048
2050
2052
2054
2055
2057
2060
2063
2067
2071
2075
2079
2082
2086
2088
2091
2094
2096
2098
2099
2099
2097
2094
2089
2083
2076
2069
2063
2057
2052
2048
2044
2041
2039
2037
2034
2031
2028
2025
2023
2023
2024
2026
2028
2030
2031
2032
2033
2033
2034
2035
2035
2035
2036
2036
2036
2036
2036
2036
2036
2037
2037
2038
2038
2038
2038
2039
2040
2041
2041
2041
2040
2039
2038
2038
2038
2039
2039
2040
2041
2041
2041
2041
2040
2040
2040
2040
2041
2041
2042
2042
2043
2043
2042
2042
2042
2042
2042
2042
2042
2041
2041
2040
2039
2038
2038
2038
2038
2039
2040
2041
2041
2041
2041
2041
2041
2042
2043
2043
2044
2044
2043
2042
2042
2042
2043
2044
2044
2045
2045
2044
2044
2043
2044
2045
2046
2048
2048
2050
2051
2051
2051
2051
2051
2051
2051
2051
2050
2051
2051
2051
2049
2046
2039
2031
2024
2021
2021
2025
2031
2039
2046
2051
2054
2056
2057
2058
2059
2060
2061
2062
2062
2062
2061
2060
2059
2058
2057
2057
2057
2057
2057
2057
2057
2056
2056
2055
2056
2056
2057
2057
2057
2057
2056
2056
2057
2057
2058
2058
2059
2060
2060
2058
2055
2048
2043
2038
2038
2049
2078
2125
2180
2222
2234
2213
2168
2120
2087
2075
2078
2082
2081
2074
2064
2057
2054
2051
2049
2048
2048
2048
2048
2048
2048
2048
2048
2048
2049
2051
2052
2053
2053
2052
2052
2052
2052
2053
2053
2054
2054
2055
2055
2054
2053
2052
2051
2052
2053
2057
2060
2063
2065
2067
2069
2070
2073
2075
2077
2080
2083
2086
2089
2091
2091
2090
2087
2084
2080
2074
2067
2058
2050
2043
2037
2032
2028
2025
2022
2020
2018
2016
2015
2015
2015
2013
2012
2011
2009
2009
2010
2011
2012
2012
2011
2009
2008
2008
2008
2009
2010
2011
2010
2010
2009
2006
2003
2000
1998
1996
1996
1996
1996
1995
1994
1994
1993
1992
1992
1992
1992
1993
1993
1993
1992
1991
1989
1989
1988
1987
1985
1983
1982
1982
1982
1980
1978
1975
1973
1973
1974
1975
1976
1975
1974
1973
1972
1971
1969
1968
1967
1968
1969
1970
1970
1968
1964
1961
1960
1963
1966
1971
1973
1973
1972
1971
1970
1971
1971
1972
1972
1973
1973
1973
1972
1971
1970
1969
1969
1971
1972
1973
1974
1974
1973
1971
1971
1970
1970
1970
1970
1970
1969
1967
1967
1966
1968
1969
1970
1972
1974
1977
1979
1981
1983
1984
1984
1984
1984
1983
1983
1982
1982
1982
1981
1979
1979
1980
1981
1983
1984
1985
1984
1984
1984
1984
1984
1984
1985
1985
1986
1987
1988
1989
1989
1988
1985
1979
1973
1968
1969
1980
2007
2051
2101
2141
2155
2137
2096
2052
2024
2014
2018
2025
2027
2022
2014
2007
2003
2001
1998
1997
1997
1998
1999
1999
1999
1999
1999
2000
2001
2003
2004
2004
2003
2003
2004
2005
2008
2011
2012
2014
2014
2015
2016
2018
2019
2022
2024
2026
2028
2030
2032
2034
2035
2038
2041
2044
2047
2050
2053
2058
2061
2065
2068
2069
2071
2072
2073
2073
2072
2068
2063
2057
2049
2042
2035
2028
2023
2019
2017
2016
2015
2015
2014
2013
2012
2012
2011
2012
2012
2014
2014
2015
2015
2015
2016
2016
2017
2018
2019
2020
2020
2021
2021
2020
2020
2020
2021
2022
2023
2024
2024
2023
2023
2024
2024
2025
2026
2027
2027
2028
2028
2028
2028
2028
2029
2029
2029
2030
2030
2030
2031
2031
2032
2032
2031
2031
2031
2033
2033
2034
2035
2035
2034
2034
2034
2034
2034
2035
2035
2036
2036
2036
2035
2035
2035
2036
2037
2038
2038
2039
2039
2039
2039
2039
2039
2039
2039
2039
2039
2040
2041
2042
2042
2041
2041
2040
2041
2041
2042
2042
2041
2039
2037
2036
2037
2037
2038
2038
2039
2039
2042
2044
2046
2047
2047
2047
2048
2048
2050
2051
2051
2050
2048
2047
2047
2047
2047
2047
2047
2048
2048
2048
2048
2048
2048
2048
2048
2048
2047
2047
2047
2047
2046
2046
2046
2047
2048
2050
2050
2049
2045
2039
2032
2028
2031
2046
2077
2123
2171
2202
2203
2174
2128
2086
2062
2060
2069
2077
2078
2073
2065
2058
2053
2049
2047
2046
2046
2046
2047
2047
2048
2048
2048
2048
2049
2050
2051
2052
2052
2053
2053
2054
2055
2055
2056
2056
2057
2058
2059
2060
2062
2064
2066
2067
2069
2070
2072
2074
2076
2080
2083
2087
2090
2093
2095
2098
2101
2104
2107
2110
2112
2113
2113
2112
2109
2105
2099
2092
2084
2076
2069
2063
2057
2052
2048
2045
2042
2040
2039
2039
2039
2039
2039
2039
2039
2039
2039
2040
2040
2040
2040
2040
2041
2040
2040
2041
2041
2041
2041
2042
2042
2042
2042
2041
2040
2040
2041
2042
2043
2045
2045
2044
2043
2042
2043
2043
2044
2045
2045
2046
2046
2045
2045
2045
2045
2045
2045
2046
2046
2047
2047
2047
2046
2046
2046
2046
2046
2047
2047
2047
2048
2048
2048
2047
2047
2047
2047
2048
2048
2048
2048
2048
2048
2047
2047
2047
2048
2048
2048
2048
2048
2048
2048
2048
2048
2048
2049
2049
2050
2049
2049
2049
2050
2050
2050
2050
2051
2051
2051
2052
2052
2052
2051
2050
2049
2049
2049
2050
2050
2049
2049
2049
2050
2052
2054
2055
2057
2058
2059
2060
2061
2061
2061
2060
2059
2058
2057
2057
2057
2057
2057
2056
2055
2055
2056
2056
2055
2055
2055
2056
2056
2056
2055
2054
2054
2054
2055
2056
2056
2057
2058
2058
2056
2052
2048
2042
2037
2039
2050
2078
2122
2171
2205
2211
2186
2142
2099
2074
2068
2076
2084
2085
2079
2070
2063
2059
2055
2052
2050
2050
2051
2051
2052
2052
2052
2051
2052
2052
2053
2054
2055
2055
2055
2055
2055
2056
2057
2058
2059
2060
2060
2061
2062
2063
2065
2066
2068
2070
2072
2074
2076
2078
2081
2084
2087
2090
2093
2097
2100
2104
2107
2110
2111
2112
2113
2113
2113
2111
2108
2104
2097
2089
2080
2072
2065
2059
2054
2050
2048
2047
2044
2042
2040
2039
2038
2039
2040
2041
2041
2041
2041
2040
2040
2040
2040
2041
2042
2042
2043
2043
2043
2042
2042
2042
2043
2043
2043
2044
2044
2044
2044
2043
2043
2043
2044
2044
2044
2045
2045
2045
2045
2046
2045
2045
2045
2046
2046
2046
2046
2047
2047
2047
2047
2046
2046
2046
2046
2046
2046
2047
2047
2047
2047
2048
2048
2048
2048
2048
2048
2048
2048
2048
2048
2048
2048
2048
2048
2049
2049
2049
2048
2048
2048
2048
2048
2048
2048
2049
2049
2049
2049
2049
2049
2049
2049
2049
2049
2049
2050
2050
2050
2051
2051
2050
2050
2050
2050
2051
2051
2051
2050
2049
2048
2048
2047
2047
2048
2049
2051
2053
2055
2056
2056
2056
2056
2057
2058
2059
2060
2059
2058
2056
2055
2054
2053
2053
2052
2053
2053
2053
2054
2053
2053
2052
2052
2052
2052
2052
2052
2052
2053
2053
2053
2053
2053
2054
2054
2053
2049
2045
2039
2034
2036
2048
2075
2118
2166
2200
2206
2182
2139
2096
2070
2064
2072
2080
2082
2076
2067
2060
2057
2054
2051
2049
2049
2048
2048
2048
2049
2049
2050
2050
2051
2051
2051
2051
2052
2053
2054
2055
2056
2056
2056
2056
2057
2058
2059
2061
2062
2064
2066
2067
2069
2070
2071
2074
2077
2081
2084
2087
2089
2092
2094
2097
2101
2104
2107
2110
2112
2114
2114
2113
2111
2107
2102
2095
2088
2081
2073
2067
2061
2056
2051
2048
2045
2043
2042
2042
2042
2042
2041
2041
2040
2040
2040
2040
2040
2041
2042
2042
2043
2043
2043
2042
2042
2042
2042
2042
2042
2043
2043
2043
2043
2042
2041
2041
2041
2042
2043
2044
2044
2044
2043
2043
2044
2044
2044
2044
2043
2044
2044
2044
2044
2044
2045
2045
2045
2045
2045
2046
2046
2046
2045
2045
2045
2045
2045
2045
2045
2045
2045
2045
2045
2045
2044
2044
2045
2046
2047
2048
2048
2047
2047
2046
2045
2045
2045
2045
2045
2045
2045
2045
2045
2045
2045
2044
2045
2046
2047
2048
2048
2048
2047
2047
2047
2047
2047
2047
2047
2047
2047
2046
2046
2045
2045
2044
2044
2044
2045
2046
2048
2049
2051
2051
2051
2052
2052
2054
2056
2057
2057
2056
2054
2052
2050
2048
2048
2048
2050
2051
2051
2051
2051
2050
2049
2048
2048
2048
2048
2049
2050
2050
2050
2049
2049
2049
2050
2052
2052
2051
2048
2042
2036
2031
2032
2046
2074
2118
2166
2199
2204
2178
2134
2091
2066
2061
2069
2077
2079
2073
2065
2058
2054
2051
2048
2047
2046
2046
2047
2047
2048
2048
2048
2048
2048
2048
2049
2050
2051
2052
2052
2053
2054
2054
2054
2054
2054
2055
2056
2058
2060
2061
2062
2063
2065
2066
2068
2071
2074
2077
2080
2083
2085
2088
2090
2092
2094
2096
2099
2102
2104
2105
2104
2102
2099
2094
2088
2081
2074
2067
2059
2052
2047
2042
2037
2034
2031
2030
2029
2030
2030
2031
2031
2030
2030
2030
2029
2029
2028
2028
2029
2029
2030
2032
2033
2034
2034
2035
2036
2036
2036
2037
2037
2037
2038
2038
2039
2040
2040
2041
2040
2040
2039
2039
2041
2043
2045
2047
2048
2050
2051
2051
2052
2052
2053
2053
2053
2054
2054
2055
2056
2056
2057
2057
2057
2056
2056
2056
2055
2056
2056
2056
2056
2055
2055
2056
2057
2059
2061
2063
2065
2067
2068
2070
2070
2071
2071
2072
2073
2074
2075
2075
2076
2076
2076
2076
2076
2077
2077
2078
2080
2081
2082
2082
2083
2083
2084
2084
2082
2079
2075
2071
2069
2068
2069
2071
2074
2078
2081
2084
2087
2089
2091
2091
2091
2091
2091
2092
2094
2095
2095
2094
2093
2091
2090
2090
2089
2090
2090
2090
2089
2089
2089
2089
2088
2088
2088
2089
2089
2090
2090
2091
2091
2091
2091
2092
2093
2094
2093
2090
2085
2079
2074
2073
2084
2113
2158
2209
2245
2251
2223
2173
2124
2094
2089
2100
2113
2117
2112
2101
2092
2086
2083
2082
2082
2083
2083
2083
2083
2083
2084
2085
2085
2086
2086
2086
2087
2087
2089
2090
2092
2094
2094
2095
2096
2097
2099
2100
2102
2103
2104
2105
2107
2108
2110
2111
2113
2116
2119
2124
2128
2132
2135
2138
2141
2144
2147
2150
2152
2152
2153
2154
2154
2153
2149
2142
2133
2123
2114
2105
2097
2090
2084
2078
2073
2069
2067
2067
2067
2066
2066
2064
2062
2060
2059
2059
2059
2059
2059
2059
2059
2060
2060
2061
2062
2062
2063
2064
2065
2066
2067
2067
2066
2066
2066
2065
2064
2062
2060
2058
2057
2056
2056
2056
2055
2055
2055
2056
2056
2055
2056
2056
2057
2057
2057
2057
2056
2056
2056
2056
2056
2056
2055
2054
2054
2053
2053
2053
2053
2054
2053
2053
2052
2052
2052
2054
2056
2057
2058
2057
2056
2054
2053
2052
2051
2050
2050
2050
2052
2056
2058
2060
2060
2058
2057
2056
2056
2056
2056
2057
2057
2059
2059
2060
2059
2058
2056
2056
2057
2058
2058
2058
2056
2054
2053
2053
2053
2053
2054
2054
2053
2053
2052
2052
2052
2052
2053
2054
2055
2055
2055
2055
2054
2053
2053
2053
2054
2056
2058
2060
2060
2059
2055
2049
2044
2040
2043
2057
2092
2142
2192
2222
2216
2177
2121
2074
2052
2058
2076
2092
2095
2088
2077
2068
2062
2059
2057
2056
2055
2055
2055
2056
2056
2057
2057
2057
2058
2059
2060
2061
2062
2063
2063
2064
2064
2065
2066
2067
2068
2070
2071
2072
2073
2074
2076
2077
2080
2082
2086
2089
2092
2096
2099
2103
2106
2110
2114
2119
2123
2127
2130
2133
2134
2135
2134
2131
2127
2121
2113
2104
2094
2082
2068
2053
2038
2025
2014
2009
2006
2005
2004
2003
2002
2002
2003
2004
2004
2003
2003
2004
2008
2013
2019
2023
2026
2027
2028
2028
2029
2029
2029
2029
2028
2028
2029
2030
2031
2033
2034
2034
2035
2035
2034
2034
2034
2035
2036
2037
2038
2039
2040
2040
2040
2040
2039
2039
2039
2040
2040
2041
2041
2041
2041
2041
2041
2042
2043
2044
2044
2044
2044
2043
2043
2042
2042
2043
2043
2044
2044
2044
2044
2045
2045
2044
2044
2044
2043
2043
2043
2043
2043
2042
2041
2040
2040
2040
2042
2044
2047
2048
2049
2050
2050
2050
2051
2052
2053
2054
2053
2052
2050
2048
2047
2046
2046
2046
2046
2047
2047
2047
2047
2047
2046
2045
2044
2043
2043
2043
2043
2043
2043
2042
2042
2043
2044
2045
2046
2044
2039
2032
2025
2021
2025
2045
2082
2135
2186
2214
2207
2170
2118
2077
2059
2061
2073
2079
2077
2068
2057
2050
2046
2042
2040
2038
2037
2037
2038
2039
2040
2041
2042
2042
2042
2042
2042
2042
2042
2043
2044
2045
2046
2047
2048
2048
2048
2049
2050
2052
2054
2056
2058
2060
2062
2064
2065
2068
2071
2075
2078
2082
2085
2088
2091
2094
2097
2100
2102
2105
2106
2108
2107
2105
2101
2094
2087
2079
2071
2064
2057
2051
2046
2042
2038
2035
2033
2032
2031
2030
2030
2029
2029
2029
2029
2029
2029
2030
2030
2031
2031
2032
2032
2032
2032
2032
2032
2033
2034
2034
2035
2035
2035
2035
2036
2036
2036
2036
2036
2037
2037
2038
2038
2038
2037
2037
2037
2037
2038
2038
2039
2039
2040
2040
2040
2039
2039
2039
2039
2040
2041
2042
2042
2042
2042
2042
2041
2041
2041
2041
2041
2041
2041
2041
2042
2042
2043
2044
2045
2046
2045
2044
2043
2041
2040
2040
2041
2043
2043
2044
2043
2042
2042
2042
2041
2041
2042
2042
2043
2044
2044
2044
2044
2043
2043
2042
2042
2042
2042
2043
2042
2042
2041
2041
2042
2044
2046
2047
2048
2048
2048
2048
2048
2049
2050
2051
2052
2052
2051
2050
2049
2049
2048
2048
2048
2048
2048
2048
2048
2048
2048
2049
2050
2050
2049
2048
2048
2048
2048
2048
2049
2049
2050
2051
2052
2053
2054
2053
2050
2045
2039
2033
2031
2041
2067
2113
2169
2214
2231
2213
2169
2119
2085
2072
2075
2082
2083
2077
2067
2060
2056
2053
2051
2050
2049
2049
2049
2049
2050
2051
2052
2053
2054
2054
2054
2054
2054
2055
2055
2056
2056
2057
2057
2058
2059
2059
2060
2061
2062
2064
2065
2067
2067
2068
2070
2072
2074
2076
2078
2081
2084
2087
2091
2093
2096
2098
2100
2103
2106
2108
2109
2109
2107
2103
2098
2092
2085
2077
2071
2065
2059
2054
2050
2047
2045
2042
2041
2040
2039
2039
2039
2039
2039
2038
2037
2037
2036
2036
2036
2037
2037
2038
2039
2040
2041
2041
2041
2041
2042
2042
2043
2043
2044
2044
2044
2043
2043
2043
2043
2044
2045
2045
2045
2044
2043
2042
2042
2042
2042
2042
2043
2043
2043
2043
2043
2042
2042
2042
2043
2044
2044
2044
2045
2045
2045
2045
2045
2045
2046
2046
2047
2047
2047
2046
2046
2046
2047
2047
2048
2048
2048
2048
2048
2048
2048
2048
2048
2048
2048
2049
2049
2049
2049
2049
2048
2048
2048
2048
2047
2048
2048
2048
2049
2049
2048
2048
2048
2048
2048
2048
2048
2049
2049
2049
2049
2049
2048
2048
2048
2049
2049
2050
2049
2049
2048
2048
2048
2048
2050
2052
2055
2057
2057
2057
2057
2057
2057
2058
2059
2059
2058
2057
2056
2055
2054
2053
2053
2053
2053
2053
2053
2053
2053
2052
2052
2052
2052
2051
2051
2052
2052
2052
2052
2052
2052
2051
2051
2052
2054
2055
2054
2051
2046
2039
2033
2034
2047
2076
2124
2177
2214
2222
2196
2149
2103
2074
2066
2073
2080
2081
2074
2065
2057
2052
2049
2047
2047
2046
2047
2047
2048
2048
2048
2049
2048
2048
2049
2051
2052
2050
2045
2038
2030
2025
2024
2025
2026
2028
2029
2031
2033
2035
2037
2038
2039
2040
2042
2045
2047
2049
2053
2058
2062
2066
2070
2072
2074
2076
2079
2085
2092
2099
2105
2109
2110
2108
2104
2099
2094
2089
2082
2075
2067
2057
2049
2043
2040
2039
2039
2039
2038
2037
2037
2037
2037
2037
2037
2037
2037
2037
2038
2039
2040
2040
2040
2040
2040
2040
2041
2042
2042
2043
2043
2043
2043
2043
2042
2042
2043
2043
2044
2044
2045
2045
2045
2045
2046
2045
2045
2046
2046
2047
2047
2047
2047
2047
2047
2047
2047
2048
2048
2048
2047
2047
2047
2046
2047
2046
2047
2047
2047
2048
2048
2048
2048
2048
2048
2048
2048
2048
2048
2048
2049
2049
2048
2048
2048
2048
2048
2048
2048
2049
2049
2049
2048
2048
2048
2047
2048
2048
2048
2048
2049
2048
2048
2048
2048
2048
2048
2048
2048
2049
2048
2048
2048
2047
2047
2046
2047
2048
2050
2053
2054
2055
2055
2055
2055
2056
2056
2057
2056
2056
2056
2054
2053
2052
2051
2051
2051
2051
2052
2052
2052
2052
2051
2051
2050
2050
2050
2051
2051
2052
2051
2051
2050
2048
2048
2048
2050
2051
2051
2049
2045
2039
2033
2030
2038
2061
2105
2157
2201
2216
2197
2151
2101
2067
2058
2067
2080
2085
2081
2071
2062
2057
2054
2051
2049
2048
2048
2048
2048
2050
2051
2051
2052
2052
2053
2054
2056
2057
2059
2060
2061
2062
2063
2063
2064
2066
2067
2069
2070
2072
2074
2075
2077
2078
2080
2082
2085
2088
2092
2095
2098
2102
2105
2109
2113
2116
2119
2122
2125
2128
2130
2131
2130
2127
2123
2117
2109
2101
2091
2083
2074
2067
2060
2055
2051
2048
2046
2045
2044
2043
2043
2043
2042
2042
2042
2042
2042
2042
2042
2042
2042
2042
2042
2041
2041
2041
2041
2042
2042
2042
2042
2042
2042
2042
2042
2042
2042
2043
2043
2044
2044
2044
2044
2044
2044
2044
2045
2045
2045
2045
2045
2045
2045
2045
2045
2045
2045
2046
2046
2047
2046
2046
2046
2045
2045
2045
2045
2045
2045
2045
2046
2046
2046
2046
2045
2045
2045
2045
2046
2046
2047
2047
2046
2046
2046
2046
2046
2046
2047
2047
2047
2046
2046
2045
2044
2043
2043
2042
2041
2040
2039
2038
2037
2038
2039
2042
2044
2046
2047
2048
2048
2048
2048
2048
2048
2048
2048
2047
2045
2044
2044
2043
2043
2043
2044
2043
2043
2042
2041
2040
2040
2039
2040
2040
2041
2042
2043
2044
2045
2045
2045
2046
2046
2047
2048
2047
2044
2039
2031
2024
2019
2023
2042
2079
2131
2179
2205
2198
2159
2109
2069
2051
2053
2065
2072
2070
2062
2053
2048
2046
2043
2041
2039
2037
2036
2036
2036
2038
2039
2040
2041
2041
2041
2040
2040
2041
2041
2042
2043
2044
2045
2046
2046
2047
2048
2049
2050
2052
2054
2055
2057
2059
2061
2064
2067
2071
2075
2079
2083
2087
2091
2095
2098
2100
2101
2103
2105
2108
2110
2111
2110
2105
2098
2090
2081
2072
2065
2058
2052
2048
2043
2039
2036
2033
2031
2030
2030
2031
2031
2032
2033
2033
2034
2034
2034
2034
2034
2033
2033
2033
2034
2035
2035
2035
2034
2034
2034
2035
2036
2036
2036
2036
2035
2035
2035
2036
2037
2038
2039
2039
2039
2039
2039
2040
2040
2041
2042
2042
2043
2043
2043
2044
2043
2044
2044
2044
2045
2045
2045
2045
2046
2046
2046
2045
2045
2045
2045
2046
2046
2047
2047
2047
2047
2046
2046
2045
2045
2045
2046
2047
2048
2048
2048
2048
2047
2047
2046
2046
2046
2046
2046
2046
2047
2047
2047
2047
2048
2048
2048
2048
2048
2048
2048
2048
2048
2048
2048
2049
2050
2050
2050
2050
2050
2049
2049
2050
2050
2050
2050
2050
2050
2049
2048
2048
2047
2047
2048
2049
2051
2054
2055
2056
2056
2056
2056
2057
2058
2060
2060
2060
2059
2057
2056
2055
2054
2054
2054
2054
2054
2054
2054
2054
2054
2053
2053
2053
2053
2054
2054
2054
2054
2054
2054
2053
2054
2055
2056
2057
2056
2054
2048
2042
2035
2032
2037
2058
2100
2155
2206
2233
2224
2185
2133
2092
2073
2073
2081
2085
2081
2072
2063
2058
2054
2050
2048
2048
2048
2048
2049
2049
2049
2050
2049
2049
2050
2050
2051
2051
2052
2053
2053
2053
2054
2054
2055
2056
2056
2058
2059
2060
2061
2062
2063
2064
2066
2067
2070
2072
2075
2078
2081
2085
2087
2089
2091
2093
2096
2098
2101
2103
2105
2106
2106
2104
2101
2097
2092
2086
2079
2072
2065
2058
2052
2048
2044
2041
2039
2037
2036
2036
2035
2035
2035
2035
2036
2036
2036
2036
2036
2035
2035
2035
2035
2035
2036
2036
2036
2036
2037
2037
2038
2038
2038
2038
2038
2038
2038
2038
2038
2039
2039
2039
2039
2039
2039
2039
2039
2040
2040
2041
2041
2041
2040
2040
2040
2041
2041
2042
2042
2042
2042
2042
2042
2042
2042
2042
2042
2042
2043
2043
2044
2044
2044
2043
2043
2044
2044
2045
2045
2045
2045
2045
2045
2044
2044
2044
2045
2046
2046
2046
2046
2046
2046
2046
2046
2046
2046
2047
2047
2047
2047
2047
2047
2047
2047
2048
2048
2048
2048
2048
2048
2048
2048
2048
2048
2048
2048
2049
2049
2050
2050
2050
2049
2049
2049
2049
2049
2050
2050
2050
2050
2050
2049
2049
2049
2048
2048
2048
2048
2048
2048
2048
2048
2049
2051
2053
2054
2056
2056
2057
2057
2058
2058
2058
2057
2056
2055
2054
2054
2053
2053
2053
2052
2052
2051
2051
2052
2052
2052
2052
2052
2052
2051
2051
2051
2051
2051
2051
2052
2052
2052
2053
2054
2053
2051
2047
2040
2034
2030
2035
2053
2091
2143
2195
2225
2221
2186
2136
2093
2071
2070
2077
2082
2080
2071
2062
2056
2052
2050
2048
2048
2048
2047
2047
2047
2047
2048
2048
2049
2050
2050
2050
2050
2050
2051
2052
2052
2054
2055
2056
2057
2057
2058
2059
2060
2061
2062
2063
2065
2068
2070
2072
2074
2076
2078
2081
2084
2088
2092
2096
2100
2103
2106
2108
2110
2111
2113
2113
2113
2110
2106
2099
2091
2083
2075
2068
2062
2057
2052
2048
2045
2043
2041
2040
2039
2039
2038
2038
2038
2039
2039
2039
2039
2039
2039
2039
2040
2040
2041
2041
2042
2042
2042
2041
2041
2041
2042
2043
2044
2045
2045
2045
2045
2045
2045
2045
2045
2045
2046
2046
2046
2046
2046
2046
2046
2046
2046
2046
2047
2047
2047
2047
2047
2047
2046
2046
2046
2047
2047
2047
2047
2047
2047
2047
2046
2046
2046
2046
2046
2047
2048
2048
2048
2048
2048
2048
2048
2049
2049
2049
2049
2048
2048
2048
2047
2047
2048
2048
2048
2048
2048
2048
2048
2048
2048
2048
2048
2048
2049
2049
2049
2049
2049
2049
2049
2049
2049
2050
2050
2050
2050
2050
2049
2049
2049
2049
2050
2051
2051
2051
2051
2051
2051
2051
2051
2051
2051
2051
2051
2051
2051
2051
2051
2050
2049
2049
2048
2048
2049
2050
2051
2053
2055
2056
2057
2057
2058
2058
2059
2060
2061
2060
2059
2057
2056
2055
2055
2054
2054
2054
2054
2054
2054
2054
2054
2053
2053
2053
2053
2053
2053
2053
2053
2052
2052
2052
2052
2053
2055
2056
2056
2054
2048
2042
2035
2031
2035
2053
2089
2141
2192
2223
2220
2186
2136
2092
2070
2068
2077
2084
2083
2074
2064
2058
2054
2050
2049
2048
2048
2048
2049
2048
2048
2048
2048
2049
2050
2051
2051
2052
2053
2054
2054
2054
2054
2054
2055
2057
2059
2060
2061
2062
2063
2063
2065
2066
2069
2071
2073
2075
2078
2080
2083
2087
2091
2094
2098
2101
2104
2107
2110
2112
2114
2115
2115
2115
2112
2109
2103
2096
2089
2081
2073
2066
2059
2054
2050
2048
2045
2044
2042
2041
2040
2040
2039
2039
2039
2039
2039
2039
2040
2040
2040
2039
2038
2038
2037
2037
2038
2038
2039
2039
2039
2038
2038
2038
2038
2038
2039
2039
2040
2040
2040
2040
2040
2040
2040
2041
2041
2042
2042
2042
2041
2041
2041
2042
2042
2043
2043
2043
2043
2043
2043
2043
2043
2043
2043
2043
2044
2044
2045
2045
2044
2044
2044
2044
2044
2045
2045
2045
2046
2046
2045
2045
2045
2045
2045
2046
2046
2046
2047
2047
2046
2046
2046
2046
2046
2047
2047
2048
2048
2048
2048
2047
2047
2047
2048
2048
2048
2048
2048
2048
2048
2048
2048
2048
2048
2049
2049
2049
2050
2050
2050
2049
2049
2049
2049
2049
2050
2050
2050
2050
2050
2050
2050
2050
2050
2051
2051
2051
2051
2051
2051
2051
2050
2050
2050
2050
2050
2049
2049
2048
2048
2048
2048
2048
2051
2053
2055
2057
2057
2057
2057
2057
2058
2058
2058
2058
2058
2057
2055
2054
2053
2053
2053
2053
2053
2053
2053
2053
2054
2054
2054
2053
2052
2052
2052
2053
2053
2054
2053
2053
2053
2054
2055
2055
2053
2048
2043
2037
2034
2040
2060
2100
2152
2200
2223
2213
2174
2124
2085
2068
2070
2079
2084
2081
2072
2063
2058
2054
2051
2049
2048
2048
2048
2048
2049
2049
2050
2051
2051
2052
2052
2052
2052
2053
2054
2055
2056
2057
2057
2058
2059
2059
2059
2060
2061
2062
2064
2066
2067
2069
2071
2072
2075
2078
2081
2085
2089
2092
2096
2099
2102
2104
2107
2110
2112
2114
2115
2115
2113
2111
2107
2101
2095
2088
2081
2074
2068
2061
2055
2050
2047
2044
2042
2041
2041
2040
2040
2040
2040
2040
2040
2039
2040
2040
2040
2041
2041
2041
2041
2041
2041
2041
2041
2041
2041
2041
2041
2041
2041
2041
2042
2042
2042
2042
2042
2042
2043
2043
2044
2044
2044
2044
2044
2043
2043
2043
2044
2044
2044
2044
2044
2043
2042
2042
2041
2041
2041
2042
2043
2044
2045
2045
2046
2046
2046
2046
2046
2047
2047
2046
2046
2045
2045
2045
2045
2046
2046
2046
2046
2046
2046
2046
2046
2046
2046
2047
2047
2047
2047
2046
2046
2045
2045
2045
2046
2047
2047
2046
2045
2044
2044
2044
2045
2047
2048
2048
2049
2050
2050
2048
2046
2043
2041
2040
2041
2043
2045
2046
2046
2046
2046
2046
2046
2046
2046
2046
2047
2048
2048
2048
2047
2046
2045
2045
2045
2046
2046
2046
2046
2046
2047
2048
2048
2050
2051
2051
2052
2053
2054
2055
2055
2055
2054
2052
2051
2050
2050
2051
2051
2051
2051
2050
2050
2050
2050
2051
2051
2052
2052
2051
2051
2050
2050
2050
2050
2051
2052
2054
2055
2056
2055
2052
2048
2043
2039
2042
2056
2089
2138
2187
2217
2214
2178
2125
2079
2057
2060
2075
2088
2090
2083
2072
2063
2056
2051
2048
2045
2044
2044
2044
2044
2043
2044
2044
2045
2047
2048
2048
2048
2048
2048
2049
2051
2052
2054
2055
2056
2056
2057
2058
2059
2061
2063
2065
2068
2070
2072
2075
2078
2081
2084
2088
2092
2096
2100
2103
2106
2110
2113
2117
2120
2123
2125
2126
2126
2124
2120
2114
2105
2096
2086
2076
2068
2060
2053
2048
2044
2041
2038
2036
2035
2033
2032
2032
2032
2033
2033
2033
2033
2032
2031
2031
2032
2033
2034
2035
2035
2036
2036
2035
2036
2036
2037
2039
2039
2040
2041
2042
2043
2044
2045
2045
2046
2046
2047
2048
2048
2048
2048
2048
2048
2048
2048
2048
2049
2049
2050
2049
2049
2048
2048
2047
2047
2047
2048
2048
2048
2049
2049
2049
2049
2048
2049
2050
2051
2051
2051
2051
2051
2050
2049
2049
2049
2049
2049
2050
2050
2051
2051
2051
2051
2050
2050
2050
2050
2051
2051
2052
2051
2050
2049
2048
2048
2048
2047
2047
2047
2048
2049
2051
2052
2053
2053
2053
2053
2055
2057
2058
2058
2057
2056
2054
2052
2052
2052
2052
2053
2053
2053
2053
2053
2052
2052
2051
2051
2051
2051
2052
2052
2052
2052
2052
2052
2051
2052
2053
2054
2053
2051
2048
2042
2035
2030
2034
2052
2091
2146
2196
2223
2211
2165
2106
2061
2045
2053
2073
2087
2089
2080
2069
2062
2056
2054
2052
2050
2050
2049
2049
2050
2050
2051
2051
2052
2052
2052
2053
2054
2055
2056
2057
2057
2058
2058
2058
2059
2060
2062
2064
2066
2067
2069
2071
2073
2076
2079
2082
2085
2088
2092
2096
2100
2103
2107
2111
2115
2120
2124
2128
2131
2133
2135
2135
2133
2129
2122
2114
2105
2094
2084
2074
2064
2056
2048
2044
2041
2039
2038
2038
2037
2037
2036
2035
2034
2034
2034
2033
2033
2032
2032
2032
2032
2032
2032
2032
2032
2032
2032
2032
2032
2032
2033
2033
2034
2035
2036
2036
2037
2038
2039
2038
2037
2036
2036
2035
2036
2037
2038
2039
2039
2038
2038
2038
2038
2038
2039
2040
2040
2041
2041
2041
2040
2040
2040
2040
2041
2041
2042
2043
2044
2044
2043
2042
2041
2040
2040
2041
2043
2042
2038
2030
2020
2012
2006
2005
2006
2008
2009
2010
2010
2010
2011
2011
2011
2012
2012
2013
2014
2014
2014
2014
2013
2011
2010
2010
2011
2013
2016
2017
2019
2020
2021
2022
2023
2023
2024
2024
2024
2024
2023
2023
2022
2021
2021
2023
2027
2032
2038
2042
2045
2047
2046
2046
2046
2046
2047
2048
2048
2049
2050
2050
2050
2049
2048
2049
2049
2051
2051
2049
2046
2039
2031
2025
2027
2042
2076
2129
2182
2217
2218
2186
2135
2091
2068
2067
2077
2085
2083
2074
2063
2055
2049
2046
2043
2040
2039
2039
2039
2040
2039
2039
2039
2039
2040
2041
2042
2043
2044
2045
2046
2047
2047
2048
2048
2050
2053
2057
2059
2060
2059
2058
2056
2056
2056
2058
2061
2064
2069
2073
2077
2081
2085
2089
2093
2097
2099
2102
2104
2107
2109
2111
2111
2110
2107
2103
2097
2090
2082
2074
2066
2059
2052
2048
2044
2042
2040
2038
2038
2038
2038
2038
2038
2037
2037
2037
2037
2038
2039
2039
2039
2039
2039
2038
2038
2038
2038
2039
2039
2039
2040
2040
2040
2039
2039
2039
2041
2042
2044
2046
2047
2047
2047
2047
2047
2048
2048
2048
2048
2048
2048
2048
2048
2048
2048
2048
2048
2048
2048
2049
2049
2049
2049
2049
2048
2048
2048
2048
2048
2048
2048
2048
2048
2047
2047
2048
2048
2048
2048
2047
2046
2045
2044
2043
2044
2044
2045
2046
2046
2047
2047
2047
2046
2045
2045
2044
2045
2045
2046
2046
2046
2045
2045
2044
2044
2044
2044
2044
2045
2045
2045
2045
2044
2044
2044
2044
2044
2045
2046
2046
2046
2046
2046
2046
2046
2046
2046
2047
2048
2048
2048
2048
2048
2048
2048
2048
2048
2048
2048
2048
2048
2048
2047
2047
2046
2046
2046
2046
2047
2048
2050
2052
2053
2054
2054
2054
2055
2057
2059
2060
2060
2060
2058
2057
2055
2054
2054
2055
2055
2055
2055
2055
2055
2055
2055
2055
2055
2055
2055
2055
2055
2055
2056
2056
2057
2057
2057
2057
2058
2058
2059
2060
2058
2055
2049
2043
2035
2031
2038
2062
2110
2172
2227
2255
2245
2202
2148
2105
2083
2082
2087
2088
2081
2070
2061
2056
2052
2049
2048
2048
2047
2047
2047
2047
2047
2047
2047
2048
2048
2049
2050
2050
2050
2050
2051
2052
2052
2053
2054
2055
2056
2056
2057
2058
2059
2060
2061
2063
2064
2067
2068
2070
2072
2074
2077
2079
2083
2086
2089
2091
2093
2096
2098
2102
2105
2108
2109
2108
2105
2100
2094
2087
2080
2073
2067
2061
2056
2052
2048
2046
2044
2043
2041
2040
2040
2040
2040
2040
2040
2041
2041
2041
2041
2040
2041
2041
2041
2042
2042
2043
2043
2043
2044
2044
2044
2043
2044
2044
2044
2044
2044
2044
2045
2044
2044
2044
2043
2044
2044
2044
2045
2045
2044
2044
2044
2044
2044
2045
2045
2046
2046
2046
2045
2045
2045
2045
2045
2046
2046
2046
2046
2046
2046
2046
2046
2046
2047
2047
2047
2047
2047
2047
2047
2047
2047
2047
2047
2047
2047
2048
2048
2048
2047
2047
2047
2047
2047
2048
2048
2048
2048
2048
2048
2048
2048
2048
2048
2048
2049
2049
2049
2050
2049
2049
2048
2049
2049
2050
2050
2050
2050
2050
2050
2049
2049
2049
2050
2050
2051
2051
2051
2051
2051
2050
2050
2050
2051
2051
2052
2053
2053
2052
2052
2051
2051
2051
2052
2052
2052
2052
2052
2052
2052
2051
2051
2051
2051
2051
2051
2051
2050
2050
2049
2048
2048
2048
2050
2052
2054
2056
2057
2057
2057
2057
2057
2058
2059
2060
2060
2059
2058
2056
2055
2054
2054
2054
2054
2054
2054
2054
2054
2054
2053
2053
2053
2053
2053
2053
2054
2054
2054
2054
2054
2053
2053
2053
2053
2055
2056
2057
2055
2050
2044
2036
2030
2030
2043
2076
2129
2189
2234
2246
2221
2171
2120
2086
2075
2080
2085
2084
2076
2066
2058
2053
2049
2048
2047
2047
2047
2047
2048
2048
2048
2048
2048
2048
2048
2050
2050
2051
2051
2052
2052
2052
2053
2053
2054
2055
2057
2058
2059
2060
2060
2061
2062
2064
2066
2068
2071
2073
2076
2078
2081
2084
2087
2090
2094
2097
2101
2104
2106
2108
2109
2109
2109
2107
2104
2100
2094
2088
2081
2074
2067
2060
2055
2050
2047
2044
2043
2041
2040
2039
2039
2038
2038
2038
2039
2040
2040
2041
2041
2040
2040
2040
2040
2040
2040
2041
2042
2043
2044
2044
2043
2043
2042
2042
2042
2042
2042
2043
2043
2042
2042
2041
2041
2041
2041
2042
2043
2043
2043
2043
2043
2043
2043
2043
2043
2044
2044
2044
2044
2044
2044
2044
2044
2044
2045
2045
2045
2046
2046
2046
2046
2045
2045
2045
2045
2046
2046
2047
2047
2047
2047
2047
2047
2047
2047
2047
2048
2048
2048
2048
2048
2048
2047
2047
2047
2048
2048
2048
2048
2048
2048
2048
2048
2048
2049
2049
2050
2050
2050
2050
2049
2049
2049
2049
2049
2049
2049
2049
2049
2049
2048
2048
2048
2048
2048
2048
2048
2048
2048
2048
2048
2048
2047
2047
2047
2048
2048
2048
2048
2047
2046
2044
2044
2044
2044
2044
2044
2043
2043
2042
2042
2042
2042
2042
2042
2042
2042
2042
2040
2039
2038
2037
2037
2039
2041
2044
2046
2047
2048
2048
2049
2050
2050
2051
2051
2051
2050
2050
2049
2048
2048
2048
2048
2048
2048
2048
2048
2048
2048
2049
2049
2049
2050
2050
2051
2051
2051
2052
2052
2052
2052
2052
2053
2054
2056
2056
2054
2049
2044
2037
2033
2038
2059
2102
2159
2210
2236
2225
2183
2131
2089
2072
2074
2082
2086
2081
2070
2060
2054
2050
2047
2044
2042
2041
2041
2043
2044
2045
2045
2046
2046
2046
2046
2047
2047
2048
2048
2049
2050
2050
2051
2051
2052
2052
2053
2055
2057
2058
2059
2061
2063
2065
2067
2069
2072
2075
2079
2082
2086
2090
2093
2096
2100
2103
2107
2110
2113
2115
2117
2117
2116
2113
2108
2102
2094
2086
2077
2069
2062
2054
2048
2044
2040
2037
2035
2034
2033
2033
2032
2032
2031
2031
2030
2030
2030
2031
2031
2032
2033
2033
2032
2032
2032
2032
2032
2033
2034
2034
2034
2034
2034
2034
2034
2034
2034
2035
2036
2036
2036
2036
2036
2036
2036
2036
2037
2038
2038
2038
2038
2037
2037
2037
2037
2037
2037
2038
2038
2038
2038
2038
2037
2036
2036
2036
2036
2037
2037
2038
2038
2038
2037
2037
2037
2037
2037
2038
2039
2039
2039
2039
2039
2038
2038
2038
2038
2039
2040
2040
2040
2040
2040
2039
2039
2039
2040
2040
2041
2041
2041
2041
2041
2041
2041
2041
2041
2042
2042
2043
2043
2043
2042
2042
2042
2042
2042
2043
2044
2044
2044
2044
2044
2044
2044
2044
2044
2045
2045
2046
2046
2046
2046
2046
2046
2046
2046
2046
2047
2047
2047
2047
2046
2045
2044
2044
2044
2045
2046
2047
2048
2048
2050
2051
2053
2053
2053
2053
2053
2053
2054
2054
2054
2052
2051
2049
2049
2049
2049
2049
2049
2049
2048
2048
2048
2048
2048
2048
2048
2048
2048
2048
2048
2047
2047
2048
2048
2048
2048
2048
2049
2050
2050
2049
2047
2042
2036
2030
2026
2031
2050
2090
2144
2197
2227
2223
2186
2135
2092
2070
2070
2078
2082
2079
2069
2060
2053
2050
2048
2046
2044
2044
2044
2043
2044
2045
2045
2046
2047
2048
2048
2048
2048
2048
2048
2048
2049
2050
2051
2052
2053
2054
2055
2055
2056
2057
2059
2061
2063
2065
2067
2069
2071
2073
2076
2079
2082
2086
2090
2093
2097
2100
2103
2106
2108
2110
2112
2113
2113
2111
2107
2102
2095
2087
2080
2072
2066
2060
2055
2051
2048
2044
2042
2040
2039
2038
2038
2038
2038
2038
2038
2038
2038
2038
2038
2038
2039
2039
2039
2040
2040
2040
2040
2040
2040
2040
2040
2041
2041
2042
2042
2041
2041
2041
2040
2040
2041
2042
2042
2043
2043
2042
2042
2042
2043
2043
2043
2044
2044
2044
2044
2044
2044
2044
2044
2044
2044
2045
2045
2046
2046
2046
2046
2046
2046
2046
2046
2046
2046
2047
2047
2047
2047
2047
2046
2047
2047
2047
2048
2048
2048
2048
2048
2047
2047
2047
2048
2048
2048
2048
2048
2048
2048
2048
2048
2048
2048
2048
2048
2049
2049
2049
2049
2049
2048
2048
2049
2049
2050
2050
2050
2050
2050
2050
2050
2049
2050
2050
2050
2051
2051
2051
2051
2050
2050
2050
2050
2051
2051
2052
2052
2052
2052
2051
2051
2051
2051
2052
2052
2053
2053
2053
2053
2053
2053
2053
2053
2053
2053
2053
2053
2052
2052
2051
2051
2051
2050
2050
2050
2050
2051
2052
2053
2055
2056
2057
2057
2058
2059
2060
2061
2061
2060
2059
2057
2056
2055
2055
2055
2055
2055
2055
2055
2055
2054
2054
2054
2054
2054
2054
2054
2054
2054
2053
2053
2053
2054
2054
2055
2056
2057
2057
2056
2052
2048
2041
2035
2032
2039
2061
2105
2161
2212
2237
2226
2185
2133
2093
2075
2076
2084
2087
2082
2072
2062
2057
2053
2051
2049
2049
2048
2048
2048
2048
2048
2048
2049
2050
2051
2051
2052
2052
2052
2053
2053
2053
2054
2055
2057
2058
2059
2060
2060
2061
2062
2063
2065
2066
2068
2070
2072
2074
2076
2079
2081
2084
2088
2091
2095
2098
2101
2103
2106
2108
2110
2111
2112
2111
2110
2106
2101
2095
2087
2079
2071
2064
2059
2054
2051
2048
2046
2043
2041
2039
2038
2038
2038
2038
2039
2039
2039
2039
2038
2038
2038
2038
2039
2039
2040
2040
2041
2041
2041
2041
2040
2040
2040
2040
2041
2041
2041
2042
2041
2041
2041
2042
2042
2043
2043
2043
2043
2043
2043
2043
2043
2043
2044
2045
2045
2046
2046
2046
2046
2046
2046
2045
2045
2046
2046
2047
2048
2048
2047
2047
2047
2047
2048
2048
2048
2048
2048
2048
2048
2048
2048
2048
2048
2048
2048
2048
2048
2048
2048
2048
2048
2048
2048
2048
2048
2048
2048
2049
2049
2049
2049
2050
2050
2050
2050
2050
2050
2050
2050
2050
2050
2050
2050
2051
2051
2051
2051
2051
2050
2050
2051
2051
2051
2051
2052
2052
2052
2052
2052
2051
2051
2051
2052
2052
2053
2053
2053
2053
2053
2053
2053
2053
2053
2053
2054
2054
2054
2055
2055
2054
2053
2053
2053
2053
2053
2053
2053
2052
2051
2050
2049
2049
2049
2050
2052
2054
2056
2058
2058
2058
2058
2059
2060
2061
2062
2062
2061
2060
2058
2056
2056
2055
2055
2056
2056
2056
2056
2056
2055
2055
2054
2054
2054
2055
2055
2055
2055
2055
2055
2054
2054
2055
2056
2058
2058
2055
2050
2044
2037
2034
2039
2058
2098
2153
2204
2233
2226
2187
2135
2093
2073
2073
2082
2088
2085
2076
2066
2060
2055
2052
2050
2049
2049
2049
2049
2050
2050
2051
2051
2051
2051
2051
2052
2052
2053
2054
2055
2055
2056
2056
2056
2057
2058
2060
2061
2063
2064
2065
2066
2067
2068
2070
2073
2075
2078
2081
2084
2087
2090
2093
2096
2099
2102
2106
2109
2111
2113
2114
2115
2114
2112
2109
2104
2098
2091
2084
2076
2069
2062
2056
2051
2048
2045
2043
2042
2041
2041
2040
2040
2039
2039
2039
2039
2040
2040
2040
2040
2040
2040
2040
2040
2040
2040
2041
2042
2042
2042
2042
2042
2042
2042
2042
2042
2043
2043
2043
2044
2044
2044
2043
2043
2043
2044
2044
2045
2046
2046
2046
2045
2045
2045
2045
2045
2046
2046
2046
2047
2047
2047
2047
2046
2046
2047
2047
2048
2048
2048
2048
2048
2047
2047
2047
2048
2048
2048
2048
2048
2048
2048
2048
2048
2048
2048
2048
2048
2049
2049
2049
2049
2049
2048
2048
2048
2049
2049
2049
2050
2050
2049
2049
2049
2049
2050
2050
2051
2051
2051
2050
2050
2050
2050
2050
2050
2051
2051
2051
2051
2051
2051
2051
2051
2051
2051
2052
2052
2052
2052
2052
2052
2052
2052
2052
2052
2053
2053
2054
2054
2054
2054
2054
2053
2053
2053
2054
2055
2055
2055
2055
2054
2054
2054
2054
2053
2053
2053
2052
2052
2051
2051
2051
2052
2054
2056
2057
2059
2059
2060
2060
2061
2062
2062
2061
2060
2059
2058
2057
2057
2057
2057
2056
2056
2055
2055
2056
2056
2057
2057
2057
2056
2056
2055
2055
2055
2056
2056
2057
2057
2057
2058
2058
2058
2055
2050
2045
2039
2036
2041
2058
2096
2149
2200
2229
2225
2188
2137
2095
2073
2073
2082
2087
2085
2076
2066
2060
2057
2054
2052
2050
2049
2049
2049
2049
2050
2050
2051
2052
2052
2052
2052
2052
2053
2053
2054
2055
2056
2057
2058
2058
2059
2059
2060
2061
2063
2064
2066
2068
2069
2071
2072
2074
2077
2079
2082
2086
2089
2093
2095
2098
2101
2104
2106
2108
2110
2112
2113
2113
2111
2108
2102
2095
2088
2081
2073
2067
2061
2055
2050
2047
2043
2040
2038
2037
2036
2036
2036
2036
2036
2036
2036
2035
2035
2035
2036
2036
2036
2037
2037
2038
2038
2038
2038
2038
2038
2038
2038
2038
2038
2038
2038
2038
2038
2038
2039
2039
2040
2040
2041
2041
2041
2041
2041
2041
2042
2042
2042
2042
2043
2043
2043
2043
2043
2043
2043
2044
2044
2044
2044
2044
2044
2044
2044
2044
2044
2045
2045
2045
2046
2046
2046
2046
2046
2045
2045
2046
2046
2047
2047
2046
2046
2045
2045
2045
2045
2046
2046
2047
2047
2047
2047
2047
2047
2047
2048
2048
2048
2048
2048
2048
2048
2048
2048
2048
2048
2048
2047
2047
2047
2047
2047
2047
2046
2046
2046
2047
2047
2048
2047
2047
2045
2044
2043
2043
2043
2044
2045
2046
2047
2048
2048
2048
2048
2048
2048
2048
2048
2047
2046
2045
2044
2043
2042
2042
2043
2045
2046
2047
2047
2047
2046
2045
2043
2043
2042
2043
2044
2046
2048
2049
2051
2052
2054
2055
2056
2057
2058
2059
2058
2057
2056
2055
2054
2054
2054
2054
2055
2055
2055
2054
2052
2050
2048
2048
2048
2048
2050
2050
2051
2051
2051
2051
2051
2052
2054
2055
2056
2056
2053
2048
2043
2037
2038
2048
2078
2126
2180
2220
2229
2202
2152
2102
2072
2066
2077
2090
2093
2087
2076
2067
2062
2059
2058
2056
2054
2051
2049
2048
2047
2048
2049
2051
2051
2049
2048
2047
2047
2048
2050
2053
2055
2056
2056
2057
2058
2060
2062
2063
2064
2065
2066
2067
2068
2071
2074
2077
2081
2084
2088
2091
2095
2099
2102
2105
2109
2113
2117
2122
2126
2129
2130
2130
2128
2125
2121
2116
2109
2102
2094
2085
2076
2067
2059
2053
2049
2047
2046
2045
2045
2044
2043
2042
2041
2042
2043
2043
2044
2044
2043
2043
2043
2043
2043
2043
2044
2044
2045
2046
2046
2046
2045
2044
2043
2042
2042
2042
2043
2044
2044
2044
2044
2045
2045
2046
2047
2048
2048
2049
2049
2049
2049
2049
2049
2049
2050
2051
2052
2053
2053
2052
2050
2049
2048
2048
2048
2049
2049
2051
2051
2052
2051
2051
2050
2050
2050
2051
2052
2052
2053
2053
2053
2053
2053
2053
2053
2053
2053
2053
2053
2053
2052
2052
2052
2052
2053
2053
2053
2053
2053
2053
2052
2052
2051
2051
2051
2051
2052
2052
2053
2053
2052
2051
2051
2050
2050
2050
2050
2050
2051
2052
2054
2055
2056
2056
2056
2056
2057
2058
2060
2060
2060
2058
2056
2055
2055
2056
2056
2057
2057
2056
2056
2055
2055
2055
2055
2056
2056
2056
2056
2056
2056
2056
2056
2057
2058
2058
2059
2060
2061
2061
2059
2055
2049
2043
2038
2039
2051
2083
2135
2191
2232
2237
2203
2145
2090
2059
2057
2074
2091
2096
2090
2077
2068
2061
2058
2055
2053
2052
2052
2052
2052
2052
2053
2053
2054
2055
2056
2056
2057
2057
2058
2058
2059
2059
2060
2061
2063
2065
2067
2068
2069
2070
2072
2074
2076
2079
2081
2084
2087
2090
2093
2096
2100
2104
2109
2114
2119
2123
2128
2131
2134
2136
2138
2139
2139
2138
2134
2127
2118
2107
2095
2084
2073
2064
2057
2051
2047
2043
2040
2038
2036
2035
2034
2034
2034
2034
2034
2034
2035
2035
2035
2035
2036
2036
2037
2037
2037
2037
2037
2037
2038
2038
2038
2038
2037
2038
2038
2038
2038
2039
2039
2039
2039
2040
2041
2041
2042
2042
2042
2042
2042
2042
2042
2042
2042
2043
2043
2044
2044
2044
2043
2043
2043
2043
2043
2043
2043
2043
2043
2043
2043
2042
2042
2042
2043
2043
2043
2043
2043
2043
2043
2042
2042
2042
2042
2042
2043
2043
2043
2043
2043
2043
2043
2044
2044
2045
2045
2045
2045
2045
2045
2044
2043
2042
2042
2041
2040
2039
2039
2039
2039
2039
2039
2039
2039
2038
2038
2038
2039
2039
2038
2037
2036
2035
2034
2033
2033
2033
2033
2034
2036
2037
2039
2040
2040
2041
2041
2041
2041
2041
2040
2040
2040
2040
2040
2040
2040
2041
2042
2043
2043
2042
2039
2033
2026
2017
2012
2017
2041
2084
2140
2188
2207
2190
2145
2094
2059
2050
2059
2073
2078
2073
2061
2050
2044
2041
2038
2036
2036
2035
2035
2035
2036
2036
2037
2037
2037
2037
2037
2037
2037
2038
2038
2038
2038
2038
2037
2037
2037
2039
2042
2046
2048
2051
2054
2057
2059
2061
2062
2063
2064
2066
2069
2072
2076
2081
2086
2091
2096
2100
2104
2106
2107
2107
2105
2103
2099
2093
2086
2075
2062
2048
2036
2030
2027
2026
2023
2017
2009
2003
2002
2005
2011
2016
2020
2021
2022
2022
2021
2021
2020
2020
2021
2022
2023
2024
2023
2023
2022
2023
2023
2023
2024
2026
2027
2027
2028
2028
2028
2029
2029
2029
2029
2029
2030
2030
2031
2032
2033
2034
2035
2036
2037
2037
2038
2039
2040
2041
2041
2042
2041
2041
2041
2041
2041
2041
2042
2042
2043
2042
2042
2041
2041
2041
2042
2043
2044
2044
2044
2044
2045
2044
2044
2044
2043
2043
2043
2043
2043
2043
2044
2043
2044
2044
2045
2045
2046
2045
2045
2044
2044
2043
2044
2044
2044
2044
2044
2044
2044
2044
2044
2045
2045
2046
2046
2047
2047
2048
2048
2048
2048
2048
2048
2048
2048
2049
2049
2050
2050
2050
2050
2049
2050
2050
2050
2050
2050
2050
2050
2050
2050
2050
2049
2049
2050
2051
2053
2055
2057
2058
2058
2058
2059
2059
2060
2061
2062
2062
2061
2060
2058
2056
2055
2054
2054
2055
2055
2055
2055
2055
2055
2055
2054
2054
2054
2054
2054
2054
2054
2054
2053
2053
2052
2052
2052
2053
2054
2055
2054
2052
2048
2040
2032
2025
2026
2041
2077
2135
2198
2244
2256
2228
2175
2123
2088
2077
2081
2085
2083
2074
2063
2055
2050
2048
2045
2044
2044
2043
2043
2044
2044
2043
2044
2044
2044
2045
2046
2047
2047
2048
2048
2048
2048
2048
2049
2050
2052
2053
2054
2055
2055
2056
2057
2059
2060
2063
2065
2067
2069
2071
2074
2076
2078
2081
2084
2088
2092
2096
2099
2101
2103
2104
2105
2106
2105
2103
2099
2094
2088
2081
2074
2067
2060
2054
2050
2047
2044
2042
2041
2040
2039
2039
2039
2038
2039
2038
2038
2038
2038
2038
2038
2038
2038
2038
2039
2040
2041
2042
2043
2044
2044
2044
2043
2043
2043
2043
2044
2045
2045
2046
2046
2046
2046
2046
2046
2047
2047
2048
2048
2048
2048
2048
2047
2047
2047
2048
2048
2048
2048
2048
2048
2048
2048
2048
2048
2049
2049
2049
2049
2049
2049
2048
2048
2048
2048
2049
2049
2049
2049
2049
2048
2048
2048
2048
2048
2049
2049
2050
2050
2049
2049
2048
2048
2048
2049
2049
2050
2050
2050
2049
2049
2049
2049
2049
2049
2050
2050
2050
2051
2051
2050
2050
2050
2050
2050
2050
2050
2051
2051
2051
2051
2050
2050
2050
2051
2051
2052
2052
2052
2051
2051
2050
2050
2050
2051
2051
2052
2052
2052
2052
2052
2051
2051
2051
2051
2052
2052
2052
2052
2051
2050
2049
2048
2048
2048
2048
2048
2050
2051
2053
2054
2055
2055
2055
2055
2056
2058
2059
2059
2058
2057
2055
2054
2053
2053
2053
2053
2053
2053
2053
2053
2052
2052
2052
2052
2052
2053
2053
2053
2053
2053
2052
2052
2052
2052
2053
2053
2054
2055
2055
2055
2052
2047
2040
2033
2028
2033
2052
2094
2153
2212
2247
2246
2209
2155
2108
2081
2077
2083
2086
2081
2071
2061
2054
2050
2048
2047
2046
2046
2046
2045
2045
2045
2046
2046
2047
2048
2048
2048
2049
2049
2049
2049
2049
2050
2051
2052
2053
2054
2055
2055
2056
2057
2058
2059
2061
2063
2065
2067
2069
2072
2074
2076
2079
2082
2085
2089
2092
2095
2098
2100
2102
2104
2106
2107
2106
2105
2102
2098
2092
2086
2078
2071
2064
2058
2053
2049
2046
2043
2041
2039
2038
2037
2037
2036
2036
2036
2036
2036
2036
2036
2036
2036
2036
2037
2037
2038
2038
2038
2038
2037
2037
2037
2037
2037
2038
2038
2038
2038
2038
2038
2037
2037
2037
2038
2038
2039
2039
2039
2039
2038
2038
2038
2038
2039
2039
2040
2040
2040
2040
2039
2039
2039
2039
2040
2040
2040
2040
2041
2040
2040
2040
2040
2040
2040
2041
2041
2042
2042
2042
2042
2041
2041
2041
2041
2042
2042
2043
2043
2043
2042
2042
2042
2042
2042
2043
2043
2044
2044
2044
2043
2043
2043
2043
2043
2044
2044
2045
2045
2045
2045
2045
2045
2045
2045
2045
2045
2046
2046
2046
2046
2046
2046
2046
2047
2047
2047
2047
2047
2047
2047
2047
2047
2047
2047
2047
2048
2048
2048
2048
2048
2048
2048
2048
2048
2048
2048
2048
2048
2048
2047
2047
2046
2045
2045
2045
2046
2048
2049
2050
2052
2052
2052
2053
2053
2055
2056
2057
2057
2056
2054
2052
2051
2051
2051
2051
2051
2051
2051
2050
2050
2050
2050
2050
2050
2050
2051
2051
2051
2051
2050
2050
2050
2050
2050
2051
2052
2053
2054
2053
2051
2046
2039
2032
2027
2031
2050
2090
2147
2202
2236
2234
2198
2145
2099
2074
2071
2078
2082
2079
2070
2059
2053
2049
2047
2045
2044
2044
2044
2044
2044
2044
2044
2044
2045
2046
2047
2047
2048
2048
2048
2048
2049
2050
2051
2052
2052
2053
2054
2055
2056
2057
2059
2060
2061
2063
2065
2067
2069
2071
2074
2076
2079
2082
2085
2089
2092
2095
2098
2101
2103
2104
2106
2106
2106
2105
2102
2097
2091
2084
2076
2069
2062
2055
2050
2047
2043
2041
2038
2037
2035
2034
2034
2034
2034
2034
2034
2034
2034
2034
2034
2034
2034
2034
2034
2035
2035
2036
2036
2036
2036
2036
2036
2036
2036
2036
2037
2037
2037
2037
2037
2037
2037
2037
2037
2038
2038
2039
2039
2039
2039
2038
2038
2038
2039
2039
2040
2040
2040
2041
2040
2040
2040
2040
2040
2041
2041
2041
2041
2041
2041
2041
2041
2041
2041
2041
2042
2042
2042
2042
2042
2042
2042
2042
2042
2042
2043
2043
2043
2043
2043
2043
2043
2042
2042
2043
2043
2044
2044
2044
2044
2044
2044
2044
2044
2045
2046
2046
2046
2046
2046
2045
2045
2045
2045
2046
2046
2046
2046
2046
2046
2045
2045
2045
2045
2045
2046
2046
2047
2047
2047
2046
2045
2045
2045
2046
2046
2046
2045
2044
2043
2043
2043
2044
2046
2048
2050
2053
2053
2054
2053
2053
2053
2053
2054
2054
2054
2053
2053
2052
2051
2050
2050
2050
2050
2050
2050
2050
2050
2051
2051
2051
2051
2050
2050
2050
2050
2050
2050
2051
2051
2051
2052
2053
2053
2052
2048
2044
2037
2032
2034
2048
2082
2134
2189
2225
2228
2196
2144
2096
2068
2063
2071
2079
2079
2072
2063
2056
2052
2048
2046
2044
2043
2043
2043
2043
2044
2044
2045
2045
2045
2045
2044
2044
2044
2045
2046
2047
2048
2049
2049
2049
2050
2050
2050
2050
2052
2053
2055
2057
2059
2061
2063
2066
2068
2071
2075
2079
2083
2087
2092
2096
2100
2104
2107
2110
2114
2117
2119
2120
2119
2115
2110
2103
2095
2087
2078
2070
2062
2055
2048
2043
2038
2035
2034
2034
2035
2035
2036
2036
2035
2034
2033
2034
2034
2035
2036
2035
2034
2032
2029
2026
2025
2025
2027
2031
2035
2037
2038
2037
2036
2036
2036
2037
2038
2039
2040
2041
2041
2042
2043
2043
2044
2044
2044
2044
2044
2044
2044
2044
2044
2044
2044
2045
2046
2047
2047
2048
2048
2048
2048
2048
2048
2048
2048
2048
2049
2049
2049
2049
2048
2048
2048
2048
2048
2048
2048
2048
2048
2049
2050
2050
2050
2050
2049
2048
2049
2050
2051
2051
2051
2050
2049
2049
2049
2050
2051
2052
2052
2052
2052
2052
2051
2051
2051
2050
2050
2049
2048
2048
2048
2050
2052
2054
2056
2057
2058
2058
2059
2060
2061
2060
2059
2058
2057
2056
2057
2057
2057
2057
2056
2056
2057
2057
2057
2057
2058
2058
2059
2060
2060
2059
2059
2059
2059
2060
2061
2061
2062
2062
2062
2061
2059
2054
2049
2045
2046
2057
2088
2139
2195
2237
2243
2209
2152
2096
2064
2062
2079
2096
2102
2097
2085
2075
2068
2062
2058
2056
2055
2056
2057
2058
2059
2059
2060
2060
2061
2062
2063
2065
2065
2066
2067
2067
2068
2069
2070
2072
2073
2074
2075
2076
2077
2078
2080
2082
2084
2087
2090
2093
2097
2100
2104
2108
2113
2118
2123
2128
2132
2136
2139
2142
2145
2147
2148
2148
2146
2142
2135
2125
2114
2102
2090
2080
2071
2063
2056
2051
2047
2044
2042
2040
2039
2038
2038
2038
2038
2038
2038
2038
2038
2037
2038
2038
2038
2039
2039
2039
2039
2038
2038
2038
2038
2038
2038
2038
2038
2039
2039
2040
2040
2039
2040
2040
2041
2042
2043
2043
2043
2043
2043
2043
2043
2043
2043
2044
2044
2044
2044
2044
2044
2043
2043
2043
2044
2044
2044
2045
2045
2045
2044
2044
2043
2043
2044
2044
2045
2045
2045
2044
2044
2043
2043
2043
2043
2043
2044
2044
2044
2044
2043
2042
2042
2041
2040
2040
2039
2039
2040
2041
2042
2043
2044
2044
2044
2045
2046
2047
2047
2047
2046
2043
2042
2041
2041
2042
2043
2043
2043
2042
2041
2041
2041
2040
2040
2040
2041
2041
2042
2042
2042
2042
2041
2042
2042
2043
2045
2046
2045
2042
2037
2030
2023
2018
2022
2040
2077
2130
2183
2214
2208
2168
2113
2068
2048
2052
2068
2078
2078
2068
2057
2048
2044
2041
2038
2037
2036
2035
2035
2035
2035
2035
2036
2036
2037
2038
2038
2039
2039
2040
2040
2040
2041
2042
2044
2045
2046
2047
2048
2050
2051
2053
2055
2056
2058
2061
2063
2066
2068
2071
2075
2079
2083
2087
2091
2095
2100
2104
2108
2111
2113
2114
2114
2113
2110
2105
2098
2089
2079
2069
2059
2051
2045
2039
2035
2032
2030
2028
2026
2025
2024
2024
2022
2022
2024
2025
2026
2022
2014
2004
1996
1994
1999
2007
2015
2020
2022
2022
2022
2022
2023
2023
2024
2025
2025
2026
2027
2027
2027
2028
2028
2028
2029
2029
2030
2031
2032
2033
2034
2034
2034
2034
2033
2033
2033
2033
2034
2034
2034
2034
2034
2034
2034
2034
2035
2035
2036
2036
2037
2038
2038
2036
2034
2031
2028
2027
2027
2028
2029
2031
2032
2032
2033
2033
2033
2034
2034
2035
2035
2035
2034
2032
2031
2030
2030
2031
2032
2034
2034
2035
2034
2034
2035
2035
2036
2037
2038
2039
2039
2040
2040
2040
2041
2041
2041
2041
2040
2040
2040
2040
2041
2042
2044
2045
2046
2047
2047
2048
2048
2050
2050
2050
2049
2048
2047
2046
2046
2046
2046
2045
2044
2043
2043
2043
2044
2044
2044
2044
2044
2043
2043
2043
2043
2043
2043
2043
2043
2043
2043
2043
2044
2045
2045
2043
2039
2033
2026
2020
2019
2032
2063
2117
2178
2225
2240
2216
2166
2115
2080
2069
2072
2077
2075
2067
2056
2049
2045
2042
2039
2038
2037
2036
2036
2036
2037
2038
2039
2040
2041
2041
2041
2041
2042
2042
2043
2045
2046
2047
2048
2048
2048
2049
2050
2051
2052
2054
2055
2056
2058
2059
2061
2063
2065
2068
2070
2074
2077
2081
2085
2089
2092
2095
2098
2100
2103
2105
2106
2105
2104
2100
2095
2090
2083
2077
2070
2064
2058
2053
2049
2046
2043
2041
2039
2038
2037
2037
2037
2038
2038
2038
2038
2037
2037
2037
2037
2038
2038
2039
2039
2040
2040
2040
2040
2040
2040
2040
2041
2041
2042
2041
2041
2040
2040
2039
2040
2041
2041
2041
2041
2041
2041
2041
2041
2041
2041
2041
2042
2042
2041
2041
2040
2040
2040
2041
2042
2042
2043
2043
2043
2043
2043
2043
2042
2042
2042
2042
2041
2041
2041
2041
2041
2041
2041
2040
2042
2044
2044
2042
2037
2032
2029
2031
2033
2034
2030
2024
2017
2013
2013
2014
2016
2017
2016
2016
2017
2019
2023
2028
2033
2038
2040
2041
2043
2044
2045
2044
2041
2038
2036
2037
2039
2042
2044
2045
2045
2046
2047
2048
2048
2048
2047
2046
2045
2045
2047
2048
2051
2054
2055
2056
2057
2058
2059
2061
2063
2064
2064
2063
2061
2059
2058
2057
2056
2056
2056
2057
2057
2057
2057
2056
2055
2054
2054
2054
2053
2054
2054
2054
2054
2055
2055
2056
2055
2055
2055
2057
2057
2057
2054
2048
2042
2035
2032
2039
2062
2108
2167
2219
2245
2234
2192
2139
2097
2077
2076
2081
2082
2076
2066
2057
2053
2049
2048
2047
2046
2047
2047
2048
2049
2049
2049
2049
2049
2050
2051
2052
2052
2053
2054
2055
2055
2056
2057
2057
2058
2060
2060
2062
2062
2063
2064
2066
2067
2068
2070
2072
2075
2077
2080
2082
2084
2087
2089
2092
2095
2098
2101
2104
2107
2108
2109
2109
2108
2105
2102
2097
2091
2084
2077
2069
2063
2057
2052
2048
2046
2045
2043
2042
2042
2041
2039
2038
2037
2037
2037
2037
2038
2038
2038
2039
2039
2039
2039
2039
2040
2041
2042
2042
2041
2038
2036
2034
2034
2036
2039
2041
2043
2043
2042
2042
2041
2041
2042
2042
2043
2043
2044
2044
2044
2044
2043
2043
2042
2042
2043
2043
2044
2044
2044
2043
2041
2040
2040
2041
2041
2040
2039
2038
2037
2036
2036
2036
2037
2037
2038
2040
2041
2042
2042
2042
2042
2042
2043
2043
2043
2043
2043
2043
2043
2044
2044
2044
2043
2041
2040
2039
2039
2039
2040
2040
2040
2041
2041
2042
2043
2043
2043
2043
2043
2043
2044
2044
2044
2044
2043
2043
2042
2043
2044
2045
2046
2046
2046
2045
2045
2046
2046
2047
2048
2048
2047
2046
2045
2045
2046
2048
2049
2052
2053
2053
2053
2052
2052
2052
2053
2054
2055
2054
2052
2050
2048
2048
2048
2050
2051
2051
2050
2049
2048
2048
2049
2049
2050
2051
2051
2051
2050
2049
2048
2048
2047
2048
2048
2048
2050
2052
2054
2055
2054
2050
2045
2038
2032
2032
2045
2076
2124
2176
2213
2220
2195
2149
2104
2075
2066
2070
2075
2075
2069
2061
2055
2051
2048
2047
2046
2047
2047
2048
2048
2048
2048
2048
2048
2048
2048
2048
2049
2050
2052
2054
2056
2057
2058
2059
2059
2060
2061
2062
2063
2064
2065
2066
2067
2069
2071
2073
2076
2079
2081
2083
2086
2088
2091
2094
2097
2101
2104
2107
2110
2111
2113
2113
2113
2111
2108
2104
2098
2091
2084
2077
2070
2064
2058
2054
2050
2048
2047
2046
2045
2045
2044
2043
2042
2042
2042
2043
2044
2044
2044
2044
2044
2044
2044
2045
2046
2046
2047
2047
2046
2046
2045
2045
2044
2043
2042
2040
2038
2037
2036
2035
2035
2035
2035
2034
2034
2034
2036
2038
2039
2040
2039
2038
2037
2037
2037
2039
2041
2042
2043
2043
2043
2043
2043
2043
2044
2045
2045
2046
2046
2046
2046
2046
2047
2047
2047
2047
2047
2047
2047
2048
2048
2047
2047
2047
2048
2048
2048
2049
2049
2049
2048
2048
2048
2048
2049
2049
2050
2050
2050
2050
2050
2050
2050
2050
2050
2050
2051
2051
2052
2051
2051
2051
2050
2050
2050
2050
2050
2051
2051
2050
2050
2049
2048
2048
2049
2051
2053
2055
2057
2058
2058
2058
2058
2058
2060
2061
2061
2061
2059
2057
2056
2055
2054
2054
2054
2054
2054
2054
2054
2054
2054
2053
2052
2052
2052
2052
2053
2053
2053
2052
2052
2051
2051
2052
2053
2054
2054
2051
2046
2040
2034
2033
2041
2064
2103
2153
2194
2211
2197
2158
2112
2078
2064
2066
2074
2078
2075
2068
2060
2056
2052
2050
2049
2048
2049
2050
2050
2051
2051
2051
2051
2051
2051
2051
2052
2052
2053
2054
2054
2054
2054
2054
2054
2054
2055
2056
2057
2059
2061
2062
2064
2065
2067
2068
2071
2073
2075
2078
2081
2084
2087
2089
2092
2095
2098
2101
2104
2106
2108
2108
2108
2106
2103
2098
2091
2084
2077
2069
2062
2055
2048
2044
2039
2036
2034
2032
2031
2031
2030
2030
2031
2031
2032
2032
2032
2032
2032
2032
2032
2032
2032
2032
2032
2033
2033
2034
2034
2034
2035
2035
2035
2034
2034
2034
2034
2034
2035
2035
2036
2036
2035
2035
2035
2034
2035
2035
2036
2036
2036
2036
2036
2036
2036
2036
2036
2035
2035
2035
2035
2034
2034
2033
2033
2034
2034
2035
2035
2036
2036
2035
2034
2033
2033
2033
2033
2034
2034
2035
2035
2035
2035
2035
2035
2035
2035
2036
2036
2037
2037
2036
2036
2035
2035
2035
2035
2036
2037
2037
2037
2037
2037
2037
2037
2037
2037
2037
2038
2038
2038
2037
2037
2036
2036
2036
2036
2036
2038
2040
2043
2045
2047
2047
2047
2047
2048
2048
2049
2049
2048
2048
2046
2045
2045
2044
2044
2045
2045
2045
2045
2045
2045
2044
2044
2044
2044
2044
2044
2045
2046
2046
2046
2045
2045
2045
2046
2047
2046
2044
2038
2032
2027
2025
2033
2055
2094
2143
2185
2203
2189
2150
2103
2067
2053
2056
2066
2071
2069
2062
2054
2049
2046
2043
2042
2042
2042
2043
2045
2046
2046
2047
2047
2047
2047
2047
2048
2048
2049
2050
2051
2052
2052
2052
2053
2054
2056
2057
2059
2060
2062
2063
2064
2066
2068
2070
2074
2078
2082
2086
2089
2093
2097
2100
2104
2107
2111
2115
2118
2121
2123
2124
2124
2122
2119
2114
2107
2099
2090
2082
2073
2066
2059
2053
2048
2046
2044
2043
2043
2043
2042
2042
2041
2040
2040
2041
2042
2043
2044
2044
2044
2044
2044
2044
2045
2045
2045
2045
2045
2046
2046
2045
2045
2044
2042
2042
2041
2041
2041
2042
2043
2043
2043
2043
2043
2043
2043
2044
2044
2044
2044
2044
2044
2044
2044
2045
2045
2046
2047
2047
2047
2047
2046
2046
2045
2046
2046
2047
2047
2047
2048
2048
2048
2049
2050
2051
2052
2052
2052
2052
2051
2051
2050
2050
2049
2049
2048
2049
2050
2051
2052
2053
2053
2052
2051
2050
2050
2050
2050
2050
2050
2049
2048
2048
2048
2048
2050
2051
2053
2054
2054
2055
2056
2056
2057
2057
2057
2057
2058
2059
2059
2060
2060
2060
2062
2064
2066
2065
2063
2059
2053
2048
2048
2056
2080
2122
2171
2211
2223
2201
2156
2107
2074
2067
2077
2091
2097
2095
2085
2077
2071
2066
2063
2061
2060
2060
2060
2060
2061
2061
2062
2062
2063
2063
2063
2063
2062
2063
2064
2065
2067
2067
2068
2068
2068
2069
2071
2072
2075
2077
2078
2080
2081
2083
2085
2087
2090
2094
2097
2101
2105
2109
2114
2118
2122
2126
2129
2132
2134
2136
2137
2136
2133
2127
2120
2111
2102
2093
2084
2077
2070
2064
2059
2054
2051
2049
2049
2049
2049
2049
2048
2048
2048
2047
2048
2048
2048
2048
2048
2049
2050
2051
2050
2050
2050
2050
2051
2051
2051
2051
2050
2050
2050
2050
2050
2050
2050
2051
2052
2053
2054
2054
2053
2052
2052
2052
2053
2054
2056
2056
2056
2056
2056
2057
2057
2057
2057
2056
2056
2056
2056
2057
2057
2057
2057
2056
2056
2056
2056
2057
2057
2057
2057
2056
2055
2053
2051
2050
2050
2051
2053
2053
2053
2053
2052
2053
2054
2054
2054
2054
2054
2054
2053
2053
2053
2053
2053
2053
2054
2055
2055
2054
2053
2052
2052
2052
2052
2053
2053
2054
2054
2054
2054
2054
2053
2053
2053
2053
2053
2054
2054
2054
2054
2054
2054
2053
2053
2053
2054
2054
2054
2053
2052
2050
2049
2049
2049
2050
2052
2054
2055
2055
2055
2054
2053
2054
2056
2057
2058
2057
2056
2054
2053
2052
2051
2051
2051
2050
2050
2050
2050
2050
2050
2050
2050
2049
2049
2049
2049
2049
2050
2050
2051
2052
2053
2052
2048
2044
2038
2033
2035
2049
2084
2135
2188
2221
2220
2184
2129
2082
2060
2063
2079
2092
2094
2086
2075
2067
2062
2060
2058
2055
2053
2052
2051
2051
2052
2053
2053
2054
2055
2056
2058
2059
2060
2061
2061
2061
2062
2063
2063
2064
2065
2066
2067
2069
2071
2073
2076
2079
2082
2084
2087
2090
2094
2098
2102
2105
2109
2113
2117
2122
2126
2130
2134
2137
2140
2142
2143
2142
2139
2134
2127
2119
2109
2100
2090
2082
2074
2067
2061
2057
2053
2050
2048
2047
2046
2045
2044
2044
2044
2043
2042
2041
2041
2042
2043
2043
2043
2043
2043
2043
2043
2043
2043
2044
2044
2045
2046
2046
2047
2047
2047
2047
2048
2048
2049
2049
2050
2050
2050
2051
2052
2052
2052
2051
2051
2051
2051
2052
2053
2054
2054
2053
2054
2054
2054
2055
2055
2055
2054
2054
2053
2053
2053
2054
2055
2055
2055
2055
2055
2055
2055
2055
2056
2056
2055
2054
2053
2053
2052
2051
2049
2047
2046
2046
2048
2050
2053
2055
2056
2056
2056
2056
2057
2058
2058
2057
2055
2053
2052
2051
2051
2051
2051
2051
2051
2051
2051
2051
2050
2049
2049
2048
2049
2049
2049
2050
2051
2051
2051
2051
2052
2052
2053
2052
2050
2046
2040
2034
2030
2038
2062
2108
2166
2214
2232
2211
2159
2102
2064
2055
2068
2085
2094
2090
2079
2069
2061
2056
2053
2050
2048
2048
2048
2048
2049
2050
2051
2052
2053
2053
2053
2053
2053
2054
2055
2057
2059
2061
2062
2062
2063
2063
2064
2065
2067
2069
2071
2074
2076
2078
2080
2083
2086
2090
2093
2097
2102
2107
2112
2116
2120
2124
2127
2130
2133
2135
2136
2136
2133
2127
2119
2109
2098
2086
2076
2067
2058
2052
2047
2042
2038
2035
2033
2032
2031
2031
2030
2028
2027
2025
2025
2024
2025
2025
2025
2026
2026
2026
2026
2025
2025
2024
2025
2025
2027
2028
2028
2029
2029
2028
2028
2028
2029
2029
2030
2031
2032
2032
2033
2033
2033
2033
2033
2032
2032
2033
2034
2034
2035
2036
2036
2036
2036
2036
2036
2036
2036
2036
2036
2036
2035
2035
2035
2036
2037
2037
2037
2038
2038
2038
2038
2038
2038
2038
2038
2038
2039
2039
2039
2038
2038
2036
2035
2034
2033
2033
2034
2036
2039
2041
2042
2043
2043
2043
2044
2045
2046
2047
2046
2045
2044
2043
2043
2043
2043
2043
2043
2043
2043
2043
2043
2042
2041
2041
2041
2041
2042
2042
2042
2042
2041
2040
2040
2039
2040
2041
2042
2043
2042
2039
2031
2023
2013
2007
2015
2045
2100
2171
2233
2261
2245
2195
2135
2092
2074
2076
2083
2082
2074
2061
2050
2044
2039
2035
2034
2034
2034
2035
2035
2035
2035
2035
2035
2036
2037
2038
2039
2039
2040
2041
2041
2041
2041
2041
2042
2044
2045
2046
2047
2048
2048
2050
2051
2052
2054
2057
2059
2062
2065
2068
2071
2074
2077
2080
2083
2087
2090
2093
2095
2097
2099
2099
2099
2097
2094
2090
2084
2078
2070
2063
2056
2050
2046
2042
2040
2038
2037
2036
2035
2034
2034
2033
2033
2033
2034
2035
2035
2036
2036
2036
2036
2036
2036
2036
2036
2037
2037
2038
2038
2038
2038
2038
2038
2038
2038
2039
2040
2040
2040
2040
2040
2040
2040
2040
2041
2041
2042
2042
2042
2042
2042
2042
2042
2042
2042
2043
2043
2043
2043
2043
2043
2043
2043
2043
2043
2044
2044
2044
2044
2044
2044
2044
2044
2044
2044
2044
2045
2045
2045
2046
2046
2045
2045
2045
2045
2045
2046
2046
2047
2047
2047
2047
2047
2047
2047
2048
2048
2048
2048
2048
2048
2047
2047
2047
2047
2047
2048
2048
2048
2049
2051
2052
2053
2053
2053
2054
2054
2055
2055
2055
2054
2053
2052
2051
2051
2052
2052
2053
2053
2053
2053
2052
2051
2049
2048
2048
2048
2048
2048
2048
2048
2048
2049
2051
2052
2053
2053
2053
2053
2054
2053
2052
2049
2045
2039
2031
2027
2034
2061
2114
2186
2252
2288
2281
2236
2176
2126
2099
2093
2094
2092
2085
2074
2064
2058
2053
2049
2048
2047
2047
2048
2048
2048
2048
2048
2049
2049
2049
2049
2049
2050
2052
2054
2055
2057
2058
2059
2060
2061
2062
2063
2064
2066
2067
2068
2070
2072
2075
2078
2081
2083
2085
2088
2091
2095
2099
2104
2108
2111
2115
2118
2121
2124
2126
2127
2127
2126
2122
2116
2109
2100
2091
2083
2075
2068
2062
2057
2052
2049
2047
2045
2044
2043
2042
2041
2041
2042
2042
2042
2042
2041
2041
2040
2040
2041
2041
2042
2043
2043
2043
2042
2041
2041
2041
2042
2043
2043
2043
2042
2042
2043
2043
2043
2043
2043
2044
2044
2045
2045
2045
2044
2044
2044
2045
2045
2046
2045
2045
2045
2045
2045
2045
2045
2045
2045
2045
2045
2045
2046
2046
2045
2044
2043
2042
2041
2041
2041
2042
2043
2044
2044
2044
2043
2043
2042
2042
2042
2042
2042
2042
2041
2040
2040
2039
2039
2040
2041
2043
2045
2047
2048
2048
2048
2049
2050
2050
2051
2052
2051
2051
2049
2048
2048
2048
2048
2048
2048
2048
2048
2048
2048
2048
2048
2048
2048
2048
2047
2047
2046
2045
2044
2043
2042
2042
2042
2043
2044
2045
2046
2048
2048
2047
2043
2038
2032
2026
2027
2038
2067
2117
2172
2213
2221
2191
2138
2085
2054
2050
2064
2077
2081
2074
2062
2053
2048
2045
2043
2042
2041
2041
2041
2041
2041
2042
2043
2044
2044
2045
2046
2047
2048
2048
2048
2048
2049
2051
2052
2053
2055
2056
2057
2058
2060
2061
2063
2065
2067
2070
2073
2075
2077
2080
2084
2088
2093
2098
2103
2107
2110
2113
2116
2118
2120
2122
2123
2122
2118
2112
2104
2094
2084
2074
2065
2057
2050
2046
2042
2039
2037
2035
2033
2031
2031
2031
2031
2032
2032
2032
2032
2032
2031
2031
2030
2031
2031
2032
2033
2033
2034
2034
2034
2033
2033
2033
2034
2034
2035
2036
2036
2036
2036
2036
2036
2036
2037
2038
2039
2039
2040
2040
2041
2041
2042
2042
2043
2043
2044
2044
2044
2045
2045
2045
2045
2045
2045
2045
2045
2045
2046
2046
2045
2045
2043
2042
2042
2042
2043
2043
2044
2044
2044
2043
2044
2044
2045
2046
2047
2047
2048
2048
2048
2048
2048
2048
2048
2048
2049
2049
2050
2049
2048
2048
2048
2048
2048
2048
2048
2047
2047
2047
2048
2049
2051
2052
2053
2054
2055
2055
2056
2056
2056
2056
2055
2054
2053
2053
2053
2053
2053
2053
2053
2053
2052
2052
2051
2050
2050
2050
2050
2050
2050
2050
2050
2050
2050
2051
2052
2052
2053
2053
2053
2054
2055
2055
2054
2051
2047
2041
2034
2033
2043
2069
2116
2170
2213
2226
2205
2161
2114
2085
2078
2085
2092
2092
2084
2073
2064
2059
2055
2053
2051
2050
2049
2050
2050
2051
2051
2052
2051
2051
2051
2051
2051
2052
2052
2053
2055
2056
2057
2057
2058
2058
2058
2059
2061
2062
2064
2066
2067
2068
2070
2072
2074
2076
2078
2081
2083
2086
2090
2094
2097
2099
2099
2098
2096
2095
2094
2093
2092
2089
2085
2079
2074
2069
2065
2061
2058
2053
2049
2046
2043
2040
2038
2037
2036
2036
2036
2036
2037
2037
2037
2036
2037
2037
2038
2038
2037
2035
2032
2030
2030
2031
2033
2035
2037
2038
2039
2039
2038
2036
2034
2033
2032
2030
2028
2026
2025
2025
2025
2026
2027
2026
2027
2028
2029
2029
2029
2028
2026
2025
2025
2025
2026
2027
2029
2030
2033
2035
2037
2038
2039
2039
2039
2039
2039
2040
2041
2043
2045
2047
2048
2048
2046
2044
2042
2042
2043
2044
2045
2046
2045
2045
2045
2046
2046
2045
2045
2043
2042
2042
2041
2041
2040
2040
2041
2041
2043
2044
2045
2046
2047
2048
2048
2049
2050
2051
2052
2053
2053
2053
2052
2051
2048
2047
2046
2047
2048
2050
2052
2052
2052
2051
2050
2050
2050
2051
2052
2054
2056
2058
2060
2060
2061
2061
2062
2063
2064
2064
2065
2064
2063
2062
2061
2060
2060
2060
2060
2060
2060
2060
2059
2059
2058
2058
2058
2058
2058
2059
2059
2059
2058
2058
2057
2057
2057
2058
2059
2060
2061
2060
2058
2052
2046
2039
2034
2039
2059
2102
2160
2215
2246
2241
2203
2151
2107
2085
2083
2089
2092
2087
2078
2068
2061
2057
2053
2052
2051
2051
2051
2051
2052
2052
2053
2053
2054
2055
2056
2057
2058
2058
2058
2058
2058
2059
2060
2061
2062
2063
2064
2065
2065
2066
2067
2068
2070
2072
2074
2075
2077
2079
2081
2084
2087
2091
2095
2098
2102
2105
2108
2110
2112
2113
2114
2115
2114
2112
2108
2103
2096
2089
2081
2074
2067
2061
2056
2052
2050
2048
2047
2046
2045
2044
2044
2044
2044
2045
2045
2045
2046
2045
2045
2045
2045
2045
2046
2047
2047
2048
2048
2048
2048
2047
2047
2047
2047
2048
2048
2048
2048
2048
2048
2048
2048
2048
2048
2049
2049
2050
2050
2050
2049
2048
2048
2048
2048
2048
2049
2049
2049
2049
2048
2048
2048
2048
2048
2048
2049
2049
2050
2050
2049
2049
2049
2049
2049
2049
2049
2049
2049
2049
2049
2049
2049
2049
2049
2050
2050
2051
2051
2051
2051
2050
2050
2050
2050
2051
2051
2051
2051
2050
2050
2050
2050
2050
2051
2051
2052
2052
2052
2052
2052
2052
2052
2052
2052
2052
2052
2053
2053
2053
2053
2052
2052
2052
2053
2053
2053
2053
2053
2053
2053
2052
2052
2051
2051
2050
2050
2050
2050
2051
2053
2054
2056
2057
2059
2059
2060
2061
2062
2062
2063
2062
2061
2060
2059
2058
2057
2057
2056
2056
2055
2055
2055
2055
2055
2056
2056
2056
2056
2055
2055
2055
2055
2055
2055
2055
2056
2056
2056
2056
2057
2056
2055
2051
2046
2040
2034
2034
2045
2072
2121
2179
2224
2239
2219
2173
2123
2088
2074
2077
2084
2084
2078
2067
2060
2055
2052
2050
2049
2049
2049
2049
2049
2049
2050
2050
2051
2052
2053
2053
2053
2054
2054
2055
2055
2057
2058
2059
2060
2061
2061
2062
2063
2064
2065
2067
2068
2070
2072
2074
2075
2077
2079
2082
2085
2088
2092
2095
2098
2101
2104
2106
2108
2110
2112
2113
2113
2112
2108
2103
2097
2090
2082
2075
2068
2062
2058
2054
2050
2048
2045
2043
2042
2041
2041
2041
2041
2041
2041
2041
2041
2040
2040
2040
2040
2041
2042
2042
2043
2043
2043
2043
2043
2043
2044
2045
2046
2046
2046
2046
2046
2045
2045
2045
2046
2046
2047
2047
2047
2047
2046
2045
2045
2045
2045
2046
2046
2047
2047
2048
2048
2047
2046
2046
2046
2047
2047
2048
2048
2047
2047
2046
2046
2046
2047
2047
2047
2048
2048
2047
2047
2047
2046
2046
2046
2047
2047
2048
2048
2047
2047
2046
2046
2046
2046
2046
2046
2046
2046
2046
2047
2047
2047
2047
2048
2048
2048
2048
2048
2048
2048
2048
2048
2048
2048
2049
2049
2049
2049
2049
2049
2049
2049
2049
2049
2050
2050
2050
2050
2051
2051
2051
2051
2050
2050
2050
2051
2051
2051
2051
2050
2049
2048
2048
2048
2048
2048
2048
2049
2051
2052
2054
2055
2056
2057
2057
2058
2059
2060
2060
2059
2058
2057
2055
2054
2054
2054
2054
2054
2053
2053
2052
2052
2052
2052
2052
2052
2053
2053
2052
2052
2052
2052
2052
2052
2052
2053
2054
2055
2054
2051
2047
2040
2034
2031
2036
2056
2096
2150
2200
2227
2220
2182
2131
2090
2070
2071
2079
2084
2080
2071
2061
2055
2051
2048
2048
2047
2047
2047
2047
2048
2048
2048
2048
2048
2049
2050
2051
2051
2051
2052
2052
2052
2053
2054
2055
2056
2058
2059
2060
2061
2062
2063
2064
2066
2068
2070
2073
2075
2077
2079
2081
2084
2088
2091
2095
2098
2102
2104
2107
2108
2110
2111
2111
2111
2109
2105
2099
2093
2085
2077
2069
2062
2056
2051
2048
2046
2044
2042
2040
2039
2037
2037
2036
2037
2037
2038
2039
2039
2039
2038
2038
2038
2038
2039
2040
2040
2041
2041
2041
2041
2040
2040
2040
2040
2040
2041
2041
2042
2042
2042
2041
2041
2041
2042
2042
2043
2043
2043
2043
2043
2043
2043
2043
2043
2044
2044
2044
2044
2044
2044
2044
2044
2044
2044
2045
2045
2045
2045
2045
2044
2044
2044
2044
2044
2044
2045
2045
2045
2045
2044
2045
2045
2045
2045
2046
2046
2046
2046
2045
2045
2045
2045
2045
2045
2046
2046
2046
2047
2047
2047
2046
2046
2046
2046
2046
2047
2047
2047
2048
2048
2047
2047
2047
2047
2047
2047
2048
2048
2048
2048
2048
2048
2048
2048
2048
2048
2049
2049
2049
2048
2048
2048
2048
2048
2048
2048
2048
2047
2047
2046
2047
2048
2049
2051
2053
2054
2055
2055
2056
2056
2057
2057
2056
2055
2054
2053
2052
2052
2051
2051
2050
2050
2049
2049
2049
2050
2050
2050
2050
2049
2049
2048
2048
2049
2049
2050
2050
2050
2050
2051
2052
2051
2049
2045
2039
2033
2030
2036
2056
2095
2147
2194
2218
2209
2170
2120
2081
2064
2065
2074
2079
2077
2068
2059
2054
2050
2048
2047
2046
2046
2045
2046
2046
2047
2048
2048
2049
2049
2049
2049
2049
2050
2050
2051
2052
2053
2054
2055
2055
2056
2056
2057
2059
2060
2062
2064
2066
2068
2070
2072
2074
2077
2079
2082
2086
2089
2093
2096
2099
2101
2103
2105
2106
2108
2110
2111
2111
2108
2104
2098
2091
2084
2076
2069
2062
2057
2052
2048
2046
2043
2041
2039
2038
2038
2038
2038
2039
2039
2038
2038
2037
2037
2038
2038
2039
2040
2040
2040
2040
2040
2040
2040
2040
2040
2040
2041
2041
2042
2042
2042
2042
2041
2041
2042
2042
2043
2044
2044
2044
2045
2045
2045
2045
2045
2045
2045
2046
2046
2046
2046
2047
2047
2047
2047
2048
2048
2048
2048
2048
2048
2048
2048
2048
2048
2048
2049
2049
2050
2050
2050
2049
2049
2049
2049
2050
2050
2050
2050
2051
2051
2050
2050
2050
2050
2050
2051
2051
2051
2051
2050
2050
2049
2049
2050
2051
2052
2052
2052
2052
2050
2049
2048
2048
2049
2049
2050
2051
2051
2052
2052
2052
2051
2051
2051
2052
2052
2052
2052
2052
2052
2051
2051
2051
2052
2052
2052
2051
2051
2050
2049
2048
2048
2049
2050
2053
2056
2058
2058
2057
2056
2056
2056
2057
2058
2058
2057
2055
2053
2051
2050
2049
2049
2050
2051
2052
2053
2053
2052
2051
2050
2049
2050
2050
2051
2052
2053
2053
2053
2053
2053
2054
2055
2055
2055
2052
2048
2043
2038
2038
2048
2073
2117
2167
2205
2215
2190
2142
2094
2064
2058
2069
2082
2087
2083
2074
2066
2061
2057
2054
2052
2051
2050
2051
2051
2052
2053
2053
2054
2055
2055
2055
2055
2056
2056
2057
2059
2060
2062
2062
2063
2063
2064
2066
2067
2069
2070
2072
2073
2075
2078
2080
2083
2085
2088
2091
2094
2098
2103
2107
2111
2114
2116
2119
2122
2126
2128
2130
2130
2128
2124
2117
2110
2102
2093
2085
2077
2069
2062
2055
2050
2047
2044
2043
2043
2043
2042
2042
2041
2041
2040
2040
2040
2041
2041
2042
2043
2043
2042
2042
2041
2040
2040
2040
2040
2041
2041
2041
2041
2042
2042
2042
2042
2042
2043
2043
2044
2045
2046
2046
2046
2046
2046
2046
2047
2048
2048
2048
2048
2048
2048
2048
2048
2048
2049
2049
2049
2049
2049
2048
2048
2048
2048
2048
2049
2049
2050
2050
2050
2050
2050
2049
2049
2049
2049
2050
2050
2050
2050
2050
2050
2049
2049
2050
2050
2050
2050
2050
2051
2051
2050
2049
2049
2049
2050
2050
2051
2051
2051
2051
2050
2049
2048
2048
2049
2048
2048
2048
2048
2048
2048
2050
2052
2054
2055
2056
2056
2057
2057
2058
2058
2057
2055
2053
2052
2052
2053
2053
2053
2053
2053
2052
2052
2052
2051
2052
2052
2052
2052
2052
2051
2051
2051
2051
2052
2053
2054
2055
2055
2055
2053
2050
2045
2039
2034
2033
2042
2066
2110
2160
2199
2209
2185
2137
2089
2059
2054
2067
2081
2087
2082
2070
2061
2055
2052
2050
2049
2048
2048
2048
2048
2048
2048
2048
2049
2049
2050
2051
2051
2052
2052
2052
2053
2053
2054
2055
2056
2057
2058
2059
2060
2061
2063
2065
2067
2069
2071
2074
2076
2079
2081
2084
2087
2090
2094
2098
2102
2106
2108
2110
2112
2114
2116
2117
2116
2114
2110
2104
2096
2087
2077
2068
2059
2052
2047
2042
2038
2036
2034
2032
2032
2033
2033
2033
2033
2032
2031
2031
2031
