1973
1973
1972
1972
1971
1971
1972
1972
1973
1973
1972
1969
1967
1967
1971
1981
1998
2022
2048
2071
2086
2083
2062
2027
1988
1957
1942
1942
1951
1962
1969
1971
1970
1969
1969
1969
1970
1971
1972
1973
1973
1972
1971
1971
1971
1973
1974
1975
1976
1976
1975
1975
1975
1975
1975
1976
1978
1978
1979
1979
1978
1978
1979
1981
1982
1983
1982
1981
1981
1980
1981
1981
1983
1984
1985
1988
1991
1994
1996
1998
1998
1998
1996
1992
1990
1988
1989
1992
1994
1993
1990
1986
1984
1982
1982
1981
1979
1977
1975
1972
1971
1971
1972
1975
1980
1986
1992
1995
1996
1997
1999
2003
2008
2012
2014
2014
2013
2012
2012
2012
2013
2013
2015
2017
2019
2021
2021
2021
2021
2022
2023
2026
2029
2032
2036
2041
2048
2054
2063
2073
2085
2096
2106
2115
2123
2129
2134
2135
2130
2120
2107
2095
2084
2076
2071
2069
2067
2064
2059
2053
2048
2048
2052
2062
2072
2080
2084
2086
2085
2082
2078
2073
2070
2067
2066
2068
2074
2082
2094
2109
2130
2155
2185
2215
2239
2250
2243
2222
2195
2173
2164
2170
2185
2203
2217
2226
2233
2241
2251
2260
2266
2269
2271
2273
2276
2281
2285
2287
2285
2280
2274
2268
2262
2256
2251
2247
2242
2239
2238
2236
2233
2227
2221
2215
2212
2212
2214
2216
2216
2214
2210
2206
2204
2203
2203
2202
2198
2192
2185
2179
2175
2172
2171
2170
2171
2174
2177
2176
2172
2166
2160
2158
2156
2152
2142
2130
2119
2113
2110
2108
2103
2095
2088
2081
2074
2068
2062
2056
2050
2042
2032
2020
2011
2005
2003
2002
1998
1990
1982
1976
1973
1973
1973
1971
1968
1964
1963
1963
1963
1960
1953
1945
1939
1936
1933
1928
1920
1912
1906
1903
1904
1905
1904
1902
1901
1901
1903
1908
1912
1917
1920
1921
1922
1923
1927
1931
1935
1940
1944
1946
1949
1952
1956
1958
1959
1957
1956
1958
1962
1966
1969
1972
1976
1981
1989
1998
2008
2018
2027
2036
2045
2050
2054
2058
2062
2071
2086
2106
2131
2158
2177
2180
2165
2132
2095
2066
2051
2050
2058
2067
2075
2078
2080
2081
2082
2081
2081
2082
2084
2085
2088
2092
2098
2102
2103
2097
2088
2080
2076
2077
2083
2090
2096
2101
2105
2110
2115
2118
2120
2121
2121
2122
2124
2127
2129
2130
2131
2133
2135
2138
2141
2143
2145
2145
2145
2144
2144
2145
2148
2152
2155
2156
2155
2153
2152
2153
2153
2153
2152
2149
2145
2141
2137
2134
2131
2129
2127
2125
2122
2119
2115
2112
2110
2107
2104
2103
2102
2101
2100
2097
2094
2091
2089
2087
2087
2085
2082
2079
2077
2076
2075
2073
2070
2066
2063
2060
2058
2057
2056
2054
2052
2050
2047
2044
2042
2041
2042
2041
2038
2033
2027
2021
2016
2011
2006
2002
1999
1997
1996
1995
1994
1992
1990
1988
1987
1987
1986
1985
1983
1981
1978
1974
1972
1969
1967
1964
1961
1959
1958
1959
1958
1957
1956
1955
1955
1956
1958
1957
1954
1951
1949
1950
1952
1956
1964
1976
1995
2019
2045
2064
2068
2055
2026
1989
1956
1937
1933
1942
1953
1962
1964
1962
1957
1953
1951
1950
1949
1949
1947
1945
1941
1938
1935
1933
1933
1932
1930
1926
1921
1916
1913
1911
1910
1908
1908
1908
1908
1907
1905
1902
1899
1898
1896
1895
1893
1890
1889
1889
1891
1892
1892
1891
1890
1890
1891
1894
1898
1901
1904
1905
1907
1909
1911
1911
1911
1912
1913
1914
1915
1914
1913
1911
1909
1906
1903
1901
1899
1898
1898
1897
1897
1896
1895
1893
1891
1891
1893
1896
1899
1900
1901
1902
1902
1903
1905
1906
1905
1904
1903
1904
1908
1912
1916
1916
1915
1914
1915
1919
1924
1927
1927
1926
1924
1923
1923
1924
1926
1927
1929
1933
1937
1940
1942
1942
1943
1943
1943
1943
1944
1945
1946
1947
1948
1950
1950
1950
1951
1953
1954
1955
1956
1957
1958
1959
1959
1959
1959
1959
1961
1964
1967
1968
1968
1966
1964
1965
1971
1984
2003
2028
2053
2073
2080
2070
2047
2013
1979
1954
1943
1946
1956
1966
1972
1974
1974
1975
1977
1979
1979
1978
1976
1976
1976
1977
1977
1977
1977
1978
1978
1978
1978
1978
1979
1981
1982
1983
1984
1983
1983
1983
1982
1982
1983
1984
1985
1985
1986
1986
1987
1990
1992
1994
1996
1996
1996
1997
1999
2001
2004
2006
2006
2006
2005
2007
2009
2011
2012
2011
2009
2008
2009
2011
2014
2014
2012
2008
2005
2003
2003
2004
2005
2003
2001
1999
2000
2001
2003
2005
2007
2008
2008
2006
2006
2007
2010
2015
2018
2018
2016
2013
2011
2011
2012
2013
2014
2015
2015
2015
2014
2013
2014
2015
2018
2020
2020
2019
2018
2019
2022
2025
2027
2028
2029
2029
2028
2026
2026
2028
2032
2038
2042
2044
2043
2042
2041
2042
2043
2044
2046
2047
2048
2048
2051
2054
2057
2059
2059
2058
2058
2059
2061
2062
2062
2062
2061
2061
2061
2060
2059
2058
2057
2057
2059
2066
2080
2101
2127
2152
2169
2170
2153
2122
2086
2057
2044
2046
2057
2071
2080
2083
2083
2083
2084
2086
2090
2093
2094
2095
2096
2098
2101
2103
2104
2105
2107
2110
2114
2116
2118
2118
2119
2121
2124
2128
2131
2132
2133
2133
2133
2133
2134
2136
2137
2137
2137
2137
2137
2138
2139
2138
2136
2134
2133
2132
2133
2135
2136
2135
2133
2131
2129
2128
2127
2125
2124
2122
2121
2119
2117
2114
2111
2106
2101
2097
2093
2092
2092
2091
2089
2086
2083
2081
2080
2080
2079
2077
2075
2073
2073
2074
2075
2075
2075
2074
2072
2071
2069
2068
2067
2067
2068
2068
2068
2067
2065
2064
2063
2063
2062
2062
2060
2059
2057
2056
2055
2056
2056
2056
2055
2054
2053
2052
2052
2051
2050
2050
2051
2052
2053
2051
2049
2048
2046
2044
2043
2042
2041
2040
2038
2037
2037
2037
2036
2035
2033
2031
2029
2027
2027
2027
2027
2028
2029
2030
2029
2027
2024
2021
2019
2017
2015
2012
2012
2017
2030
2051
2076
2100
2112
2106
2082
2046
2007
1977
1961
1960
1969
1980
1989
1994
1995
1993
1990
1987
1985
1985
1987
1990
1992
1993
1991
1987
1983
1979
1975
1973
1972
1972
1972
1971
1969
1968
1966
1964
1963
1962
1962
1963
1964
1966
1967
1966
1963
1959
1956
1956
1958
1960
1961
1959
1956
1955
1957
1960
1962
1962
1960
1956
1954
1953
1953
1952
1951
1948
1945
1942
1940
1938
1936
1932
1928
1923
1917
1912
1908
1904
1902
1901
1900
1900
1899
1898
1897
1896
1894
1893
1893
1894
1895
1895
1893
1891
1890
1890
1892
1893
1893
1892
1892
1893
1893
1893
1892
1890
1887
1884
1883
1882
1882
1883
1883
1882
1881
1879
1879
1880
1881
1882
1882
1882
1882
1883
1883
1883
1882
1880
1879
1880
1883
1887
1890
1891
1889
1888
1886
1886
1887
1888
1890
1891
1892
1891
1889
1888
1891
1894
1896
1895
1891
1885
1880
1878
1879
1881
1882
1882
1881
1880
1880
1884
1895
1914
1938
1963
1981
1986
1973
1945
1908
1876
1857
1853
1861
1871
1877
1879
1877
1876
1876
1878
1878
1876
1874
1873
1873
1873
1874
1874
1872
1871
1870
1870
1870
1869
1867
1865
1864
1865
1866
1867
1866
1864
1862
1860
1859
1859
1860
1863
1867
1869
1871
1870
1868
1867
1867
1869
1871
1872
1872
1870
1868
1869
1871
1876
1881
1884
1885
1886
1888
1890
1894
1898
1900
1900
1900
1899
1897
1896
1895
1897
1899
1902
1903
1902
1899
1898
1899
1902
1908
1914
1917
1917
1917
1916
1918
1924
1933
1943
1953
1960
1964
1963
1958
1952
1949
1948
1953
1961
1970
1978
1982
1982
1980
1980
1982
1985
1991
1996
2001
2005
2010
2015
2020
2025
2029
2029
2027
2023
2020
2019
2018
2016
2012
2008
2004
2000
1998
1997
1997
1996
1996
1996
1997
1997
1996
1996
1996
1996
1997
1996
1995
1994
1993
1993
1994
1994
1994
1993
1995
2000
2009
2026
2048
2074
2098
2117
2123
2115
2095
2068
2045
2033
2034
2047
2065
2083
2098
2108
2116
2123
2130
2138
2148
2160
2172
2182
2190
2197
2202
2206
2210
2215
2221
2225
2228
2228
2224
2217
2209
2202
2195
2189
2184
2180
2177
2175
2173
2171
2170
2168
2167
2166
2167
2168
2169
2172
2175
2179
2185
2199
2223
2252
2276
2287
2281
2262
2239
2221
2210
2204
2197
2186
2172
2157
2136
2103
2054
1994
1926
1858
1798
1747
1707
1677
1659
1655
1664
1683
1705
1727
1747
1762
1774
1785
1799
1815
1831
1845
1853
1857
1857
1857
1858
1858
1858
1858
1857
1857
1858
1858
1859
1859
1859
1861
1863
1865
1866
1865
1863
1864
1866
1872
1878
1883
1887
1888
1888
1888
1889
1889
1891
1894
1897
1900
1902
1904
1905
1904
1902
1900
1899
1899
1899
1901
1902
1902
1900
1897
1895
1895
1896
1898
1900
1900
1898
1895
1893
1893
1893
1893
1892
1891
1890
1889
1888
1888
1889
1892
1900
1913
1931
1953
1978
2000
2010
2004
1979
1942
1905
1877
1865
1869
1879
1889
1894
1895
1894
1895
1896
1897
1898
1897
1895
1894
1894
1895
1896
1896
1896
1895
1894
1894
1895
1895
1896
1895
1894
1893
1892
1891
1890
1889
1888
1888
1889
1890
1890
1890
1890
1890
1890
1889
1889
1891
1893
1896
1898
1900
1901
1901
1901
1901
1901
1901
1901
1902
1903
1904
1905
1906
1907
1907
1907
1906
1905
1903
1900
1897
1894
1892
1890
1888
1887
1886
1885
1884
1884
1884
1883
1881
1880
1880
1881
1883
1885
1886
1886
1885
1884
1884
1884
1883
1882
1882
1882
1882
1882
1883
1883
1883
1882
1881
1880
1878
1876
1874
1874
1875
1877
1878
1878
1878
1879
1879
1881
1882
1882
1882
1881
1881
1881
1881
1880
1878
1876
1875
1876
1880
1882
1883
1880
1875
1871
1869
1871
1875
1879
1882
1884
1885
1884
1882
1880
1877
1876
1875
1876
1878
1879
1878
1876
1874
1873
1871
1870
1869
1869
1869
1869
1868
1867
1864
1862
1860
1861
1867
1879
1898
1920
1944
1963
1971
1962
1936
1898
1862
1837
1830
1835
1847
1857
1861
1861
1860
1860
1860
1861
1861
1862
1863
1863
1863
1863
1863
1862
1861
1860
1860
1860
1862
1863
1864
1864
1864
1865
1867
1868
1869
1869
1869
1868
1868
1868
1868
1870
1872
1874
1875
1877
1878
1879
1882
1884
1886
1888
1889
1890
1891
1892
1894
1896
1898
1900
1901
1902
1903
1905
1906
1908
1907
1905
1902
1899
1897
1897
1897
1897
1896
1895
1892
1890
1888
1887
1886
1886
1887
1888
1889
1889
1889
1889
1889
1889
1890
1891
1891
1891
1892
1892
1893
1893
1893
1893
1892
1892
1891
1890
1889
1889
1888
1889
1889
1889
1889
1890
1890
1890
1891
1891
1892
1892
1892
1891
1891
1891
1891
1892
1892
1893
1894
1895
1895
1895
1895
1895
1896
1897
1899
1900
1901
1902
1903
1902
1903
1903
1903
1902
1902
1903
1903
1903
1904
1904
1904
1904
1904
1905
1905
1904
1904
1904
1905
1905
1905
1906
1906
1907
1907
1906
1905
1905
1905
1906
1906
1906
1907
1912
1923
1941
1965
1990
2010
2019
2012
1987
1951
1916
1891
1880
1884
1894
1904
1910
1912
1912
1911
1910
1910
1912
1915
1917
1918
1917
1917
1917
1917
1919
1920
1921
1921
1922
1922
1922
1921
1922
1923
1925
1927
1928
1928
1928
1928
1927
1928
1929
1930
1932
1934
1936
1937
1937
1938
1938
1939
1940
1941
1943
1945
1946
1947
1949
1950
1951
1951
1953
1954
1955
1957
1958
1958
1958
1957
1955
1953
1951
1949
1948
1946
1945
1943
1941
1939
1938
1938
1938
1940
1941
1941
1942
1943
1943
1942
1942
1942
1941
1941
1941
1942
1943
1944
1944
1945
1945
1944
1944
1944
1945
1945
1945
1945
1945
1945
1945
1945
1946
1946
1946
1946
1947
1948
1949
1949
1949
1949
1947
1947
1947
1948
1949
1950
1951
1951
1950
1949
1949
1949
1950
1950
1951
1951
1950
1949
1949
1949
1949
1950
1951
1952
1953
1952
1952
1952
1951
1950
1949
1949
1950
1951
1953
1954
1954
1953
1952
1951
1950
1950
1950
1950
1950
1949
1947
1946
1946
1947
1948
1949
1949
1948
1947
1945
1944
1945
1951
1964
1983
2006
2031
2050
2057
2047
2020
1982
1946
1922
1915
1920
1932
1941
1946
1946
1945
1944
1944
1944
1944
1944
1944
1944
1945
1945
1946
1946
1945
1945
1946
1946
1947
1947
1948
1948
1948
1948
1949
1949
1949
1949
1949
1950
1951
1952
1953
1954
1953
1953
1954
1955
1955
1956
1958
1959
1961
1962
1963
1963
1963
1964
1966
1968
1970
1971
1971
1972
1971
1971
1971
1972
1973
1973
1972
1972
1970
1967
1964
1960
1957
1954
1952
1950
1948
1948
1947
1947
1947
1946
1945
1945
1945
1945
1944
1944
1944
1944
1944
1945
1945
1946
1946
1945
1946
1945
1945
1944
1944
1944
1945
1945
1946
1946
1947
1946
1946
1946
1945
1944
1944
1944
1944
1945
1946
1946
1947
1947
1947
1947
1947
1947
1948
1948
1949
1949
1950
1950
1951
1951
1951
1951
1951
1952
1952
1952
1952
1952
1951
1950
1950
1950
1950
1951
1951
1952
1952
1952
1952
1952
1953
1953
1953
1952
1950
1950
1954
1965
1983
2006
2033
2055
2067
2062
2040
2004
1967
1939
1927
1929
1940
1951
1958
1960
1961
1961
1960
1959
1959
1959
1960
1962
1964
1965
1966
1966
1965
1965
1966
1966
1968
1969
1969
1969
1970
1970
1970
1970
1971
1971
1972
1973
1974
1974
1975
1975
1975
1976
1976
1977
1977
1978
1980
1981
1983
1984
1985
1985
1986
1987
1989
1990
1990
1991
1991
1992
1993
1993
1993
1993
1992
1991
1990
1989
1987
1985
1982
1980
1977
1974
1972
1971
1970
1970
1971
1972
1972
1972
1971
1970
1969
1969
1970
1971
1972
1973
1973
1973
1973
1972
1972
1972
1972
1972
1972
1972
1972
1972
1972
1972
1972
1972
1972
1972
1973
1972
1971
1970
1969
1969
1970
1970
1971
1972
1971
1971
1970
1970
1970
1971
1971
1972
1972
1972
1972
1972
1972
1972
1973
1973
1973
1973
1973
1974
1975
1976
1976
1976
1975
1973
1972
1972
1973
1974
1975
1975
1975
1974
1973
1972
1973
1974
1974
1975
1975
1974
1973
1971
1971
1972
1978
1990
2009
2032
2055
2076
2085
2076
2050
2013
1977
1952
1944
1950
1962
1972
1976
1976
1974
1974
1973
1974
1975
1976
1977
1978
1977
1977
1977
1977
1978
1979
1980
1980
1980
1980
1980
1980
1979
1979
1979
1980
1981
1982
1984
1985
1985
1985
1986
1987
1988
1989
1991
1992
1994
1995
1996
1997
1997
1998
1999
2001
2003
2004
2006
2008
2008
2008
2008
2008
2009
2010
2011
2012
2011
2009
2007
2006
2003
2001
1998
1996
1994
1993
1992
1991
1990
1988
1987
1986
1986
1985
1985
1986
1988
1989
1990
1990
1990
1989
1988
1988
1989
1989
1990
1990
1989
1989
1988
1987
1987
1987
1988
1988
1988
1988
1987
1986
1985
1985
1985
1985
1984
1984
1984
1985
1985
1985
1985
1984
1983
1983
1983
1983
1983
1983
1983
1983
1983
1983
1984
1984
1984
1985
1985
1985
1985
1984
1985
1985
1985
1985
1985
1985
1984
1983
1982
1982
1981
1980
1980
1980
1980
1981
1982
1982
1982
1981
1980
1980
1980
1979
1978
1977
1978
1983
1994
2013
2036
2060
2081
2090
2082
2057
2021
1985
1960
1950
1953
1964
1974
1979
1980
1979
1978
1978
1977
1978
1978
1979
1979
1978
1979
1979
1979
1980
1981
1981
1981
1981
1981
1981
1981
1982
1983
1983
1983
1982
1982
1983
1983
1984
1985
1985
1986
1986
1986
1987
1988
1989
1990
1991
1992
1993
1994
1996
1997
1998
1999
2000
2000
2000
2001
2002
2004
2005
2005
2004
2003
2002
2002
2001
2001
2000
1997
1994
1991
1988
1986
1984
1983
1982
1982
1982
1982
1982
1981
1981
1982
1982
1982
1982
1982
1983
1984
1985
1986
1986
1986
1985
1985
1985
1986
1986
1987
1987
1987
1986
1985
1985
1985
1986
1986
1987
1987
1987
1986
1985
1984
1984
1983
1984
1984
1985
1985
1985
1985
1984
1984
1983
1984
1984
1985
1986
1987
1988
1988
1987
1986
1985
1985
1985
1986
1988
1988
1988
1987
1986
1985
1985
1985
1986
1987
1988
1988
1988
1986
1984
1983
1982
1983
1984
1984
1985
1985
1984
1984
1983
1983
1983
1982
1980
1979
1979
1982
1990
2005
2025
2048
2072
2089
2091
2076
2046
2009
1976
1957
1953
1961
1971
1979
1982
1982
1982
1981
1981
1981
1981
1981
1981
1981
1981
1982
1982
1983
1984
1984
1984
1984
1983
1983
1983
1984
1985
1986
1986
1985
1985
1985
1986
1986
1987
1988
1989
1990
1991
1992
1992
1992
1992
1993
1994
1996
1997
1999
2001
2002
2002
2002
2003
2003
2004
2005
2007
2008
2009
2009
2009
2008
2007
2006
2005
2004
2002
1999
1996
1993
1990
1988
1987
1987
1986
1986
1986
1986
1986
1986
1986
1986
1985
1985
1985
1986
1986
1987
1987
1987
1986
1986
1985
1985
1986
1986
1987
1987
1987
1986
1985
1985
1984
1984
1985
1985
1986
1986
1986
1985
1985
1984
1984
1984
1985
1985
1985
1984
1984
1984
1983
1982
1982
1982
1983
1983
1984
1984
1983
1982
1981
1980
1980
1980
1981
1982
1983
1982
1982
1981
1981
1981
1981
1982
1983
1983
1983
1982
1982
1982
1981
1981
1981
1981
1980
1980
1980
1980
1979
1978
1978
1977
1976
1976
1976
1976
1975
1975
1973
1972
1970
1969
1971
1980
1995
2017
2043
2067
2083
2083
2063
2030
1990
1957
1940
1940
1949
1960
1967
1969
1968
1966
1965
1964
1965
1965
1966
1967
1967
1967
1965
1965
1964
1964
1965
1965
1966
1966
1966
1966
1966
1966
1966
1966
1966
1967
1968
1969
1970
1971
1971
1971
1971
1972
1972
1973
1975
1976
1978
1978
1979
1979
1979
1981
1982
1984
1986
1987
1988
1988
1988
1988
1988
1989
1990
1991
1991
1991
1990
1988
1985
1982
1979
1976
1974
1973
1972
1971
1970
1969
1968
1968
1966
1966
1965
1966
1967
1968
1970
1970
1969
1967
1966
1966
1966
1967
1968
1968
1968
1967
1966
1965
1965
1965
1965
1965
1965
1965
1965
1965
1965
1964
1964
1964
1964
1964
1964
1965
1965
1965
1964
1964
1963
1963
1963
1964
1965
1966
1966
1966
1965
1965
1965
1965
1966
1966
1967
1967
1966
1966
1965
1964
1964
1964
1964
1964
1965
1965
1966
1965
1965
1965
1965
1965
1964
1963
1962
1965
1974
1991
2015
2042
2066
2082
2081
2061
2028
1989
1957
1941
1940
1949
1960
1968
1971
1973
1974
1975
1975
1976
1976
1977
1978
1979
1981
1982
1982
1982
1982
1982
1982
1982
1983
1985
1985
1986
1987
1988
1988
1988
1988
1988
1988
1989
1989
1991
1992
1994
1995
1996
1996
1996
1997
1998
1999
2001
2003
2005
2006
2007
2008
2008
2009
2010
2012
2013
2015
2016
2016
2016
2015
2013
2011
2010
2008
2007
2005
2004
2002
2000
1998
1996
1995
1994
1994
1994
1994
1995
1995
1995
1994
1994
1994
1994
1995
1996
1997
1998
1999
2000
1999
1999
1998
1999
1999
2000
2001
2001
2001
2000
1999
1999
1999
1999
1999
2000
2000
2000
2000
2000
2000
1999
1999
1999
1999
1999
1999
2000
2002
2002
2002
2002
2001
2001
2001
2002
2003
2003
2003
2003
2002
2002
2002
2002
2003
2004
2004
2004
2004
2004
2003
2002
2001
2001
2001
2001
2002
2003
2003
2003
2002
2002
2001
1999
1997
1996
1998
2005
2018
2038
2061
2086
2106
2113
2102
2073
2036
2000
1976
1969
1975
1986
1995
1999
2000
2000
2000
2000
2000
1999
1999
1999
1999
2000
2000
2000
2001
2001
2001
2002
2002
2001
2001
2001
2001
2002
2003
2004
2004
2004
2003
2003
2003
2003
2004
2005
2006
2007
2008
2009
2010
2010
2010
2011
2013
2014
2016
2018
2020
2021
2021
2021
2022
2022
2023
2024
2025
2026
2026
2026
2026
2025
2023
2021
2018
2016
2014
2012
2009
2007
2005
2004
2003
2002
2001
2001
2000
2001
2001
2001
2001
2001
2000
2000
2000
2001
2002
2002
2002
2002
2001
2001
2001
2001
2001
2001
2001
2001
2002
2002
2001
2000
2000
2000
2000
2000
2001
2000
2000
1999
1998
1998
1997
1997
1997
1998
1998
1998
1998
1998
1997
1997
1997
1997
1998
1998
1998
1997
1997
1996
1997
1997
1998
1999
1999
1999
2000
2000
2000
1999
1999
1998
1998
1998
1998
1998
1997
1997
1997
1997
1996
1996
1996
1996
1996
1996
1997
1997
1997
1996
1994
1992
1990
1991
1995
2006
2024
2046
2070
2093
2106
2102
2081
2046
2008
1979
1965
1968
1978
1989
1994
1994
1993
1992
1992
1993
1994
1995
1995
1995
1994
1993
1992
1992
1993
1994
1995
1995
1996
1996
1996
1996
1996
1997
1997
1997
1997
1997
1998
1998
1998
1998
1998
1998
1999
2000
2002
2003
2004
2004
2004
2004
2005
2007
2009
2011
2012
2014
2015
2015
2015
2016
2016
2016
2017
2018
2019
2019
2019
2017
2015
2012
2009
2007
2005
2003
2001
1999
1998
1996
1994
1993
1993
1992
1992
1993
1993
1994
1994
1994
1994
1994
1993
1993
1993
1994
1994
1995
1995
1995
1995
1995
1995
1995
1995
1995
1995
1995
1995
1995
1994
1994
1993
1993
1994
1994
1995
1995
1995
1994
1994
1993
1992
1992
1992
1993
1993
1994
1994
1993
1992
1992
1992
1992
1992
1992
1993
1993
1993
1994
1993
1993
1993
1992
1993
1994
1994
1994
1994
1994
1994
1993
1993
1993
1993
1994
1994
1994
1994
1994
1993
1992
1992
1991
1991
1991
1990
1989
1989
1988
1988
1987
1987
1987
1987
1988
1989
1990
1989
1988
1985
1982
1983
1988
2001
2020
2044
2070
2091
2101
2093
2067
2029
1990
1963
1952
1956
1967
1977
1982
1983
1981
1979
1979
1979
1979
1979
1980
1980
1980
1979
1979
1978
1977
1977
1978
1979
1980
1980
1980
1980
1979
1978
1978
1979
1980
1981
1982
1982
1982
1982
1981
1982
1982
1983
1985
1986
1987
1987
1987
1988
1989
1989
1990
1992
1994
1995
1997
1998
1998
1998
1998
1998
1998
1999
2000
2001
2001
2001
1999
1997
1994
1991
1988
1985
1983
1982
1980
1979
1978
1976
1975
1975
1975
1975
1976
1976
1976
1977
1977
1976
1976
1976
1976
1977
1977
1978
1978
1977
1977
1977
1976
1976
1976
1976
1977
1977
1977
1977
1977
1977
1976
1976
1976
1975
1975
1975
1975
1975
1975
1975
1975
1975
1975
1975
1976
1977
1976
1975
1974
1973
1972
1972
1973
1973
1972
1972
1971
1971
1971
1971
1971
1971
1970
1970
1970
1970
1971
1971
1970
1970
1970
1969
1969
1970
1971
1972
1972
1971
1969
1967
1967
1974
1990
2014
2041
2068
2087
2091
2075
2045
2006
1972
1951
1947
1955
1966
1975
1979
1980
1981
1980
1980
1980
1980
1981
1981
1982
1983
1983
1983
1984
1984
1985
1985
1985
1985
1986
1986
1987
1988
1988
1988
1988
1989
1990
1991
1991
1992
1993
1994
1994
1995
1996
1998
2000
2001
2003
2004
2004
2005
2006
2008
2009
2011
2013
2014
2014
2014
2015
2016
2016
2017
2017
2017
2017
2016
2015
2013
2010
2007
2004
2001
1999
1997
1997
1997
1997
1997
1996
1996
1995
1995
1995
1996
1997
1997
1997
1997
1997
1997
1996
1997
1997
1999
2000
2001
2002
2002
2002
2001
2001
2000
2000
2000
2000
2001
2001
2000
2000
1999
1998
1998
1999
2000
2000
2000
2000
2000
1999
1997
1997
1997
1997
1997
1998
1998
1999
1999
1999
1999
1999
1998
1998
1998
1998
1999
1999
2000
2000
1999
1999
1998
1999
1999
1999
2000
2000
1999
1998
1997
1996
1995
1995
1995
1996
1996
1996
1996
1996
1996
1995
1994
1993
1992
1991
1992
1998
2011
2029
2051
2076
2098
2109
2102
2077
2041
2004
1976
1965
1968
1978
1987
1992
1993
1993
1993
1993
1994
1994
1994
1993
1993
1993
1994
1994
1995
1995
1996
1996
1995
1995
1995
1995
1995
1996
1996
1996
1996
1996
1996
1996
1997
1997
1998
1998
1998
1999
2000
2001
2002
2003
2004
2004
2005
2006
2007
2009
2010
2012
2013
2013
2013
2014
2015
2016
2016
2017
2017
2017
2016
2014
2012
2010
2008
2006
2003
2000
1998
1995
1992
1990
1989
1988
1988
1988
1988
1986
1985
1984
1984
1984
1984
1984
1984
1984
1983
1983
1984
1984
1984
1984
1983
1983
1983
1983
1983
1984
1983
1982
1982
1981
1980
1980
1981
1982
1982
1982
1982
1982
1980
1979
1978
1978
1977
1977
1978
1978
1978
1977
1976
1975
1975
1974
1975
1975
1976
1976
1975
1976
1976
1975
1975
1975
1975
1975
1975
1975
1975
1974
1973
1972
1970
1969
1968
1968
1968
1969
1969
1968
1967
1966
1965
1964
1965
1965
1964
1964
1964
1964
1964
1963
1963
1963
1963
1963
1962
1961
1960
1961
1967
1982
2003
2030
2056
2076
2080
2065
2034
1993
1957
1934
1929
1936
1948
1958
1962
1963
1962
1961
1960
1960
1960
1961
1961
1962
1964
1965
1966
1966
1966
1966
1965
1965
1965
1966
1967
1968
1968
1969
1969
1969
1970
1970
1971
1972
1973
1974
1975
1975
1976
1977
1978
1979
1980
1982
1984
1985
1986
1988
1989
1990
1991
1992
1993
1995
1997
1998
2000
2001
2001
2002
2003
2004
2004
2003
2002
2000
1996
1992
1989
1987
1986
1986
1987
1987
1987
1986
1985
1985
1985
1984
1984
1984
1984
1984
1984
1985
1986
1987
1987
1987
1986
1985
1985
1986
1987
1988
1988
1988
1988
1987
1987
1987
1987
1987
1988
1988
1988
1988
1987
1987
1987
1987
1988
1989
1990
1990
1990
1989
1989
1988
1987
1987
1988
1988
1988
1988
1988
1988
1988
1988
1988
1988
1988
1988
1988
1989
1990
1990
1990
1990
1989
1989
1990
1991
1992
1992
1992
1992
1992
1991
1990
1990
1990
1991
1991
1991
1992
1991
1990
1989
1989
1989
1989
1989
1989
1990
1990
1990
1990
1990
1989
1988
1987
1986
1987
1990
1998
2014
2034
2058
2082
2100
2103
2089
2057
2019
1984
1963
1960
1968
1979
1987
1989
1989
1988
1988
1988
1989
1989
1988
1988
1989
1990
1991
1992
1993
1993
1992
1992
1991
1992
1992
1992
1992
1993
1994
1995
1996
1996
1996
1996
1996
1997
1998
1999
2000
2001
2002
2002
2002
2003
2004
2005
2006
2009
2011
2013
2014
2014
2015
2015
2015
2016
2018
2019
2020
2020
2020
2020
2018
2017
2016
2014
2012
2009
2007
2004
2001
1998
1996
1994
1992
1991
1991
1991
1992
1992
1992
1992
1991
1990
1990
1990
1991
1992
1992
1992
1992
1992
1991
1991
1991
1991
1992
1992
1993
1994
1994
1993
1992
1991
1990
1991
1992
1993
1993
1992
1991
1990
1990
1989
1990
1990
1990
1991
1991
1991
1990
1989
1988
1987
1987
1987
1988
1989
1989
1989
1989
1988
1988
1987
1987
1988
1989
1989
1989
1989
1988
1987
1987
1988
1989
1989
1989
1989
1989
1989
1989
1989
1989
1988
1988
1988
1989
1990
1990
1990
1990
1990
1989
1989
1989
1989
1990
1990
1991
1991
1991
1989
1988
1988
1987
1987
1988
1988
1989
1988
1988
1988
1987
1987
1986
1986
1986
1985
1985
1987
1994
2007
2026
2048
2074
2094
2102
2091
2063
2025
1988
1963
1956
1962
1975
1985
1991
1992
1991
1990
1990
1989
1989
1989
1989
1990
1992
1994
1995
1996
1996
1996
1996
1996
1996
1996
1997
1998
1999
2000
1999
1999
1998
1999
2000
2003
2005
2005
2005
2005
2006
2007
2008
2009
2010
2010
2011
2012
2014
2015
2017
2019
2020
2021
2022
2022
2023
2024
2025
2025
2026
2026
2026
2025
2025
2024
2023
2021
2020
2018
2014
2011
2007
2005
2003
2002
2001
2001
2001
2000
1999
1999
1998
1998
1998
1999
1999
2000
2000
2001
2001
2000
1999
1999
1999
1999
2000
2001
2002
2003
2002
2001
1999
1997
1997
1998
2000
2002
2002
2000
1999
1997
1996
1996
1996
1997
1998
1998
1998
1998
1997
1996
1994
1994
1994
1994
1994
1995
1995
1995
1995
1995
1995
1994
1993
1993
1993
1993
1993
1993
1993
1992
1992
1993
1993
1993
1993
1993
1993
1993
1992
1991
1991
1991
1990
1990
1991
1991
1991
1991
1991
1991
1990
1989
1990
1991
1991
1992
1992
1992
1991
1991
1991
1991
1991
1992
1992
1993
1993
1993
1992
1991
1990
1989
1990
1990
1991
1991
1991
1990
1990
1989
1988
1988
1988
1988
1988
1988
1989
1989
1988
1986
1985
1985
1990
2000
2018
2040
2063
2085
2098
2094
2071
2036
1999
1970
1957
1959
1969
1979
1984
1985
1984
1984
1984
1984
1984
1984
1983
1983
1982
1981
1980
1979
1979
1980
1981
1981
1982
1982
1982
1981
1980
1980
1980
1980
1980
1980
1981
1981
1981
1981
1981
1981
1981
1981
1982
1982
1982
1982
1982
1982
1983
1985
1986
1987
1988
1988
1989
1990
1990
1990
1989
1989
1990
1991
1993
1994
1994
1993
1991
1989
1986
1983
1980
1979
1977
1975
1973
1970
1968
1965
1964
1963
1963
1963
1963
1963
1964
1963
1961
1960
1960
1960
1961
1962
1963
1964
1964
1963
1963
1963
1962
1961
1962
1962
1963
1965
1966
1966
1964
1962
1961
1960
1960
1960
1961
1961
1961
1961
1960
1959
1958
1957
1957
1957
1958
1958
1958
1958
1957
1956
1956
1956
1957
1958
1958
1959
1959
1959
1958
1957
1957
1957
1956
1956
1955
1954
1953
1953
1952
1952
1950
1949
1949
1949
1950
1950
1950
1951
1950
1950
1949
1949
1949
1949
1949
1949
1949
1947
1947
1949
1957
1971
1993
2020
2046
2064
2067
2051
2019
1978
1943
1921
1917
1925
1936
1945
1950
1950
1950
1949
1948
1948
1948
1949
1951
1952
1953
1952
1952
1952
1952
1952
1953
1954
1954
1954
1955
1955
1956
1956
1956
1956
1956
1956
1957
1958
1959
1959
1959
1960
1960
1961
1962
1963
1964
1964
1963
1963
1963
1963
1963
1964
1965
1965
1965
1964
1964
1964
1964
1964
1964
1965
1965
1965
1966
1966
1966
1966
1965
1963
1962
1961
1961
1961
1961
1961
1960
1960
1960
1960
1960
1961
1962
1962
1963
1964
1964
1965
1967
1969
1971
1973
1974
1976
1978
1980
1981
1982
1983
1983
1983
1983
1983
1983
1984
1986
1988
1988
1987
1986
1986
1986
1986
1986
1987
1987
1988
1988
1988
1987
1986
1985
1986
1986
1987
1988
1989
1989
1989
1989
1989
1989
1989
1988
1989
1989
1989
1988
1987
1986
1984
1983
1983
1984
1986
1986
1986
1985
1985
1984
1983
1983
1983
1983
1982
1982
1982
1983
1990
2004
2025
2051
2078
2098
2103
2089
2058
2019
1984
1963
1958
1965
1977
1987
1991
1991
1992
1992
1991
1991
1990
1991
1992
1993
1995
1996
1997
1996
1996
1996
1996
1996
1996
1997
1997
1998
1998
1999
1999
1999
1999
1999
2000
2001
2002
2003
2005
2006
2006
2006
2006
2006
2007
2008
2010
2011
2012
2012
2013
2015
2016
2017
2018
2020
2021
2022
2023
2024
2024
2023
2022
2021
2019
2018
2017
2016
2014
2011
2007
2004
2002
2000
1998
1998
1998
1998
1997
1997
1997
1996
1996
1996
1996
1996
1996
1996
1997
1997
1997
1997
1998
1997
1997
1998
1999
2000
2000
1999
1997
1996
1995
1995
1995
1996
1996
1996
1996
1996
1995
1994
1994
1993
1993
1992
1993
1993
1993
1992
1991
1991
1990
1990
1990
1990
1990
1990
1991
1991
1991
1990
1989
1989
1990
1991
1991
1992
1992
1991
1991
1991
1991
1991
1991
1991
1992
1992
1993
1993
1993
1991
1990
1988
1987
1987
1988
1988
1988
1987
1986
1984
1984
1984
1986
1987
1988
1987
1985
1983
1981
1982
1988
1999
2018
2041
2066
2088
2098
2090
2064
2027
1989
1962
1953
1957
1968
1978
1983
1983
1982
1981
1980
1980
1980
1981
1982
1983
1984
1984
1983
1982
1981
1981
1982
1983
1983
1984
1984
1984
1984
1984
1983
1983
1983
1984
1985
1985
1986
1986
1987
1987
1987
1987
1988
1989
1990
1991
1993
1993
1994
1994
1995
1997
1999
2000
2001
2002
2004
2005
2005
2005
2005
2005
2005
2005
2006
2005
2003
2001
1998
1995
1992
1989
1986
1983
1981
1980
1980
1980
1980
1979
1977
1976
1976
1976
1977
1978
1979
1979
1979
1979
1978
1977
1977
1978
1979
1981
1982
1982
1981
1979
1978
1978
1978
1978
1979
1979
1979
1979
1978
1978
1978
1978
1978
1978
1979
1979
1978
1978
1977
1977
1977
1976
1976
1976
1976
1976
1977
1977
1977
1976
1975
1975
1975
1975
1976
1977
1977
1977
1976
1976
1975
1975
1976
1977
1978
1978
1978
1978
1977
1976
1976
1976
1977
1977
1978
1978
1979
1978
1978
1977
1976
1976
1975
1974
1974
1973
1972
1972
1973
1973
1972
1971
1971
1971
1971
1972
1972
1972
1970
1966
1964
1966
1973
1988
2009
2035
2060
2078
2083
2069
2038
1998
1962
1940
1936
1943
1954
1962
1965
1964
1962
1960
1959
1959
1959
1960
1961
1961
1961
1961
1961
1960
1959
1958
1958
1959
1960
1960
1960
1959
1958
1958
1958
1958
1959
1959
1960
1961
1961
1961
1961
1961
1961
1962
1963
1965
1966
1966
1966
1966
1966
1967
1969
1972
1974
1975
1976
1976
1976
1975
1976
1976
1977
1978
1978
1978
1978
1977
1975
1972
1969
1966
1963
1961
1959
1958
1956
1955
1954
1953
1951
1950
1950
1950
1951
1951
1952
1952
1952
1952
1952
1951
1951
1950
1951
1952
1953
1954
1954
1954
1953
1951
1951
1951
1951
1951
1951
1951
1951
1950
1950
1949
1950
1949
1949
1949
1949
1948
1947
1948
1948
1948
1948
1948
1948
1949
1949
1950
1951
1950
1949
1947
1946
1946
1946
1947
1948
1949
1948
1948
1947
1946
1946
1946
1946
1946
1946
1946
1946
1946
1945
1944
1944
1944
1944
1945
1946
1947
1947
1946
1945
1945
1943
1941
1941
1945
1955
1973
1997
2025
2048
2063
2061
2041
2007
1969
1938
1922
1923
1932
1943
1951
1953
1953
1953
1953
1953
1954
1954
1954
1954
1954
1954
1954
1956
1958
1960
1962
1962
1963
1962
1962
1962
1963
1964
1964
1964
1964
1965
1965
1965
1966
1967
1968
1969
1969
1970
1971
1972
1972
1973
1974
1975
1976
1978
1980
1981
1982
1983
1984
1984
1985
1985
1987
1988
1991
1992
1993
1993
1990
1988
1986
1983
1981
1980
1979
1977
1975
1973
1971
1970
1968
1967
1967
1967
1967
1968
1969
1970
1969
1969
1969
1969
1969
1970
1971
1972
1972
1973
1974
1974
1973
1973
1973
1975
1976
1976
1976
1976
1975
1975
1974
1975
1975
1975
1975
1975
1975
1974
1973
1972
1972
1972
1973
1975
1976
1977
1976
1975
1974
1974
1973
1974
1975
1976
1977
1978
1979
1979
1979
1979
1979
1979
1980
1980
1981
1981
1982
1982
1982
1982
1982
1982
1982
1983
1983
1984
1984
1984
1983
1981
1979
1979
1979
1981
1982
1984
1983
1982
1981
1981
1981
1981
1980
1980
1981
1985
1995
2011
2032
2055
2079
2095
2095
2076
2042
2003
1971
1954
1954
1964
1975
1982
1984
1984
1984
1984
1984
1984
1983
1984
1984
1985
1986
1987
1988
1988
1988
1988
1987
1987
1986
1987
1987
1988
1989
1990
1991
1991
1991
1991
1991
1991
1991
1992
1993
1995
1996
1997
1998
1998
1998
1999
2000
2001
2003
2005
2007
2008
2009
2009
2009
2010
2011
2012
2014
2016
2017
2017
2015
2014
2011
2010
2009
2008
2006
2003
2000
1997
1994
1991
1989
1988
1988
1989
1989
1989
1989
1988
1987
1986
1986
1986
1987
1989
1990
1990
1989
1989
1989
1989
1990
1992
1994
1996
1998
1999
1999
2000
2001
2002
2003
2004
2004
2005
2006
2007
2009
2009
2010
2009
2009
2009
2010
2012
2014
2015
2015
2014
2013
2013
2013
2013
2014
2014
2014
2013
2013
2013
2012
2012
2011
2010
2010
2010
2011
2011
2010
2009
2008
2007
2007
2008
2009
2009
2009
2009
2008
2008
2007
2005
2005
2005
2005
2005
2006
2006
2006
2005
2002
2000
1997
1996
1997
1999
2000
2000
2000
1999
1998
1997
1996
1995
1993
1990
1989
1991
1998
2011
2029
2051
2076
2096
2104
2094
2067
2030
1994
1970
1962
1967
1977
1986
1989
1989
1988
1987
1987
1987
1987
1987
1987
1987
1987
1987
1988
1988
1988
1988
1988
1987
1987
1987
1986
1986
1987
1988
1989
1989
1988
1987
1987
1988
1990
1991
1992
1993
1993
1993
1993
1993
1994
1994
1994
1996
1997
1998
1999
2000
2000
2001
2002
2004
2006
2008
2009
2009
2009
2008
2007
2006
2006
2005
2003
2000
1998
1996
1994
1992
1990
1987
1985
1982
1981
1980
1979
1979
1979
1980
1980
1979
1979
1979
1980
1981
1981
1981
1981
1981
1981
1980
1980
1980
1980
1980
1981
1982
1982
1981
1980
1979
1977
1976
1975
1974
1974
1974
1974
1974
1973
1972
1971
1971
1972
1972
1972
1971
1970
1970
1969
1970
1970
1970
1969
1969
1968
1967
1966
1965
1965
1965
1966
1967
1966
1966
1965
1965
1965
1965
1965
1964
1963
1962
1962
1962
1963
1963
1964
1964
1964
1964
1964
1965
1966
1966
1966
1967
1968
1968
1968
1967
1967
1967
1967
1968
1968
1968
1968
1967
1967
1967
1966
1966
1967
1967
1967
1967
1967
1967
1967
1967
1966
1964
1963
1964
1969
1981
1999
2021
2045
2066
2078
2073
2052
2020
1984
1957
1945
1948
1958
1968
1973
1975
1974
1974
1975
1975
1975
1975
1974
1974
1975
1976
1977
1978
1978
1979
1979
1979
1979
1978
1978
1977
1977
1978
1979
1979
1979
1979
1978
1978
1978
1979
1980
1980
1980
1981
1982
1982
1982
1983
1983
1983
1984
1985
1987
1988
1989
1989
1989
1989
1990
1992
1994
1996
1997
1998
1998
1998
1997
1995
1993
1991
1988
1985
1983
1980
1977
1974
1972
1970
1968
1966
1965
1965
1965
1965
1965
1965
1965
1964
1964
1965
1966
1966
1966
1966
1966
1965
1964
1963
1961
1961
1961
1963
1965
1966
1966
1965
1964
1963
1962
1961
1961
1961
1961
1959
1958
1958
1957
1957
1958
1960
1961
1962
1962
1961
1960
1958
1957
1956
1955
1954
1954
1954
1953
1952
1951
1951
1952
1955
1959
1961
1960
1956
1953
1952
1955
1959
1963
1966
1968
1970
1972
1975
1977
1978
1979
1979
1981
1984
1988
1993
1997
1999
1998
1996
1993
1991
1991
1994
1997
1999
1999
1997
1993
1988
1986
1990
2004
2028
2059
2093
2125
2151
2172
2189
2208
2229
2255
2283
2312
2337
2351
2348
2327
2291
2249
2212
2187
2178
2179
2182
2180
2172
2159
2144
2131
2121
2114
2107
2100
2093
2087
2082
2079
2077
2076
2075
2073
2072
2071
2070
2066
2060
2051
2041
2027
2012
1996
1979
1959
1934
1906
1874
1841
1809
1776
1743
1711
1683
1662
1651
1647
1648
1649
1651
1653
1657
1660
1664
1666
1669
1674
1680
1688
1695
1700
1703
1705
1707
1709
1711
1714
1716
1719
1722
1725
1726
1727
1727
1727
1729
1732
1738
1745
1753
1759
1763
1765
1766
1766
1766
1767
1769
1771
1775
1781
1789
1796
1801
1803
1805
1805
1806
1806
1806
1805
1805
1806
1808
1810
1812
1813
1815
1816
1817
1819
1821
1822
1823
1823
1824
1827
1830
1833
1835
1836
1836
1837
1838
1840
1842
1843
1846
1849
1852
1854
1855
1856
1857
1858
1859
1859
1859
1859
1860
1862
1865
1867
1869
1871
1873
1874
1876
1878
1880
1881
1882
1882
1883
1883
1882
1883
1884
1888
1898
1913
1935
1962
1989
2009
2016
2004
1975
1937
1903
1883
1878
1886
1897
1907
1912
1915
1916
1917
1918
1919
1920
1922
1924
1925
1925
1925
1924
1923
1924
1925
1928
1930
1932
1933
1933
1933
1934
1935
1936
1937
1938
1939
1939
1940
1941
1942
1944
1945
1946
1947
1948
1950
1952
1953
1955
1957
1959
1961
1963
1965
1967
1968
1969
1970
1971
1972
1973
1974
1976
1978
1979
1979
1977
1975
1973
1971
1970
1968
1966
1964
1964
1963
1963
1963
1963
1962
1962
1963
1965
1967
1968
1969
1969
1970
1971
1972
1974
1975
1977
1978
1978
1979
1978
1978
1977
1978
1979
1981
1982
1983
1984
1983
1982
1981
1981
1981
1981
1982
1982
1981
1980
1978
1976
1976
1977
1979
1982
1983
1982
1980
1977
1975
1974
1975
1978
1980
1981
1981
1980
1980
1979
1978
1977
1977
1977
1978
1978
1979
1978
1978
1978
1978
1977
1976
1976
1976
1976
1975
1975
1974
1974
1973
1972
1971
1971
1970
1971
1971
1973
1973
1972
1971
1968
1967
1968
1976
1990
2011
2036
2061
2081
2087
2074
2045
2006
1971
1949
1943
1949
1958
1966
1969
1970
1971
1972
1972
1972
1972
1972
1972
1972
1972
1971
1971
1972
1972
1972
1973
1973
1973
1973
1973
1972
1971
1970
1969
1970
1972
1974
1976
1976
1975
1974
1972
1972
1973
1974
1975
1976
1977
1978
1978
1979
1979
1980
1982
1983
1985
1986
1988
1988
1988
1988
1988
1988
1989
1990
1991
1991
1990
1989
1987
1984
1982
1979
1976
1973
1970
1969
1968
1968
1966
1965
1963
1962
1962
1962
1962
1963
1963
1962
1962
1961
1961
1961
1961
1962
1962
1962
1962
1962
1962
1961
1961
1961
1961
1960
1960
1961
1961
1960
1960
1959
1959
1958
1957
1958
1958
1958
1957
1957
1957
1956
1956
1956
1956
1956
1956
1956
1956
1956
1955
1955
1954
1954
1953
1954
1955
1957
1957
1958
1958
1958
1958
1958
1958
1959
1959
1960
1961
1961
1962
1962
1962
1962
1962
1962
1961
1961
1960
1959
1959
1959
1959
1961
1961
1962
1961
1960
1959
1959
1961
1963
1963
1962
1959
1957
1957
1963
1976
1996
2021
2047
2067
2075
2064
2037
1998
1962
1938
1930
1936
1946
1954
1958
1959
1958
1958
1958
1958
1958
1957
1956
1955
1955
1956
1957
1958
1959
1960
1959
1959
1959
1958
1958
1958
1959
1959
1959
1959
1960
1960
1960
1960
1960
1960
1961
1961
1962
1962
1961
1961
1961
1961
1963
1965
1966
1968
1970
1971
1971
1971
1972
1972
1972
1973
1974
1974
1974
1974
1974
1973
1971
1969
1967
1964
1961
1958
1956
1953
1951
1948
1945
1943
1940
1939
1940
1940
1941
1941
1942
1942
1942
1941
1941
1941
1941
1942
1942
1943
1943
1943
1942
1942
1941
1942
1942
1942
1943
1942
1941
1940
1938
1936
1935
1936
1937
1938
1939
1940
1940
1939
1939
1939
1938
1938
1938
1939
1939
1938
1937
1936
1935
1936
1937
1938
1940
1941
1941
1941
1942
1943
1943
1943
1944
1944
1945
1946
1948
1949
1949
1949
1949
1949
1950
1951
1951
1952
1952
1951
1950
1949
1948
1947
1945
1945
1946
1947
1947
1948
1948
1947
1947
1947
1946
1945
1944
1944
1948
1959
1977
2002
2030
2056
2072
2071
2051
2017
1977
1945
1929
1928
1937
1948
1955
1959
1959
1959
1959
1960
1960
1959
1958
1957
1957
1958
1960
1962
1964
1963
1963
1963
1963
1964
1965
1966
1967
1967
1967
1967
1968
1968
1968
1968
1968
1969
1970
1972
1973
1974
1974
1974
1974
1975
1976
1977
1979
1979
1980
1981
1982
1983
1984
1985
1986
1988
1991
1992
1993
1993
1991
1990
1990
1992
1993
1992
1990
1987
1984
1980
1977
1974
1972
1969
1968
1967
1966
1965
1964
1966
1969
1974
1980
1986
1991
1994
1996
1996
1995
1992
1988
1983
1979
1975
1972
1969
1968
1967
1966
1965
1964
1963
1961
1959
1958
1957
1957
1957
1956
1956
1954
1952
1950
1949
1949
1949
1949
1950
1950
1951
1951
1951
1950
1948
1947
1947
1949
1951
1953
1955
1956
1956
1956
1956
1958
1959
1961
1962
1963
1964
1965
1966
1966
1967
1966
1966
1967
1967
1968
1968
1968
1968
1967
1966
1966
1967
1967
1967
1967
1968
1968
1968
1968
1966
1964
1963
1966
1975
1992
2014
2040
2065
2083
2086
2069
2038
1999
1966
1947
1944
1953
1964
1973
1977
1978
1978
1978
1979
1979
1980
1980
1980
1980
1981
1981
1982
1983
1983
1983
1983
1983
1984
1985
1985
1985
1985
1985
1986
1986
1986
1986
1985
1985
1985
1987
1989
1990
1991
1990
1990
1990
1991
1993
1995
1996
1998
1999
2000
2001
2003
2005
2006
2006
2007
2008
2009
2010
2011
2012
2012
2012
2012
2011
2009
2007
2005
2003
2001
1999
1997
1995
1992
1990
1988
1987
1987
1988
1990
1991
1992
1992
1990
1989
1987
1987
1988
1989
1991
1992
1992
1991
1991
1990
1990
1990
1990
1990
1990
1990
1990
1990
1989
1988
1987
1987
1988
1989
1989
1989
1988
1987
1986
1986
1986
1986
1986
1986
1986
1986
1986
1986
1986
1984
1983
1982
1982
1982
1982
1983
1984
1984
1983
1982
1982
1982
1982
1983
1984
1984
1984
1984
1984
1984
1984
1983
1984
1983
1983
1982
1982
1981
1980
1980
1980
1980
1980
1981
1981
1982
1982
1982
1981
1979
1977
1974
1974
1980
1993
2013
2039
2067
2091
2102
2094
2067
2028
1988
1960
1949
1952
1962
1971
1976
1977
1976
1976
1976
1976
1976
1976
1976
1976
1976
1977
1977
1977
1978
1979
1979
1980
1981
1980
1980
1979
1979
1979
1980
1981
1983
1983
1983
1983
1983
1983
1984
1984
1985
1986
1987
1989
1991
1992
1993
1994
1995
1996
1998
2000
2001
2003
2003
2003
2004
2004
2004
2005
2006
2007
2007
2007
2007
2006
2005
2002
1999
1996
1994
1992
1990
1988
1986
1983
1981
1980
1979
1979
1979
1979
1980
1979
1979
1979
1979
1980
1980
1980
1980
1981
1981
1981
1981
1981
1980
1980
1980
1980
1981
1981
1982
1982
1981
1981
1980
1979
1979
1979
1979
1979
1980
1980
1980
1980
1979
1979
1978
1979
1980
1981
1981
1982
1982
1982
1981
1981
1981
1981
1981
1982
1983
1983
1982
1981
1979
1978
1977
1978
1980
1982
1984
1984
1984
1984
1983
1983
1983
1984
1985
1985
1983
1981
1979
1981
1989
2006
2030
2058
2085
2103
2103
2084
2048
2009
1975
1956
1953
1961
1973
1981
1984
1984
1983
1982
1981
1982
1982
1983
1984
1986
1987
1987
1986
1985
1984
1984
1984
1986
1989
1991
1991
1990
1988
1987
1987
1988
1990
1991
1991
1991
1991
1992
1993
1993
1994
1995
1997
2000
2003
2006
2008
2009
2010
2012
2014
2016
2019
2022
2026
2030
2033
2036
2037
2038
2038
2037
2037
2036
2035
2034
2033
2031
2028
2025
2023
2020
2018
2016
2015
2015
2014
2013
2013
2012
2011
2011
2011
2012
2013
2014
2014
2014
2014
2013
2013
2013
2013
2013
2014
2015
2015
2015
2014
2013
2013
2012
2012
2012
2013
2013
2013
2013
2012
2011
2011
2010
2010
2010
2010
2010
2009
2009
2008
2007
2006
2006
2007
2007
2008
2008
2007
2007
2007
2007
2007
2007
2007
2007
2007
2007
2008
2010
2010
2010
2009
2009
2008
2007
2008
2009
2010
2011
2011
2010
2008
2007
2007
2007
2008
2009
2009
2008
2005
2002
2001
2005
2015
2034
2057
2085
2111
2125
2123
2100
2062
2022
1990
1975
1976
1986
1997
2003
2004
2003
2002
2001
2001
2001
2001
2001
2002
2003
2003
2004
2003
2003
2002
2001
2002
2003
2003
2003
2003
2002
2001
2000
2000
2001
2003
2004
2005
2005
2005
2005
2005
2005
2006
2007
2008
2009
2010
2011
2011
2011
2012
2013
2015
2018
2020
2022
2023
2024
2024
2025
2025
2025
2026
2027
2026
2026
2025
2023
2021
2018
2014
2011
2008
2005
2003
2001
2000
1998
1997
1997
1996
1996
1996
1997
1997
1997
1997
1997
1997
1997
1997
1997
1998
1998
1998
1998
1998
1998
1998
1998
1998
1997
1997
1997
1998
1998
1998
1998
1997
1996
1995
1995
1995
1995
1994
1994
1995
1996
1996
1996
1995
1994
1993
1993
1994
1994
1994
1994
1994
1994
1994
1993
1993
1993
1994
1994
1995
1995
1995
1994
1993
1993
1993
1994
1994
1994
1994
1993
1992
1990
1990
1989
1988
1988
1988
1988
1988
1988
1988
1989
1988
1988
1988
1987
1986
1984
1983
1983
1986
1996
2013
2038
2065
2091
2106
2103
2080
2044
2003
1972
1957
1958
1968
1979
1986
1987
1985
1984
1984
1983
1983
1983
1984
1984
1985
1986
1986
1986
1985
1985
1984
1984
1984
1985
1986
1986
1986
1986
1986
1986
1985
1985
1986
1987
1988
1988
1989
1989
1990
1990
1991
1992
1992
1992
1993
1995
1997
1998
2000
2001
2001
2001
2001
2002
2004
2005
2007
2008
2008
2008
2008
2008
2007
2006
2005
2003
2001
1998
1995
1992
1989
1987
1985
1984
1983
1982
1981
1981
1981
1981
1981
1981
1981
1981
1981
1982
1983
1983
1983
1982
1981
1981
1981
1981
1982
1983
1983
1982
1982
1982
1982
1982
1981
1981
1979
1977
1975
1974
1973
1972
1971
1970
1970
1969
1969
1969
1969
1969
1969
1969
1968
1968
1967
1967
1966
1966
1966
1966
1965
1965
1964
1964
1964
1964
1965
1965
1965
1965
1964
1964
1963
1964
1964
1964
1965
1965
1964
1964
1964
1964
1963
1963
1962
1962
1961
1960
1960
1959
1958
1958
1957
1957
1957
1957
1958
1958
1957
1956
1955
1953
1952
1955
1963
1977
1999
2025
2051
2071
2076
2060
2026
1984
1948
1927
1925
1934
1947
1956
1958
1957
1955
1954
1953
1954
1955
1956
1957
1957
1957
1957
1958
1958
1959
1959
1959
1960
1960
1961
1962
1963
1963
1963
1964
1964
1965
1966
1967
1968
1969
1969
1970
1969
1967
1964
1961
1960
1959
1960
1962
1963
1963
1964
1965
1966
1966
1966
1966
1967
1967
1968
1969
1970
1971
1971
1972
1971
1970
1968
1965
1962
1959
1955
1953
1951
1950
1949
1947
1946
1944
1943
1942
1942
1942
1943
1943
1944
1945
1946
1946
1946
1946
1947
1948
1949
1951
1952
1952
1952
1952
1951
1952
1952
1953
1954
1954
1954
1954
1955
1956
1957
1957
1957
1957
1957
1958
1958
1959
1960
1960
1962
1962
1963
1963
1964
1966
1967
1968
1968
1968
1967
1967
1968
1969
1970
1970
1971
1971
1970
1969
1968
1967
1967
1967
1968
1969
1970
1971
1971
1971
1971
1971
1971
1971
1971
1972
1974
1979
1989
2005
2027
2052
2082
2106
2119
2112
2086
2048
2008
1979
1967
1969
1978
1988
1994
1996
1997
1997
1997
1997
1997
1997
1997
1998
1999
1999
1999
2000
2000
2001
2001
2001
2001
2001
2002
2003
2005
2006
2006
2006
2006
2005
2005
2004
2005
2006
2007
2010
2012
2013
2014
2014
2015
2016
2017
2020
2022
2025
2026
2028
2029
2029
2029
2030
2032
2033
2034
2036
2037
2038
2038
2038
2037
2035
2032
2029
2027
2025
2022
2019
2016
2014
2013
2013
2015
2017
2019
2019
2020
2019
2018
2017
2017
2017
2018
2019
2020
2021
2020
2019
2017
2015
2015
2016
2017
2018
2019
2019
2018
2017
2017
2016
2015
2014
2013
2013
2013
2013
2014
2013
2012
2011
2011
2011
2011
2011
2011
2011
2010
2009
2009
2008
2008
2008
2008
2008
2008
2008
2008
2008
2008
2008
2008
2008
2008
2008
2008
2009
2009
2009
2009
2009
2008
2008
2007
2007
2008
2008
2008
2008
2007
2006
2004
2003
2003
2003
2003
2004
2004
2004
2004
2003
2003
2003
2001
1999
1998
1998
2003
2013
2030
2052
2079
2105
2120
2120
2099
2062
2022
1990
1973
1972
1981
1992
2000
2002
2002
2001
2000
1999
1999
2000
2000
2000
2000
1999
2000
2001
2002
2003
2003
2003
2001
2000
2000
2002
2003
2005
2005
2004
2003
2002
2002
2003
2003
2004
2005
2007
2008
2009
2009
2009
2009
2010
2010
2012
2013
2015
2016
2018
2019
2019
2020
2021
2022
2024
2026
2027
2028
2029
2029
2028
2028
2027
2026
2025
2023
2020
2017
2013
2011
2008
2006
2005
2004
2004
2004
2004
2005
2005
2005
2004
2004
2004
2004
2005
2005
2005
2005
2005
2005
2006
2007
2007
2007
2006
2006
2005
2006
2007
2008
2007
2007
2006
2004
2004
2004
2005
2006
2006
2005
2004
2003
2003
2003
2004
2004
2005
2004
2004
2004
2004
2004
2004
2004
2004
2005
2005
2006
2006
2005
2004
2003
2003
2004
2005
2006
2007
2006
2004
2004
2004
2004
2005
2006
2007
2007
2007
2007
2006
2005
2004
2004
2005
2006
2007
2007
2008
2007
2005
2003
2001
2000
1999
1999
1999
1999
2000
2000
2000
1999
1998
1997
1996
1997
1997
1996
1994
1992
1990
1991
1997
2012
2034
2061
2089
2111
2119
2106
2075
2035
1996
1971
1963
1969
1979
1988
1991
1991
1990
1988
1985
1982
1980
1979
1980
1981
1983
1983
1981
1979
1977
1975
1975
1975
1976
1976
1976
1976
1976
1975
1975
1974
1973
1972
1972
1972
1974
1975
1977
1977
1976
1976
1976
1976
1977
1979
1980
1982
1983
1985
1985
1986
1987
1988
1990
1992
1993
1994
1995
1995
1996
1996
1996
1995
1994
1994
1993
1992
1990
1988
1985
1981
1977
1975
1973
1972
1972
1972
1972
1971
1970
1969
1968
1969
1969
1970
1970
1971
1971
1971
1970
1970
1970
1970
1970
1971
1972
1972
1972
1972
1972
1972
1972
1971
1971
1972
1972
1972
1972
1970
1968
1967
1967
1968
1969
1970
1971
1971
1969
1964
1960
1955
1951
1949
1948
1949
1950
1950
1951
1950
1950
1950
1950
1950
1951
1951
1952
1953
1953
1953
1953
1953
1952
1951
1951
1951
1951
1951
1951
1950
1949
1949
1949
1949
1950
1951
1951
1952
1952
1952
1951
1950
1949
1947
1947
1951
1962
1981
2007
2035
2061
2076
2075
2053
2018
1977
1944
1927
1926
1936
1947
1955
1958
1958
1959
1959
1959
1960
1961
1962
1962
1963
1965
1967
1971
1976
1980
1983
1984
1984
1984
1984
1985
1986
1987
1989
1990
1991
1991
1991
1990
1990
1990
1991
1993
1995
1996
1997
1996
1995
1996
1997
1999
2002
2004
2006
2008
2009
2009
2010
2011
2011
2012
2013
2015
2016
2018
2019
2020
2019
2018
2017
2016
2014
2011
2009
2006
2003
2001
2000
1999
1998
1997
1997
1997
1997
1996
1996
1996
1996
1996
1997
1997
1998
1999
2000
2001
2001
2001
2001
2001
2002
2004
2006
2009
2011
2012
2012
2011
2011
2010
2010
2010
2011
2011
2011
2010
2010
2011
2011
2011
2010
2010
2010
2009
2009
2008
2007
2007
2007
2007
2006
2006
2006
2008
2009
2009
2008
2007
2007
2007
2007
2008
2008
2008
2008
2008
2008
2008
2008
2008
2008
2008
2008
2008
2009
2009
2008
2008
2007
2006
2005
2005
2005
2005
2005
2006
2006
2006
2006
2006
2005
2003
2001
2000
2003
2012
2028
2051
2079
2105
2122
2123
2104
2070
2031
1997
1978
1976
1983
1993
1999
2002
2002
2002
2001
2001
2001
2000
2000
2000
2001
2002
2002
2003
2003
2004
2003
2003
2002
2001
2000
2001
2003
2004
2005
2005
2005
2005
2004
2004
2003
2002
2003
2004
2006
2009
2011
2012
2012
2011
2011
2012
2013
2015
2017
2019
2021
2022
2023
2024
2024
2025
2026
2027
2029
2030
2030
2030
2029
2028
2026
2024
2020
2017
2015
2013
2012
2010
2007
2005
2003
2001
2001
2001
2001
2000
2000
2000
1999
1999
1999
1999
1999
1999
1999
2000
2001
2001
2001
2001
2001
2001
2001
2000
1999
1998
1998
1998
1999
2000
2000
2000
2000
1999
1999
1999
2000
1999
1998
1997
1996
1995
1994
1994
1995
1995
1996
1996
1996
1995
1994
1994
1995
1996
1996
1996
1996
1995
1993
1992
1992
1992
1992
1992
1993
1994
1994
1994
1994
1993
1993
1993
1994
1995
1996
1996
1996
1997
1996
1996
1995
1996
1996
1995
1995
1995
1995
1995
1994
1993
1992
1990
1990
1991
1993
1995
1995
1995
1994
1992
1992
1991
1991
1989
1987
1985
1985
1988
1998
2016
2041
2069
2095
2109
2106
2083
2045
2002
1970
1954
1954
1964
1973
1978
1977
1974
1973
1973
1973
1973
1973
1972
1971
1971
1971
1972
1972
1971
1970
1970
1969
1970
1970
1970
1971
1971
1972
1974
1975
1975
1975
1974
1974
1975
1976
1977
1978
1979
1979
1980
1980
1981
1982
1984
1986
1989
1991
1992
1994
1995
1997
1999
2002
2003
2005
2005
2006
2007
2007
2006
2006
2006
2006
2006
2005
2004
2001
1997
1993
1989
1986
1984
1982
1982
1981
1980
1979
1977
1976
1976
1976
1975
1975
1975
1975
1975
1975
1973
1970
1967
1965
1964
1963
1963
1963
1962
1961
1960
1959
1958
1957
1956
1955
1954
1954
1953
1951
1950
1949
1948
1947
1948
1948
1948
1949
1949
1949
1948
1948
1948
1947
1945
1945
1946
1948
1949
1950
1949
1948
1947
1946
1947
1948
1949
1949
1950
1951
1951
1950
1949
1948
1949
1950
1952
1953
1954
1954
1953
1951
1949
1945
1941
1938
1936
1935
1934
1933
1932
1931
1930
1929
1928
1929
1930
1931
1932
1933
1933
1932
1932
1932
1931
1929
1928
1931
1941
1959
1984
2012
2038
2053
2053
2034
1998
1958
1925
1907
1905
1913
1924
1932
1936
1936
1935
1935
1935
1935
1937
1939
1941
1941
1941
1941
1941
1942
1943
1943
1944
1943
1943
1944
1945
1947
1948
1949
1949
1949
1949
1949
1949
1949
1950
1951
1952
1953
1953
1953
1953
1954
1954
1955
1957
1958
1959
1961
1963
1964
1966
1966
1967
1968
1970
1971
1972
1974
1975
1976
1976
1976
1975
1974
1971
1969
1967
1964
1962
1959
1957
1956
1954
1953
1952
1951
1951
1951
1951
1952
1952
1953
1953
1953
1953
1953
1953
1954
1955
1955
1955
1955
1955
1955
1955
1956
1958
1959
1959
1959
1959
1958
1957
1958
1959
1959
1959
1959
1959
1958
1958
1958
1959
1960
1960
1960
1960
1961
1961
1962
1962
1962
1961
1960
1961
1962
1963
1965
1966
1966
1966
1965
1965
1965
1964
1964
1964
1965
1965
1966
1966
1966
1965
1965
1964
1965
1966
1967
1968
1968
1967
1964
1960
1960
1966
1979
2001
2028
2057
2081
2092
2083
2056
2018
1979
1951
1941
1946
1956
1966
1972
1973
1972
1971
1972
1972
1973
1974
1975
1975
1975
1975
1974
1974
1975
1976
1977
1978
1978
1978
1979
1980
1982
1983
1984
1985
1986
1987
1988
1990
1992
1994
1997
2001
2006
2009
2013
2016
2019
2021
2022
2022
2023
2024
2025
2027
2028
2029
2030
2031
2032
2033
2034
2034
2035
2035
2036
2035
2034
2032
2029
2025
2021
2018
2015
2013
2011
2011
2010
2008
2007
2006
2004
2003
2003
2003
2004
2004
2004
2004
2004
2004
2003
2004
2004
2005
2005
2005
2006
2006
2006
2006
2006
2006
2006
2007
2008
2009
2009
2009
2009
2009
2009
2009
2009
2009
2010
2010
2011
2012
2012
2012
2011
2011
2012
2013
2014
2014
2015
2014
2013
2013
2013
2013
2013
2013
2014
2014
2014
2014
2014
2013
2013
2013
2013
2012
2012
2012
2013
2014
2014
2013
2012
2010
2009
2008
2009
2009
2009
2008
2007
2006
2005
2005
2005
2005
2006
2006
2005
2004
2001
1998
1996
1998
2006
2021
2043
2068
2095
2115
2122
2109
2077
2036
1998
1975
1969
1977
1989
1998
2001
1999
1997
1996
1996
1996
1997
1998
1998
1998
1998
1997
1996
1996
1996
1996
1998
1999
1999
1999
1999
1998
1997
1997
1996
1997
1997
1998
1999
2000
2000
2000
1999
1999
1999
2000
2001
2003
2004
2005
2005
2006
2006
2007
2009
2011
2013
2014
2015
2016
2016
2016
2017
2018
2019
2021
2022
2022
2021
2019
2017
2014
2011
2008
2005
2002
2000
1999
1997
1996
1995
1993
1991
1990
1990
1990
1991
1992
1992
1992
1992
1991
1990
1990
1990
1990
1990
1991
1991
1991
1991
1992
1991
1991
1990
1990
1990
1990
1990
1990
1990
1989
1988
1988
1988
1988
1988
1989
1989
1988
1988
1987
1987
1987
1987
1987
1987
1986
1986
1986
1986
1986
1985
1985
1985
1985
1986
1987
1987
1987
1986
1985
1984
1984
1985
1985
1985
1986
1987
1987
1988
1988
1987
1986
1986
1987
1988
1988
1989
1989
1988
1987
1985
1985
1984
1984
1984
1984
1985
1985
1985
1984
1983
1982
1982
1982
1984
1985
1985
1983
1981
1978
1976
1980
1990
2008
2032
2059
2084
2100
2099
2078
2043
2003
1970
1954
1954
1963
1974
1981
1983
1982
1981
1980
1979
1979
1980
1981
1982
1982
1982
1981
1980
1980
1981
1982
1982
1983
1984
1984
1983
1983
1982
1982
1982
1983
1985
1986
1987
1987
1987
1987
1986
1986
1987
1989
1990
1992
1993
1993
1994
1994
1995
1996
1997
1998
2000
2002
2003
2004
2005
2005
2005
2005
2005
2006
2008
2008
2008
2006
2004
2000
1997
1994
1992
1989
1987
1985
1984
1982
1981
1979
1978
1978
1977
1977
1978
1979
1979
1979
1979
1978
1977
1977
1977
1978
1979
1979
1980
1980
1979
1978
1977
1976
1975
1973
1972
1971
1970
1969
1967
1966
1965
1964
1964
1965
1965
1965
1965
1964
1964
1963
1962
1962
1962
1962
1961
1961
1961
1961
1960
1960
1959
1958
1957
1956
1956
1956
1956
1956
1957
1957
1956
1955
1954
1953
1953
1953
1954
1954
1954
1953
1953
1954
1954
1955
1955
1955
1955
1955
1956
1956
1956
1956
1956
1956
1956
1956
1956
1956
1956
1955
1954
1953
1953
1953
1953
1954
1954
1954
1954
1954
1954
1953
1952
1952
1951
1950
1951
1954
1964
1981
2004
2031
2055
2072
2071
2050
2016
1975
1941
1924
1923
1932
1944
1951
1953
1951
1948
1943
1939
1936
1935
1934
1934
1934
1935
1935
1936
1936
1936
1936
1936
1937
1937
1938
1939
1940
1941
1942
1942
1943
1943
1943
1943
1943
1945
1946
1948
1949
1951
1951
1951
1952
1952
1953
1954
1955
1957
1957
1957
1957
1958
1959
1960
1961
1963
1964
1965
1966
1967
1967
1967
1967
1967
1966
1965
1964
1962
1959
1957
1953
1950
1948
1947
1946
1945
1945
1946
1946
1945
1945
1944
1943
1943
1944
1946
1947
1948
1948
1949
1948
1948
1948
1949
1950
1950
1950
1951
1952
1952
1951
1951
1951
1951
1951
1952
1953
1954
1954
1953
1953
1952
1952
1952
1953
1953
1954
1954
1955
1956
1956
1957
1959
1960
1961
1962
1962
1964
1966
1970
1975
1981
1985
1987
1989
1990
1990
1990
1990
1990
1989
1989
1988
1988
1987
1987
1988
1988
1988
1987
1986
1985
1985
1985
1986
1987
1988
1987
1985
1982
1980
1982
1990
2007
2032
2060
2087
2105
2107
2089
2053
2013
1978
1958
1956
1964
1976
1984
1988
1987
1986
1986
1986
1986
1986
1987
1987
1988
1988
1988
1988
1988
1987
1987
1988
1988
1989
1990
1991
1991
1990
1990
1990
1990
1990
1991
1992
1993
1994
1994
1994
1995
1996
1996
1998
1999
2001
2002
2004
2005
2006
2007
2008
2010
2012
2014
2016
2018
2019
2020
2020
2020
2020
2020
2020
2020
2020
2018
2016
2013
2010
2007
2004
2001
1999
1998
1996
1996
1996
1995
1994
1993
1993
1992
1992
1992
1993
1994
1995
1995
1996
1995
1994
1994
1995
1996
1997
1997
1997
1996
1996
1996
1996
1996
1997
1997
1998
1998
1998
1997
1996
1996
1996
1997
1998
2000
2001
2001
2000
2000
1999
1998
1997
1997
1998
1998
1998
1998
1998
1998
1997
1997
1998
1998
1998
1999
1999
1999
1998
1998
1997
1997
1996
1996
1997
1997
1998
1998
1999
1999
1998
1997
1997
1998
1998
1999
1999
1999
1999
1999
1999
1998
1997
1996
1995
1995
1996
1996
1996
1995
1994
1993
1992
1992
1992
1992
1993
1994
1994
1993
1991
1989
1986
1985
1989
1999
2016
2040
2065
2091
2107
2107
2087
2051
2012
1979
1962
1961
1970
1981
1988
1989
1988
1986
1986
1986
1986
1987
1987
1987
1986
1986
1986
1986
1987
1988
1988
1989
1988
1989
1988
1988
1988
1988
1988
1989
1989
1990
1990
1990
1990
1990
1990
1991
1991
1992
1994
1995
1996
1997
1998
1998
1999
2000
2001
2003
2004
2006
2008
2010
2011
2011
2011
2012
2012
2013
2014
2015
2015
2014
2012
2010
2008
2004
2001
1998
1995
1993
1991
1989
1987
1984
1982
1981
1981
1982
1983
1983
1983
1982
1981
1981
1981
1982
1983
1983
1984
1984
1983
1983
1983
1982
1982
1982
1982
1982
1982
1982
1982
1982
1982
1981
1981
1981
1981
1981
1982
1982
1982
1981
1980
1980
1979
1979
1979
1979
1980
1980
1980
1980
1979
1978
1978
1978
1979
1979
1980
1980
1980
1979
1978
1978
1978
1978
1978
1978
1979
1980
1980
1980
1979
1979
1978
1977
1978
1978
1979
1979
1979
1979
1979
1978
1978
1978
1978
1979
1980
1980
1980
1980
1980
1980
1980
1980
1980
1981
1982
1982
1982
1983
1983
1982
1982
1981
1981
1980
1980
1981
1981
1980
1979
1978
1978
1977
1977
1977
1978
1979
1980
1980
1979
1977
1974
1971
1973
1979
1993
2014
2040
2066
2087
2096
2087
2059
2021
1982
1956
1948
1952
1963
1972
1976
1975
1974
1973
1974
1975
1976
1976
1976
1975
1975
1974
1975
1976
1977
1977
1977
1978
1977
1977
1977
1977
1977
1977
1978
1979
1979
1979
1980
1980
1980
1980
1980
1980
1981
1982
1984
1985
1986
1987
1987
1988
1989
1990
1992
1993
1995
1997
1998
1998
1999
1999
1999
2000
2002
2003
2003
2003
2003
2002
2000
1998
1996
1993
1990
1987
1984
1982
1979
1976
1975
1973
1973
1972
1972
1972
1972
1972
1972
1971
1971
1971
1971
1971
1972
1972
1971
1970
1967
1965
1963
1962
1962
1961
1961
1961
1961
1960
1960
1960
1960
1960
1960
1959
1959
1960
1960
1960
1959
1959
1958
1957
1956
1957
1957
1957
1958
1957
1956
1954
1953
1952
1951
1950
1950
1949
1948
1948
1947
1947
1947
1947
1947
1947
1948
1947
1947
1946
1946
1946
1946
1947
1948
1947
1947
1947
1947
1948
1948
1948
1947
1947
1946
1946
1947
1947
1948
1949
1950
1950
1950
1949
1949
1949
1949
1949
1950
1950
1950
1950
1949
1950
1950
1950
1950
1948
1946
1942
1938
1936
1933
1932
1932
1932
1932
1932
1931
1931
1930
1929
1927
1926
1925
1925
1928
1937
1953
1976
2002
2028
2047
2050
2036
2004
1964
1929
1907
1901
1908
1920
1928
1931
1931
1930
1929
1929
1929
1930
1929
1929
1929
1929
1929
1930
1932
1934
1935
1936
1936
1936
1935
1935
1935
1936
1937
1938
1939
1940
1941
1941
1942
1942
1943
1944
1945
1946
1947
1948
1950
1951
1951
1952
1953
1954
1957
1959
1961
1962
1963
1964
1964
1965
1966
1968
1970
1972
1973
1975
1975
1974
1972
1970
1968
1966
1964
1963
1961
1958
1955
1953
1952
1950
1949
1948
1948
1948
1949
1950
1950
1950
1950
1950
1951
1952
1953
1955
1956
1958
1958
1958
1958
1959
1960
1962
1963
1963
1963
1964
1967
1972
1977
1982
1985
1986
1986
1986
1986
1987
1987
1987
1987
1986
1986
1986
1986
1987
1987
1987
1987
1987
1986
1985
1985
1985
1986
1987
1988
1988
1988
1988
1987
1987
1987
1987
1988
1988
1989
1990
1989
1989
1988
1988
1987
1988
1989
1989
1989
1989
1987
1986
1985
1984
1984
1984
1984
1985
1986
1987
1987
1987
1986
1985
1983
1981
1980
1983
1992
2008
2031
2056
2083
2101
2104
2088
2054
2015
1979
1958
1955
1963
1975
1983
1986
1985
1984
1984
1984
1985
1985
1985
1984
1984
1984
1985
1986
1987
1987
1988
1987
1987
1986
1986
1986
1987
1987
1988
1989
1989
1989
1990
1990
1991
1992
1992
1993
1994
1995
1996
1997
1999
1999
2000
2001
2003
2005
2006
2007
2008
2009
2009
2010
2011
2012
2013
2015
2017
2018
2018
2018
2016
2014
2012
2009
2007
2005
2003
2000
1997
1994
1991
1988
1987
1987
1987
1987
1987
1987
1987
1987
1986
1986
1985
1985
1985
1986
1987
1987
1987
1987
1987
1987
1987
1986
1987
1987
1988
1988
1988
1988
1987
1986
1986
1986
1986
1987
1987
1987
1987
1986
1986
1985
1985
1984
1984
1985
1985
1986
1986
1986
1985
1984
1983
1983
1984
1984
1985
1985
1985
1984
1983
1982
1983
1983
1983
1984
1984
1984
1984
1984
1984
1984
1983
1982
1982
1982
1982
1983
1983
1983
1983
1982
1981
1981
1982
1983
1984
1984
1984
1984
1983
1983
1982
1981
1981
1982
1983
1983
1983
1983
1981
1980
1978
1978
1978
1979
1979
1980
1980
1979
1978
1978
1977
1977
1976
1975
1974
1975
1978
1987
2003
2025
2050
2075
2092
2093
2074
2041
2001
1968
1951
1949
1958
1969
1976
1978
1977
1976
1976
1975
1975
1975
1975
1976
1977
1979
1980
1980
1979
1978
1977
1977
1977
1978
1980
1981
1981
1981
1981
1981
1980
1979
1979
1980
1982
1984
1985
1985
1985
1984
1985
1985
1986
1986
1988
1989
1991
1992
1993
1994
1994
1994
1995
1997
1999
2001
2003
2005
2005
2006
2006
2007
2007
2007
2007
2008
2007
2006
2005
2003
2001
1998
1996
1995
1994
1994
1993
1993
1992
1992
1991
1991
1990
1990
1990
1991
1992
1993
1994
1993
1992
1991
1990
1990
1992
1993
1994
1993
1992
1991
1990
1989
1990
1991
1991
1991
1991
1991
1990
1989
1988
1988
1988
1988
1988
1988
1987
1987
1986
1986
1986
1986
1986
1985
1985
1985
1985
1985
1985
1984
1983
1983
1983
1983
1983
1983
1984
1984
1984
1984
1984
1983
1982
1982
1983
1983
1984
1985
1985
1985
1984
1983
1982
1982
1983
1983
1985
1985
1985
1984
1983
1983
1982
1983
1983
1985
1986
1987
1987
1987
1986
1986
1985
1985
1985
1984
1982
1980
1977
1974
1972
1971
1970
1969
1969
1969
1970
1970
1970
1970
1969
1967
1964
1962
1962
1967
1978
1996
2020
2046
2068
2080
2076
2053
2017
1978
1949
1936
1938
1947
1956
1960
1961
1959
1959
1960
1961
1962
1961
1960
1959
1958
1958
1959
1959
1960
1960
1960
1960
1959
1958
1958
1957
1957
1958
1959
1960
1961
1961
1961
1960
1959
1959
1959
1960
1962
1963
1964
1965
1966
1966
1965
1966
1966
1967
1967
1969
1971
1973
1975
1976
1975
1972
1969
1966
1965
1964
1964
1963
1961
1959
1957
1955
1953
1950
1948
1945
1942
1939
1936
1934
1932
1931
1930
1929
1928
1928
1928
1928
1927
1927
1927
1927
1928
1929
1931
1931
1932
1932
1932
1931
1931
1931
1932
1932
1933
1934
1935
1936
1936
1936
1936
1936
1936
1936
1937
1938
1938
1939
1938
1938
1937
1935
1935
1936
1936
1937
1938
1938
1938
1937
1936
1936
1935
1936
1937
1938
1940
1940
1940
1940
1939
1940
1940
1942
1943
1943
1944
1944
1944
1944
1943
1942
1942
1942
1942
1943
1943
1943
1943
1943
1942
1942
1942
1943
1945
1946
1946
1945
1943
1940
1939
1944
1957
1978
2005
2034
2057
2067
2058
2032
1992
1953
1926
1916
1921
1933
1943
1949
1950
1950
1949
1949
1949
1950
1951
1952
1953
1953
1954
1954
1953
1953
1954
1956
1957
1959
1960
1960
1960
1960
1960
1961
1961
1962
1963
1964
1965
1966
1967
1968
1968
1968
1969
1971
1972
1973
1974
1976
1977
1979
1981
1984
1986
1988
1991
1992
1994
1995
1997
2002
2007
2012
2017
2020
2022
2022
2020
2018
2016
2012
2008
2005
2003
2001
2000
1999
1998
1997
1995
1995
1994
1994
1994
1994
1994
1994
1994
1993
1993
1993
1993
1993
1993
1993
1993
1993
1993
1994
1994
1994
1994
1994
1994
1993
1994
1994
1995
1995
1995
1995
1994
1994
1993
1993
1993
1993
1993
1993
1993
1993
1993
1993
1993
1993
1992
1992
1992
1992
1992
1992
1991
1991
1991
1991
1992
1993
1993
1993
1993
1993
1993
1993
1994
1995
1995
1995
1996
1996
1996
1995
1995
1995
1995
1995
1996
1996
1997
1996
1996
1996
1996
1996
1995
1996
1996
1996
1997
1997
1997
1995
1993
1991
1989
1990
1997
2010
2031
2055
2081
2102
2110
2099
2071
2033
1996
1972
1964
1969
1979
1987
1990
1990
1989
1989
1989
1990
1990
1990
1989
1988
1988
1988
1988
1989
1990
1990
1990
1990
1989
1988
1988
1988
1988
1989
1990
1991
1992
1992
1992
1991
1990
1990
1991
1992
1994
1994
1995
1996
1996
1997
1999
2001
2002
2003
2004
2005
2006
2008
2009
2010
2010
2010
2010
2011
2012
2013
2014
2014
2013
2010
2008
2006
2004
2002
1999
1997
1993
1990
1988
1986
1985
1984
1984
1984
1984
1985
1985
1985
1984
1984
1983
1982
1982
1982
1983
1984
1985
1985
1985
1985
1984
1984
1984
1984
1985
1985
1985
1985
1985
1985
1984
1983
1983
1983
1983
1984
1984
1985
1985
1984
1983
1982
1982
1982
1983
1984
1984
1984
1983
1983
1982
1982
1982
1982
1982
1982
1982
1982
1982
1981
1981
1981
1981
1981
1982
1982
1982
1982
1982
1982
1982
1982
1981
1981
1981
1982
1982
1982
1982
1982
1982
1982
1982
1982
1983
1983
1983
1983
1983
1982
1982
1981
1981
1981
1981
1981
1981
1980
1979
1978
1978
1977
1977
1978
1978
1979
1980
1980
1980
1978
1976
1973
1972
1974
1981
1996
2017
2042
2068
2088
2094
2082
2052
2014
1978
1955
1948
1954
1965
1974
1977
1976
1975
1974
1975
1975
1976
1976
1976
1975
1976
1976
1976
1977
1977
1978
1978
1978
1978
1978
1978
1977
1977
1978
1978
1979
1979
1979
1980
1980
1980
1981
1981
1982
1982
1983
1984
1985
1985
1986
1987
1988
1989
1991
1992
1994
1996
1997
1998
1999
1999
1999
2000
2000
2001
2002
2003
2004
2003
2002
1999
1997
1994
1991
1989
1986
1984
1981
1979
1977
1975
1973
1971
1971
1971
1972
1972
1972
1972
1971
1970
1969
1969
1970
1971
1972
1973
1973
1973
1972
1971
1970
1970
1970
1971
1972
1972
1971
1971
1970
1970
1969
1969
1969
1969
1970
1971
1971
1970
1968
1967
1967
1967
1966
1966
1966
1965
1964
1963
1962
1961
1959
1959
1959
1959
1959
1959
1959
1959
1958
1957
1956
1956
1956
1957
1958
1958
1958
1958
1956
1955
1955
1955
1955
1955
1956
1956
1956
1957
1956
1955
1954
1954
1955
1956
1955
1953
1950
1945
1940
1936
1934
1933
1933
1933
1933
1933
1931
1929
1928
1926
1924
1923
1923
1923
1924
1924
1925
1925
1926
1926
1926
1926
1925
1923
1924
1928
1937
1954
1976
2003
2029
2045
2045
2027
1992
1952
1919
1901
1899
1907
1918
1926
1930
1931
1931
1931
1932
1932
1931
1931
1931
1932
1933
1934
1935
1936
1937
1937
1937
1937
1937
1937
1938
1939
1940
1940
1940
1941
1941
1941
1942
1943
1943
1944
1945
1946
1947
1948
1949
1950
1952
1953
1954
1956
1958
1959
1960
1962
1963
1964
1964
1965
1966
1967
1969
1971
1972
1973
1973
1973
1972
1971
1971
1969
1968
1965
1962
1959
1957
1954
1952
1951
1951
1951
1951
1950
1950
1950
1950
1950
1951
1952
1952
1953
1954
1954
1955
1955
1956
1956
1956
1957
1957
1958
1959
1960
1960
1960
1961
1960
1960
1961
1962
1963
1964
1965
1966
1966
1966
1966
1967
1968
1968
1968
1969
1969
1970
1970
1971
1971
1970
1970
1971
1972
1973
1974
1974
1975
1976
1976
1977
1978
1978
1979
1980
1982
1982
1981
1980
1980
1979
1979
1980
1981
1982
1983
1984
1984
1984
1983
1983
1983
1984
1984
1984
1983
1981
1981
1985
1996
2016
2042
2070
2096
2109
2103
2078
2040
2000
1970
1957
1960
1971
1983
1989
1991
1991
1991
1990
1990
1990
1990
1991
1991
1992
1993
1994
1994
1994
1993
1992
1992
1993
1995
1997
1998
1998
1998
1998
1999
2000
2003
2005
2006
2008
2010
2012
2015
2019
2023
2028
2033
2036
2038
2040
2041
2042
2044
2045
2046
2047
2047
2048
2048
2050
2052
2053
2053
2053
2052
2052
2052
2052
2051
2049
2047
2043
2039
2036
2033
2030
2028
2026
2025
2024
2023
2022
2021
2020
2020
2019
2019
2018
2019
2019
2019
2020
2019
2018
2017
2016
2016
2016
2016
2017
2018
2018
2017
2017
2016
2015
2015
2014
2015
2015
2015
2015
2015
2014
2013
2012
2012
2012
2012
2012
2012
2012
2011
2010
2009
2009
2008
2008
2008
2008
2008
2008
2008
2008
2007
2007
2007
2006
2006
2006
2006
2006
2006
2005
2004
2004
2004
2004
2006
2007
2008
2007
2007
2007
2007
2006
2005
2006
2006
2007
2008
2008
2008
2007
2006
2005
2005
2005
2005
2005
2005
2005
2003
2001
1999
1998
1998
1999
2000
2001
2001
2000
1999
1998
1997
1995
1993
1992
1995
2003
2018
2039
2063
2089
2108
2114
2099
2067
2028
1992
1970
1964
1971
1982
1990
1992
1992
1991
1990
1989
1989
1989
1989
1989
1989
1989
1989
1989
1989
1989
1990
1990
1989
1989
1989
1989
1990
1990
1991
1991
1991
1991
1991
1991
1990
1990
1990
1991
1992
1993
1994
1995
1995
1995
1995
1995
1997
1999
2001
2003
2005
2005
2006
2007
2008
2008
2009
2010
2012
2013
2013
2013
2013
2012
2011
2009
2007
2004
2000
1997
1994
1991
1988
1985
1983
1982
1981
1980
1980
1980
1980
1980
1980
1980
1979
1979
1979
1979
1980
1980
1981
1982
1981
1980
1980
1979
1980
1981
1981
1982
1982
1982
1981
1981
1980
1979
1979
1979
1979
1980
1980
1980
1980
1979
1979
1979
1979
1979
1978
1979
1979
1979
1979
1978
1978
1978
1978
1978
1978
1978
1978
1978
1978
1979
1979
1978
1978
1978
1978
1979
1979
1979
1979
1978
1977
1977
1978
1978
1978
1979
1979
1979
1979
1979
1978
1978
1978
1978
1979
1980
1980
1981
1981
1980
1979
1979
1980
1980
1981
1982
1982
1982
1981
1981
1981
1981
1982
1982
1982
1982
1981
1980
1980
1979
1979
1979
1980
1980
1980
1980
1980
1981
1981
1979
1977
1975
1975
1982
1995
2017
2043
2069
2090
2099
2089
2060
2022
1985
1959
1950
1955
1966
1976
1980
1979
1977
1977
1977
1978
1979
1980
1981
1981
1980
1980
1980
1980
1981
1981
1982
1982
1982
1983
1983
1983
1982
1983
1984
1984
1985
1986
1986
1986
1987
1987
1987
1987
1988
1989
1990
1992
1993
1993
1994
1995
1996
1997
1999
2001
2003
2004
2005
2007
2007
2008
2008
2009
2010
2011
2012
2013
2013
2012
2009
2006
2003
1999
1995
1992
1989
1986
1983
1981
1979
1977
1975
1975
1974
1974
1974
1974
1974
1974
1974
1974
1973
1973
1973
1973
1974
1975
1975
1975
1975
1974
1973
1972
1973
1973
1973
1974
1974
1973
1972
1971
1970
1969
1969
1969
1970
1971
1971
1970
1969
1967
1967
1966
1967
1968
1968
1967
1964
1959
1953
1948
1944
1943
1942
1943
1943
1942
1942
1941
1940
1939
1938
1938
1937
1937
1937
1937
1937
1936
1937
1937
1936
1936
1936
1937
1938
1939
1940
1941
1941
1940
1940
1940
1941
1943
1944
1945
1945
1944
1943
1942
1942
1942
1943
1944
1945
1946
1946
1945
1945
1943
1942
1941
1942
1943
1943
1944
1944
1943
1942
1942
1941
1941
1940
1939
1939
1944
1955
1974
1998
2025
2049
2061
2057
2034
1996
1956
1926
1912
1913
1923
1934
1941
1943
1942
1942
1942
1943
1943
1944
1945
1945
1946
1946
1947
1948
1948
1949
1949
1949
1949
1948
1949
1950
1952
1953
1954
1954
1954
1954
1954
1954
1956
1957
1958
1960
1961
1961
1962
1963
1963
1964
1965
1967
1969
1971
1973
1975
1976
1977
1977
1978
1979
1981
1983
1984
1986
1987
1988
1987
1987
1986
1985
1983
1981
1979
1976
1973
1970
1967
1964
1961
1959
1958
1959
1960
1961
1961
1960
1958
1957
1958
1959
1960
1960
1960
1960
1960
1960
1961
1961
1961
1961
1961
1962
1962
1962
1962
1963
1964
1964
1964
1963
1963
1963
1964
1965
1965
1965
1965
1964
1965
1965
1967
1968
1969
1969
1969
1968
1968
1967
1967
1966
1967
1968
1969
1971
1971
1971
1971
1970
1970
1970
1971
1973
1974
1975
1975
1975
1975
1974
1974
1974
1974
1975
1975
1975
1974
1974
1973
1972
1972
1972
1973
1973
1974
1974
1974
1974
1973
1972
1970
1967
1966
1970
1981
1999
2024
2051
2077
2093
2093
2073
2039
1999
1966
1948
1946
1954
1964
1972
1975
1975
1976
1976
1976
1977
1978
1978
1978
1977
1977
1976
1977
1979
1980
1981
1981
1981
1981
1981
1982
1982
1983
1983
1983
1984
1985
1985
1985
1985
1985
1986
1986
1987
1988
1989
1990
1991
1992
1993
1994
1994
1995
1997
1999
2001
2003
2005
2005
2006
2006
2007
2007
2008
2010
2011
2011
2011
2010
2008
2006
2005
2003
2001
1999
1996
1993
1990
1988
1986
1985
1985
1985
1985
1985
1985
1985
1984
1984
1983
1982
1982
1982
1983
1983
1984
1984
1984
1984
1984
1983
1982
1982
1982
1983
1984
1985
1985
1984
1983
1982
1981
1981
1981
1981
1981
1981
1982
1984
1987
1992
1996
2000
2003
2005
2005
2006
2006
2005
2005
2004
2004
2004
2004
2005
2005
2005
2004
2003
2003
2004
2004
2004
2004
2005
2004
2004
2005
2004
2003
2002
2001
2000
2001
2003
2004
2004
2004
2002
2001
2001
2001
2002
2003
2003
2003
2003
2002
2002
2002
2001
2001
2000
2000
1999
1998
1997
1997
1997
1997
1997
1997
1997
1997
1997
1997
1997
1996
1995
1993
1991
1991
1995
2006
2025
2048
2074
2098
2112
2109
2086
2049
2011
1981
1967
1968
1978
1988
1992
1992
1990
1990
1990
1991
1993
1993
1993
1993
1992
1992
1991
1991
1991
1992
1993
1993
1993
1993
1992
1991
1990
1991
1991
1992
1992
1992
1993
1993
1994
1994
1994
1993
1993
1994
1995
1997
1999
2000
2000
2000
2001
2001
2003
2005
2007
2009
2010
2011
2012
2012
2013
2014
2015
2016
2018
2019
2019
2018
2016
2014
2011
2007
2004
2001
1999
1998
1996
1994
1992
1990
1989
1988
1988
1987
1987
1987
1986
1986
1985
1985
1985
1985
1986
1986
1987
1987
1987
1986
1985
1984
1984
1984
1985
1985
1986
1986
1986
1986
1985
1984
1984
1984
1984
1983
1983
1983
1983
1982
1982
1982
1981
1981
1981
1981
1981
1982
1982
1982
1981
1980
1979
1979
1979
1979
1979
1979
1979
1979
1979
1979
1978
1978
1978
1979
1980
1980
1980
1980
1979
1979
1978
1978
1978
1978
1978
1979
1980
1980
1979
1978
1977
1977
1978
1978
1979
1980
1981
1980
1980
1980
1980
1980
1981
1982
1982
1982
1981
1981
1981
1981
1980
1980
1980
1979
1979
1979
1979
1978
1977
1976
1976
1976
1977
1977
1978
1979
1977
1976
1973
1971
1972
1978
1990
2010
2035
2061
2083
2093
2084
2057
2020
1983
1956
1946
1951
1962
1971
1975
1975
1973
1972
1972
1973
1974
1975
1976
1976
1976
1975
1974
1974
1974
1975
1976
1977
1978
1977
1976
1975
1974
1973
1973
1974
1975
1976
1976
1976
1976
1976
1976
1976
1977
1978
1979
1980
1980
1980
1980
1980
1981
1982
1984
1985
1987
1989
1991
1992
1992
1992
1992
1992
1992
1994
1995
1996
1996
1995
1994
1991
1988
1984
1981
1978
1974
1971
1970
1969
1967
1965
1962
1956
1950
1944
1940
1938
1936
1935
1935
1933
1932
1931
1931
1931
1932
1932
1932
1932
1932
1930
1929
1929
1929
1929
1929
1930
1931
1931
1930
1930
1930
1929
1929
1928
1929
1929
1930
1932
1932
1933
1932
1931
1932
1932
1933
1933
1934
1935
1935
1935
1936
1936
1937
1937
1937
1938
1939
1942
1948
1955
1963
1969
1974
1977
1979
1979
1980
1982
1983
1984
1985
1986
1987
1988
1989
1991
1994
1996
1997
1997
1996
1995
1994
1993
1994
1994
1995
1996
1996
1997
1996
1995
1994
1993
1992
1992
1992
1992
1992
1991
1991
1991
1991
1990
1989
1989
1991
1999
2013
2034
2059
2086
2106
2115
2105
2077
2041
2006
1983
1976
1982
1994
2003
2008
2009
2009
2009
2009
2008
2008
2008
2007
2007
2007
2008
2008
2009
2009
2009
2008
2007
2006
2006
2007
2009
2009
2010
2009
2008
2006
2006
2007
2008
2009
2010
2011
2012
2011
2011
2011
2012
2013
2014
2015
2016
2017
2018
2020
2020
2021
2021
2022
2023
2024
2025
2026
2027
2028
2028
2028
2027
2027
2026
2025
2024
2022
2019
2015
2012
2009
2006
2004
2003
2003
2004
2004
2004
2004
2003
2002
2002
2002
2003
2004
2005
2007
2008
2009
2009
2009
2009
2009
2009
2010
2011
2011
2010
2009
2009
2008
2008
2007
2007
2007
2006
2006
2006
2006
2006
2005
2004
2003
2002
2001
2000
1999
1998
1998
1998
1997
1995
1994
1992
1991
1990
1989
1987
1986
1984
1982
1980
1978
1976
1975
1975
1975
1975
1974
1972
1969
1966
1962
1959
1958
1958
1957
1957
1956
1956
1955
1955
1955
1955
1954
1954
1955
1955
1954
1953
1951
1949
1947
1946
1946
1946
1947
1947
1947
1946
1945
1943
1942
1943
1943
1944
1944
1945
1944
1943
1942
1940
1939
1938
1939
1947
1961
1983
2009
2036
2054
2057
2043
2010
1970
1934
1912
1907
1915
1927
1936
1939
1938
1934
1928
1923
1919
1917
1915
1914
1913
1912
1912
1911
1910
1909
1909
1909
1909
1909
1910
1909
1910
1911
1913
1914
1915
1916
1916
1916
1916
1918
1919
1921
1922
1924
1924
1925
1926
1927
1929
1930
1930
1931
1933
1935
1938
1940
1942
1943
1944
1944
1945
1946
1947
1948
1949
1950
1950
1950
1949
1948
1946
1943
1940
1937
1935
1934
1932
1930
1928
1926
1924
1923
1924
1924
1925
1926
1927
1926
1926
1926
1927
1927
1928
1929
1930
1931
1932
1932
1932
1932
1932
1932
1933
1934
1935
1935
1935
1935
1935
1935
1936
1936
1937
1938
1938
1939
1939
1938
1938
1938
1937
1937
1938
1939
1940
1941
1941
1942
1942
1941
1941
1941
1942
1943
1945
1946
1948
1948
1948
1948
1948
1947
1947
1947
1948
1949
1949
1949
1948
1948
1948
1948
1949
1950
1951
1951
1951
1951
1951
1951
1951
1951
1949
1948
1949
1955
1968
1989
2016
2044
2066
2075
2065
2037
1998
1959
1934
1925
1930
1941
1951
1957
1959
1959
1959
1959
1959
1959
1959
1959
1960
1961
1961
1962
1963
1965
1966
1968
1970
1971
1972
1972
1973
1973
1974
1975
1976
1977
1977
1978
1980
1981
1983
1986
1991
1996
2000
2004
2006
2008
2008
2008
2010
2012
2014
2015
2016
2018
2019
2020
2021
2022
2023
2024
2025
2026
2027
2027
2026
2025
2023
2021
2019
2016
2014
2011
2008
2004
2001
1999
1997
1996
1996
1996
1995
1995
1995
1995
1994
1993
1993
1993
1993
1994
1994
1994
1994
1993
1992
1993
1993
1993
1993
1993
1993
1993
1993
1993
1993
1991
1991
1991
1992
1992
1992
1992
1991
1991
1990
1989
1989
1988
1987
1988
1989
1990
1990
1989
1988
1987
1986
1986
1986
1987
1988
1988
1988
1987
1986
1985
1985
1986
1986
1987
1988
1988
1987
1986
1986
1986
1987
1988
1989
1991
1991
1990
1989
1988
1988
1987
1987
1986
1985
1985
1984
1985
1986
1986
1985
1984
1983
1983
1983
1984
1985
1985
1983
1981
1979
1978
1982
1993
2011
2036
2062
2086
2100
2095
2071
2034
1994
1964
1951
1954
1964
1976
1982
1983
1982
1980
1978
1978
1979
1980
1982
1982
1982
1982
1981
1980
1980
1980
1981
1982
1982
1982
1983
1983
1982
1982
1982
1983
1983
1983
1984
1985
1985
1986
1986
1986
1986
1986
1987
1988
1989
1990
1991
1992
1993
1993
1994
1996
1998
1999
2001
2003
2005
2005
2005
2006
2007
2007
2008
2008
2008
2007
2006
2005
2003
1999
1995
1991
1988
1985
1983
1982
1980
1979
1978
1977
1976
1975
1975
1975
1976
1976
1977
1976
1976
1975
1975
1975
1976
1977
1977
1977
1978
1978
1978
1978
1977
1977
1977
1977
1977
1978
1978
1977
1977
1976
1976
1975
1975
1976
1977
1977
1977
1977
1977
1976
1976
1976
1977
1977
1976
1976
1976
1977
1976
1976
1976
1975
1975
1975
1976
1976
1976
1976
1976
1975
1974
1974
1974
1975
1976
1976
1976
1976
1976
1975
1975
1975
1974
1974
1975
1976
1977
1977
1977
1977
1977
1976
1977
1977
1978
1979
1980
1980
1980
1979
1978
1978
1978
1978
1979
1979
1979
1978
1977
1976
1975
1974
1974
1975
1976
1977
1977
1977
1976
1976
1975
1973
1972
1971
1972
1978
1990
2009
2033
2058
2080
2091
2083
2058
2022
1985
1958
1947
1949
1959
1968
1973
1974
1975
1975
1974
1973
1973
1972
1971
1971
1972
1974
1975
1975
1976
1977
1977
1977
1977
1976
1975
1974
1975
1977
1979
1980
1980
1979
1977
1976
1975
1977
1979
1980
1980
1980
1980
1980
1981
1983
1986
1989
1991
1992
1993
1993
1993
1992
1993
1994
1997
2000
2004
2007
2008
2007
2007
2006
2005
2004
2003
2002
2000
1998
1996
1993
1990
1987
1984
1981
1978
1975
1973
1973
1973
1974
1974
1974
1974
1973
1973
1973
1974
1975
1976
1976
1976
1975
1974
1974
1975
1976
1978
1979
1980
1979
1978
1977
1976
1975
1974
1974
1975
1977
1978
1979
1979
1977
1975
1973
1972
1972
1972
1970
1966
1959
1950
1941
1933
1930
1929
1929
1930
1930
1929
1928
1926
1926
1925
1924
1923
1922
1921
1921
1920
1920
1920
1920
1919
1918
1919
1919
1920
1922
1923
1923
1922
1920
1917
1915
1914
1913
1915
1916
1917
1918
1918
1917
1916
1915
1915
1915
1915
1915
1915
1915
1914
1914
1913
1913
1913
1912
1911
1911
1910
1908
1907
1907
1908
1908
1909
1910
1910
1911
1912
1913
1912
1911
1910
1913
1921
1936
1959
1987
2016
2037
2040
2021
1986
1943
1907
1887
1884
1893
1905
1914
1918
1918
1917
1915
1913
1911
1910
1911
1914
1916
1918
1917
1915
1914
1913
1914
1915
1916
1916
1916
1916
1916
1917
1917
1916
1917
1918
1919
1920
1922
1922
1923
1924
1926
1928
1930
1931
1931
1932
1932
1934
1935
1938
1940
1942
1943
1945
1948
1951
1953
1955
1956
1956
1956
1957
1959
1961
1963
1963
1962
1960
1958
1954
1951
1947
1944
1942
1942
1942
1941
1940
1938
1936
1935
1935
1936
1936
1936
1936
1936
1936
1937
1937
1938
1940
1941
1944
1946
1948
1949
1949
1948
1948
1947
1946
1946
1947
1948
1948
1948
1948
1949
1950
1951
1953
1953
1953
1953
1954
1955
1956
1955
1954
1954
1953
1952
1952
1952
1953
1953
1955
1957
1958
1958
1956
1954
1953
1954
1955
1958
1960
1961
1962
1961
1960
1959
1958
1958
1960
1961
1962
1964
1965
1966
1967
1967
1967
1965
1962
1961
1962
1963
1964
1965
1966
1967
1969
1969
1968
1965
1962
1959
1959
1966
1979
2000
2027
2056
2081
2093
2085
2059
2020
1979
1950
1937
1939
1949
1959
1965
1966
1966
1965
1965
1966
1968
1969
1970
1971
1971
1970
1969
1969
1969
1970
1970
1972
1973
1975
1976
1977
1978
1977
1976
1976
1978
1980
1981
1982
1983
1983
1983
1984
1985
1986
1987
1989
1990
1992
1993
1994
1995
1996
1997
1998
1999
2001
2004
2005
2006
2006
2005
2004
2005
2008
2011
2011
2010
2008
2005
2001
1998
1995
1992
1989
1986
1984
1982
1981
1979
1978
1978
1978
1978
1978
1977
1976
1976
1976
1977
1978
1978
1977
1977
1977
1977
1978
1979
1980
1980
1980
1980
1979
1979
1979
1979
1980
1980
1980
1980
1980
1980
1980
1979
1979
1979
1979
1979
1980
1979
1979
1978
1977
1977
1976
1976
1976
1976
1976
1977
1977
1978
1978
1978
1977
1977
1977
1977
1978
1979
1979
1979
1978
1977
1976
1976
1976
1977
1978
1979
1980
1981
1982
1982
1982
1980
1980
1979
1978
1979
1980
1980
1980
1981
1982
1982
1982
1981
1980
1978
1976
1975
1975
1976
1976
1976
1977
1978
1979
1979
1978
1976
1973
1970
1969
1972
1979
1992
2014
2040
2067
2089
2099
2090
2063
2026
1989
1963
1953
1956
1965
1975
1980
1981
1982
1984
1987
1992
1995
1998
1998
1997
1996
1996
1997
1999
2000
2001
2001
2001
2000
2000
1999
2000
2000
2000
2001
2002
2002
2002
2001
2001
2001
2001
2002
2002
2003
2002
2002
2003
2003
2003
2003
2004
2006
2007
2009
2011
2012
2013
2013
2014
2015
2015
2015
2017
2019
2020
2021
2021
2021
2020
2019
2017
2014
2011
2007
2004
2001
1998
1996
1993
1991
1989
1988
1986
1986
1987
1988
1988
1989
1988
1988
1991
1998
2008
2020
2031
2038
2041
2041
2040
2039
2039
2039
2039
2040
2041
2041
2040
2039
2037
2036
2035
2034
2034
2034
2034
2034
2033
2032
2031
2029
2027
2027
2027
2027
2026
2022
2016
2008
2001
1995
1992
1990
1989
1988
1987
1984
1982
1980
1978
1977
1976
1976
1976
1978
1979
1980
1980
1979
1977
1975
1973
1973
1973
1975
1978
1979
1979
1978
1977
1977
1977
1978
1979
1980
1979
1978
1978
1978
1979
1979
1980
1980
1981
1981
1981
1981
1980
1979
1978
1977
1978
1978
1978
1979
1979
1980
1980
1980
1980
1980
1980
1981
1982
1982
1982
1982
1983
1985
1990
2000
2017
2042
2071
2102
2124
2129
2112
2077
2035
1998
1977
1974
1983
1997
2006
2008
2005
2001
1996
1991
1988
1987
1987
1987
1987
1986
1984
1981
1978
1976
1975
1976
1978
1980
1980
1980
1979
1978
1979
1981
1983
1988
1993
1997
2001
2004
2006
2006
2005
2005
2006
2008
2010
2012
2015
2017
2018
2020
2022
2024
2026
2027
2029
2031
2033
2035
2037
2040
2043
2047
2049
2051
2052
2052
2051
2051
2051
2049
2047
2043
2039
2035
2031
2029
2028
2026
2025
2023
2021
2020
2020
2020
2019
2018
2017
2016
2015
2015
2015
2015
2014
2014
2013
2012
2011
2009
2006
2003
2001
2000
1998
1998
1997
1997
1996
1994
1992
1990
1988
1985
1983
1981
1981
1981
1981
1981
1980
1979
1977
1975
1973
1971
1970
1970
1971
1971
1971
1971
1970
1969
1968
1969
1970
1969
1965
1958
1948
1938
1930
1926
1924
1925
1925
1925
1925
1925
1924
1923
1922
1921
1921
1921
1921
1921
1921
1921
1922
1923
1924
1924
1924
1925
1925
1926
1928
1929
1930
1930
1930
1930
1930
1930
1930
1931
1931
1931
1930
1930
1929
1928
1928
1928
1929
1930
1930
1930
1931
1931
1931
1930
1930
1929
1928
1927
1930
1938
1951
1971
1995
2021
2041
2048
2037
2009
1971
1935
1910
1901
1905
1914
1923
1928
1930
1930
1931
1932
1931
1929
1927
1925
1924
1923
1923
1924
1925
1925
1925
1926
1926
1926
1925
1926
1927
1928
1929
1930
1931
1931
1930
1930
1930
1931
1931
1932
1934
1935
1936
1937
1939
1940
1941
1943
1944
1946
1948
1949
1951
1952
1953
1954
1954
1956
1957
1959
1960
1962
1963
1964
1964
1964
1962
1960
1958
1956
1953
1950
1947
1945
1942
1939
1936
1934
1933
1932
1931
1932
1932
1932
1931
1930
1929
1930
1930
1931
1933
1934
1934
1934
1934
1934
1934
1934
1935
1936
1937
1937
1938
1938
1937
1937
1937
1937
1938
1938
1939
1939
1940
1939
1938
1937
1937
1937
1937
1939
1940
1941
1941
1940
1939
1938
1937
1938
1938
1939
1940
1941
1941
1941
1941
1940
1940
1940
1940
1940
1940
1940
1940
1941
1942
1942
1942
1941
1941
1941
1942
1942
1941
1941
1941
1941
1942
1943
1944
1945
1946
1948
1948
1948
1947
1945
1944
1947
1957
1975
2000
2028
2055
2075
2078
2063
2031
1992
1958
1939
1937
1947
1961
1971
1976
1977
1978
1979
1981
1983
1985
1987
1988
1989
1990
1991
1992
1992
1993
1994
1994
1995
1995
1995
1994
1994
1994
1994
1995
1996
1997
1997
1997
1997
1996
1996
1996
1997
1998
2000
2001
2002
2002
2002
2003
2003
2004
2005
2007
2009
2010
2011
2013
2014
2015
2015
2015
2016
2016
2018
2020
2020
2020
2017
2014
2011
2007
2004
2001
1998
1996
1994
1992
1991
1989
1987
1986
1985
1985
1986
1986
1986
1986
1986
1986
1986
1987
1987
1988
1988
1988
1989
1989
1990
1991
1990
1989
1988
1988
1989
1989
1990
1990
1989
1989
1988
1987
1987
1987
1987
1988
1988
1987
1986
1985
1985
1984
1984
1985
1985
1985
1985
1985
1984
1983
1983
1982
1982
1982
1982
1983
1983
1984
1984
1983
1982
1983
1984
1986
1988
1990
1990
1990
1989
1989
1989
1989
1989
1989
1990
1990
1990
1990
1990
1989
1988
1988
1988
1988
1987
1987
1987
1986
1986
1985
1984
1983
1983
1984
1984
1985
1986
1986
1985
1983
1980
1977
1977
1982
1993
2011
2035
2061
2085
2099
2096
2074
2039
1999
1968
1954
1954
1964
1974
1980
1981
1980
1979
1979
1980
1980
1981
1981
1981
1980
1979
1979
1980
1980
1981
1982
1982
1982
1981
1981
1981
1982
1982
1982
1983
1983
1984
1985
1985
1985
1984
1984
1985
1986
1987
1988
1989
1990
1991
1991
1991
1992
1993
1995
1998
2000
2002
2003
2004
2005
2005
2006
2007
2008
2009
2010
2011
2011
2010
2008
2005
2003
2001
1999
1997
1995
1993
1990
1988
1986
1984
1982
1981
1981
1981
1981
1981
1981
1982
1982
1982
1981
1981
1983
1986
1992
1999
2005
2009
2010
2010
2009
2009
2009
2010
2011
2011
2010
2009
2008
2007
2007
2007
2008
2007
2007
2006
2005
2005
2004
2004
2004
2004
2003
2003
2003
2003
2002
2002
2002
2001
2000
1999
1999
1999
1999
1999
1999
1999
1998
1997
1997
1997
1997
1997
1997
1997
1997
1996
1994
1994
1994
1994
1994
1995
1995
1995
1994
1994
1994
1993
1993
1993
1993
1993
1994
1995
1996
1996
1995
1994
1993
1993
1993
1993
1994
1995
1994
1993
1992
1991
1990
1989
1989
1989
1989
1989
1990
1989
1989
1988
1987
1987
1987
1986
1985
1983
1983
1986
1996
2012
2035
2059
2084
2100
2100
2080
2045
2005
1973
1956
1956
1965
1976
1982
1984
1983
1982
1982
1981
1981
1981
1981
1981
1982
1983
1983
1983
1983
1983
1982
1982
1982
1983
1984
1985
1985
1985
1985
1985
1985
1985
1985
1985
1986
1987
1988
1988
1988
1988
1988
1989
1990
1991
1993
1995
1996
1997
1998
1998
1999
2000
2002
2004
2005
2006
2007
2007
2008
2008
2009
2010
2010
2009
2008
2007
2005
2002
1999
1995
1992
1988
1985
1984
1982
1981
1980
1979
1979
1978
1975
1971
1966
1960
1955
1952
1948
1946
1943
1941
1940
1940
1940
1939
1939
1940
1940
1940
1941
1941
1940
1938
1937
1936
1935
1935
1935
1934
1934
1934
1933
1933
1934
1934
1934
1934
1934
1934
1933
1933
1933
1932
1932
1933
1934
1934
1934
1934
1934
1934
1934
1934
1935
1935
1936
1937
1937
1938
1938
1937
1937
1936
1935
1934
1935
1935
1935
1935
1935
1935
1935
1935
1935
1934
1933
1931
1930
1930
1929
1929
1928
1928
1928
1928
1929
1930
1931
1931
1931
1931
1931
1930
1929
1929
1929
1929
1929
1930
1930
1930
1930
1929
1930
1930
1930
1930
1929
1928
1929
1935
1947
1966
1991
2018
2041
2050
2043
2016
1978
1940
1913
1902
1907
1918
1928
1933
1935
1935
1934
1934
1934
1934
1934
1935
1936
1938
1938
1938
1937
1937
1937
1937
1937
1938
1939
1940
1940
1940
1940
1940
1939
1939
1939
1940
1940
1941
1942
1943
1944
1945
1946
1946
1947
1947
1949
1950
1952
1953
1955
1956
1957
1959
1960
1962
1963
1965
1966
1967
1968
1969
1969
1970
1971
1971
1971
1970
1969
1967
1964
1962
1958
1954
1951
1949
1947
1947
1946
1946
1946
1945
1944
1943
1943
1943
1944
1944
1945
1946
1947
1947
1947
1947
1947
1948
1950
1951
1952
1952
1952
1952
1951
1951
1952
1953
1954
1955
1956
1957
1956
1956
1955
1955
1955
1955
1956
1957
1958
1958
1958
1958
1958
1958
1959
1960
1961
1962
1963
1964
1965
1966
1966
1967
1968
1969
1970
1971
1972
1972
1973
1973
1973
1973
1973
1973
1974
1974
1974
1974
1973
1972
1971
1971
1972
1973
1974
1974
1974
1975
1975
1976
1976
1975
1974
1971
1970
1973
1983
1999
2023
2050
2077
2095
2098
2083
2052
2014
1980
1961
1958
1966
1977
1986
1990
1991
1991
1992
1993
1993
1993
1992
1992
1992
1993
1994
1996
1998
1999
1999
1999
1999
1999
1999
1999
1999
2000
2000
2000
2000
2000
2001
2001
2002
2002
2003
2003
2005
2006
2007
2007
2008
2008
2009
2009
2011
2012
2014
2016
2017
2019
2020
2021
2021
2022
2023
2024
2025
2026
2027
2027
2026
2025
2023
2021
2018
2015
2012
2009
2005
2003
2001
1998
1996
1995
1994
1994
1994
1995
1996
1997
1998
1998
1999
1999
2000
2000
2001
2002
2002
2002
2002
2002
2001
2001
2001
2002
2002
2002
2002
2001
2000
2000
1999
2000
2000
2000
2000
2000
2000
1999
1999
1998
1998
1997
1997
1998
1999
1999
1998
1998
1997
1996
1995
1996
1996
1997
1997
1997
1996
1995
1994
1994
1994
1994
1994
1994
1994
1994
1994
1993
1993
1992
1991
1991
1992
1994
1995
1995
1996
1995
1995
1996
1997
1998
2000
2001
2002
2002
2002
2002
2003
2005
2009
2013
2018
2022
2025
2025
2025
2025
2024
2023
2023
2022
2022
2023
2023
2022
2021
2019
2016
2014
2015
2021
2035
2054
2079
2106
2126
2134
2123
2093
2053
2016
1991
1983
1989
2000
2010
2013
2012
2009
2007
2007
2008
2009
2009
2009
2009
2008
2008
2008
2008
2008
2007
2007
2007
2007
2007
2008
2008
2008
2007
2007
2007
2007
2008
2008
2009
2009
2008
2008
2008
2009
2009
2010
2012
2013
2014
2015
2015
2016
2016
2017
2019
2021
2023
2024
2025
2026
2027
2027
2028
2029
2029
2030
2030
2030
2029
2027
2024
2021
2017
2013
2010
2007
2004
2002
2000
1998
1996
1994
1993
1992
1992
1992
1992
1992
1991
1991
1990
1990
1990
1990
1990
1991
1992
1992
1992
1991
1991
1991
1990
1990
1990
1991
1991
1991
1991
1990
1989
1988
1988
1988
1988
1988
1988
1988
1988
1987
1986
1986
1986
1985
1985
1985
1985
1985
1985
1985
1985
1985
1984
1983
1983
1983
1983
1984
1984
1984
1983
1983
1982
1982
1982
1982
1983
1983
1982
1982
1981
1981
1981
1980
1981
1982
1983
1984
1984
1984
1983
1983
1982
1983
1983
1984
1984
1984
1984
1984
1983
1983
1983
1983
1982
1982
1982
1982
1981
1980
1979
1978
1978
1979
1979
1980
1980
1981
1980
1979
1978
1975
1974
1974
1978
1988
2006
2030
2055
2079
2093
2090
2069
2035
1997
1967
1952
1952
1961
1971
1977
1978
1976
1974
1974
1975
1976
1978
1978
1978
1977
1977
1978
1977
1977
1978
1979
1980
1981
1981
1981
1980
1979
1980
1980
1981
1982
1982
1982
1982
1982
1982
1982
1983
1983
1984
1986
1987
1989
1989
1990
1990
1991
1992
1994
1996
1997
1998
1999
2000
2001
2002
2003
2003
2001
1998
1995
1991
1987
1982
1976
1970
1965
1960
1956
1954
1951
1949
1946
1943
1941
1939
1937
1936
1937
1937
1938
1938
1938
1938
1938
1938
1938
1938
1938
1938
1939
1939
1939
1938
1938
1937
1936
1935
1935
1934
1934
1934
1935
1935
1934
1934
1934
1934
1934
1935
1935
1936
1936
1936
1935
1935
1934
1934
1934
1935
1936
1936
1936
1937
1938
1938
1938
1938
1937
1935
1934
1934
1935
1935
1936
1936
1935
1935
1934
1935
1936
1937
1937
1938
1938
1938
1938
1938
1938
1938
1937
1935
1934
1933
1932
1931
1931
1931
1932
1933
1933
1933
1933
1932
1931
1930
1929
1929
1929
1930
1931
1932
1932
1932
1933
1932
1932
1930
1929
1927
1928
1933
1945
1963
1986
2012
2037
2050
2048
2028
1992
1953
1921
1905
1904
1913
1924
1930
1933
1933
1933
1933
1933
1933
1933
1933
1933
1934
1934
1935
1935
1936
1937
1937
1937
1936
1935
1935
1936
1938
1940
1941
1941
1941
1940
1940
1940
1941
1943
1944
1946
1947
1948
1949
1950
1951
1953
1954
1956
1958
1960
1962
1964
1966
1967
1968
1969
1970
1972
1974
1976
1978
1980
1982
1982
1982
1982
1982
1981
1979
1977
1974
1970
1967
1964
1962
1961
1960
1960
1959
1959
1959
1958
1958
1957
1956
1957
1958
1959
1960
1961
1961
1962
1963
1964
1964
1965
1965
1964
1965
1966
1967
1967
1968
1968
1968
1968
1968
1968
1969
1970
1971
1971
1971
1971
1971
1972
1973
1973
1974
1974
1975
1976
1977
1978
1979
1980
1980
1980
1981
1982
1982
1982
1983
1983
1983
1982
1983
1983
1983
1983
1983
1984
1984
1984
1984
1983
1983
1982
1982
1983
1983
1983
1983
1983
1983
1982
1981
1981
1982
1982
1982
1982
1981
1978
1977
1979
1987
2003
2026
2052
2079
2097
2099
2082
2049
2010
1975
1955
1953
1962
1973
1981
1984
1982
1981
1979
1979
1980
1980
1981
1981
1982
1983
1983
1983
1983
1983
1984
1985
1986
1988
1988
1989
1989
1989
1988
1988
1988
1990
1991
1993
1994
1995
1995
1994
1994
1995
1996
1997
1998
2000
2001
2001
2002
2003
2004
2006
2007
2009
2012
2013
2014
2015
2015
2015
2015
2016
2017
2017
2017
2016
2014
2011
2008
2005
2001
1998
1995
1993
1991
1989
1987
1985
1983
1983
1982
1982
1983
1984
1983
1983
1982
1982
1982
1982
1982
1983
1983
1983
1983
1984
1984
1984
1983
1983
1983
1983
1983
1983
1984
1984
1984
1984
1983
1982
1981
1981
1981
1982
1982
1983
1983
1983
1982
1981
1981
1981
1981
1982
1982
1983
1982
1981
1981
1980
1980
1980
1981
1983
1983
1983
1983
1983
1982
1982
1982
1982
1983
1983
1984
1984
1983
1983
1983
1983
1983
1982
1980
1980
1980
1980
1981
1981
1980
1979
1978
1977
1978
1978
1978
1978
1978
1977
1974
1971
1971
1974
1984
2002
2026
2051
2075
2090
2088
2068
2034
1994
1962
1947
1947
1956
1967
1973
1973
1972
1971
1971
1971
1971
1972
1973
1975
1976
1977
1978
1978
1978
1977
1978
1979
1980
1980
1980
1980
1979
1979
1979
1981
1982
1983
1983
1983
1983
1983
1984
1984
1985
1985
1986
1988
1990
1991
1992
1992
1993
1993
1994
1996
1997
1999
2000
2001
2002
2002
2002
2003
2004
2006
2007
2008
2008
2007
2005
2002
1999
1996
1993
1990
1988
1987
1984
1982
1980
1978
1977
1976
1976
1977
1977
1977
1977
1977
1976
1976
1975
1976
1976
1977
1977
1978
1979
1979
1979
1979
1979
1979
1980
1981
1981
1982
1982
1982
1981
1980
1979
1979
1979
1979
1980
1980
1980
1980
1980
1980
1980
1981
1981
1982
1983
1984
1984
1984
1984
1984
1984
1984
1984
1984
1984
1984
1985
1986
1987
1986
1986
1985
1985
1985
1986
1987
1988
1988
1988
1987
1986
1985
1985
1985
1985
1985
1985
1984
1984
1983
1981
1981
1981
1981
1981
1981
1981
1981
1981
1981
1981
1979
1977
1975
1976
1983
1996
2015
2040
2066
2087
2095
2085
2057
2019
1982
1958
1951
1957
1967
1975
1979
1979
1978
1978
1979
1979
1979
1979
1978
1978
1978
1978
1978
1979
1980
1981
1981
1981
1981
1980
1980
1980
1980
1981
1981
1982
1983
1983
1982
1982
1982
1982
1983
1984
1986
1987
1988
1988
1989
1989
1989
1991
1993
1994
1995
1996
1998
1999
1999
1999
1999
2000
2002
2004
2007
2009
2009
2009
2008
2007
2005
2002
2000
1997
1993
1991
1989
1989
1988
1987
1986
1987
1991
1997
2004
2010
2014
2015
2015
2015
2015
2015
2015
2016
2017
2017
2017
2017
2016
2015
2015
2015
2015
2016
2016
2016
2016
2015
2014
2013
2012
2012
2012
2013
2014
2014
2013
2012
2011
2010
2009
2008
2008
2008
2007
2008
2009
2009
2009
2008
2007
2006
2006
2006
2006
2006
2006
2006
2006
2006
2005
2004
2004
2005
2005
2006
2006
2006
2006
2005
2004
2004
2005
2005
2005
2005
2005
2004
2003
2002
2003
2003
2003
2004
2003
2003
2001
2000
1999
1998
1998
1997
1998
1998
1998
1998
1998
1998
1996
1993
1991
1991
1995
2007
2026
2050
2077
2099
2109
2102
2077
2040
2002
1976
1966
1969
1979
1988
1993
1992
1990
1989
1989
1989
1989
1990
1990
1990
1990
1989
1989
1989
1989
1989
1990
1991
1991
1990
1990
1989
1989
1989
1990
1991
1991
1992
1992
1992
1992
1991
1991
1991
1992
1993
1995
1996
1997
1997
1997
1997
1998
1998
2000
2001
2003
2004
2005
2006
2007
2007
2007
2008
2009
2011
2013
2014
2014
2012
2010
2008
2005
2003
2000
1997
1995
1993
1990
1988
1985
1983
1982
1981
1981
1981
1981
1981
1981
1981
1980
1980
1979
1979
1980
1980
1980
1981
1981
1980
1979
1979
1978
1978
1978
1978
1979
1978
1977
1976
1976
1976
1975
1975
1975
1974
1974
1975
1976
1976
1974
1970
1965
1959
1952
1946
1941
1936
1933
1931
1931
1931
1930
1929
1928
1928
1929
1930
1931
1931
1931
1930
1929
1928
1928
1928
1928
1929
1930
1929
1929
1928
1928
1928
1929
1930
1931
1931
1931
1930
1928
1926
1925
1924
1925
1926
1927
1928
1928
1928
1927
1927
1927
1926
1925
1924
1925
1931
1944
1964
1990
2017
2039
2047
2038
2011
1973
1935
1909
1899
1902
1911
1921
1927
1928
1928
1928
1928
1928
1929
1929
1929
1929
1928
1928
1928
1928
1927
1927
1926
1926
1926
1927
1928
1930
1931
1931
1932
1932
1932
1932
1932
1932
1932
1933
1934
1936
1937
1938
1938
1938
1939
1940
1941
1942
1944
1945
1947
1948
1949
1950
1951
1951
1952
1954
1955
1956
1958
1959
1959
1960
1960
1959
1958
1956
1954
1952
1950
1947
1944
1941
1938
1936
1936
1936
1937
1936
1936
1936
1935
1934
1934
1934
1934
1935
1936
1937
1937
1938
1938
1938
1938
1938
1938
1938
1939
1940
1940
1941
1941
1941
1940
1941
1941
1941
1941
1942
1943
1944
1945
1945
1944
1944
1944
1945
1946
1947
1947
1948
1948
1949
1949
1949
1950
1950
1951
1951
1952
1952
1952
1952
1951
1950
1950
1950
1950
1951
1951
1951
1951
1951
1951
1952
1952
1954
1955
1955
1954
1952
1953
1958
1970
1991
2018
2047
2070
2081
2073
2046
2007
1968
1942
1933
1937
1949
1960
1966
1969
1969
1970
1971
1971
1972
1973
1974
1975
1976
1977
1977
1978
1978
1978
1978
1978
1979
1980
1981
1982
1982
1982
1982
1982
1982
1982
1983
1985
1986
1988
1989
1990
1989
1989
1989
1991
1994
1997
1999
2001
2003
2003
2004
2005
2005
2005
2006
2008
2010
2012
2013
2013
2014
2014
2014
2013
2012
2011
2009
2006
2004
2001
1998
1995
1991
1989
1987
1986
1987
1987
1986
1985
1984
1983
1982
1982
1982
1984
1984
1985
1985
1985
1985
1984
1984
1984
1984
1985
1985
1986
1987
1988
1988
1988
1988
1988
1989
1990
1991
1991
1991
1990
1990
1989
1988
1988
1988
1989
1989
1989
1989
1989
1989
1989
1989
1989
1990
1990
1991
1992
1993
1993
1994
1994
1995
1995
1996
1996
1997
1997
1997
1996
1995
1994
1994
1993
1993
1993
1993
1993
1993
1993
1993
1994
1994
1994
1993
1992
1991
1989
1990
1996
2010
2030
2056
2084
2106
2113
2101
2071
2032
1995
1971
1964
1970
1981
1990
1993
1994
1993
1992
1992
1992
1993
1994
1995
1996
1997
1998
1999
2002
2007
2013
2020
2025
2029
2031
2032
2032
2032
2033
2033
2033
2033
2033
2032
2032
2033
2034
2035
2035
2035
2036
2036
2036
2038
2039
2040
2041
2042
2042
2043
2044
2045
2045
2046
2047
2048
2048
2049
2049
2050
2050
2050
2049
2048
2047
2046
2044
2041
2037
2034
2030
2027
2024
2023
2021
2020
2020
2020
2020
2018
2016
2015
2015
2015
2016
2016
2017
2016
2016
2015
2015
2014
2014
2015
2017
2019
2020
2020
2019
2017
2016
2014
2014
2014
2014
2014
2014
2014
2014
2014
2014
2015
2015
2015
2016
2016
2016
2016
2016
2016
2017
2017
2017
2018
2019
2019
2019
2020
2019
2019
2018
2018
2019
2019
2019
2019
2019
2019
2019
2019
2019
2018
2017
2016
2016
2014
2013
2012
2012
2012
2012
2011
2011
2011
2010
2010
2011
2011
2010
2008
2005
2003
2002
2007
2019
2040
2066
2094
2118
2129
2120
2092
2053
2016
1991
1983
1990
2003
2015
2021
2021
2020
2019
2019
2020
2022
2025
2026
2027
2026
2026
2025
2025
2024
2024
2025
2025
2026
2027
2027
2027
2027
2028
2029
2029
2030
2031
2032
2032
2031
2031
2031
2031
2031
2032
2033
2034
2035
2035
2035
2036
2036
2036
2037
2038
2040
2041
2043
2044
2044
2043
2043
2044
2044
2045
2045
2045
2045
2043
2041
2038
2034
2029
2026
2022
2020
2018
2016
2015
2014
2012
2011
2010
2010
2010
2011
2010
2009
2007
2005
2005
2005
2006
2006
2007
2007
2007
2007
2007
2007
2006
2005
2004
2004
2005
2005
2005
2005
2005
2003
2002
2002
2001
2001
2001
2001
2001
2001
2000
1999
1998
1996
1996
1997
1999
2000
2000
1999
1998
1997
1996
1996
1997
1997
1998
1998
1998
1998
1998
1998
1998
1998
1997
1996
1996
1997
1998
1997
1997
1995
1993
1990
1988
1988
1988
1989
1989
1990
1990
1989
1987
1985
1984
1983
1984
1986
1987
1986
1984
1985
1991
2006
2028
2055
2082
2101
2104
2087
2054
2015
1980
1959
1956
1964
1975
1983
1986
1985
1984
1982
1982
1982
1981
1981
1981
1983
1984
1985
1986
1985
1984
1982
1982
1982
1983
1984
1984
1985
1986
1986
1986
1985
1985
1985
1985
1986
1987
1988
1988
1988
1989
1989
1989
1989
1990
1991
1993
1995
1996
1998
1998
1998
1999
2000
2001
2002
2004
2005
2006
2006
2007
2008
2008
2008
2007
2006
2004
2002
1998
1994
1991
1987
1985
1984
1984
1984
1983
1982
1981
1980
1980
1980
1979
1978
1978
1979
1981
1983
1985
1985
1983
1982
1981
1981
1982
1983
1983
1982
1982
1982
1981
1982
1982
1983
1983
1983
1982
1982
1981
1980
1980
1980
1979
1979
1980
1980
1981
1981
1980
1979
1979
1978
1977
1977
1977
1977
1978
1980
1981
1980
1978
1975
1972
1968
1965
1963
1963
1962
1962
1962
1960
1958
1956
1955
1955
1956
1956
1956
1954
1952
1950
1950
1952
1953
1954
1955
1954
1952
1949
1946
1943
1942
1946
1958
1978
2006
2036
2060
2069
2055
2021
1973
1926
1894
1881
1884
1893
1900
1902
1899
1895
1893
1892
1893
1894
1895
1895
1895
1895
1896
1896
1896
1896
1896
1896
1897
1898
1899
1898
1897
1894
1893
1892
1892
1892
1892
1892
1892
1892
1892
1893
1893
1893
1893
1893
1894
1895
1896
1898
1900
1902
1904
1906
1907
1908
1910
1912
1915
1917
1919
1919
1920
1922
1923
1924
1926
1926
1924
1922
1920
1919
1917
1914
1911
1909
1907
1907
1907
1906
1906
1905
1905
1905
1905
1906
1906
1907
1908
1908
1908
1909
1909
1911
1912
1913
1913
1913
1912
1912
1913
1913
1912
1911
1911
1911
1911
1911
1912
1912
1912
1912
1912
1912
1912
1912
1912
1913
1914
1914
1914
1914
1914
1913
1913
1913
1913
1914
1915
1917
1918
1917
1917
1916
1916
1916
1916
1917
1917
1917
1916
1916
1916
1917
1918
1919
1920
1921
1921
1921
1921
1919
1920
1926
1941
1966
1998
2031
2054
2060
2043
2007
1964
1926
1904
1899
1907
1918
1926
1930
1932
1934
1934
1934
1933
1932
1933
1935
1938
1940
1941
1941
1939
1939
1939
1940
1942
1944
1945
1945
1944
1944
1943
1943
1944
1946
1949
1951
1952
1953
1953
1952
1951
1952
1953
1956
1958
1960
1962
1964
1966
1967
1969
1970
1971
1972
1973
1975
1977
1978
1979
1980
1981
1982
1982
1983
1984
1984
1983
1981
1979
1976
1973
1970
1969
1968
1967
1967
1967
1966
1966
1966
1966
1965
1965
1966
1967
1968
1968
1969
1970
1970
1971
1972
1973
1973
1973
1974
1975
1975
1975
1975
1975
1976
1977
1978
1979
1980
1981
1981
1981
1981
1981
1980
1979
1979
1980
1981
1982
1982
1983
1983
1982
1982
1982
1982
1982
1981
1981
1980
1978
1976
1976
1975
1976
1976
1977
1978
1978
1979
1980
1980
1981
1981
1980
1979
1978
1977
1977
1981
1990
2006
2030
2058
2086
2106
2111
2097
2067
2032
2001
1985
1984
1993
2006
2015
2018
2019
2018
2018
2017
2016
2015
2014
2014
2014
2014
2015
2016
2018
2019
2018
2016
2011
2005
2000
1997
1994
1991
1989
1987
1984
1982
1980
1979
1980
1981
1983
1984
1985
1984
1984
1983
1984
1984
1986
1988
1991
1994
1995
1996
1997
1997
1998
1999
2001
2002
2003
2004
2004
2005
2004
2004
2004
2004
2004
2004
2003
2001
1999
1996
1995
1995
1996
1999
2003
2007
2011
2013
2014
2015
2015
2014
2013
2013
2013
2014
2014
2014
2014
2013
2013
2013
2013
2014
2014
2014
2014
2013
2014
2014
2014
2013
2012
2011
2011
2011
2011
2012
2012
2011
2010
2008
2007
2006
2006
2006
2008
2008
2008
2008
2007
2006
2005
2004
2004
2005
2006
2007
2007
2006
2005
2004
2003
2003
2003
2003
2002
2002
2001
2000
1998
1997
1996
1996
1996
1996
1996
1996
1996
1996
1995
1995
1993
1990
1988
1987
1990
2001
2020
2046
2074
2100
2114
2109
2084
2047
2007
1978
1965
1968
1978
1987
1992
1992
1991
1990
1990
1991
1992
1992
1992
1992
1992
1992
1993
1994
1994
1994
1994
1994
1994
1994
1994
1994
1994
1995
1995
1995
1996
1996
1996
1996
1996
1997
1998
2000
2001
2002
2003
2003
2003
2004
2005
2006
2008
2011
2014
2016
2017
2017
2018
2018
2018
2019
2020
2021
2023
2024
2024
2023
2022
2019
2017
2014
2011
2007
2004
2001
1998
1996
1995
1993
1991
1989
1987
1986
1986
1986
1985
1985
1984
1984
1985
1986
1987
1987
1986
1985
1985
1985
1984
1983
1983
1984
1985
1985
1986
1986
1985
1984
1984
1983
1983
1983
1983
1983
1982
1982
1982
1982
1983
1982
1982
1982
1982
1982
1982
1983
1983
1982
1981
1980
1980
1980
1981
1982
1983
1984
1984
1983
1981
1980
1978
1977
1978
1978
1979
1979
1978
1976
1972
1968
1963
1960
1959
1959
1960
1961
1960
1959
1957
1955
1954
1954
1954
1954
1955
1955
1956
1956
1955
1954
1952
1951
1950
1950
1956
1969
1989
2015
2043
2066
2078
2070
2045
2006
1967
1939
1928
1931
1941
1951
1955
1956
1956
1956
1956
1956
1957
1957
1957
1956
1956
1955
1955
1956
1957
1958
1957
1956
1955
1953
1952
1953
1954
1955
1957
1957
1957
1957
1956
1956
1956
1956
1956
1957
1957
1959
1960
1961
1961
1962
1962
1963
1964
1966
1968
1969
1970
1971
1971
1971
1972
1973
1975
1978
1979
1980
1981
1980
1979
1977
1975
1973
1969
1966
1964
1962
1960
1958
1956
1953
1951
1950
1951
1952
1953
1953
1952
1952
1951
1950
1949
1949
1950
1950
1951
1952
1952
1953
1953
1953
1953
1953
1953
1953
1954
1954
1955
1955
1956
1956
1955
1955
1955
1956
1956
1957
1957
1957
1957
1956
1956
1957
1957
1957
1958
1958
1958
1959
1960
1960
1960
1960
1960
1960
1961
1961
1961
1960
1959
1958
1958
1958
1959
1959
1959
1959
1959
1959
1958
1958
1958
1958
1958
1958
1957
1956
1954
1955
1961
1974
1995
2022
2050
2073
2082
2071
2042
2001
1963
1937
1929
1934
1946
1956
1961
1962
1962
1961
1961
1961
1962
1962
1963
1964
1965
1966
1966
1967
1966
1966
1966
1966
1967
1968
1969
1969
1970
1969
1969
1969
1970
1971
1973
1974
1976
1977
1976
1976
1976
1977
1978
1980
1982
1984
1986
1989
1992
1994
1996
1997
1999
2001
2002
2004
2006
2007
2008
2009
2010
2010
2009
2009
2008
2007
2005
2003
2000
1997
1993
1990
1987
1986
1985
1985
1985
1986
1986
1986
1986
1986
1986
1986
1986
1987
1988
1988
1988
1988
1988
1988
1988
1988
1988
1988
1989
1990
1991
1991
1990
1989
1988
1988
1988
1989
1990
1990
1989
1989
1988
1989
1989
1990
1991
1993
1994
1995
1995
1995
1995
1995
1996
1998
2000
2001
2002
2003
2003
2003
2003
2003
2005
2006
2007
2009
2009
2010
2009
2009
2009
2008
2007
2007
2007
2007
2007
2007
2007
2006
2005
2003
2002
2001
2000
2000
2001
2001
2001
2000
2000
2000
2000
1999
1998
1996
1994
1994
1998
2008
2026
2048
2074
2099
2113
2110
2088
2052
2013
1982
1966
1967
1976
1986
1992
1994
1993
1992
1991
1990
1991
1991
1990
1990
1990
1990
1990
1990
1991
1992
1991
1991
1990
1989
1989
1989
1990
1991
1992
1991
1991
1991
1990
1990
1991
1992
1993
1994
1995
