1994
1996
1997
1999
2000
2001
2001
2000
1998
1995
1990
1985
1981
1978
1975
1972
1969
1966
1963
1960
1959
1958
1958
1958
1959
1960
1960
1959
1959
1958
1958
1958
1959
1960
1960
1961
1961
1960
1960
1959
1959
1959
1960
1962
1962
1963
1963
1963
1962
1962
1962
1962
1962
1963
1963
1963
1963
1963
1963
1962
1961
1961
1961
1961
1963
1964
1965
1965
1964
1963
1963
1963
1964
1964
1965
1965
1964
1963
1963
1962
1963
1963
1964
1965
1965
1965
1965
1965
1965
1964
1964
1964
1964
1964
1965
1965
1966
1966
1965
1965
1964
1964
1964
1965
1966
1966
1966
1966
1965
1965
1964
1965
1966
1967
1967
1968
1967
1967
1966
1966
1966
1966
1967
1968
1969
1968
1967
1966
1966
1967
1969
1972
1975
1977
1979
1979
1978
1976
1974
1972
1970
1969
1969
1969
1969
1970
1970
1969
1968
1967
1967
1967
1967
1968
1969
1969
1970
1971
1970
1967
1963
1961
1964
1977
2003
2042
2083
2111
2112
2082
2030
1974
1935
1923
1932
1951
1966
1972
1972
1969
1967
1966
1967
1967
1968
1968
1968
1968
1968
1967
1968
1969
1970
1971
1972
1972
1972
1972
1972
1972
1972
1973
1974
1975
1976
1976
1977
1977
1977
1977
1977
1979
1980
1982
1984
1985
1987
1988
1989
1990
1991
1993
1996
1999
2002
2005
2007
2009
2011
2012
2014
2015
2017
2019
2020
2020
2020
2017
2014
2010
2005
2000
1995
1990
1986
1982
1979
1975
1972
1970
1968
1967
1967
1967
1968
1968
1967
1967
1966
1966
1966
1966
1966
1966
1966
1966
1966
1966
1966
1967
1967
1967
1967
1967
1967
1967
1968
1968
1968
1968
1968
1968
1968
1969
1969
1970
1970
1970
1970
1970
1971
1971
1972
1973
1974
1974
1973
1973
1972
1972
1972
1972
1973
1973
1973
1973
1973
1973
1972
1971
1971
1972
1973
1974
1974
1974
1974
1974
1973
1973
1973
1973
1973
1974
1975
1975
1975
1974
1973
1972
1972
1972
1973
1973
1974
1974
1973
1972
1972
1973
1974
1977
1980
1982
1984
1984
1984
1982
1979
1977
1975
1975
1974
1974
1974
1973
1973
1973
1973
1973
1973
1973
1974
1974
1975
1976
1977
1977
1977
1975
1972
1969
1970
1978
1999
2035
2078
2116
2131
2113
2066
2007
1958
1934
1936
1953
1971
1979
1980
1977
1974
1972
1973
1974
1974
1975
1975
1974
1974
1974
1974
1975
1975
1976
1977
1978
1978
1978
1978
1977
1977
1978
1979
1979
1980
1981
1981
1982
1982
1982
1983
1984
1985
1986
1988
1989
1990
1991
1992
1993
1995
1997
1999
2002
2005
2008
2010
2012
2014
2015
2017
2019
2021
2024
2025
2026
2025
2022
2019
2014
2009
2003
1999
1994
1990
1987
1984
1981
1978
1975
1973
1972
1971
1971
1971
1971
1971
1971
1970
1970
1970
1969
1968
1968
1968
1968
1968
1968
1968
1968
1968
1968
1968
1969
1969
1970
1970
1971
1971
1970
1970
1969
1969
1970
1970
1970
1970
1970
1969
1969
1969
1969
1970
1970
1971
1971
1972
1972
1971
1971
1971
1971
1971
1972
1972
1972
1972
1972
1972
1971
1970
1970
1971
1971
1972
1973
1973
1973
1972
1972
1972
1973
1973
1975
1976
1977
1977
1977
1976
1976
1975
1975
1976
1976
1977
1977
1977
1978
1977
1977
1977
1976
1977
1977
1977
1978
1978
1977
1977
1976
1976
1976
1976
1976
1976
1976
1976
1978
1981
1986
1991
1995
1998
2000
2000
1999
1998
1996
1994
1992
1990
1989
1989
1989
1990
1990
1990
1990
1989
1989
1988
1988
1988
1989
1990
1990
1991
1991
1989
1987
1983
1982
1986
2000
2030
2070
2113
2139
2136
2101
2046
1991
1957
1949
1960
1977
1988
1991
1989
1985
1983
1983
1983
1983
1983
1983
1984
1984
1983
1983
1983
1983
1984
1985
1986
1986
1986
1985
1985
1984
1983
1983
1984
1984
1985
1985
1986
1986
1986
1986
1986
1987
1987
1987
1986
1986
1985
1985
1986
1987
1988
1989
1992
1995
1997
1999
2001
2002
2003
2005
2006
2007
2008
2010
2010
2010
2009
2006
2003
1998
1993
1989
1984
1980
1976
1973
1970
1966
1963
1960
1958
1957
1957
1958
1958
1958
1958
1957
1957
1956
1956
1956
1957
1957
1957
1957
1957
1956
1955
1955
1955
1955
1955
1956
1957
1957
1957
1957
1957
1956
1956
1956
1956
1957
1957
1957
1957
1957
1956
1956
1956
1956
1956
1957
1958
1958
1958
1958
1957
1957
1957
1957
1957
1957
1958
1958
1959
1958
1957
1956
1956
1956
1957
1958
1959
1959
1959
1959
1958
1958
1957
1958
1958
1959
1959
1960
1960
1960
1960
1959
1959
1959
1960
1961
1961
1961
1961
1961
1960
1960
1960
1960
1960
1961
1962
1961
1961
1960
1959
1960
1962
1965
1968
1971
1974
1975
1974
1973
1970
1968
1966
1965
1964
1964
1964
1963
1964
1964
1964
1963
1963
1963
1963
1964
1965
1966
1967
1968
1968
1967
1965
1962
1960
1961
1969
1990
2026
2069
2108
2125
2109
2062
2004
1954
1928
1929
1945
1963
1973
1974
1972
1969
1967
1967
1968
1969
1970
1970
1971
1971
1971
1971
1972
1973
1974
1974
1975
1975
1975
1975
1975
1976
1977
1978
1979
1980
1981
1981
1981
1981
1982
1983
1984
1986
1988
1990
1991
1992
1993
1995
1996
1998
2000
2003
2006
2009
2012
2014
2016
2017
2019
2021
2023
2025
2027
2028
2028
2026
2024
2020
2015
2011
2006
2001
1996
1991
1987
1983
1980
1978
1976
1974
1973
1973
1973
1973
1973
1973
1972
1972
1972
1972
1973
1973
1974
1975
1975
1975
1975
1974
1974
1974
1975
1976
1977
1977
1977
1977
1977
1977
1977
1978
1978
1979
1980
1981
1981
1981
1981
1981
1981
1981
1981
1982
1983
1983
1983
1983
1982
1981
1981
1982
1982
1983
1983
1983
1983
1982
1981
1981
1981
1981
1982
1982
1983
1983
1983
1982
1982
1981
1981
1981
1981
1981
1982
1982
1982
1982
1981
1981
1980
1980
1980
1980
1981
1982
1982
1981
1980
1980
1979
1980
1980
1981
1981
1982
1981
1981
1981
1980
1980
1980
1980
1981
1981
1981
1981
1981
1981
1981
1980
1980
1980
1981
1981
1981
1981
1981
1980
1980
1980
1980
1981
1981
1982
1982
1982
1981
1981
1980
1980
1979
1980
1980
1981
1982
1982
1982
1981
1980
1980
1980
1980
1981
1981
1982
1982
1982
1981
1981
1980
1980
1980
1981
1982
1982
1982
1982
1981
1980
1980
1980
1981
1982
1982
1982
1982
1982
1981
1981
1980
1980
1980
1981
1982
1982
1982
1982
1982
1981
1980
1980
1981
1981
1982
1982
1982
1981
1981
1980
1979
1979
1979
1981
1983
1985
1987
1989
1989
1989
1988
1987
1986
1985
1985
1984
1982
1981
1980
1979
1978
1978
1979
1979
1980
1980
1980
1979
1979
1979
1979
1979
1977
1975
1974
1976
1987
2012
2050
2095
2130
2139
2113
2061
2004
1960
1943
1948
1963
1976
1981
1980
1977
1975
1975
1975
1975
1975
1974
1974
1974
1975
1975
1976
1976
1977
1977
1977
1977
1977
1977
1977
1977
1978
1979
1980
1980
1980
1979
1979
1979
1980
1981
1982
1984
1985
1985
1986
1986
1987
1988
1989
1991
1993
1995
1997
1999
2001
2003
2004
2006
2008
2010
2012
2014
2016
2017
2017
2017
2017
2016
2015
2013
2010
2006
2002
1997
1993
1988
1984
1981
1978
1976
1974
1973
1972
1971
1970
1969
1969
1968
1968
1968
1969
1970
1970
1970
1970
1969
1969
1969
1969
1970
1970
1971
1971
1971
1971
1970
1970
1969
1970
1970
1971
1972
1972
1972
1972
1971
1971
1971
1971
1972
1972
1973
1973
1973
1973
1972
1971
1971
1971
1971
1972
1973
1973
1973
1972
1972
1971
1971
1971
1972
1972
1972
1972
1972
1972
1971
1971
1970
1970
1970
1971
1972
1972
1972
1972
1971
1971
1971
1971
1971
1971
1972
1972
1972
1972
1972
1971
1970
1970
1970
1971
1971
1972
1973
1973
1972
1971
1971
1971
1972
1973
1973
1973
1973
1973
1972
1971
1971
1972
1972
1973
1974
1974
1974
1974
1973
1973
1972
1972
1972
1973
1974
1974
1974
1974
1973
1973
1972
1973
1973
1974
1975
1975
1975
1974
1974
1973
1973
1973
1973
1974
1975
1975
1975
1974
1974
1974
1974
1974
1974
1974
1975
1975
1975
1975
1974
1974
1974
1974
1975
1975
1975
1975
1975
1975
1975
1974
1974
1974
1974
1974
1975
1975
1975
1975
1975
1974
1974
1974
1975
1975
1975
1975
1974
1974
1974
1976
1978
1980
1983
1984
1984
1984
1983
1981
1979
1977
1976
1975
1974
1974
1975
1975
1975
1974
1973
1973
1972
1972
1973
1973
1975
1976
1976
1974
1970
1967
1968
1978
2001
2039
2084
2121
2133
2111
2060
2002
1956
1936
1941
1957
1972
1978
1976
1973
1970
1968
1968
1969
1969
1970
1971
1971
1971
1971
1971
1971
1971
1971
1972
1972
1973
1974
1974
1975
1974
1974
1974
1975
1976
1977
1978
1978
1979
1979
1979
1980
1981
1981
1982
1983
1985
1987
1988
1989
1990
1991
1993
1994
1997
2000
2002
2005
2007
2008
2009
2011
2012
2013
2014
2015
2016
2016
2014
2011
2007
2003
1998
1994
1990
1986
1983
1980
1977
1974
1971
1969
1967
1967
1967
1967
1967
1968
1967
1967
1966
1966
1965
1965
1966
1966
1967
1968
1968
1968
1967
1967
1967
1967
1968
1968
1969
1969
1969
1969
1969
1968
1968
1967
1968
1969
1970
1970
1971
1970
1970
1970
1970
1970
1970
1970
1971
1971
1971
1971
1970
1970
1970
1970
1971
1971
1972
1972
1971
1971
1970
1970
1970
1970
1970
1970
1971
1971
1971
1971
1970
1970
1970
1970
1970
1971
1971
1971
1971
1971
1971
1970
1970
1971
1971
1971
1971
1972
1972
1972
1972
1971
1971
1971
1972
1972
1973
1973
1973
1972
1971
1970
1970
1970
1971
1972
1972
1972
1972
1971
1971
1970
1970
1969
1969
1970
1970
1970
1970
1969
1969
1968
1967
1967
1967
1967
1967
1968
1967
1967
1966
1965
1965
1965
1965
1965
1966
1966
1965
1965
1964
1964
1964
1964
1965
1965
1966
1965
1965
1964
1964
1963
1963
1963
1963
1964
1964
1964
1964
1963
1963
1962
1962
1962
1962
1963
1964
1964
1963
1963
1962
1961
1960
1960
1959
1960
1960
1962
1964
1966
1968
1970
1971
1971
1971
1970
1969
1968
1966
1964
1963
1962
1962
1962
1962
1963
1963
1963
1963
1963
1963
1963
1964
1964
1965
1965
1964
1961
1959
1959
1966
1985
2019
2060
2098
2115
2102
2058
2003
1953
1926
1924
1939
1956
1966
1968
1966
1963
1961
1961
1961
1961
1961
1961
1962
1963
1964
1964
1965
1964
1964
1964
1964
1964
1965
1966
1966
1967
1967
1967
1968
1968
1968
1969
1970
1972
1973
1974
1975
1975
1976
1977
1978
1979
1980
1982
1984
1986
1988
1990
1991
1993
1995
1997
2000
2002
2005
2007
2009
2010
2011
2012
2012
2012
2012
2012
2010
2008
2004
1999
1994
1989
1984
1979
1976
1973
1970
1968
1966
1964
1962
1961
1960
1961
1961
1961
1962
1961
1961
1961
1960
1960
1960
1960
1960
1960
1961
1962
1962
1961
1961
1960
1960
1960
1961
1962
1963
1964
1964
1964
1964
1964
1964
1965
1965
1966
1967
1967
1967
1967
1968
1968
1968
1968
1968
1968
1969
1969
1970
1970
1970
1969
1969
1969
1969
1970
1971
1972
1972
1971
1971
1970
1970
1970
1971
1972
1973
1973
1974
1973
1973
1972
1972
1972
1972
1973
1973
1973
1973
1973
1972
1972
1972
1972
1972
1973
1973
1974
1974
1974
1973
1972
1972
1972
1972
1973
1974
1974
1974
1973
1971
1970
1970
1972
1974
1978
1981
1983
1985
1984
1983
1981
1979
1977
1976
1975
1975
1975
1975
1974
1974
1974
1974
1974
1974
1974
1975
1975
1975
1975
1975
1975
1975
1974
1972
1969
1970
1976
1994
2026
2068
2109
2131
2121
2080
2023
1969
1938
1933
1946
1964
1974
1977
1975
1973
1971
1971
1972
1972
1972
1971
1970
1970
1970
1971
1972
1972
1972
1972
1972
1971
1970
1970
1971
1972
1973
1974
1974
1974
1974
1974
1974
1974
1974
1975
1976
1977
1978
1980
1981
1982
1983
1984
1986
1988
1990
1992
1994
1996
1998
2000
2002
2005
2008
2010
2012
2014
2016
2017
2017
2016
2014
2012
2009
2005
2001
1996
1991
1986
1981
1976
1972
1969
1966
1965
1964
1965
1965
1964
1963
1962
1961
1960
1959
1959
1959
1959
1959
1960
1961
1960
1960
1959
1959
1959
1960
1961
1961
1961
1960
1959
1959
1960
1961
1962
1962
1962
1962
1963
1963
1962
1962
1962
1962
1962
1963
1964
1965
1965
1965
1965
1965
1965
1965
1966
1966
1967
1967
1967
1967
1966
1965
1965
1966
1967
1969
1970
1971
1970
1970
1969
1969
1970
1970
1971
1972
1973
1973
1974
1975
1975
1975
1975
1975
1975
1976
1977
1977
1977
1977
1976
1975
1975
1978
1981
1985
1987
1989
1988
1986
1983
1981
1979
1978
1977
1977
1976
1976
1976
1976
1976
1976
1976
1976
1976
1977
1977
1978
1979
1979
1979
1979
1978
1976
1972
1970
1973
1987
2016
2056
2099
2127
2124
2089
2033
1976
1938
1927
1939
1958
1974
1980
1980
1977
1976
1975
1976
1977
1977
1977
1977
1978
1978
1979
1980
1982
1984
1986
1987
1987
1987
1986
1986
1986
1987
1988
1989
1989
1990
1990
1990
1990
1990
1991
1992
1993
1995
1996
1997
1998
1998
1999
1999
2000
2002
2004
2006
2009
2011
2014
2016
2017
2019
2020
2022
2024
2025
2027
2027
2026
2023
2019
2014
2008
2002
1997
1992
1987
1982
1977
1973
1969
1966
1964
1963
1963
1963
1963
1963
1962
1961
1960
1960
1960
1960
1961
1962
1962
1962
1961
1960
1959
1958
1958
1959
1960
1961
1962
1962
1962
1961
1961
1960
1961
1961
1962
1963
1963
1963
1963
1963
1963
1963
1963
1963
1964
1965
1966
1966
1966
1966
1965
1964
1964
1964
1965
1966
1966
1967
1967
1966
1966
1965
1965
1966
1967
1967
1967
1967
1966
1966
1965
1965
1966
1966
1967
1968
1968
1968
1967
1967
1966
1966
1966
1967
1967
1968
1969
1969
1969
1968
1968
1967
1967
1968
1968
1969
1970
1970
1970
1970
1970
1969
1969
1970
1970
1971
1971
1971
1970
1969
1968
1968
1970
1973
1976
1980
1982
1982
1981
1979
1976
1974
1972
1972
1971
1971
1971
1971
1970
1970
1969
1969
1969
1969
1970
1970
1971
1971
1971
1971
1971
1970
1968
1964
1962
1963
1976
2008
2058
2117
2162
2172
2138
2072
2001
1950
1931
1938
1955
1967
1970
1968
1964
1963
1963
1964
1965
1965
1964
1964
1964
1964
1964
1965
1966
1967
1967
1968
1967
1967
1967
1967
1968
1968
1969
1971
1972
1973
1973
1973
1973
1973
1974
1975
1977
1978
1979
1980
1981
1981
1983
1984
1986
1989
1992
1995
1997
2000
2002
2004
2006
2008
2011
2013
2016
2018
2020
2021
2020
2019
2016
2013
2009
2004
2000
1995
1990
1986
1981
1977
1974
1971
1970
1969
1968
1968
1968
1968
1968
1967
1967
1966
1966
1967
1967
1968
1969
1969
1969
1968
1968
1967
1967
1968
1968
1969
1969
1969
1968
1968
1967
1967
1967
1967
1968
1969
1969
1969
1969
1968
1968
1967
1967
1967
1968
1969
1970
1970
1970
1969
1969
1968
1968
1969
1969
1970
1971
1971
1971
1971
1970
1970
1970
1971
1971
1972
1972
1972
1972
1971
1971
1970
1970
1971
1972
1972
1973
1973
1972
1972
1972
1972
1972
1973
1973
1973
1974
1973
1973
1972
1972
1972
1973
1974
1974
1975
1975
1974
1974
1973
1973
1972
1972
1972
1973
1973
1974
1974
1974
1973
1972
1972
1971
1972
1972
1973
1973
1973
1973
1973
1973
1974
1975
1976
1977
1978
1978
1977
1976
1975
1974
1974
1973
1973
1974
1974
1974
1973
1973
1972
1972
1972
1971
1971
1971
1971
1971
1971
1971
1970
1969
1969
1969
1969
1970
1970
1970
1970
1969
1969
1969
1969
1969
1969
1969
1969
1969
1969
1969
1968
1967
1967
1967
1967
1967
1967
1967
1967
1966
1966
1965
1965
1965
1965
1965
1965
1965
1965
1964
1963
1963
1963
1963
1963
1964
1964
1965
1965
1964
1963
1962
1961
1961
1962
1965
1968
1971
1973
1973
1973
1972
1970
1969
1968
1968
1967
1967
1966
1965
1965
1965
1965
1965
1965
1966
1966
1967
1967
1967
1967
1967
1966
1964
1961
1960
1963
1976
2006
2053
2107
2149
2159
2127
2066
2000
1951
1932
1939
1955
1967
1970
1968
1964
1962
1962
1963
1964
1964
1964
1963
1963
1963
1963
1964
1965
1966
1967
1967
1967
1967
1967
1967
1968
1968
1970
1971
1972
1973
1973
1973
1973
1973
1974
1975
1976
1978
1979
1980
1980
1981
1981
1982
1983
1986
1988
1991
1993
1996
1998
1999
2001
2003
2006
2008
2011
2013
2015
2016
2016
2016
2015
2013
2011
2008
2004
1999
1995
1990
1986
1982
1978
1974
1971
1969
1968
1968
1967
1967
1966
1965
1965
1964
1964
1964
1964
1965
1965
1966
1965
1964
1964
1963
1963
1963
1964
1964
1965
1965
1964
1964
1964
1963
1963
1964
1964
1964
1965
1965
1965
1964
1964
1963
1963
1964
1964
1965
1965
1965
1965
1964
1964
1964
1963
1964
1964
1964
1964
1965
1964
1964
1964
1964
1964
1964
1965
1965
1966
1966
1966
1966
1966
1966
1967
1967
1968
1968
1968
1968
1968
1967
1967
1967
1967
1967
1968
1969
1969
1969
1969
1969
1969
1969
1970
1970
1970
1970
1970
1969
1968
1968
1967
1967
1966
1966
1966
1966
1966
1966
1965
1965
1963
1962
1961
1960
1960
1960
1959
1959
1958
1957
1957
1957
1957
1957
1958
1958
1958
1958
1958
1958
1958
1959
1959
1959
1960
1961
1962
1962
1962
1961
1961
1961
1961
1962
1963
1964
1965
1965
1965
1965
1964
1964
1964
1965
1966
1967
1967
1967
1967
1967
1967
1967
1968
1969
1970
1970
1971
1971
1971
1971
1972
1972
1972
1972
1973
1974
1974
1975
1975
1974
1974
1974
1974
1975
1975
1975
1975
1975
1974
1975
1976
1979
1982
1985
1987
1987
1987
1985
1984
1982
1980
1979
1978
1978
1979
1979
1980
1979
1979
1978
1978
1977
1977
1978
1979
1980
1980
1980
1978
1974
1971
1971
1980
2005
2048
2099
2143
2160
2137
2083
2018
1967
1943
1946
1962
1977
1983
1981
1977
1974
1973
1973
1974
1974
1975
1976
1976
1977
1977
1976
1976
1975
1975
1976
1977
1978
1979
1979
1979
1979
1978
1979
1979
1980
1981
1982
1983
1983
1983
1983
1984
1984
1985
1986
1987
1989
1990
1991
1992
1993
1994
1996
1998
2000
2003
2006
2009
2011
2013
2014
2015
2016
2018
2020
2021
2022
2022
2020
2017
2013
2008
2003
1999
1994
1990
1987
1984
1980
1977
1975
1972
1970
1969
1969
1969
1969
1969
1969
1968
1968
1967
1967
1967
1968
1968
1969
1969
1969
1968
1968
1967
1967
1967
1968
1969
1969
1969
1969
1969
1969
1968
1968
1968
1968
1969
1969
1969
1969
1969
1969
1969
1969
1969
1970
1970
1971
1971
1971
1970
1970
1969
1969
1969
1970
1970
1971
1971
1971
1970
1969
1969
1969
1969
1970
1970
1971
1971
1971
1971
1970
1970
1969
1969
1970
1970
1971
1971
1971
1971
1970
1970
1970
1970
1970
1971
1972
1972
1972
1972
1972
1971
1970
1970
1970
1971
1972
1973
1973
1973
1972
1972
1972
1971
1971
1972
1972
1973
1974
1974
1972
1971
1969
1969
1970
1971
1972
1972
1972
1972
1971
1970
1970
1971
1971
1972
1973
1973
1972
1972
1971
1971
1971
1971
1972
1973
1973
1973
1973
1972
1972
1971
1971
1972
1972
1973
1973
1973
1973
1973
1973
1973
1972
1972
1972
1973
1974
1974
1975
1975
1975
1974
1974
1973
1974
1974
1975
1975
1975
1974
1974
1974
1974
1974
1974
1974
1974
1975
1975
1975
1975
1974
1974
1975
1977
1979
1982
1985
1986
1985
1984
1982
1980
1978
1977
1977
1977
1977
1977
1977
1976
1975
1975
1976
1977
1978
1979
1979
1979
1979
1978
1977
1974
1970
1968
1971
1983
2010
2050
2096
2130
2136
2107
2053
1995
1954
1939
1946
1963
1975
1978
1975
1970
1967
1967
1968
1969
1970
1969
1969
1968
1968
1968
1968
1968
1968
1968
1969
1969
1970
1970
1970
1970
1969
1969
1970
1971
1972
1973
1973
1973
1973
1973
1973
1974
1976
1977
1979
1980
1980
1981
1982
1983
1984
1987
1990
1994
1998
2001
2003
2005
2007
2009
2011
2014
2016
2018
2019
2020
2020
2019
2018
2015
2012
2008
2003
1999
1995
1991
1987
1983
1979
1976
1974
1973
1972
1972
1971
1970
1969
1968
1968
1967
1968
1968
1969
1970
1970
1970
1970
1970
1969
1968
1968
1969
1969
1970
1971
1972
1972
1972
1971
1971
1971
1972
1973
1974
1974
1975
1974
1974
1974
1974
1974
1975
1976
1977
1978
1979
1979
1979
1978
1977
1977
1978
1979
1980
1980
1980
1980
1979
1978
1978
1978
1979
1979
1980
1980
1980
1979
1978
1978
1978
1978
1978
1979
1979
1979
1979
1979
1978
1977
1977
1977
1978
1979
1979
1980
1980
1979
1979
1979
1979
1979
1979
1980
1980
1981
1981
1981
1979
1978
1978
1978
1978
1980
1980
1981
1981
1981
1980
1979
1979
1979
1980
1981
1981
1981
1981
1981
1981
1980
1980
1980
1980
1981
1981
1982
1982
1982
1981
1980
1980
1980
1981
1981
1982
1982
1982
1982
1982
1981
1981
1981
1982
1982
1983
1983
1982
1982
1982
1982
1982
1982
1983
1983
1984
1984
1984
1984
1983
1982
1982
1982
1983
1984
1984
1985
1985
1984
1984
1983
1982
1981
1981
1981
1982
1982
1983
1982
1982
1981
1981
1980
1980
1980
1981
1983
1985
1987
1989
1990
1990
1989
1988
1987
1986
1984
1983
1981
1981
1981
1983
1983
1984
1983
1982
1981
1981
1982
1982
1982
1982
1983
1983
1983
1980
1978
1978
1986
2008
2043
2085
2122
2138
2121
2076
2021
1972
1947
1947
1960
1976
1984
1985
1982
1979
1978
1978
1978
1977
1977
1976
1976
1977
1977
1978
1979
1979
1980
1980
1979
1979
1979
1978
1979
1980
1981
1981
1981
1981
1980
1980
1981
1982
1983
1984
1984
1984
1985
1985
1985
1986
1987
1989
1991
1994
1996
1998
2000
2002
2004
2005
2007
2008
2009
2011
2014
2016
2019
2020
2021
2020
2020
2019
2018
2016
2012
2007
2001
1996
1991
1987
1984
1980
1977
1975
1973
1971
1969
1967
1966
1965
1965
1965
1966
1966
1965
1964
1963
1962
1960
1960
1960
1960
1961
1962
1962
1961
1960
1959
1958
1958
1958
1959
1960
1961
1961
1960
1960
1959
1959
1960
1961
1961
1962
1962
1962
1962
1962
1962
1963
1964
1965
1965
1966
1965
1965
1965
1966
1966
1967
1968
1968
1969
1970
1971
1971
1971
1970
1969
1969
1969
1969
1969
1968
1968
1969
1970
1971
1971
1971
1971
1971
1971
1972
1972
1972
1972
1972
1971
1971
1970
1970
1971
1972
1974
1974
1974
1973
1972
1971
1971
1972
1972
1973
1973
1974
1975
1974
1974
1973
1972
1972
1973
1974
1974
1974
1974
1973
1973
1973
1973
1974
1974
1974
1975
1975
1975
1975
1974
1973
1973
1974
1975
1976
1976
1975
1974
1973
1972
1972
1972
1973
1974
1974
1975
1975
1974
1974
1973
1973
1973
1974
1974
1975
1975
1976
1976
1977
1977
1977
1977
1977
1977
1978
1979
1980
1980
1980
1980
1979
1980
1982
1984
1987
1989
1990
1990
1989
1988
1986
1984
1983
1982
1982
1982
1981
1981
1981
1981
1981
1981
1981
1981
1982
1982
1982
1983
1983
1983
1980
1978
1977
1981
1994
2021
2058
2097
2124
2124
2094
2045
1994
1960
1950
1958
1973
1984
1987
1985
1981
1979
1978
1978
1978
1978
1978
1978
1978
1978
1978
1977
1977
1977
1977
1978
1978
1979
1979
1978
1977
1977
1977
1977
1978
1979
1979
1980
1980
1980
1980
1981
1981
1982
1984
1985
1987
1988
1989
1989
1991
1992
1993
1995
1997
1999
2002
2004
2007
2009
2010
2012
2013
2015
2017
2018
2019
2019
2019
2017
2014
2010
2006
2002
1998
1995
1991
1987
1984
1980
1977
1975
1973
1973
1973
1972
1972
1971
1970
1969
1967
1967
1967
1967
1968
1968
1968
1967
1967
1966
1966
1966
1967
1967
1968
1969
1969
1970
1970
1970
1970
1970
1971
1971
1972
1973
1973
1972
1972
1972
1971
1971
1971
1972
1972
1973
1974
1974
1974
1973
1972
1972
1972
1972
1973
1974
1975
1975
1975
1974
1973
1973
1973
1974
1975
1976
1976
1976
1976
1975
1975
1975
1975
1975
1976
1977
1977
1977
1977
1976
1976
1975
1975
1975
1976
1977
1977
1978
1977
1977
1976
1975
1975
1976
1977
1977
1978
1977
1976
1975
1973
1973
1975
1978
1982
1985
1987
1988
1987
1985
1983
1981
1980
1978
1977
1977
1976
1976
1976
1977
1977
1977
1977
1977
1978
1978
1978
1977
1977
1977
1978
1978
1978
1976
1973
1971
1974
1988
2016
2054
2094
2119
2115
2081
2030
1978
1944
1936
1946
1963
1976
1980
1979
1976
1974
1973
1974
1975
1975
1975
1975
1975
1975
1975
1975
1976
1976
1976
1976
1976
1975
1975
1976
1976
1977
1978
1978
1979
1979
1980
1981
1982
1982
1982
1982
1983
1984
1986
1987
1987
1988
1989
1990
1992
1995
1997
1999
2001
2003
2005
2007
2009
2012
2014
2016
2018
2020
2021
2022
2021
2020
2018
2014
2011
2006
2001
1996
1990
1984
1978
1973
1971
1969
1968
1967
1966
1964
1963
1962
1961
1960
1960
1960
1960
1961
1962
1962
1962
1962
1962
1962
1962
1963
1963
1963
1964
1964
1965
1965
1965
1964
1964
1964
1965
1966
1967
1968
1969
1969
1968
1967
1967
1967
1968
1969
1970
1970
1971
1970
1970
1970
1969
1969
1969
1969
1969
1969
1969
1970
1969
1969
1969
1968
1968
1969
1969
1969
1969
1969
1968
1968
1968
1968
1968
1968
1967
1967
1967
1968
1968
1969
1968
1967
1967
1967
1967
1968
1969
1969
1968
1967
1967
1967
1968
1969
1969
1969
1969
1968
1967
1967
1966
1965
1965
1965
1966
1967
1968
1969
1971
1972
1973
1973
1973
1972
1971
1970
1968
1965
1961
1959
1957
1957
1958
1959
1959
1957
1956
1957
1958
1960
1961
1960
1959
1959
1961
1964
1966
1964
1960
1957
1958
1972
2002
2044
2086
2111
2105
2066
2011
1958
1927
1923
1937
1955
1965
1967
1963
1960
1959
1961
1962
1962
1962
1962
1963
1964
1965
1965
1964
1963
1963
1963
1965
1966
1966
1966
1964
1964
1964
1965
1966
1967
1968
1968
1969
1969
1969
1969
1969
1969
1969
1970
1971
1971
1971
1971
1972
1974
1976
1977
1978
1978
1979
1982
1986
1988
1990
1991
1991
1990
1991
1991
1992
1992
1992
1992
1990
1987
1982
1977
1971
1966
1962
1959
1956
1953
1951
1949
1948
1948
1947
1946
1945
1945
1945
1946
1947
1949
1950
1950
1950
1950
1950
1951
1951
1952
1953
1953
1953
1953
1952
1951
1951
1952
1954
1955
1956
1955
1953
1952
1951
1952
1953
1955
1956
1957
1956
1955
1954
1954
1956
1958
1959
1960
1959
1958
1958
1959
1960
1960
1960
1959
1959
1959
1960
1961
1961
1962
1961
1961
1961
1961
1961
1961
1962
1963
1963
1963
1962
1961
1960
1961
1963
1964
1965
1965
1965
1964
1963
1964
1964
1965
1965
1966
1966
1967
1967
1967
1967
1967
1967
1968
1968
1968
1967
1967
1968
1969
1969
1969
1968
1967
1966
1967
1969
1971
1972
1972
1972
1971
1970
1970
1970
1971
1971
1971
1971
1971
1971
1972
1973
1974
1975
1975
1975
1974
1974
1974
1975
1977
1977
1978
1977
1976
1976
1975
1976
1977
1979
1981
1983
1985
1986
1987
1988
1987
1986
1984
1982
1980
1978
1978
1978
1978
1978
1978
1977
1977
1977
1978
1979
1979
1979
1979
1979
1980
1981
1981
1979
1976
1973
1973
1979
1995
2024
2062
2100
2121
2114
2078
2026
1977
1947
1943
1955
1972
1983
1986
1984
1981
1979
1979
1979
1979
1980
1980
1981
1981
1981
1980
1979
1979
1980
1982
1985
1988
1989
1990
1990
1990
1991
1992
1993
1994
1995
1995
1996
1997
1998
1998
1999
2000
2001
2002
2004
2005
2006
2008
2009
2010
2011
2012
2014
2017
2019
2022
2024
2026
2027
2028
2029
2030
2031
2034
2036
2037
2037
2036
2032
2028
2023
2019
2015
2012
2009
2005
2001
1997
1993
1989
1986
1984
1983
1982
1982
1982
1983
1984
1983
1983
1983
1983
1983
1984
1984
1984
1983
1983
1982
1981
1981
1982
1982
1983
1984
1984
1984
1983
1982
1982
1983
1984
1985
1986
1986
1986
1985
1985
1984
1984
1984
1984
1985
1985
1986
1986
1987
1986
1985
1985
1984
1985
1986
1987
1988
1988
1988
1987
1986
1986
1985
1985
1986
1987
1988
1988
1989
1988
1988
1987
1987
1987
1987
1988
1990
1990
1990
1990
1988
1988
1987
1988
1988
1989
1989
1990
1989
1989
1989
1989
1989
1989
1990
1990
1990
1991
1991
1991
1990
1990
1989
1990
1990
1991
1991
1991
1990
1990
1989
1988
1987
1986
1987
1989
1991
1995
1997
1998
1998
1997
1995
1993
1991
1990
1989
1989
1988
1987
1987
1986
1986
1986
1986
1986
1986
1987
1987
1987
1986
1985
1985
1986
1988
1988
1988
1985
1982
1984
1992
2013
2048
2088
2120
2131
2111
2065
2012
1968
1947
1950
1965
1982
1991
1994
1993
1992
1991
1991
1991
1990
1990
1990
1991
1992
1993
1994
1995
1995
1994
1993
1993
1993
1994
1995
1996
1996
1996
1996
1996
1996
1997
1997
1998
1999
2000
2000
2000
2000
2000
2001
2003
2004
2005
2007
2009
2011
2013
2015
2017
2018
2020
2022
2025
2029
2033
2035
2037
2038
2038
2038
2038
2038
2037
2036
2033
2028
2022
2016
2009
2003
1998
1994
1991
1988
1986
1983
1981
1979
1977
1976
1975
1974
1974
1974
1974
1974
1974
1973
1973
1972
1972
1972
1973
1973
1973
1973
1973
1972
1971
1970
1970
1970
1970
1970
1971
1971
1971
1971
1970
1970
1969
1969
1969
1970
1971
1972
1971
1970
1969
1969
1969
1969
1970
1970
1970
1969
1969
1968
1968
1968
1968
1968
1968
1968
1968
1968
1968
1968
1967
1966
1966
1966
1966
1967
1967
1967
1966
1965
1964
1963
1963
1962
1962
1963
1963
1963
1963
1962
1962
1961
1961
1961
1961
1961
1962
1962
1961
1960
1958
1957
1958
1960
1963
1967
1969
1971
1970
1969
1967
1964
1962
1960
1959
1958
1958
1957
1957
1957
1956
1956
1956
1956
1956
1957
1958
1958
1958
1958
1959
1959
1959
1958
1956
1954
1954
1960
1977
2009
2053
2096
2120
2111
2069
2010
1955
1924
1920
1934
1952
1963
1965
1962
1959
1958
1959
1960
1960
1960
1960
1959
1959
1960
1961
1963
1964
1964
1964
1964
1963
1963
1964
1965
1966
1967
1969
1969
1970
1970
1971
1971
1972
1973
1974
1975
1977
1978
1979
1980
1981
1981
1982
1984
1986
1988
1991
1994
1997
1999
2002
2004
2006
2009
2011
2013
2015
2017
2019
2019
2019
2018
2015
2012
2008
2003
1998
1993
1988
1984
1979
1975
1971
1969
1967
1967
1966
1966
1965
1964
1964
1963
1962
1963
1963
1964
1964
1965
1964
1964
1963
1963
1963
1964
1965
1967
1968
1970
1971
1971
1970
1968
1966
1965
1965
1965
1965
1964
1963
1963
1964
1965
1966
1967
1967
1966
1965
1965
1966
1966
1965
1964
1963
1962
1963
1964
1965
1967
1967
1967
1966
1965
1965
1965
1965
1967
1968
1969
1970
1970
1969
1969
1969
1969
1970
1970
1971
1971
1971
1971
1971
1971
1972
1972
1973
1973
1974
1974
1975
1974
1973
1971
1969
1969
1971
1973
1975
1975
1974
1973
1972
1973
1974
1975
1976
1975
1975
1974
1973
1973
1973
1973
1973
1973
1974
1975
1975
1975
1975
1974
1975
1975
1976
1976
1977
1977
1977
1977
1977
1977
1977
1978
1978
1979
1979
1978
1977
1977
1976
1977
1977
1977
1977
1977
1976
1976
1977
1979
1981
1982
1981
1979
1976
1973
1972
1972
1973
1974
1974
1973
1972
1970
1968
1967
1967
1968
1969
1972
1975
1977
1977
1977
1976
1974
1972
1971
1970
1969
1967
1966
1965
1964
1963
1962
1962
1962
1962
1963
1963
1963
1962
1961
1961
1961
1962
1961
1959
1956
1955
1959
1973
2005
2050
2098
2130
2129
2092
2032
1971
1932
1921
1930
1947
1958
1961
1959
1956
1954
1954
1953
1953
1953
1953
1953
1954
1955
1956
1957
1956
1956
1955
1954
1954
1955
1957
1958
1958
1959
1959
1959
1959
1959
1960
1961
1961
1963
1965
1966
1967
1967
1966
1967
1968
1970
1972
1973
1975
1976
1978
1980
1983
1985
1988
1991
1995
1997
2000
2001
2002
2002
2003
2005
2006
2007
2008
2008
2006
2002
1997
1991
1985
1980
1976
1973
1970
1968
1966
1965
1963
1962
1960
1959
1958
1958
1959
1959
1960
1960
1960
1960
1959
1959
1958
1959
1959
1960
1961
1962
1962
1962
1962
1961
1961
1961
1962
1963
1963
1964
1964
1964
1964
1964
1965
1965
1965
1965
1966
1966
1967
1967
1967
1967
1967
1967
1968
1968
1969
1969
1969
1969
1968
1968
1967
1967
1967
1968
1968
1969
1969
1969
1969
1969
1969
1969
1969
1970
1972
1973
1973
1972
1972
1971
1971
1971
1971
1972
1972
1973
1973
1974
1973
1972
1972
1971
1972
1974
1975
1975
1975
1974
1973
1972
1973
1973
1975
1975
1976
1976
1975
1975
1974
1974
1975
1975
1976
1976
1977
1977
1978
1978
1978
1978
1978
1978
1979
1979
1980
1980
1980
1980
1979
1979
1979
1979
1980
1982
1983
1983
1983
1983
1983
1983
1983
1984
1985
1986
1986
1986
1986
1986
1986
1986
1986
1987
1988
1988
1988
1989
1989
1991
1993
1996
1998
2000
2001
2001
2000
1999
1998
1996
1995
1994
1993
1992
1993
1994
1994
1995
1995
1995
1995
1994
1994
1994
1996
1997
1999
2000
1999
1996
1992
1991
1994
2008
2037
2078
2123
2153
2155
2122
2067
2010
1972
1959
1969
1986
2000
2005
2004
2002
1999
1998
1997
1997
1997
1997
1998
1999
1999
1999
1999
1998
1998
1999
1999
2000
2001
2001
2002
2002
2002
2002
2002
2002
2002
2003
2005
2006
2007
2008
2008
2008
2008
2009
2010
2012
2013
2015
2016
2017
2018
2019
2021
2023
2026
2029
2032
2035
2036
2038
2039
2040
2042
2043
2044
2045
2045
2045
2043
2040
2036
2031
2026
2020
2016
2011
2007
2004
2000
1997
1993
1990
1987
1985
1984
1984
1984
1984
1984
1983
1983
1982
1981
1981
1981
1981
1981
1981
1981
1981
1981
1981
1981
1981
1981
1980
1980
1981
1981
1982
1982
1981
1980
1979
1979
1980
1981
1982
1982
1982
1982
1981
1981
1981
1982
1982
1983
1983
1983
1983
1983
1983
1983
1984
1984
1984
1985
1985
1985
1985
1984
1983
1982
1981
1982
1983
1984
1984
1985
1984
1983
1983
1982
1983
1984
1985
1985
1986
1986
1985
1985
1984
1984
1985
1985
1986
1987
1987
1987
1987
1987
1986
1986
1986
1986
1987
1987
1987
1987
1987
1986
1986
1987
1987
1989
1989
1989
1988
1985
1983
1981
1982
1984
1988
1991
1994
1996
1997
1996
1993
1991
1988
1986
1984
1984
1984
1984
1984
1984
1984
1984
1983
1983
1983
1983
1983
1984
1984
1985
1985
1985
1984
1981
1978
1977
1980
1995
2025
2067
2113
2144
2145
2112
2054
1996
1956
1944
1954
1972
1985
1989
1987
1984
1982
1981
1982
1983
1983
1983
1982
1982
1982
1982
1982
1982
1982
1983
1984
1985
1985
1984
1984
1983
1983
1983
1984
1985
1985
1985
1985
1985
1985
1985
1985
1986
1988
1989
1990
1991
1991
1991
1992
1992
1992
1993
1994
1996
1998
2001
2003
2005
2007
2009
2010
2012
2013
2015
2016
2016
2016
2014
2011
2007
2002
1997
1992
1987
1982
1977
1973
1969
1965
1963
1960
1959
1958
1958
1957
1957
1957
1956
1955
1954
1954
1954
1954
1955
1955
1955
1955
1954
1953
1953
1953
1954
1955
1955
1956
1956
1956
1956
1955
1955
1955
1956
1957
1957
1958
1958
1958
1958
1958
1959
1959
1960
1960
1961
1961
1962
1961
1961
1961
1961
1961
1962
1963
1963
1963
1963
1963
1962
1961
1961
1961
1962
1963
1964
1964
1964
1964
1964
1963
1963
1964
1964
1965
1966
1966
1966
1965
1965
1964
1964
1965
1966
1967
1967
1967
1967
1966
1966
1966
1966
1966
1967
1967
1968
1968
1967
1967
1967
1967
1968
1968
1968
1968
1968
1968
1968
1969
1969
1969
1969
1969
1969
1970
1971
1972
1972
1972
1971
1971
1971
1972
1972
1973
1973
1974
1975
1975
1976
1976
1977
1978
1982
1986
1991
1995
1996
1996
1994
1992
1990
1990
1990
1990
1990
1991
1991
1990
1990
1989
1989
1989
1989
1990
1991
1992
1991
1991
1990
1990
1990
1990
1988
1986
1986
1992
2008
2038
2078
2119
2143
2137
2099
2044
1990
1957
1950
1961
1978
1989
1993
1991
1988
1987
1988
1988
1989
1988
1987
1987
1987
1988
1989
1990
1991
1991
1991
1991
1991
1990
1990
1990
1991
1991
1992
1992
1992
1992
1992
1992
1993
1993
1994
1996
1997
1998
1999
1999
1999
2000
2001
2003
2005
2007
2009
2012
2014
2016
2019
2020
2022
2024
2026
2028
2031
2033
2034
2035
2034
2033
2032
2030
2027
2024
2019
2014
2009
2003
1998
1993
1988
1983
1980
1977
1974
1973
1971
1970
1969
1967
1967
1966
1966
1966
1966
1965
1965
1964
1963
1963
1963
1963
1963
1963
1963
1963
1963
1962
1962
1962
1962
1963
1963
1964
1965
1966
1967
1967
1967
1967
1966
1966
1966
1966
1966
1966
1966
1966
1966
1965
1964
1964
1964
1965
1966
1966
1966
1965
1964
1964
1964
1964
1965
1966
1966
1966
1966
1966
1965
1965
1966
1966
1967
1967
1968
1968
1968
1967
1967
1966
1966
1967
1969
1970
1970
1969
1968
1966
1964
1964
1964
1964
1965
1966
1966
1965
1964
1962
1961
1959
1959
1960
1963
1967
1970
1972
1973
1972
1970
1968
1966
1964
1963
1963
1963
1963
1962
1962
1962
1961
1961
1961
1962
1962
1963
1964
1965
1966
1966
1965
1965
1964
1961
1960
1962
1972
1995
2035
2083
2126
2143
2125
2074
2011
1960
1935
1937
1954
1970
1977
1977
1974
1972
1972
1973
1974
1974
1974
1973
1973
1972
1973
1974
1976
1977
1978
1977
1977
1976
1975
1976
1977
1978
1979
1980
1981
1981
1981
1981
1981
1981
1982
1983
1985
1987
1988
1989
1990
1990
1991
1992
1994
1996
1999
2001
2004
2006
2008
2010
2011
2014
2016
2019
2022
2024
2025
2026
2027
2027
2026
2023
2020
2016
2010
2005
1999
1994
1989
1985
1981
1977
1975
1973
1972
1972
1972
1972
1971
1970
1969
1968
1968
1968
1969
1970
1971
1970
1970
1970
1969
1969
1970
1970
1970
1971
1972
1972
1972
1972
1971
1971
1971
1971
1972
1973
1974
1974
1974
1973
1973
1973
1973
1973
1973
1973
1973
1974
1974
1974
1974
1974
1974
1974
1975
1975
1975
1976
1975
1975
1974
1973
1973
1972
1973
1973
1973
1973
1973
1972
1972
1971
1970
1969
1968
1967
1965
1964
1962
1960
1958
1956
1954
1952
1949
1947
1944
1941
1939
1936
1933
1931
1929
1928
1928
1927
1926
1925
1924
1923
1923
1923
1924
1925
1926
1926
1927
1927
1926
1926
1925
1925
1925
1926
1927
1930
1932
1935
1937
1939
1940
1940
1939
1938
1937
1936
1936
1936
1935
1935
1934
1934
1934
1934
1935
1936
1937
1937
1937
1937
1937
1937
1938
1939
1939
1937
1934
1933
1935
1947
1974
2016
2064
2101
2110
2081
2026
1964
1920
1903
1910
1928
1942
1948
1948
1946
1944
1943
1943
1943
1943
1943
1944
1945
1946
1947
1948
1948
1949
1950
1952
1953
1954
1955
1956
1957
1959
1960
1960
1960
1961
1961
1962
1964
1966
1968
1969
1970
1970
1970
1971
1971
1972
1973
1974
1975
1976
1978
1980
1982
1984
1986
1988
1991
1994
1996
1999
2001
2003
2004
2006
2006
2006
2005
2004
2001
1997
1993
1989
1983
1977
1972
1967
1964
1962
1960
1958
1956
1955
1954
1953
1953
1953
1954
1954
1954
1954
1954
1954
1954
1954
1954
1954
1955
1956
1956
1957
1957
1957
1957
1956
1956
1955
1956
1956
1957
1958
1959
1958
1958
1957
1957
1957
1958
1958
1959
1960
1960
1959
1959
1958
1957
1958
1958
1958
1959
1959
1959
1959
1959
1959
1958
1958
1957
1957
1957
1957
1957
1957
1956
1956
1956
1956
1956
1957
1957
1958
1958
1958
1957
1956
1955
1955
1955
1956
1957
1957
1957
1956
1955
1954
1954
1954
1954
1955
1956
1956
1956
1955
1954
1954
1954
1954
1954
1955
1955
1956
1956
1956
1956
1955
1955
1955
1956
1956
1956
1956
1956
1956
1956
1956
1956
1957
1957
1958
1958
1958
1958
1958
1957
1957
1957
1957
1958
1959
1960
1960
1960
1959
1958
1958
1959
1960
1960
1961
1960
1960
1960
1960
1960
1960
1961
1961
1962
1963
1963
1963
1963
1962
1962
1961
1960
1960
1961
1962
1965
1968
1971
1973
1974
1973
1973
1972
1971
1970
1969
1968
1967
1967
1966
1966
1965
1965
1966
1967
1968
1968
1968
1968
1967
1967
1968
1968
1968
1967
1965
1963
1965
1975
1999
2038
2082
2117
2126
2101
2049
1991
1948
1931
1937
1953
1966
1970
1968
1965
1964
1964
1964
1964
1963
1962
1961
1961
1962
1963
1964
1965
1966
1965
1965
1964
1964
1964
1965
1967
1968
1968
1968
1968
1968
1968
1969
1970
1970
1971
1973
1974
1975
1976
1976
1976
1977
1977
1979
1981
1983
1985
1987
1990
1992
1994
1996
1998
2000
2003
2006
2008
2009
2010
2011
2012
2012
2013
2012
2011
2008
2004
1999
1994
1988
1984
1980
1977
1974
1972
1970
1968
1966
1965
1964
1963
1962
1962
1963
1963
1964
1963
1963
1963
1962
1963
1963
1964
1964
1964
1964
1964
1964
1964
1963
1963
1963
1964
1964
1964
1964
1964
1964
1964
1965
1965
1965
1965
1965
1965
1966
1966
1967
1967
1966
1966
1965
1965
1966
1967
1967
1967
1966
1965
1964
1964
1964
1964
1965
1965
1966
1967
1967
1967
1966
1965
1965
1965
1966
1966
1967
1968
1969
1970
1971
1971
1972
1972
1973
1974
1974
1974
1975
1975
1975
1974
1974
1974
1974
1976
1977
1977
1977
1977
1976
1975
1975
1976
1977
1978
1978
1979
1979
1978
1978
1977
1978
1978
1979
1979
1979
1979
1979
1978
1978
1978
1978
1977
1978
1978
1979
1979
1979
1978
1977
1976
1976
1976
1976
1977
1976
1976
1975
1974
1974
1974
1973
1974
1974
1975
1975
1975
1974
1973
1973
1972
1972
1972
1973
1974
1975
1975
1975
1974
1973
1973
1972
1973
1973
1974
1975
1975
1975
1975
1975
1975
1975
1975
1974
1975
1975
1975
1976
1975
1975
1975
1975
1976
1976
1976
1976
1976
1976
1976
1977
1977
1977
1976
1976
1977
1977
1978
1979
1978
1978
1977
1975
1975
1975
1976
1979
1981
1984
1985
1985
1984
1983
1982
1981
1980
1979
1978
1977
1977
1975
1974
1973
1973
1973
1973
1974
1974
1974
1974
1974
1974
1975
1975
1975
1973
1971
1972
1979
1999
2032
2073
2108
2123
2106
2063
2009
1965
1943
1944
1957
1971
1977
1977
1974
1972
1972
1973
1973
1973
1973
1972
1972
1972
1973
1974
1975
1976
1976
1976
1976
1976
1976
1976
1977
1978
1978
1979
1979
1979
1979
1979
1980
1980
1981
1982
1983
1984
1985
1986
1986
1986
1987
1989
1991
1993
1995
1997
1998
2000
2002
2003
2005
2007
2010
2012
2015
2017
2019
2020
2020
2020
2019
2019
2018
2016
2013
2010
2006
2001
1997
1992
1988
1985
1982
1980
1978
1976
1974
1973
1972
1971
1971
1971
1972
1972
1972
1972
1972
1971
1970
1970
1970
1970
1970
1971
1972
1973
1973
1972
1971
1971
1970
1971
1972
1973
1973
1973
1973
1973
1973
1972
1973
1973
1974
1975
1975
1976
1976
1976
1975
1974
1974
1974
1975
1976
1976
1977
1977
1977
1976
1976
1975
1975
1974
1975
1976
1976
1977
1977
1977
1977
1976
1977
1977
1978
1979
1980
1980
1980
1980
1979
1979
1979
1980
1981
1981
1982
1982
1981
1981
1981
1981
1982
1982
1983
1983
1984
1984
1984
1984
1983
1983
1983
1984
1984
1985
1986
1986
1986
1985
1985
1985
1985
1985
1986
1986
1987
1988
1988
1987
1986
1986
1986
1986
1987
1988
1988
1988
1988
1988
1988
1988
1988
1989
1990
1990
1990
1990
1989
1989
1988
1988
1988
1989
1989
1990
1990
1990
1990
1990
1989
1989
1989
1989
1990
1991
1991
1991
1991
1990
1989
1989
1990
1991
1992
1992
1992
1992
1992
1991
1991
1991
1991
1991
1992
1992
1992
1992
1992
1991
1991
1991
1990
1990
1990
1991
1992
1994
1996
1997
1998
1998
1997
1997
1996
1995
1993
1992
1990
1989
1987
1986
1986
1986
1987
1987
1988
1988
1987
1986
1986
1985
1986
1987
1987
1986
1983
1982
1983
1993
2014
2048
2088
2121
2132
2111
2066
2012
1969
1950
1953
1968
1983
1990
1991
1988
1986
1985
1985
1984
1984
1984
1984
1984
1985
1986
1987
1987
1987
1986
1986
1986
1986
1987
1988
1989
1989
1989
1988
1988
1988
1989
1990
1991
1991
1992
1993
1993
1994
1994
1994
1995
1996
1997
1999
2001
2003
2004
2006
2007
2008
2010
2012
2014
2017
2020
2022
2024
2026
2027
2027
2028
2029
2029
2029
2028
2026
2022
2018
2014
2009
2004
1998
1994
1990
1987
1985
1983
1982
1980
1978
1977
1976
1976
1977
1977
1977
1977
1977
1976
1975
1974
1974
1975
1975
1976
1976
1975
1975
1975
1974
1974
1974
1974
1974
1975
1975
1976
1976
1976
1976
1975
1975
1976
1976
1977
1977
1978
1978
1978
1978
1978
1978
1979
1980
1980
1980
1980
1980
1979
1979
1979
1979
1979
1979
1979
1979
1979
1979
1978
1978
1977
1977
1978
1979
1979
1979
1979
1979
1978
1977
1976
1976
1976
1977
1977
1978
1978
1978
1977
1976
1976
1977
1977
1978
1978
1978
1977
1976
1975
1975
1975
1975
1976
1976
1977
1977
1977
1977
1976
1975
1975
1975
1976
1976
1977
1977
1978
1977
1977
1976
1975
1975
1975
1975
1976
1976
1975
1974
1974
1973
1973
1973
1973
1973
1973
1973
1974
1974
1974
1973
1973
1973
1974
1974
1975
1974
1974
1973
1971
1971
1970
1970
1971
1971
1971
1970
1970
1969
1968
1967
1967
1967
1968
1969
1969
1970
1969
1969
1969
1968
1968
1969
1969
1970
1970
1971
1971
1971
1971
1970
1970
1971
1972
1973
1974
1974
1975
1975
1975
1975
1975
1975
1974
1975
1975
1977
1979
1982
1984
1986
1987
1988
1988
1987
1986
1985
1983
1982
1981
1980
1979
1979
1980
1981
1981
1982
1982
1981
1981
1981
1981
1981
1982
1982
1981
1979
1977
1979
1987
2007
2041
2080
2113
2125
2107
2062
2009
1966
1946
1949
1964
1978
1985
1985
1982
1980
1979
1979
1979
1979
1978
1978
1979
1980
1981
1981
1981
1981
1981
1981
1981
1981
1981
1983
1984
1985
1986
1986
1986
1985
1985
1985
1986
1987
1988
1989
1990
1990
1990
1991
1991
1992
1993
1995
1997
1999
2001
2003
2004
2005
2007
2009
2012
2016
2019
2021
2023
2024
2025
2026
2027
2028
2028
2028
2028
2026
2023
2019
2014
2009
2005
2001
1997
1994
1991
1988
1986
1983
1982
1980
1979
1978
1978
1979
1979
1980
1980
1979
1979
1978
1978
1978
1979
1980
1981
1981
1981
1981
1980
1980
1980
1980
1981
1982
1983
1984
1984
1984
1984
1984
1984
1984
1985
1985
1986
1986
1986
1985
1985
1984
1984
1985
1985
1985
1985
1985
1985
1985
1984
1984
1983
1983
1983
1983
1983
1983
1983
1983
1983
1982
1982
1982
1983
1983
1983
1983
1983
1983
1983
1982
1982
1982
1982
1983
1983
1984
1984
1984
1984
1984
1983
1983
1983
1984
1984
1985
1985
1984
1984
1983
1983
1983
1983
1984
1985
1985
1986
1986
1985
1985
1984
1984
1985
1986
1987
1987
1987
1987
1986
1986
1985
1986
1986
1986
1987
1987
1987
1987
1986
1985
1984
1985
1987
1990
1993
1995
1997
1996
1994
1992
1990
1989
1988
1987
1987
1986
1986
1985
1985
1984
1984
1984
1984
1985
1986
1986
1986
1986
1986
1986
1985
1983
1981
1980
1983
1994
2017
2052
2092
2123
2130
2106
2059
2006
1966
1950
1955
1970
1984
1989
1989
1987
1985
1985
1985
1986
1987
1987
1986
1985
1985
1985
1986
1987
1989
1990
1990
1990
1990
1990
1990
1991
1992
1993
1995
1996
1996
1997
1996
1996
1997
1998
1999
2000
2002
2003
2004
2005
2005
2006
2007
2009
2010
2013
2015
2017
2020
2022
2024
2026
2029
2031
2033
2036
2038
2040
2042
2043
2043
2042
2041
2040
2038
2036
2033
2029
2025
2020
2016
2012
2009
2007
2006
2005
2004
2004
2003
2004
2004
2005
2005
2005
2005
2006
2006
2006
2006
2005
2004
2003
2002
2003
2004
2004
2005
2005
2005
2004
2004
2004
2003
2003
2004
2005
2005
2006
2006
2006
2005
2005
2004
2004
2004
2005
2005
2005
2005
2005
2004
2004
2003
2003
2003
2003
2004
2004
2003
2003
2002
2001
2001
2001
2001
2001
2001
2001
2001
2001
2000
2000
1999
2000
2000
2001
2002
2002
2001
2000
1999
1999
2001
2003
2007
2010
2011
2011
2010
2008
2005
2002
2000
1998
1998
1997
1997
1997
1997
1996
1996
1995
1994
1993
1993
1994
1995
1995
1995
1995
1995
1995
1994
1993
1989
1987
1989
2001
2027
2064
2106
2135
2137
2107
2055
2001
1962
1948
1956
1974
1989
1995
1995
1993
1990
1990
1990
1991
1992
1991
1991
1991
1991
1991
1992
1993
1994
1995
1995
1995
1994
1994
1994
1995
1995
1996
1997
1998
1998
1999
1999
1999
1999
2000
2001
2002
2003
2004
2005
2005
2006
2006
2007
2009
2010
2012
2014
2017
2019
2021
2023
2025
2028
2030
2032
2034
2036
2037
2038
2038
2037
2034
2030
2025
2020
2015
2009
2004
1999
1994
1990
1986
1982
1980
1979
1978
1978
1977
1976
1975
1974
1972
1971
1970
1970
1970
1971
1970
1970
1970
1969
1969
1968
1968
1968
1969
1969
1970
1970
1970
1970
1969
1969
1970
1971
1972
1972
1973
1972
1972
1971
1971
1970
1971
1971
1972
1973
1973
1974
1973
1973
1973
1973
1973
1973
1974
1974
1975
1975
1975
1975
1974
1974
1974
1974
1975
1975
1976
1976
1976
1975
1975
1975
1975
1975
1976
1977
1977
1977
1977
1976
1976
1976
1976
1977
1977
1978
1978
1978
1977
1977
1977
1977
1977
1978
1978
1979
1979
1979
1979
1978
1977
1976
1976
1977
1980
1983
1986
1988
1989
1989
1987
1986
1984
1982
1982
1981
1980
1979
1978
1978
1977
1977
1977
1977
1978
1978
1978
1978
1978
1978
1977
1977
1978
1978
1979
1977
1975
1973
1974
1983
2005
2041
2084
2120
2131
2108
2059
2003
1959
1940
1944
1960
1975
1981
1981
1979
1977
1976
1976
1975
1975
1975
1976
1976
1977
1978
1979
1979
1979
1978
1977
1977
1977
1977
1978
1979
1979
1980
1979
1979
1979
1980
1980
1981
1982
1982
1983
1984
1984
1985
1986
1986
1987
1989
1990
1992
1994
1996
1997
1999
2001
2003
2005
2008
2010
2013
2015
2017
2018
2020
2020
2020
2020
2019
2018
2016
2012
2007
2002
1996
1991
1986
1982
1980
1977
1975
1974
1972
1971
1970
1969
1968
1968
1968
1968
1969
1969
1969
1968
1968
1967
1967
1967
1967
1968
1968
1969
1969
1969
1968
1968
1968
1968
1968
1969
1969
1970
1970
1970
1969
1968
1968
1969
1969
1970
1971
1971
1971
1970
1970
1970
1970
1969
1970
1970
1970
1971
1971
1971
1971
1970
1970
1970
1970
1971
1971
1972
1972
1972
1972
1971
1971
1971
1971
1972
1973
1973
1973
1973
1972
1972
1972
1972
1972
1973
1973
1973
1974
1974
1973
1973
1973
1973
1973
1974
1974
1974
1974
1974
1973
1973
1973
1973
1973
1974
1974
1975
1975
1974
1974
1973
1973
1973
1973
1974
1974
1974
1974
1973
1973
1973
1973
1974
1974
1974
1975
1975
1975
1975
1974
1974
1974
1974
1974
1975
1975
1975
1975
1975
1975
1974
1974
1974
1975
1975
1976
1976
1976
1975
1974
1974
1974
1974
1975
1976
1976
1976
1976
1976
1975
1975
1975
1975
1976
1976
1976
1976
1976
1975
1975
1974
1974
1974
1975
1976
1977
1977
1976
1975
1974
1974
1974
1975
1976
1976
1977
1977
1977
1977
1976
1975
1975
1975
1975
1975
1977
1979
1981
1983
1985
1985
1985
1984
1984
1984
1984
1984
1983
1982
1980
1979
1978
1978
1979
1980
1981
1981
1981
1981
1981
1981
1982
1983
1984
1985
1984
1982
1981
1983
1995
2021
2059
2103
2137
2144
2118
2068
2013
1973
1957
1962
1977
1989
1993
1993
1991
1989
1989
1989
1989
1989
1989
1990
1990
1991
1992
1992
1993
1993
1993
1993
1992
1992
1992
1993
1994
1994
1995
1995
1995
1995
1994
1993
1994
1995
1997
1999
2000
2000
2000
2000
2001
2001
2003
2004
2006
2008
2009
2011
2012
2013
2015
2017
2019
2022
2024
2026
2028
2029
2030
2031
2032
2033
2033
2033
2032
2030
2027
2022
2017
2011
2006
2002
1998
1994
1991
1987
1984
1982
1980
1979
1979
1978
1978
1978
1978
1979
1979
1978
1978
1977
1976
1976
1976
1976
1976
1976
1976
1976
1977
1976
1976
1976
1976
1976
1976
1977
1977
1977
1977
1976
1976
1976
1976
1977
1977
1977
1978
1977
1977
1976
1976
1976
1976
1977
1977
1977
1977
1977
1976
1975
1975
1975
1975
1976
1977
1977
1976
1975
1975
1974
1974
1975
1975
1975
1975
1975
1975
1975
1974
1974
1973
1973
1974
1974
1974
1975
1974
1974
1974
1973
1973
1973
1973
1974
1974
1974
1974
1974
1974
1973
1973
1973
1974
1974
1974
1975
1974
1974
1974
1973
1973
1973
1973
1974
1974
1974
1974
1974
1974
1973
1973
1973
1973
1973
1974
1974
1974
1974
1973
1972
1971
1972
1974
1978
1981
1983
1984
1983
1982
1980
1978
1977
1976
1976
1975
1975
1974
1973
1973
1972
1972
1972
1972
1973
1974
1974
1974
1974
1973
1973
1974
1974
1973
1972
1970
1971
1980
2000
2036
2079
2119
2137
2122
2076
2018
1966
1940
1939
1954
1970
1979
1980
1977
1975
1974
1974
1974
1974
1974
1973
1973
1973
1974
1975
1976
1976
1977
1977
1977
1977
1977
1977
1978
1979
1980
1980
1981
1981
1981
1980
1980
1980
1981
1981
1983
1984
1985
1986
1987
1987
1988
1989
1990
1992
1994
1996
1999
2001
2002
2004
2007
2009
2012
2015
2018
2019
2020
2020
2020
2020
2019
2017
2015
2011
2006
2000
1994
1988
1982
1976
1970
1966
1963
1962
1960
1959
1958
1957
1955
1953
1952
1951
1950
1950
1950
1949
1949
1948
1947
1947
1946
1947
1947
1947
1948
1948
1948
1948
1947
1947
1947
1947
1948
1948
1948
1949
1949
1949
1948
1948
1948
1948
1949
1949
1950
1950
1950
1950
1950
1950
1950
1950
1951
1952
1952
1953
1953
1952
1952
1951
1951
1951
1951
1952
1953
1953
1953
1953
1952
1952
1951
1952
1952
1953
1954
1954
1954
1954
1954
1953
1953
1953
1953
1954
1955
1956
1956
1955
1955
1954
1954
1955
1955
1956
1956
1956
1956
1956
1956
1956
1956
1956
1957
1958
1958
1959
1958
1957
1956
1956
1955
1956
1956
1957
1958
1958
1958
1958
1958
1958
1958
1958
1958
1959
1960
1961
1961
1961
1961
1960
1961
1961
1962
1962
1963
1963
1964
1963
1963
1963
1962
1963
1963
1964
1965
1965
1965
1965
1965
1964
1964
1964
1964
1965
1965
1966
1966
1966
1965
1965
1965
1965
1965
1966
1967
1968
1968
1968
1967
1967
1966
1966
1967
1967
1968
1969
1969
1969
1969
1968
1968
1968
1968
1969
1970
1970
1971
1971
1970
1970
1969
1970
1970
1971
1972
1972
1972
1972
1972
1971
1971
1970
1970
1971
1973
1976
1979
1981
1982
1981
1980
1979
1977
1977
1976
1976
1975
1974
1973
1972
1972
1972
1972
1973
1973
1974
1974
1973
1973
1973
1973
1973
1973
1972
1970
1970
1973
1984
2009
2047
2088
2120
2125
2097
2048
1994
1956
1943
1949
1964
1976
1980
1979
1976
1975
1975
1976
1976
1975
1975
1975
1975
1976
1976
1977
1977
1977
1977
1977
1977
1977
1977
1977
1977
1978
1978
1978
1978
1978
1978
1978
1978
1978
1979
1980
1981
1982
1982
1982
1982
1983
1984
1986
1987
1989
1991
1992
1994
1995
1997
1999
2001
2004
2006
2009
2011
2013
2014
2015
2016
2017
2017
2018
2017
2015
2012
2008
2004
1999
1994
1989
1985
1982
1979
1977
1975
1973
1972
1970
1968
1968
1967
1967
1967
1967
1967
1966
1966
1965
1965
1965
1965
1965
1966
1966
1967
1967
1967
1966
1966
1966
1966
1966
1967
1967
1968
1968
1968
1968
1968
1968
1968
1968
1968
1969
1969
1969
1968
1968
1968
1967
1967
1968
1968
1969
1969
1969
1969
1968
1968
1968
1968
1968
1969
1970
1970
1970
1970
1970
1969
1969
1969
1970
1971
1971
1972
1972
1971
1971
1970
1970
1970
1970
1971
1971
1972
1972
1971
1971
1970
1970
1970
1971
1972
1972
1972
1972
1972
1971
1971
1971
1971
1972
1972
1973
1973
1974
1973
1973
1972
1972
1972
1973
1974
1974
1975
1975
1975
1974
1974
1974
1974
1974
1975
1975
1976
1976
1976
1976
1976
1976
1976
1977
1977
1978
1978
1979
1979
1979
1979
1979
1979
1980
1980
1981
1981
1981
1982
1981
1981
1981
1982
1983
1984
1984
1985
1985
1985
1985
1985
1984
1984
1985
1986
1987
1987
1988
1988
1987
1987
1986
1986
1986
1987
1987
1987
1987
1986
1985
1984
1984
1985
1988
1991
1994
1997
1998
1997
1996
1994
1993
1991
1991
1991
1991
1991
1991
1990
1989
1988
1988
1987
1987
1987
1987
1987
1988
1988
1989
1988
1987
1984
1981
1982
1989
2007
2039
2079
2117
2137
2127
2086
2031
1981
1952
1949
1962
1978
1987
1989
1986
1983
1981
1981
1982
1982
1983
1983
1983
1983
1982
1982
1983
1983
1984
1984
1984
1984
1984
1983
1983
1983
1984
1984
1985
1986
1986
1986
1986
1986
1987
1988
1989
1990
1992
1993
1994
1995
1995
1996
1997
1999
2001
2003
2005
2007
2009
2010
2012
2014
2015
2018
2020
2022
2025
2027
2028
2029
2029
2028
2027
2025
2022
2019
2014
2009
2004
1998
1993
1988
1984
1980
1978
1976
1975
1974
1973
1972
1971
1970
1969
1969
1970
1970
1971
1971
1971
1971
1970
1969
1969
1969
1969
1969
1970
1970
1971
1971
1971
1970
1970
1970
1971
1971
1972
1972
1973
1974
1974
1974
1974
1974
1974
1975
1976
1976
1977
1977
1976
1976
1976
1976
1977
1977
1978
1978
1978
1978
1977
1977
1976
1976
1976
1976
1977
1978
1978
1978
1977
1977
1976
1976
1977
1977
1978
1978
1978
1978
1977
1977
1978
1979
1980
1981
1981
1982
1982
1981
1981
1980
1980
1980
1980
1981
1982
1983
1982
1982
1982
1981
1981
1981
1980
1981
1982
1984
1987
1990
1992
1993
1993
1992
1990
1989
1988
1987
1986
1985
1984
1983
1982
1981
1981
1982
1983
1984
1984
1984
1984
1983
1983
1983
1984
1987
1988
1988
1985
1982
1982
1988
2007
2041
2084
2124
2143
2130
2086
2028
1976
1948
1946
1961
1979
1991
1995
1993
1991
1990
1990
1991
1991
1991
1992
1992
1992
1992
1992
1992
1991
1990
1991
1991
1992
1993
1993
1993
1993
1993
1993
1993
1993
1994
1995
1995
1996
1996
1997
1997
1998
1999
2000
2000
2002
2003
2005
2007
2008
2010
2012
2014
2016
2018
2021
2024
2027
2030
2033
2035
2037
2038
2039
2040
2041
2041
2040
2038
2034
2029
2023
2017
2011
2005
2000
1996
1993
1990
1987
1984
1982
1980
1978
1978
1977
1978
1978
1978
1978
1978
1977
1977
1976
1976
1976
1977
1977
1977
1977
1976
1975
1975
1975
1975
1976
1977
1977
1977
1978
1977
1977
1977
1977
1977
1977
1978
1979
1979
1979
1979
1979
1979
1979
1979
1980
1981
1981
1982
1983
1984
1984
1984
1984
1984
1984
1985
1985
1985
1985
1984
1984
1984
1983
1984
1984
1985
1985
1985
1985
1985
1984
1983
1983
1983
1984
1984
1985
1985
1985
1984
1984
1983
1983
1983
1983
1983
1983
1982
1982
1982
1983
1984
1987
1990
1993
1994
1994
1993
1991
1988
1986
1984
1983
1981
1981
1981
1981
1982
1982
1981
1981
1980
1979
1979
1979
1980
1980
1981
1982
1982
1982
1980
1976
1973
1973
1979
1999
2034
2078
2121
2142
2130
2084
2024
1969
1940
1937
1952
1970
1980
1981
1978
1975
1973
1973
1974
1975
1976
1976
1976
1976
1976
1976
1976
1976
1977
1977
1978
1978
1978
1978
1977
1977
1977
1978
1978
1979
1979
1980
1979
1979
1979
1979
1980
1981
1982
1983
1984
1985
1986
1987
1987
1988
1989
1991
1994
1997
2000
2002
2005
2006
2008
2010
2012
2015
2016
2018
2019
2020
2019
2017
2014
2009
2004
1999
1994
1989
1985
1980
1975
1971
1968
1966
1964
1963
1963
1962
1961
1961
1960
1960
1960
1960
1960
1960
1961
1961
1962
1961
1961
1960
1959
1958
1958
1958
1958
1959
1959
1959
1958
1958
1958
1957
1958
1958
1959
1960
1961
1961
1961
1960
1960
1959
1959
1960
1961
1961
1962
1962
1961
1961
1960
1960
1960
1961
1962
1962
1962
1962
1961
1961
1960
1961
1961
1962
1962
1963
1963
1963
1962
1962
1961
1961
1961
1962
1963
1964
1964
1964
1964
1963
1963
1963
1963
1964
1964
1965
1965
1965
1965
1965
1965
1965
1965
1966
1966
1966
1966
1966
1966
1966
1966
1965
1965
1965
1966
1967
1967
1967
1967
1967
1966
1966
1967
1967
1968
1969
1969
1969
1969
1968
1968
1968
1968
1969
1969
1970
1970
1970
1970
1969
1968
1968
1968
1969
1971
1971
1972
1971
1970
1969
1969
1969
1970
1970
1971
1971
1971
1971
1970
1970
1970
1969
1969
1970
1970
1971
1971
1971
1971
1970
1970
1969
1969
1970
1970
1971
1972
1972
1971
1971
1970
1970
1970
1971
1972
1972
1973
1973
1972
1972
1972
1972
1972
1972
1973
1973
1974
1974
1973
1972
1972
1971
1972
1972
1973
1974
1974
1974
1974
1974
1973
1973
1973
1973
1974
1974
1975
1975
1974
1974
1973
1972
1972
1972
1972
1973
1975
1977
1980
1981
1982
1983
1982
1981
1980
1979
1978
1977
1975
1974
1973
1973
1973
1973
1974
1974
1975
1975
1974
1974
1974
1974
1974
1975
1974
1971
1969
1970
1978
2000
2036
2080
2119
2136
2119
2072
2014
1965
1941
1942
1956
1970
1976
1976
1973
1971
1971
1971
1971
1971
1971
1971
1971
1972
1973
1973
1973
1973
1973
1973
1973
1973
1974
1974
1975
1975
1976
1976
1976
1976
1976
1977
1977
1978
1979
1980
1981
1982
1982
1983
1983
1984
1985
1986
1988
1990
1992
1993
1995
1996
1997
1999
2002
2005
2008
2010
2012
2014
2015
2016
2016
2017
2018
2019
2019
2018
2016
2012
2008
2003
1998
1993
1988
1985
1982
1979
1977
1975
1973
1971
1969
1967
1967
1967
1968
1968
1969
1969
1968
1967
1967
1966
1966
1967
1967
1968
1969
1969
1969
1969
1968
1968
1968
1968
1969
1970
1970
1970
1970
1969
1969
1968
1968
1969
1969
1970
1971
1971
1971
1970
1969
1969
1970
1970
1971
1971
1971
1971
1971
1970
1970
1969
1969
1970
1970
1971
1971
1971
1971
1971
1970
1970
1970
1970
1971
1971
1971
1972
1971
1971
1971
1971
1971
1971
1971
1972
1972
1972
1972
1972
1972
1971
1971
1972
1972
1973
1973
1973
1973
1973
1972
1971
1971
1972
1972
1973
1973
1973
1973
1973
1972
1972
1972
1972
1973
1973
1973
1973
1973
1973
1972
1972
1972
1973
1973
1974
1975
1975
1975
1974
1973
1973
1973
1974
1974
1974
1974
1974
1974
1974
1974
1974
1974
1974
1975
1975
1975
1975
1974
1974
1973
1973
1974
1974
1975
1976
1977
1977
1977
1976
1976
1975
1976
1976
1977
1977
1977
1977
1978
1978
1978
1978
1978
1979
1980
1980
1980
1980
1980
1979
1979
1979
1980
1981
1982
1982
1982
1982
1981
1980
1980
1980
1980
1981
1981
1982
1982
1982
1981
1980
1980
1980
1979
1980
1980
1980
1980
1980
1979
1979
1980
1982
1984
1987
1989
1990
1989
1988
1986
1984
1982
1980
1979
1979
1978
1978
1978
1978
1978
1977
1977
1977
1977
1977
1978
1978
1979
1979
1978
1975
1972
1971
1975
1990
2019
2059
2102
2130
2130
2097
2042
1986
1949
1938
1948
1965
1977
1980
1978
1974
1972
1972
1973
1974
1974
1975
1975
1974
1974
1974
1974
1973
1973
1973
1974
1975
1976
1976
1976
1976
1976
1976
1976
1977
1978
1979
1980
1981
1981
1981
1981
1981
1982
1983
1984
1986
1987
1988
1989
1990
1990
1991
1993
1995
1998
2001
2004
2006
2008
2010
2012
2014
2015
2017
2019
2021
2023
2024
2024
2023
2020
2017
2013
2009
2005
2001
1997
1993
1989
1985
1982
1979
1977
1976
1976
1975
1974
1973
1972
1971
1971
1971
1971
1972
1972
1973
1973
1973
1972
1972
1971
1971
1971
1971
1972
1973
1973
1973
1973
1972
1972
1972
1972
1973
1974
1974
1974
1974
1973
1972
1972
1972
1973
1973
1974
1975
1975
1975
1975
1975
1974
1974
1974
1974
1974
1974
1974
1973
1973
1972
1971
1970
1970
1970
1970
1971
1971
1971
1970
1970
1969
1969
1970
1970
1971
1971
1971
1971
1971
1970
1970
1970
1970
1970
1970
1971
1971
1971
1970
1970
1970
1970
1970
1971
1971
1971
1972
1971
1971
1971
1970
1970
1970
1971
1972
1972
1973
1973
1972
1972
1971
1971
1971
1972
1972
1973
1973
1973
1973
1972
1972
1972
1972
1972
1973
1973
1974
1974
1973
1973
1973
1972
1972
1972
1973
1974
1974
1974
1974
1974
1973
1973
1973
1974
1974
1975
1975
1975
1974
1974
1973
1973
1973
1974
1974
1974
1975
1975
1974
1974
1974
1973
1974
1974
1975
1976
1976
1976
1975
1975
1974
1974
1974
1974
1974
1975
1975
1976
1975
1975
1974
1974
1974
1974
1974
1974
1974
1975
1977
1979
1981
1982
1983
1983
1983
1982
1981
1980
1978
1976
1975
1974
1973
1974
1974
1975
1975
1975
1974
1974
1973
1972
1972
1974
1975
1976
1975
1972
1970
1969
1976
1994
2027
2068
2107
2127
2114
2072
2016
1967
1940
1938
1952
1967
1976
1977
1975
1972
1970
1970
1970
1970
1970
1970
1971
1971
1972
1972
1972
1972
1972
1972
1972
1973
1974
1975
1976
1976
1976
1975
1975
1975
1976
1977
1978
1978
1979
1980
1980
1980
1981
1981
1982
1983
1984
1986
1987
1989
1990
1991
1992
1994
1996
1998
2001
2004
2007
2009
2011
2012
2013
2014
2016
2018
2019
2020
2020
2018
2015
2011
2007
2002
1998
1993
1989
1985
1982
1979
1976
1973
1971
1970
1969
1968
1968
1968
1968
1968
1967
1967
1966
1966
1966
1966
1967
1967
1967
1967
1967
1967
1966
1966
1966
1966
1967
1967
1967
1968
1968
1968
1967
1967
1967
1968
1968
1969
1970
1970
1970
1969
1969
1969
1969
1970
1971
1972
1972
1972
1972
1971
1971
1970
1970
1971
1971
1971
1971
1971
1970
1970
1970
1970
1970
1970
1971
1971
1972
1972
1972
1971
1971
1970
1971
1971
1971
1972
1972
1972
1972
1971
1971
1970
1970
1971
1972
1972
1972
1972
1972
1972
1972
1972
1972
1973
1974
1975
1976
1976
1976
1975
1974
1974
1975
1976
1977
1978
1979
1978
1978
1978
1977
1977
1977
1977
1977
1978
1978
1978
1977
1976
1975
1975
1974
1974
1975
1975
1976
1976
1976
1975
1975
1974
1974
1974
1975
1975
1976
1976
1976
1976
1976
1975
1975
1976
1977
1978
1979
1979
1979
1979
1978
1978
1978
1978
1978
1979
1980
1980
1980
1980
1979
1979
1979
1980
1980
1981
1982
1982
1983
1983
1982
1982
1982
1982
1983
1984
1984
1985
1985
1984
1984
1984
1984
1985
1985
1986
1986
1986
1986
1986
1985
1984
1984
1983
1984
1986
1988
1990
1992
1993
1993
1992
1991
1990
1989
1988
1987
1986
1984
1983
1983
1982
1982
1982
1983
1983
1983
1983
1983
1983
1983
1983
1983
1982
1980
1978
1978
1983
1999
2027
2066
2106
2131
2127
2092
2039
1986
1951
1942
1953
1969
1981
1985
1984
1981
1979
1979
1979
1980
1979
1979
1978
1978
1979
1979
1980
1981
1981
1982
1981
1981
1981
1981
1981
1982
1983
1984
1984
1984
1984
1984
1984
1985
1986
1987
1988
1988
1988
1988
1989
1990
1991
1992
1994
1995
1997
1999
2000
2002
2003
2005
2007
2010
2013
2016
2018
2021
2022
2023
2024
2025
2026
2026
2027
2026
2024
2022
2018
2013
2007
2002
1997
1992
1988
1985
1982
1980
1978
1976
1974
1972
1970
1969
1969
1969
1970
1970
1970
1970
1969
1969
1968
1968
1969
1969
1970
1970
1970
1969
1969
1968
1968
1969
1969
1970
1971
1971
1971
1971
1970
1970
1969
1970
1970
1971
1971
1972
1972
1972
1971
1971
1971
1972
1972
1973
1973
1973
1973
1972
1972
1972
1971
1971
1971
1972
1972
1973
1973
1973
1972
1971
1971
1970
1971
1971
1972
1972
1972
1971
1971
1970
1970
1970
1970
1971
1971
1972
1972
1972
1971
1971
1971
1971
1971
1972
1972
1972
1973
1972
1972
1972
1971
1971
1971
1972
1972
1973
1973
1973
1972
1972
1971
1971
1972
1972
1973
1974
1974
1973
1973
1972
1972
1972
1973
1973
1973
1973
1974
1974
1973
1973
1973
1973
1973
1974
1974
1975
1975
1974
1974
1974
1974
1974
1974
1975
1975
1976
1975
1975
1975
1974
1974
1974
1974
1975
1975
1976
1976
1976
1975
1975
1974
1975
1975
1976
1977
1977
1977
1976
1976
1975
1975
1975
1976
1977
1978
1978
1978
1977
1977
1977
1977
1977
1977
1978
1978
1978
1978
1978
1977
1976
1976
1976
1977
1978
1979
1980
1979
1979
1977
1976
1976
1976
1977
1978
1978
1978
1978
1978
1980
1981
1983
1985
1986
1987
1986
1985
1983
1981
1980
1979
1978
1977
1978
1978
1978
1979
1978
1978
1977
1977
1977
1977
1978
1979
1980
1980
1978
1974
1972
1975
1987
2013
2051
2094
2125
2128
2099
2048
1992
1953
1939
1947
1964
1977
1982
1981
1977
1974
1973
1973
1974
1974
1974
1975
1976
1977
1977
1977
1976
1976
1975
1976
1976
1977
1978
1978
1979
1979
1978
1978
1978
1979
1980
1981
1982
1983
1983
1984
1984
1984
1984
1985
1986
1987
1988
1989
1991
1992
1993
1994
1995
1997
1999
2002
2004
2007
2009
2011
2013
2014
2016
2017
2019
2020
2022
2022
2022
2020
2017
2013
2009
2005
2001
1997
1993
1989
1985
1981
1978
1975
1973
1971
1970
1970
1969
1969
1969
1968
1968
1967
1967
1966
1967
1967
1968
1968
1968
1968
1967
1967
1967
1967
1967
1968
1969
1969
1969
1969
1968
1968
1968
1968
1969
1969
1970
1970
1971
1971
1971
1970
1970
1970
1971
1972
1973
1973
1974
1973
1973
1972
1972
1972
1972
1972
1972
1973
1974
1974
1973
1972
1971
1971
1971
1971
1972
1972
1973
1972
1972
1971
1971
1971
1972
1972
1973
1973
1973
1972
1972
1972
1971
1972
1972
1973
1974
1974
1974
1973
1973
1973
1973
1973
1973
1974
1974
1975
1975
1975
1974
1973
1973
1973
1973
1974
1974
1975
1975
1975
1974
1974
1974
1974
1974
1975
1975
1975
1975
1975
1975
1974
1974
1974
1974
1975
1975
1976
1975
1975
1975
1974
1974
1975
1975
1975
1976
1976
1976
1976
1975
1975
1975
1975
1975
1976
1976
1977
1977
1976
1976
1975
1975
1976
1976
1977
1978
1978
1978
1978
1977
1977
1976
1976
1977
1977
1978
1978
1979
1978
1978
1977
1977
1977
1977
1978
1978
1979
1979
1979
1979
1979
1979
1979
1979
1979
1980
1980
1980
1979
1979
1978
1978
1980
1982
1985
1987
1989
1989
1988
1986
1984
1983
1982
1982
1983
1982
1982
1981
1981
1980
1980
1980
1980
1980
1981
1982
1982
1982
1982
1982
1980
1977
1975
1976
1983
2002
2034
2074
2113
2135
2125
2085
2030
1978
1948
1943
1957
1974
1984
1986
1982
1978
1976
1976
1977
1979
1980
1980
1980
1980
1980
1979
1979
1979
1980
1980
1981
1981
1982
1982
1981
1981
1982
1983
1984
1985
1986
1986
1986
1986
1986
1987
1988
1989
1991
1993
1994
1995
1995
1995
1995
1997
1999
2002
2005
2007
2009
2011
2012
2014
2016
2018
2020
2023
2026
2028
2030
2031
2032
2032
2031
2030
2028
2026
2022
2018
2014
2009
2004
1999
1993
1988
1984
1981
1978
1977
1976
1976
1975
1974
1972
1972
1971
1972
1972
1973
1973
1973
1972
1971
1970
1970
1970
1971
1972
1973
1973
1973
1973
1973
1972
1973
1973
1974
1975
1975
1975
1976
1976
1976
1976
1977
1977
1977
1978
1979
1979
1980
1980
1979
1979
1979
1979
1980
1980
1980
1981
1981
1981
1981
1980
1980
1980
1981
1981
1982
1982
1982
1982
1981
1981
1980
1981
1981
1982
1982
1982
1982
1982
1982
1982
1982
1982
1982
1982
1983
1983
1983
1983
1983
1983
1983
1983
1983
1984
1985
1986
1986
1986
1986
1985
1985
1985
1986
1986
1987
1987
1987
1986
1986
1986
1986
1986
1987
1988
1988
1988
1988
1988
1987
1987
1987
1988
1988
1989
1989
1989
1989
1989
1989
1989
1989
1989
1990
1990
1991
1991
1991
1991
1991
1991
1990
1990
1990
1991
1991
1991
1992
1991
1990
1989
1988
1988
1990
1993
1997
1999
2001
2001
1999
1998
1996
1995
1995
1995
1995
1995
1994
1994
1993
1993
1993
1993
1994
1994
1995
1996
1995
1995
1995
1995
1995
1995
1994
1992
1990
1992
2002
2025
2060
2104
2140
2153
2132
2082
2023
1975
1953
1956
1972
1988
1995
1995
1993
1991
1990
1991
1991
1992
1991
1991
1991
1992
1992
1993
1994
1995
1995
1995
1995
1995
1996
1996
1997
1998
1998
1999
1999
1999
1999
1999
2000
2000
2001
2003
2004
2005
2006
2006
2006
2007
2008
2009
2011
2012
2014
2016
2017
2019
2021
2022
2024
2027
2030
2034
2037
2039
2041
2042
2043
2044
2045
2045
2045
2044
2042
2039
2034
2028
2023
2017
2012
2007
2003
2000
1998
1996
1994
1992
1991
1989
1988
1987
1987
1988
1988
1988
1988
1987
1987
1986
1986
1986
1987
1987
1988
1988
1987
1987
1987
1987
1987
1987
1988
1988
1989
1989
1989
1989
1989
1989
1989
1989
1989
1990
1991
1991
1991
1991
1991
1991
1990
1991
1992
1992
1992
1992
1992
1991
1991
1991
1991
1991
1991
1992
1992
1992
1992
1992
1992
1991
1991
1991
1992
1992
1992
1992
1992
1992
1991
1991
1991
1991
1991
1992
1992
1993
1992
1991
1990
1990
1990
1990
1991
1991
1992
1992
1992
1991
1991
1991
1990
1991
1991
1991
1992
1992
1992
1991
1991
1991
1990
1991
1991
1992
1992
1992
1992
1992
1992
1991
1991
1991
1991
1992
1992
1992
1992
1992
1992
1991
1991
1991
1992
1992
1993
1993
1993
1992
1992
1992
1992
1992
1992
1992
1993
1993
1993
1992
1992
1992
1992
1992
1992
1992
1993
1993
1993
1993
1992
1992
1991
1991
1991
1992
1992
1993
1993
1993
1992
1991
1991
1990
1991
1991
1992
1992
1992
1991
1991
1990
1990
1990
1991
1991
1992
1993
1993
1993
1992
1992
1991
1991
1991
1992
1992
1992
1992
1992
1991
1991
1991
1990
1990
1990
1992
1994
1997
1999
1999
1999
1998
1997
1996
1996
1995
1994
1993
1991
1990
1989
1989
1989
1990
1990
1990
1990
1990
1990
1989
1989
1990
1990
1990
1989
1986
1984
1986
1996
2018
2053
2096
2131
2143
2122
2074
2018
1973
1952
1954
1969
1984
1990
1990
1987
1985
1985
1985
1985
1984
1984
1983
1984
1984
1985
1986
1986
1986
1986
1987
1986
1987
1987
1987
1987
1988
1989
1989
1989
1989
1989
1989
1989
1990
1992
1992
1993
1993
1993
1994
1994
1995
1996
1998
1999
2001
2002
2003
2004
2005
2007
2008
2011
2013
2016
2019
2021
2023
2024
2025
2026
2027
2028
2028
2028
2028
2026
2023
2019
2014
2009
2004
1999
1995
1992
1988
1986
1983
1980
1978
1976
1974
1973
1973
1973
1974
1973
1973
1972
1972
1971
1971
1971
1971
1971
1972
1972
1972
1972
1971
1971
1971
1971
1972
1972
1973
1973
1973
1973
1972
1972
1972
1972
1972
1973
1974
1974
1974
1973
1972
1971
1970
1971
1972
1973
1974
1974
1974
1974
1973
1972
1972
1972
1972
1973
1974
1974
1974
1973
1972
1972
1972
1972
1973
1973
1974
1974
1974
1974
1973
1972
1972
1972
1972
1972
1972
1972
1973
1972
1972
1971
1971
1971
1972
1973
1973
1973
1973
1973
1972
1971
1971
1971
1972
1972
1973
1973
1973
1973
1973
1972
1971
1971
1972
1973
1974
1974
1974
1973
1972
1972
1972
1973
1973
1974
1975
1975
1975
1974
1974
1973
1973
1973
1974
1975
1975
1975
1975
1974
1974
1974
1974
1974
1974
1975
1975
1976
1976
1976
1975
1974
1974
1974
1974
1975
1975
1975
1975
1975
1975
1975
1974
1974
1975
1975
1976
1976
1976
1976
1975
1974
1974
1974
1975
1975
1976
1976
1976
1975
1974
1974
1974
1974
1975
1975
1976
1976
1975
1975
1975
1974
1974
1974
1974
1975
1975
1975
1975
1974
1973
1972
1972
1973
1976
1978
1981
1983
1983
1983
1982
1980
1979
1977
1976
1976
1975
1975
1975
1974
1973
1973
1972
1972
1973
1973
1974
1974
1974
1974
1974
1973
1972
1969
1967
1970
1979
2002
2037
2079
2114
2127
2108
2061
2006
1960
1938
1940
1955
1971
1978
1977
1974
1971
1970
1971
1972
1973
1973
1973
1972
1972
1972
1973
1974
1975
1975
1975
1975
1975
1975
1975
1975
1976
1977
1977
1978
1979
1979
1980
1980
1980
1980
1981
1982
1983
1984
1985
1986
1986
1987
1987
1988
1989
1991
1993
1995
1997
1999
2001
2003
2005
2007
2010
2013
2016
2018
2021
2022
2023
2023
2024
2023
2023
2021
2019
2016
2012
2008
2003
1998
1993
1989
1985
1982
1980
1978
1976
1975
1973
1972
1971
1970
1970
1970
1970
1970
1970
1970
1970
1970
1970
1970
1971
1971
1971
1972
1971
1971
1971
1970
1969
1969
1969
1970
1971
1972
1972
1972
1972
1971
1971
1970
1970
1969
1970
1970
1970
1971
1970
1970
1970
1970
1971
1972
1973
1973
1973
1973
1973
1972
1971
1971
1971
1971
1972
1972
1972
1972
1971
1970
1970
1970
1970
1971
1971
1971
1972
1972
1971
1971
1970
1970
1970
1970
1971
1971
1972
1972
1971
1970
1970
1969
1970
1971
1971
1972
1972
1972
1972
1971
1971
1970
1970
1971
1971
1972
1972
1972
1972
1972
1971
1971
1971
1971
1971
1971
1972
1972
1971
1971
1971
1971
1971
1972
1973
1973
1974
1974
1973
1973
1972
1971
1971
1972
1972
1973
1974
1975
1975
1974
1974
1973
1973
1974
1974
1975
1974
1974
1973
1973
1975
1977
1980
1982
1983
1983
1983
1982
1980
1978
1976
1974
1973
1973
1973
1974
1974
1973
1973
1973
1972
1972
1972
1973
1973
1974
1975
1976
1975
1974
1970
1967
1968
1977
2000
2036
2079
2116
2129
2110
2061
2003
1953
1930
1932
1949
1967
1976
1977
1974
1971
1969
1970
1971
1972
1973
1973
1973
1972
1972
1973
1973
1974
1974
1975
1976
1976
1976
1976
1975
1975
1976
1977
1978
1978
1979
1980
1980
1980
1980
1981
1981
1982
1984
1985
1987
1988
1989
1989
1989
1990
1991
1993
1996
1998
2001
2003
2006
2008
2010
2012
2015
2017
2020
2022
2024
2025
2026
2027
2026
2025
2022
2019
2015
2011
2006
2001
1995
1990
1985
1981
1977
1974
1972
1970
1970
1969
1969
1968
1966
1965
1964
1964
1964
1964
1965
1965
1964
1964
1963
1963
1962
1962
1963
1964
1965
1965
1966
1965
1965
1964
1964
1964
1965
1966
1966
1967
1967
1967
1967
1967
1967
1967
1968
1969
1970
1970
1971
1970
1970
1969
1969
1969
1969
1970
1971
1972
1972
1971
1971
1970
1970
1970
1970
1971
1971
1971
1971
1970
1970
1969
1969
1969
1969
1970
1971
1971
1971
1971
1971
1970
1970
1970
1970
1971
1971
1972
1972
1971
1971
1970
1970
1970
1970
1971
1972
1972
1972
1972
1971
1971
1970
1971
1971
1971
1972
1972
1972
1972
1972
1971
1971
1971
1971
1972
1973
1973
1973
1973
1973
1972
1972
1972
1972
1973
1973
1974
1974
1973
1973
1972
1972
1972
1972
1973
1974
1974
1974
1973
1972
1971
1971
1971
1972
1972
1973
1973
1973
1973
1973
1973
1973
1973
1974
1975
1975
1975
1975
1975
1974
1973
1973
1973
1973
1974
1974
1974
1974
1973
1972
1971
1971
1971
1971
1972
1972
1972
1972
1972
1971
1970
1970
1969
1969
1969
1970
1972
1974
1976
1978
1979
1979
1978
1977
1977
1976
1975
1974
1973
1972
1971
1971
1970
1971
1971
1972
1972
1972
1971
1970
1970
1970
1971
1972
1972
1970
1967
1967
1972
1988
2019
2060
2102
2127
2121
2083
2028
1974
1941
1934
1945
1961
1971
1973
1971
1968
1966
1966
1966
1966
1965
1965
1966
1967
1967
1968
1969
1969
1968
1968
1968
1968
1969
1970
1970
1971
1971
1971
1972
1971
1971
1971
1972
1972
1973
1974
1975
1975
1976
1976
1976
1976
1976
1978
1979
1981
1983
1985
1986
1987
1989
1990
1992
1995
1997
2000
2003
2004
2006
2007
2008
2009
2011
2012
2012
2013
2012
2010
2006
2002
1997
1992
1987
1983
1979
1976
1973
1970
1968
1966
1964
1962
1961
1960
1960
1960
1960
1960
1959
1959
1958
1958
1958
1958
1959
1960
1960
1960
1960
1959
1959
1958
1958
1959
1960
1960
1961
1961
1961
1960
1960
1960
1959
1960
1961
1962
1962
1962
1962
1961
1960
1960
1960
1960
1961
1961
1962
1962
1962
1962
1961
1961
1960
1960
1961
1961
1961
1961
1961
1961
1961
1960
1960
1961
1961
1962
1962
1963
1962
1962
1961
1961
1961
1961
1962
1962
1963
1963
1963
1963
1962
1962
1962
1962
1962
1962
1962
1962
1961
1961
1961
1961
1961
1962
1962
1962
1962
1962
1962
1962
1962
1962
1962
1963
1963
1964
1964
1964
1963
1963
1963
1962
1963
1963
1964
1965
1966
1966
1965
1965
1965
1965
1965
1966
1967
1968
1969
1969
1969
1969
1968
1968
1968
1969
1970
1971
1971
1971
1970
1970
1970
1970
1970
1971
1971
1972
1973
1973
1973
1972
1972
1972
1972
1973
1975
1976
1977
1977
1977
1977
1976
1977
1977
1978
1979
1980
1981
1981
1980
1980
1979
1979
1979
1979
1980
1981
1981
1981
1980
1979
1978
1979
1981
1984
1988
1990
1991
1991
1990
1989
1987
1986
1984
1983
1983
1982
1982
1982
1982
1982
1981
1981
1981
1982
1982
1983
1983
1983
1984
1983
1980
1977
1974
1974
1981
1999
2031
2072
2111
2133
2124
2085
2030
1977
1945
1939
1952
1969
1981
1984
1981
1978
1976
1976
1977
1978
1979
1979
1979
1979
1978
1978
1979
1979
1980
1981
1982
1983
1983
1982
1982
1982
1982
1983
1984
1984
1985
1985
1986
1987
1987
1988
1988
1989
1990
1991
1993
1994
1994
1995
1995
1996
1997
1999
2002
2005
2007
2009
2011
2012
2014
2017
2019
2022
2025
2027
2028
2030
2030
2031
2031
2030
2029
2027
2024
2020
2016
2011
2005
2000
1994
1990
1986
1983
1981
1979
1977
1976
1975
1974
1972
1972
1971
1971
1972
1972
1972
1972
1972
1971
1971
1971
1971
1971
1971
1972
1972
1972
1972
1972
1971
1971
1971
1972
1972
1972
1972
1972
1972
1972
1972
1973
1973
1973
1973
1974
1974
1975
1975
1975
1974
1974
1973
1973
1974
1975
1975
1975
1975
1975
1974
1974
1974
1974
1975
1975
1975
1975
1975
1974
1973
1973
1973
1973
1974
1975
1975
1975
1975
1974
1974
1973
1973
1973
1974
1975
1975
1975
1974
1974
1973
1972
1972
1973
1973
1974
1974
1974
1973
1972
1971
1971
1972
1973
1973
1973
1974
1974
1973
1973
1973
1972
1972
1973
1973
1974
1974
1975
1974
1974
1974
1974
1974
1974
1974
1975
1975
1975
1975
1974
1973
1973
1973
1974
1975
1976
1976
1976
1976
1976
1975
1974
1974
1975
1975
1976
1976
1976
1976
1975
1975
1975
1975
1976
1976
1977
1977
1976
1975
1974
1973
1973
1974
1977
1981
1984
1986
1986
1985
1983
1981
1980
1978
1978
1977
1976
1975
1975
1974
1974
1974
1974
1974
1974
1975
1975
1975
1976
1976
1976
1975
1973
1970
1968
1971
1982
2007
2046
2092
2132
2146
2125
2073
2010
1960
1936
1939
1956
1971
1978
1977
1973
1971
1971
1972
1972
1973
1972
1972
1972
1972
1972
1972
1973
1974
1975
1976
1976
1976
1975
1975
1974
1975
1975
1977
1978
1979
1979
1979
1979
1979
1979
1979
1980
1981
1983
1984
1985
1986
1986
1987
1988
1989
1991
1993
1995
1997
2000
2002
2004
2006
2008
2011
2014
2016
2019
2021
2023
2024
2025
2025
2024
2024
2022
2020
2017
2013
2007
2002
1996
1990
1986
1982
1979
1977
1975
1973
1971
1969
1968
1967
1967
1966
1967
1967
1968
1968
1968
1967
1967
1966
1966
1966
1966
1967
1968
1968
1968
1967
1966
1966
1966
1966
1967
1968
1968
1968
1968
1968
1967
1967
1967
1967
1968
1968
1969
1970
1970
1970
1970
1970
1969
1970
1970
1971
1971
1972
1972
1971
1971
1970
1970
1970
1970
1971
1971
1972
1972
1971
1971
1970
1970
1970
1971
1971
1972
1972
1972
1972
1971
1971
1970
1970
1971
1971
1972
1972
1972
1972
1971
1971
1971
1971
1972
1973
1973
1974
1973
1973
1972
1971
1971
1971
1972
1973
1973
1974
1974
1974
1973
1973
1973
1973
1974
1974
1974
1974
1974
1974
1973
1973
1972
1972
1973
1973
1974
1974
1974
1974
1973
1973
1973
1972
1973
1973
1974
1975
1975
1974
1974
1973
1972
1973
1973
1974
1975
1975
1974
1974
1973
1973
1973
1973
1973
1974
1974
1974
1974
1973
1972
1972
1971
1972
1972
1972
1973
1973
1972
1972
1972
1971
1971
1971
1971
1972
1972
1972
1972
1972
1971
1971
1970
1969
1970
1971
1974
1977
1980
1981
1981
1980
1979
1978
1977
1976
1976
1975
1974
1973
1971
1971
1971
1971
1972
1972
1973
1973
1973
1973
1972
1973
1973
1973
1972
1970
1968
1969
1976
1994
2028
2070
2111
2132
2121
2078
2021
1969
1940
1937
1951
1966
1975
1976
1973
1971
1970
1971
1971
1971
1970
1970
1969
1970
1971
1971
1972
1972
1972
1972
1972
1972
1972
1972
1972
1973
1973
1974
1974
1974
1974
1974
1974
1975
1976
1977
1978
1979
1980
1980
1981
1981
1982
1983
1985
1986
1988
1989
1990
1992
1994
1996
1998
2000
2003
2005
2007
2010
2011
2013
2014
2015
2016
2017
2017
2017
2017
2016
2014
2010
2005
1998
1992
1987
1983
1980
1977
1975
1972
1970
1968
1966
1965
1964
1963
1963
1963
1963
1964
1963
1963
1962
1962
1962
1963
1963
1964
1964
1963
1963
1963
1963
1963
1963
1963
1963
1963
1964
1964
1964
1964
1964
1964
1964
1964
1965
1965
1965
1965
1964
1964
1963
1963
1963
1964
1965
1966
1966
1966
1966
1965
1964
1964
1964
1964
1964
1964
1965
1965
1965
1964
1964
1963
1963
1963
1964
1964
1964
1964
1964
1964
1964
1964
1963
1963
1964
1964
1965
1966
1965
1965
1964
1963
1963
1963
1964
1965
1965
1965
1965
1965
1964
1964
1963
1963
1963
1963
1963
1963
1963
1962
1961
1961
1961
1961
1962
1962
1962
1962
1961
1961
1961
1961
1961
1961
1961
1961
1961
1961
1960
1960
1959
1959
1959
1960
1960
1961
1960
1959
1958
1957
1957
1957
1958
1959
1960
1960
1960
1959
1958
1957
1957
1958
1958
1959
1959
1960
1961
1961
1961
1960
1959
1959
1960
1961
1962
1962
1962
1962
1961
1961
1961
1961
1962
1962
1963
1963
1964
1964
1964
1964
1963
1962
1961
1962
1963
1963
1964
1963
1963
1964
1966
1969
1971
1974
1975
1974
1972
1971
1969
1968
1967
1967
1966
1965
1965
1966
1966
1967
1967
1967
1967
1967
1968
1969
1970
1971
1972
1971
1969
1966
1964
1967
1979
2005
2042
2083
2114
2118
2090
2041
1986
1949
1936
1944
1960
1973
1977
1976
1972
1970
1970
1970
1971
1971
1972
1973
1973
1974
1974
1974
1975
1975
1975
1976
1977
1978
1979
1979
1980
1980
1980
1980
1980
1981
1982
1983
1984
1985
1986
1986
1987
1987
1988
1989
1991
1992
1994
1996
1997
1998
1998
2000
2001
2004
2007
2010
2013
2015
2017
2018
2020
2022
2024
2026
2029
2031
2032
2033
2032
2031
2029
2027
2024
2021
2018
2014
2010
2005
2001
1997
1994
1991
1990
1988
1987
1987
1986
1986
1985
1984
1983
1983
1983
1984
1984
1984
1985
1985
1985
1985
1985
1985
1985
1986
1986
1987
1987
1988
1988
1987
1987
1987
1988
1989
1990
1990
1990
1990
1990
1990
1990
1990
1991
1992
1993
1994
1994
1994
1994
1993
1993
1993
1993
1993
1994
1994
1995
1994
1994
1994
1993
1993
1993
1993
1994
1994
1995
1994
1994
1993
1993
1993
1992
1993
1993
1994
1995
1995
1995
1994
1993
1992
1992
1993
1993
1994
1994
1994
1994
1994
1993
1993
1993
1993
1994
1995
1995
1996
1995
1995
1994
1994
1995
1996
1998
1998
1997
1997
1996
1996
1996
1996
1996
1997
1998
1999
2000
2000
2000
1999
1998
1996
1996
1997
1998
1999
2000
2000
1999
1998
1998
1998
1998
1998
1998
1998
1998
1997
1997
1997
1996
1996
1996
1996
1995
1995
1994
1993
1993
1992
1992
1992
1992
1992
1992
1993
1993
1992
1993
1993
1993
1993
1992
1991
1990
1990
1990
1990
1990
1989
1988
1987
1988
1991
1993
1996
1998
1998
1997
1996
1994
1993
1992
1992
1991
1990
1989
1988
1987
1986
1986
1985
1985
1986
1987
1987
1988
1988
1988
1987
1987
1986
1984
1983
1984
1991
2006
2034
2071
2106
2126
2117
2081
2031
1985
1958
1955
1967
1981
1989
1989
1986
1984
1983
1983
1984
1985
1984
1983
1983
1982
1983
1983
1985
1985
1986
1986
1986
1985
1985
1984
1984
1985
1986
1987
1988
1989
1990
1990
1989
1989
1989
1989
1990
1992
1993
1994
1995
1995
1996
1996
1997
1999
2001
2003
2005
2007
2008
2010
2011
2013
2015
2018
2020
2023
2026
2028
2029
2030
2030
2030
2030
2030
2030
2029
2027
2024
2021
2016
2012
2007
2002
1998
1995
1993
1991
1989
1988
1987
1986
1985
1984
1983
1983
1983
1983
1983
1983
1983
1983
1983
1983
1982
1982
1982
1982
1982
1983
1983
1984
1984
1984
1984
1984
1984
1985
1985
1985
1984
1984
1984
1984
1984
1985
1985
1985
1986
1986
1986
1987
1987
1986
1986
1986
1987
1988
1988
1988
1988
1988
1987
1987
1988
1989
1989
1990
1990
1990
1990
1990
1990
1990
1990
1990
1990
1991
1991
1992
1992
1992
1991
1991
1991
1992
1993
1994
1994
1994
1993
1992
1991
1992
1992
1993
1994
1995
1995
1995
1994
1994
1993
1993
1993
1993
1994
1994
1995
1995
1994
1994
1993
1993
1993
1994
1995
1995
1995
1995
1994
1993
1993
1993
1993
1993
1994
1994
1994
1994
1993
1993
1992
1992
1992
1992
1992
1992
1992
1992
1992
1992
1991
1991
1991
1991
1992
1992
1993
1992
1992
1991
1991
1990
1990
1991
1991
1992
1992
1991
1990
1990
1989
1989
1990
1990
1991
1991
1990
1990
1989
1988
1987
1987
1988
1990
1993
1996
1998
1999
1998
1997
1995
1993
1992
1990
1990
1989
1989
1988
1987
1987
1986
1986
1986
1987
1987
1987
1987
1987
1987
1987
1987
1985
1983
1981
1981
1986
2002
2030
2067
2103
2123
2117
2082
2031
1982
1951
1944
1956
1972
1984
1988
1987
1984
1982
1982
1983
1984
1984
1984
1984
1984
1983
1983
1983
1984
1985
1985
1986
1986
1986
1986
1985
1985
1985
1986
1988
1989
1989
1989
1989
1989
1989
1990
1991
1991
1992
1993
1994
1995
1996
1996
1997
1998
1999
2000
2002
2004
2006
2008
2010
2011
2013
2016
2019
2021
2023
2025
2026
2027
2028
2028
2029
2029
2028
2027
2024
2021
2017
2013
2008
2002
1997
1993
1989
1986
1983
1981
1979
1977
1976
1975
1974
1974
1974
1974
1974
1974
1973
1973
1972
1972
1972
1972
1973
1974
1975
1975
1975
1975
1974
1973
1973
1974
1974
1975
1976
1976
1976
1976
1976
1975
1975
1975
1976
1976
1977
1977
1977
1977
1976
1976
1976
1976
1977
1977
1977
1977
1976
1976
1975
1974
1974
1974
1974
1975
1975
1976
1975
1975
1974
1974
1973
1973
1973
1974
1974
1974
1974
1973
1973
1972
1972
1972
1972
1972
1973
1973
1973
1973
1972
1971
1971
1971
1971
1972
1972
1972
1972
1972
1971
1971
1971
1971
1972
1972
1973
1973
1973
1973
1972
1971
1971
1971
1971
1972
1972
1973
1973
1972
1972
1971
1971
1971
1972
1973
1973
1973
1973
1972
1971
1971
1971
1971
1972
1972
1973
1973
1973
1973
1973
1972
1972
1972
1972
1972
1973
1973
1973
1973
1973
1973
1972
1972
1973
1974
1974
1974
1974
1973
1972
1972
1974
1976
1979
1982
1983
1984
1982
1981
1979
1977
1975
1974
1973
1973
1973
1973
1973
1973
1972
1972
1971
1971
1972
1972
1973
1974
1975
1975
1973
1969
1966
1965
1972
1990
2022
2062
2100
2120
2109
2070
2016
1967
1938
1935
1949
1966
1976
1978
1976
1973
1971
1971
1972
1974
1975
1976
1977
1978
1978
1977
1977
1977
1978
1979
1980
1982
1983
1983
1983
1983
1984
1984
1985
1986
1987
1988
1989
1989
1990
1990
1990
1990
1991
1992
1993
1995
1995
1996
1997
1999
2000
2002
2004
2006
2009
2011
2013
2015
2016
2018
2020
2022
2024
2026
2028
2030
2031
2032
2032
2031
2030
2028
2026
2023
2020
2016
2011
2006
2001
1996
1992
1989
1987
1986
1985
1984
1983
1982
1981
1980
1980
1981
1982
1983
1984
1984
1984
1983
1983
1983
1983
1983
1984
1985
1986
1986
1986
1986
1986
1985
1986
1986
1987
1988
1988
1988
1988
1988
1987
1987
1986
1985
1985
1986
1988
1989
1989
1989
1988
1987
1985
1985
1986
1987
1989
1989
1989
1987
1986
1986
1987
1989
1990
1990
1989
1987
1987
1987
1987
1988
1988
1988
1989
1990
1991
1991
1991
1991
1991
1991
1992
1993
1994
1994
1995
1995
1995
1996
1996
1996
1996
1995
1995
1994
1994
1995
1995
1996
1996
1996
1995
1995
1995
1995
1995
1995
1995
1995
1994
1993
1992
1992
1993
1995
1996
1997
1997
1996
1995
1993
1993
1993
1993
1993
1994
1995
1995
1994
1994
1993
1992
1993
1994
1994
1995
1995
1995
1994
1994
1993
1992
1991
1992
1993
1996
1999
2002
2003
2004
2004
2003
2001
2000
1998
1997
1997
1997
1996
1995
1994
1993
1993
1993
1994
1995
1995
1994
1992
1992
1992
1992
1993
1992
1990
1987
1985
1988
2003
2031
2071
2113
2138
2134
2099
2045
1992
1958
1948
1958
1973
1985
1989
1989
1987
1985
1984
1983
1983
1982
1982
1983
1984
1985
1985
1985
1985
1984
1984
1985
1985
1986
1985
1986
1986
1987
1989
1989
1989
1989
1989
1989
1990
1991
1993
1995
1997
1998
1999
1999
1999
2000
2002
2004
2006
2009
2010
2012
2014
2016
2018
2021
2025
2028
2031
2034
2036
2039
2041
2043
2044
2046
2047
2048
2048
2048
2046
2043
2039
2034
2029
2025
2020
2015
2011
2008
2004
2002
1999
1997
1996
1994
1993
1992
1992
1993
1994
1995
1994
1993
1992
1992
1993
1994
1995
1995
1995
1995
1994
1994
1994
1994
1995
1996
1997
1998
1998
1999
1999
1999
2000
2001
2002
2003
2003
2003
2003
2004
2004
2004
2004
2003
2002
2003
2004
2005
2005
2005
2005
2004
2003
2002
2001
2000
2000
2000
1999
1999
1998
1997
1996
1996
1995
1995
1996
1996
1996
1996
1995
1995
1995
1995
1995
1996
1996
1997
1997
1997
1996
1996
1996
1996
1996
1996
1996
1996
1997
1997
1997
1997
1998
2000
2003
2007
2010
2011
2011
2010
2008
2006
2004
2003
2002
2001
2001
2001
2001
2002
2003
2003
2002
2002
2002
2003
2004
2005
2006
2006
2007
2007
2006
2003
2000
2000
2006
2025
2058
2103
2144
2165
2153
2109
2049
1997
1967
1964
1977
1995
2005
2008
2005
2002
2001
2001
2002
2003
2004
2004
2003
2002
2001
2001
2001
2002
2003
2005
2006
2008
2008
2008
2007
2006
2006
2007
2008
2009
2009
2010
2010
2010
2010
2009
2009
2010
2011
2012
2013
2014
2015
2016
2017
2018
2019
2021
2023
2026
2028
2030
2032
2034
2036
2038
2040
2043
2045
2047
2048
2048
2049
2048
2048
2047
2044
2041
2036
2032
2026
2020
2015
2009
2003
1999
1995
1992
1990
1989
1987
1986
1984
1982
1981
1981
1980
1980
1981
1981
1981
1980
1980
1979
1978
1978
1977
1978
1978
1978
1979
1979
1979
1978
1978
1978
1978
1979
1979
1980
1980
1980
1980
1980
1979
1980
1980
1981
1982
1982
1982
1982
1982
1981
1981
1980
1980
1981
1981
1982
1982
1982
1982
1982
1982
1981
1981
1982
1982
1983
1983
1983
1983
1983
1982
1982
1982
1983
1983
1984
1984
1984
1984
1983
1982
1981
1980
1981
1983
1986
1989
1992
1993
1993
1992
1991
1989
1988
1987
1986
1985
1984
1983
1983
1982
1982
1982
1983
1983
1983
1983
1983
1982
1982
1982
1982
1983
1983
1982
1979
1976
1977
1986
2008
2047
2092
2130
2142
2119
2067
2007
1958
1937
1940
1957
1974
1981
1982
1980
1977
1976
1976
1976
1976
1975
1975
1976
1976
1977
1977
1978
1978
1978
1977
1977
1976
1977
1978
1979
1980
1981
1981
1981
1981
1981
1981
1981
1982
1983
1983
1984
1985
1985
1986
1986
1987
1988
1989
1990
1992
1994
1996
1997
1999
2000
2002
2005
2008
2010
2013
2015
2016
2017
2018
2020
2021
2021
2022
2022
2020
2018
2014
2009
2003
1997
1992
1987
1983
1980
1978
1975
1973
1971
1969
1967
1966
1965
1965
1965
1966
1966
1967
1966
1966
1965
1965
1965
1965
1966
1967
1967
1968
1968
1967
1966
1966
1965
1965
1965
1966
1966
1966
1966
1966
1966
1965
1966
1966
1967
1968
1968
1968
1967
1967
1967
1967
1967
1967
1967
1967
1967
1967
1966
1966
1965
1965
1964
1965
1965
1965
1965
1964
1963
1962
1961
1959
1957
1956
1955
1955
1954
1954
1953
1952
1951
1951
1950
1950
1950
1950
1950
1951
1951
1950
1949
1948
1947
1946
1946
1948
1950
1953
1956
1957
1958
1957
1956
1955
1955
1954
1954
1953
1952
1950
1949
1949
1949
1949
1950
1951
1952
1952
1952
1951
1951
1951
1952
1953
1955
1955
1955
1952
1949
1949
1955
1972
2005
2047
2085
2103
2091
2048
1992
1943
1917
1916
1930
1948
1958
1960
1957
1954
1953
1952
1952
1953
1953
1954
1955
1955
1956
1956
1956
1956
1955
1955
1956
1957
1958
1959
1960
1960
1960
1959
1959
1960
1960
1961
1963
1964
1965
1966
1966
1966
1967
1968
1969
1971
1972
1973
1975
1976
1977
1978
1980
1981
1983
1986
1989
1991
1994
1996
1998
1999
2000
2001
2003
2005
2006
2007
2007
2006
2003
2000
1995
1990
1985
1981
1977
1974
1970
1968
1965
1962
1960
1959
1958
1957
1957
1957
1958
1957
1957
1956
1956
1955
1955
1956
1957
1958
1959
1959
1958
1958
1957
1957
1957
1957
1958
1959
1959
1960
1960
1960
1959
1959
1959
1960
1960
1961
1961
1962
1961
1961
1961
1961
1961
1961
1962
1963
1963
1963
1963
1962
1961
1961
1961
1962
1963
1963
1964
1964
1964
1963
1963
1962
1962
1963
1963
1964
1965
1965
1965
1964
1964
1963
1963
1963
1964
1964
1965
1965
1965
1965
1965
1965
1965
1966
1967
1967
1967
1967
1966
1966
1965
1965
1966
1966
1967
1968
1968
1968
1967
1966
1966
1966
1966
1967
1968
1968
1968
1968
1968
1968
1968
1968
1967
1967
1967
1967
1968
1969
1971
1974
1976
1978
1978
1978
1977
1976
1974
1972
1970
1969
1968
1967
1967
1967
1968
1968
1968
1968
1968
1967
1967
1967
1967
1967
1968
1969
1969
1969
1966
1963
1962
1965
1979
2005
2044
2083
2109
2108
2076
2025
1973
1939
1929
1939
1956
1969
1973
1972
1968
1966
1965
1966
1966
1967
1968
1968
1969
1969
1969
1969
1969
1970
1971
1972
1973
1974
1975
1976
1976
1976
1976
1976
1977
1978
1980
1981
1982
1983
1984
1984
1985
1986
1988
1990
1993
1995
1998
2000
2001
2002
2004
2005
2008
2011
2014
2017
2020
2022
2024
2026
2028
2029
2031
2033
2036
2037
2039
2039
2038
2036
2033
2030
2027
2024
2020
2016
2011
2007
2003
2000
1997
1995
1994
1992
1992
1991
1990
1990
1989
1988
1988
1987
1987
1987
1987
1987
1987
1987
1987
1986
1985
1985
1985
1986
1987
1988
1988
1988
1987
1987
1987
1987
1988
1988
1988
1989
1990
1990
1989
1988
1988
1987
1988
1989
1990
1990
1990
1990
1989
1988
1988
1988
1988
1988
1988
1988
1988
1988
1987
1986
1985
1984
1985
1985
1986
1987
1986
1986
1985
1984
1984
1984
1984
1984
1984
1985
1985
1985
1984
1983
1983
1983
1982
1982
1982
1982
1983
1983
1983
1983
1982
1981
1981
1981
1980
1980
1980
1980
1981
1983
1986
1989
1990
1991
1991
1990
1988
1986
1984
1982
1980
1979
1978
1978
1979
1979
1980
1980
1980
1980
1980
1980
1981
1982
1982
1983
1983
1983
1983
1980
1976
1974
1976
1989
2016
2056
2098
2126
2126
2094
2042
1987
1949
1937
1946
1964
1978
1984
1984
1981
1978
1977
1977
1978
1979
1980
1981
1982
1982
1982
1981
1981
1981
1982
1983
1984
1985
1986
1986
1986
1985
1985
1985
1985
1986
1987
1988
1988
1988
1988
1988
1989
1989
1991
1992
1994
1995
1996
1997
1998
1999
2000
2002
2005
2007
2010
2012
2014
2016
2017
2019
2021
2023
2025
2027
2028
2029
2029
2028
2026
2023
2020
2016
2011
2007
2002
1998
1993
1988
1984
1980
1976
1974
1972
1971
1970
1970
1970
1969
1968
1967
1966
1966
1966
1966
1967
1967
1966
1966
1966
1965
1965
1966
1966
1967
1968
1968
1968
1967
1967
1967
1966
1967
1967
1968
1968
1968
1968
1968
1968
1968
1968
1968
1968
1969
1969
1969
1970
1969
1969
1968
1967
1967
1967
1967
1968
1968
1968
1968
1967
1967
1967
1967
1967
1967
1968
1968
1968
1968
1967
1967
1966
1966
1966
1967
1967
1968
1968
1967
1966
1965
1964
1964
1965
1968
1972
1976
1978
1978
1977
1975
1973
1972
1970
1969
1968
1968
1967
1967
1966
1966
1966
1965
1965
1966
1966
1966
1966
1966
1966
1966
1967
1967
1967
1966
1963
1960
1961
1969
1991
2028
2072
2109
2122
2101
2052
1995
1948
1926
1928
1944
1960
1968
1970
1968
1966
1965
1965
1965
1965
1965
1965
1965
1965
1966
1967
1967
1968
1968
1968
1968
1968
1968
1969
1970
1971
1971
1971
1971
1971
1971
1972
1972
1973
1974
1975
1977
1978
1978
1979
1979
1979
1980
1982
1984
1987
1988
1990
1991
1993
1995
1997
1999
2002
2005
2008
2011
2013
2015
2015
2016
2017
2017
2017
2017
2015
2012
2007
2002
1996
1989
1984
1979
1976
1973
1970
1968
1965
1963
1961
1960
1960
1960
1960
1960
1960
1960
1959
1959
1958
1958
1958
1958
1959
1959
1959
1959
1959
1958
1958
1957
1957
1957
1958
1959
1959
1959
1959
1958
1957
1957
1956
1957
1957
1959
1959
1959
1959
1957
1956
1955
1955
1955
1956
1956
1957
1957
1958
1957
1957
1956
1955
1955
1955
1955
1956
1956
1956
1955
1954
1953
1952
1951
1951
1950
1950
1950
1950
1950
1949
1948
1947
1947
1947
1948
1949
1949
1949
1948
1947
1946
1946
1946
1946
1946
1947
1946
1945
1944
1943
1941
1940
1938
1938
1938
1940
1942
1944
1945
1945
1943
1941
1940
1938
1936
1934
1932
1930
1929
1927
1926
1926
1926
1927
1927
1927
1926
1926
1925
1924
1923
1921
1921
1922
1922
1922
1920
1918
1918
1926
1947
1983
2027
2063
2076
2054
2006
1948
1902
1882
1885
1901
1916
1922
1923
1921
1919
1918
1919
1920
1920
1921
1922
1923
1923
1924
1925
1926
1927
1928
1928
1929
1929
1930
1931
1933
1934
1935
1935
1935
1936
1936
1937
1938
1940
1941
1943
1944
1945
1945
1946
1947
1948
1950
1952
1954
1955
1957
1959
1962
1965
1968
1971
1975
1978
1981
1984
1986
1987
1988
1989
1991
1992
1993
1994
1994
1993
1991
1987
1983
1978
1973
1968
1965
1962
1959
1957
1955
1952
1950
1949
1948
1948
1948
1949
1949
1950
1950
1949
1949
1948
1948
1949
1950
1951
1952
1952
1952
1952
1952
1952
1952
1952
1953
1954
1955
1956
1956
1956
1955
1955
1955
1955
1956
1957
1957
1957
1958
1958
1958
1957
1957
1957
1958
1958
1959
1959
1960
1960
1960
1959
1959
1959
1959
1960
1961
1961
1962
1961
1961
1961
1961
1961
1961
1962
1963
1963
1964
1964
1963
1962
1962
1962
1963
1964
1965
1965
1965
1965
1965
1964
1964
1964
1965
1966
1966
1967
1967
1967
1966
1965
1965
1966
1966
1967
1968
1969
1969
1968
1968
1968
1968
1968
1969
1969
1970
1970
1970
1969
1969
1969
1969
1970
1970
1971
1972
1972
1972
1972
1971
1971
1971
1971
1972
1974
1975
1976
1976
1976
1976
1976
1976
1976
1976
1977
1978
1979
1980
1980
1980
1979
1979
1980
1980
1981
1982
1982
1982
1982
1982
1982
1982
1982
1982
1983
1984
1984
1985
1984
1984
1983
1983
1983
1984
1984
1985
1986
1986
1986
1986
1985
1985
1985
1986
1986
1987
1987
1988
1988
1987
1987
1987
1987
1987
1987
1987
1987
1987
1987
1989
1991
1994
1996
1998
1999
1998
1998
1996
1995
1994
1993
1991
1990
1990
1990
1991
1991
1992
1991
1991
1990
1990
1990
1991
1992
1993
1993
1992
1990
1988
1988
1995
2014
2049
2095
2137
2158
2144
2099
2039
1986
1959
1957
1972
1988
1996
1997
1994
1991
1990
1989
1990
1990
1991
1992
1993
1993
1994
1994
1994
1994
1994
1994
1995
1995
1996
1997
1998
1998
1998
1998
1999
1999
2000
2001
2002
2003
2003
2004
2004
2005
2005
2006
2007
2009
2011
2012
2014
2014
2015
2016
2017
2019
2021
2024
2026
2029
2031
2033
2034
2035
2037
2038
2040
2042
2044
2045
2046
2046
2045
2044
2041
2038
2035
2031
2027
2023
2019
2015
2011
2008
2005
2004
2002
2002
2001
2001
2001
2000
1999
1999
1999
1999
2000
2000
2001
2001
2001
2001
2000
2000
1999
1999
2000
2001
2002
2002
2002
2002
2001
2001
2001
2001
2002
2003
2003
2004
2003
2003
2002
2001
2001
2002
2002
2002
2003
2003
2003
2002
2002
2002
2002
2002
2002
2003
2003
2003
2003
2002
2002
2001
2001
2001
2001
2002
2002
2003
2003
2003
2003
2002
2002
2002
2002
2003
2003
2004
2003
2002
2001
2001
2001
2001
2002
2002
2003
2003
2004
2004
2003
2003
2003
2002
2003
2003
2004
2005
2005
2004
2004
2003
2003
2003
2003
2004
2005
2005
2006
2005
2004
2004
2003
2003
2004
2004
2005
2005
2005
2005
2004
2004
2004
2004
2004
2004
2004
2005
2005
2006
2005
2004
2004
2004
2004
2005
2006
2006
2006
2006
2005
2004
2004
2004
2004
2005
2005
2006
2006
2005
2005
2004
2004
2004
2004
2004
2005
2005
2005
2005
2004
2004
2004
2004
2005
2005
2005
2006
2005
2005
2004
2004
2004
2003
2003
2003
2003
2004
2006
2008
2010
2011
2012
2012
2011
2010
2008
2007
2006
2004
2003
2002
2001
2001
2002
2002
2003
2003
2003
2002
2001
2001
2001
2001
2002
2002
2000
1997
1996
1997
2007
2030
2065
2107
2141
2149
2124
2074
2018
1977
1961
1967
1984
1997
2002
2001
1998
1996
1996
1996
1996
1996
1995
1995
1996
1997
1997
1998
1998
1998
1997
1997
1997
1997
1998
1999
2000
2000
2000
2000
2000
2000
2001
2001
2001
2002
2003
2004
2004
2004
2004
2004
2005
2006
2007
2009
2010
2012
2013
2014
2015
2016
2017
2019
2021
2023
2026
2028
2030
2031
2032
2032
2033
2035
2036
2038
2039
2038
2036
2033
2029
2025
2020
2016
2012
2008
2005
2001
1998
1994
1991
1989
1987
1986
1986
1985
1985
1984
1984
1984
1983
1983
1982
1982
1982
1983
1984
1984
1984
1984
1983
1982
1982
1983
1983
1984
1985
1985
1985
1984
1984
1983
1983
1983
1983
1984
1985
1986
1986
1985
1984
1983
1982
1982
1983
1983
1984
1984
1984
1984
1983
1982
1982
1983
1984
1985
1985
1984
1984
1983
1982
1982
1982
1982
1983
1983
1984
1984
1984
1983
1983
1982
1982
1982
1982
1982
1982
1982
1982
1982
1982
1981
1981
1981
1981
1982
1982
1983
1983
1983
1982
1982
1981
1981
1981
1982
1982
1983
1982
1982
1981
1980
1980
1980
1980
1981
1981
1981
1981
1981
1981
1980
1980
1980
1981
1981
1981
1981
1981
1980
1980
1979
1979
1979
1979
1980
1980
1981
1981
1980
1979
1978
1978
1978
1979
1979
1979
1979
1979
1979
1979
1978
1978
1978
1978
1979
1979
1979
1979
1978
1977
1977
1976
1976
1976
1976
1976
1978
1980
1983
1984
1984
1984
1983
1981
1980
1978
1977
1975
1974
1973
1972
1971
1971
1971
1972
1972
1971
1971
1970
1969
1968
1968
1969
1968
1967
1964
1962
1963
1972
1992
2025
2063
2095
2105
2085
2041
1989
1947
1929
1932
1947
1961
1967
1967
1965
1963
1962
1962
1963
1963
1963
1962
1962
1962
1963
1964
1965
1966
1965
1965
1965
1965
1965
1965
1965
1966
1966
1967
1967
1968
1968
1968
1968
1969
1970
1971
1972
1974
1974
1975
1975
1975
1975
1976
1978
1979
1981
1983
1985
1986
1987
1988
1989
1991
1993
1996
1998
2000
2001
2002
2002
2003
2004
2005
2006
2007
2006
2004
2000
1995
1990
1986
1982
1978
1975
1972
1969
1965
1963
1961
1959
1958
1957
1957
1957
1957
1956
1956
1956
1956
1955
1955
1955
1955
1956
1956
1957
1957
1957
1956
1956
1955
1956
1957
1958
1959
1959
1959
1959
1958
1957
1957
1957
1957
1957
1958
1959
1959
1959
1959
1959
1959
1958
1958
1959
1959
1960
1960
1960
1959
1959
1958
1958
1959
1959
1960
1960
1960
1960
1960
1960
1959
1959
1958
1959
1959
1960
1961
1961
1960
1960
1960
1960
1960
1961
1962
1962
1962
1962
1962
1961
1961
1962
1962
1963
1964
1964
1964
1964
1963
1962
1962
1962
1962
1962
1963
1963
1963
1963
1963
1962
1962
1962
1963
1963
1964
1964
1963
1963
1962
1962
1962
1962
1963
1964
1964
1964
1964
1964
1963
1963
1962
1962
1963
1963
1964
1965
1965
1964
1963
1963
1962
1963
1963
1964
1965
1965
1965
1964
1963
1962
1962
1962
1963
1964
1964
1965
1964
1964
1963
1962
1961
1962
1964
1967
1970
1973
1974
1974
1973
1972
1970
1968
1967
1966
1965
1965
1964
1963
1963
1962
1962
1963
1964
1965
1965
1965
1965
1965
1965
1965
1964
1962
1959
1960
1966
1983
2012
2048
2082
2099
2088
2051
2003
1959
1935
1933
1946
1961
1969
1971
1968
1967
1967
1968
1970
1970
1971
1971
1971
1971
1971
1973
1974
1975
1976
1976
1977
1977
1977
1977
1978
1978
1979
1980
1980
1981
1981
1982
1981
1981
1982
1983
1984
1986
1988
1989
1991
1991
1992
1993
1995
1997
1999
2002
2004
2007
2009
2011
2013
2015
2018
2020
2023
2027
2031
2034
2036
2038
2039
2039
2039
2039
2039
2038
2036
2034
2030
2026
2021
2017
2012
2008
2006
2004
2002
2001
1999
1997
1995
1993
1991
1990
1990
1990
1990
1990
1991
1991
1991
1991
1991
1991
1992
1993
1994
1995
1996
1996
1995
1995
1995
1995
1996
1997
1998
1999
1999
1999
1998
1998
1998
1999
2000
2002
2005
2006
2008
2008
2008
2008
2008
2009
2010
2012
2013
2014
2015
2015
2014
2014
2015
2015
2016
2017
2017
2018
2018
2018
2017
2017
2016
2016
2017
2017
2018
2018
2018
2018
2017
2017
2017
2018
2018
2019
2020
2020
2020
2020
2020
2019
2019
2019
2020
2020
2020
2020
2019
2018
2017
2018
2020
2022
2025
2028
2030
2030
2029
2026
2023
2021
2019
2018
2017
2017
2017
2016
2015
2015
2014
2014
2014
2015
2015
2015
2015
2015
2015
2016
2015
2013
2010
2006
2007
2014
2032
2062
2101
2135
2150
2136
2094
2041
1994
1969
1968
1983
2002
2014
2017
2015
2013
2010
2010
2011
2011
2011
2011
2011
2011
2010
2010
2010
2010
2010
2011
2012
2012
2012
2012
2012
2011
2012
2012
2013
2014
2014
2015
2015
2015
2015
2015
2015
2016
2018
2019
2020
2021
2021
2021
2022
2022
2024
2026
2029
2031
2033
2035
2037
2039
2041
2044
2046
2048
2049
2051
2053
2054
2055
2054
2052
2050
2048
2045
2041
2037
2031
2026
2019
2014
2009
2004
2001
1998
1997
1996
1995
1994
1993
1992
1990
1989
1989
1989
1989
1989
1990
1990
1989
1989
1988
1988
1987
1988
1988
1989
1990
1990
1990
1989
1989
1989
1989
1990
1990
1991
1991
1992
1991
1991
1990
1990
1990
1991
1991
1992
1992
1992
1991
1991
1990
1990
1989
1989
1989
1990
1990
1990
1990
1989
1988
1988
1987
1988
1988
1988
1989
1989
1989
1988
1988
1987
1986
1986
1987
1987
1986
1985
1984
1984
1985
1987
1991
1994
1996
1996
1995
1993
1991
1988
1986
1984
1983
1983
1983
1983
1983
1982
1982
1981
1980
1979
1979
1979
1980
1980
1980
1981
1982
1982
1980
1977
1974
1973
1978
1995
2025
2065
2104
2125
2116
2077
2023
1971
1940
1935
1948
1967
1979
1982
1980
1977
1975
1975
1977
1978
1978
1978
1978
1978
1978
1978
1978
1978
1979
1980
1980
1981
1981
1981
1981
1981
1981
1981
1982
1982
1982
1983
1983
1984
1983
1983
1984
1985
1986
1987
1988
1989
1990
1990
1991
1992
1993
1995
1997
1999
2001
2003
2005
2006
2008
2011
2013
2016
2018
2020
2021
2022
2022
2021
2019
2016
2013
2009
2005
2001
1996
1991
1986
1981
1977
1973
1971
1969
1968
1967
1967
1966
1965
1964
1963
1962
1961
1962
1963
1964
1964
1964
1964
1963
1963
1962
1962
1963
1963
1964
1965
1965
1964
1963
1962
1961
1961
1961
1961
1962
1962
1962
1962
1961
1960
1960
1959
1960
1961
1962
1962
1963
1962
1961
1960
1960
1960
1960
1961
1961
1962
1962
1962
1961
1961
1961
1962
1962
1962
1962
1962
1962
1962
1962
1961
1961
1961
1962
1962
1962
1963
1963
1963
1963
1962
1962
1962
1962
1962
1963
1963
1963
1962
1961
1960
1959
1959
1960
1962
1965
1968
1970
1972
1972
1971
1970
1968
1966
1965
1964
1963
1962
1960
1959
1959
1959
1959
1960
1961
1961
1961
1961
1960
1959
1959
1959
1959
1960
1960
1959
1957
1955
1956
1964
1985
2020
2061
2096
2108
2088
2042
1985
1939
1918
1921
1937
1954
1962
1964
1962
1959
1958
1958
1958
1958
1958
1959
1959
1960
1961
1961
1961
1961
1961
1961
1961
1962
1963
1964
1965
1965
1965
1965
1966
1966
1966
1967
1968
1969
1970
1971
1971
1971
1971
1972
1972
1973
1975
1977
1978
1980
1981
1982
1984
1985
1987
1990
1993
1996
1998
2000
2002
2003
2004
2005
2007
2008
2008
2008
2007
2005
2002
1998
1993
1987
1982
1977
1973
1969
1966
1964
1962
1960
1958
1957
1955
1954
1954
1954
1955
1955
1955
1955
1954
1954
1953
1953
1953
1954
1955
1956
1956
1955
1955
1954
1954
1954
1955
1956
1957
1958
1958
1957
1957
1956
1957
1957
1957
1958
1958
1959
1959
1958
1957
1956
1956
1956
1957
1959
1960
1960
1960
1959
1959
1958
1958
1959
1959
1960
1960
1960
1960
1959
1958
1958
1958
1959
1959
1960
1961
1961
1961
1961
1961
1960
1960
1960
1960
1961
1962
1962
1962
1961
1961
1961
1960
1960
1961
1961
1962
1962
1963
1962
1962
1961
1961
1961
1962
1962
1963
1963
1963
1963
1962
1962
1962
1962
1962
1963
1963
1963
1964
1964
1963
1963
1963
1964
1964
1964
1964
1964
1964
1964
1963
1963
1963
1963
1964
1965
1965
1965
1965
1965
1964
1964
1964
1964
1965
1965
1966
1966
1966
1966
1965
1963
1963
1964
1966
1969
1973
1975
1977
1977
1975
1974
1972
1970
1969
1968
1968
1967
1967
1966
1966
1965
1964
1964
1964
1965
1966
1966
1967
1967
1966
1966
1966
1966
1964
1962
1962
1965
1976
2001
2038
2079
2109
2114
2087
2037
1982
1943
1928
1935
1951
1964
1969
1968
1966
1964
1964
1965
1966
1966
1966
1965
1965
1966
1967
1968
1969
1970
1970
1970
1970
1970
1970
1971
1971
1972
1974
1975
1976
1976
1976
1975
1975
1976
1977
1979
1981
1984
1986
1987
1988
1989
1991
1993
1996
1999
2002
2004
2006
2007
2009
2011
2013
2016
2019
2022
2025
2028
2030
2032
2033
2033
2034
2034
2035
2035
2035
2033
2029
2024
2019
2013
2008
2003
2000
1997
1995
1993
1991
1989
1987
1986
1985
1984
1984
1984
1984
1985
1985
1985
1984
1983
1983
1982
1982
1982
1982
1983
1983
1982
1982
1982
1982
1982
1983
1984
1985
1986
1986
1986
1985
1984
1984
1984
1984
1985
1985
1986
1985
1985
1984
1983
1983
1984
1984
1985
1985
1984
1984
1983
1983
1982
1982
1981
1981
1982
1983
1984
1983
1983
1982
1982
1983
1983
1984
1984
1984
1984
1984
1983
1983
1983
1983
1983
1983
1983
1984
1984
1985
1985
1984
1984
1983
1982
1983
1984
1985
1985
1985
1985
1984
1982
1981
1981
1982
1983
1986
1989
1992
1994
1994
1994
1992
1990
1989
1987
1987
1986
1985
1985
1984
1983
1983
1982
1982
1982
1983
1983
1982
1982
1981
1980
1980
1981
1982
1983
1981
1978
1974
1975
1984
2006
2042
2083
2117
2127
2105
2056
1999
1952
1930
1932
1949
1968
1980
1983
1982
1980
1978
1977
1977
1977
1977
1977
1978
1979
1980
1980
1980
1980
1980
1979
1980
1980
1981
1982
1982
1982
1982
1983
1983
1983
1983
1984
1985
1986
1987
1988
1989
1990
1990
1991
1992
1992
1993
1995
1996
1998
2000
2002
2004
2005
2008
2011
2014
2017
2020
2022
2024
2026
2027
2029
2030
2031
2031
2031
2030
2028
2024
2019
2013
2007
2001
1995
1991
1987
1984
1981
1978
1975
1973
1971
1969
1968
1968
1968
1968
1968
1968
1968
1967
1967
1966
1966
1966
1967
1967
1968
1968
1968
1967
1966
1966
1966
1967
1968
1969
1969
1969
1969
1969
1969
1969
1969
1970
1971
1972
1972
1972
1972
1971
1971
1971
1971
1971
1971
1972
1972
1972
1972
1971
1970
1970
1970
1970
1971
1972
1972
1972
1971
1971
1970
1970
1970
1971
1971
1972
1972
1971
1971
1970
1969
1969
1969
1969
1968
1968
1968
1968
1970
1972
1974
1976
1977
1978
1978
1977
1976
1974
1971
1969
1967
1966
1965
1966
1966
1967
1967
1967
1966
1965
1965
1964
1964
1965
1966
1967
1968
1968
1967
1964
1960
1958
1962
1976
2005
2047
2090
2119
2118
2083
2027
1968
1930
1919
1930
1949
1963
1968
1966
1962
1959
1958
1958
1959
1960
1961
1961
1962
1962
1961
1961
1961
1961
1962
1963
1964
1964
1964
1964
1964
1964
1964
1965
1965
1966
1967
1967
1968
1969
1969
1970
1971
1972
1972
1974
1975
1977
1978
1979
1981
1982
1984
1986
1988
1991
1993
1996
1998
2000
2002
2004
2005
2007
2008
2010
2012
2012
2011
2009
2006
2002
1997
1991
1986
1981
1976
1971
1967
1963
1959
1956
1954
1953
1952
1952
1951
1951
1950
1949
1949
1948
1948
1947
1947
1948
1949
1949
1949
1949
1949
1948
1948
1948
1949
1949
1950
1950
1951
1951
1950
1950
1950
1950
1951
1951
1952
1952
1952
1952
1951
1951
1950
1950
1950
1950
1950
1950
1950
1949
1949
1949
1949
1949
1950
1950
1951
1951
1951
1950
1950
1949
1949
1949
1949
1950
1951
1951
1951
1950
1949
1949
1949
1949
1949
1950
1951
1951
1951
1951
1951
1950
1950
1950
1951
1952
1953
1953
1953
1952
1952
1952
1951
1951
1952
1952
1953
1953
1953
1953
1953
1952
