2038
2038
2037
2037
2037
2037
2037
2038
2038
2038
2038
2037
2036
2036
2037
2037
2037
2037
2038
2040
2042
2044
2044
2043
2041
2040
2039
2039
2039
2040
2039
2038
2038
2037
2038
2038
2039
2039
2038
2037
2037
2039
2043
2048
2057
2067
2081
2097
2111
2120
2118
2106
2086
2064
2048
2040
2037
2037
2039
2038
2036
2035
2035
2034
2035
2035
2035
2035
2035
2035
2034
2035
2035
2034
2033
2035
2035
2036
2037
2036
2036
2036
2037
2040
2042
2043
2042
2042
2041
2042
2042
2042
2043
2043
2044
2046
2047
2048
2049
2050
2051
2052
2053
2054
2055
2056
2056
2059
2058
2056
2053
2050
2049
2051
2054
2055
2052
2048
2043
2040
2037
2039
2038
2037
2037
2036
2037
2036
2036
2035
2035
2035
2035
2035
2035
2036
2036
2037
2038
2038
2037
2033
2031
2031
2035
2041
2045
2046
2043
2038
2035
2033
2036
2037
2038
2038
2037
2037
2037
2037
2037
2037
2037
2036
2036
2037
2037
2037
2038
2038
2037
2037
2035
2035
2036
2037
2039
2040
2040
2038
2036
2035
2035
2036
2036
2036
2037
2037
2037
2036
2036
2036
2036
2036
2036
2036
2036
2037
2036
2036
2037
2036
2036
2035
2035
2035
2037
2040
2042
2042
2040
2038
2036
2035
2036
2036
2037
2037
2037
2037
2037
2037
2036
2037
2037
2037
2037
2037
2037
2037
2037
2037
2037
2036
2035
2035
2035
2037
2040
2042
2043
2042
2042
2041
2039
2039
2039
2039
2042
2045
2047
2045
2041
2037
2035
2034
2036
2038
2038
2038
2037
2035
2035
2035
2036
2039
2044
2050
2060
2073
2092
2109
2120
2122
2110
2090
2069
2052
2042
2039
2039
2039
2038
2037
2036
2036
2036
2036
2037
2036
2036
2035
2035
2034
2036
2037
2038
2037
2035
2035
2036
2039
2041
2042
2042
2041
2041
2040
2041
2042
2042
2042
2043
2043
2044
2045
2047
2048
2048
2049
2049
2050
2053
2053
2054
2057
2058
2058
2058
2058
2058
2059
2060
2061
2062
2058
2057
2054
2052
2051
2050
2048
2046
2043
2043
2043
2042
2042
2041
2040
2040
2039
2039
2039
2039
2040
2039
2042
2041
2040
2036
2034
2035
2039
2043
2045
2045
2042
2038
2037
2037
2040
2039
2039
2040
2040
2040
2040
2040
2040
2040
2040
2038
2036
2035
2035
2036
2038
2042
2042
2041
2036
2032
2031
2034
2041
2047
2048
2045
2039
2035
2031
2034
2035
2037
2037
2037
2038
2038
2038
2037
2037
2037
2038
2038
2038
2039
2038
2037
2038
2038
2038
2036
2034
2033
2035
2038
2041
2042
2040
2037
2033
2031
2033
2034
2035
2036
2036
2035
2035
2034
2035
2035
2035
2035
2035
2034
2034
2034
2033
2033
2033
2032
2030
2028
2029
2031
2035
2038
2040
2039
2037
2035
2034
2035
2035
2036
2035
2033
2033
2032
2032
2032
2033
2033
2034
2034
2034
2034
2033
2032
2032
2034
2038
2043
2049
2059
2075
2094
2112
2122
2120
2105
2082
2059
2045
2038
2036
2036
2036
2034
2033
2032
2033
2034
2034
2034
2034
2035
2035
2035
2036
2036
2037
2035
2033
2032
2033
2035
2038
2041
2041
2039
2037
2037
2037
2038
2041
2041
2042
2043
2043
2043
2044
2045
2046
2048
2051
2053
2055
2055
2056
2056
2057
2059
2061
2061
2060
2058
2057
2059
2062
2064
2065
2062
2057
2052
2048
2047
2046
2044
2043
2041
2040
2040
2039
2039
2038
2038
2037
2037
2037
2036
2037
2037
2038
2038
2037
2037
2035
2035
2037
2040
2043
2044
2043
2040
2039
2038
2038
2039
2038
2038
2037
2037
2039
2039
2040
2039
2038
2038
2037
2037
2037
2038
2038
2039
2039
2039
2038
2036
2034
2034
2036
2040
2042
2043
2040
2037
2034
2034
2035
2035
2036
2037
2037
2037
2037
2037
2037
2038
2038
2039
2038
2038
2038
2038
2038
2041
2040
2040
2037
2033
2031
2033
2039
2044
2047
2045
2041
2037
2034
2037
2037
2040
2039
2038
2038
2038
2038
2038
2038
2039
2038
2039
2039
2039
2039
2037
2039
2039
2040
2039
2038
2039
2041
2045
2048
2049
2047
2043
2040
2037
2038
2039
2040
2040
2040
2040
2040
2040
2040
2039
2038
2037
2038
2041
2046
2051
2058
2069
2084
2101
2115
2120
2113
2097
2079
2064
2053
2047
2043
2040
2037
2036
2037
2038
2038
2038
2038
2037
2037
2037
2036
2036
2037
2037
2038
2038
2038
2039
2039
2040
2041
2040
2039
2039
2040
2043
2047
2048
2048
2046
2043
2042
2042
2045
2048
2049
2051
2052
2053
2052
2051
2051
2052
2054
2056
2058
2058
2058
2059
2060
2060
2060
2060
2058
2056
2055
2054
2054
2053
2051
2048
2046
2043
2041
2041
2041
2041
2041
2040
2039
2038
2038
2038
2039
2040
2040
2040
2040
2039
2039
2038
2041
2042
2041
2041
2039
2038
2038
2040
2043
2043
2043
2041
2040
2039
2040
2041
2040
2041
2041
2041
2041
2041
2041
2041
2041
2041
2040
2039
2039
2039
2038
2040
2039
2039
2038
2036
2036
2037
2039
2041
2041
2040
2038
2037
2036
2037
2036
2037
2037
2037
2037
2037
2037
2038
2038
2038
2038
2038
2038
2038
2038
2038
2039
2040
2039
2037
2035
2035
2036
2039
2043
2043
2042
2040
2037
2036
2037
2038
2037
2037
2038
2037
2037
2038
2038
2039
2038
2039
2039
2039
2038
2037
2036
2039
2043
2047
2048
2046
2042
2039
2039
2041
2043
2043
2040
2038
2036
2036
2038
2039
2039
2038
2038
2036
2037
2039
2042
2048
2055
2066
2080
2097
2112
2120
2115
2102
2080
2058
2045
2037
2037
2040
2042
2041
2040
2038
2036
2035
2034
2036
2036
2036
2036
2036
2036
2036
2036
2035
2035
2036
2036
2037
2037
2038
2038
2038
2040
2039
2040
2039
2039
2040
2042
2045
2048
2048
2046
2045
2043
2043
2046
2047
2049
2050
2051
2052
2053
2054
2055
2056
2057
2057
2057
2057
2056
2055
2054
2052
2051
2048
2047
2043
2040
2040
2041
2042
2042
2040
2037
2034
2033
2032
2034
2034
2034
2034
2034
2033
2034
2034
2035
2035
2036
2036
2036
2036
2036
2036
2036
2036
2036
2036
2035
2034
2035
2036
2037
2039
2038
2037
2035
2032
2031
2032
2032
2032
2032
2031
2031
2030
2031
2031
2033
2033
2034
2033
2033
2032
2032
2031
2034
2035
2034
2032
2029
2028
2029
2033
2037
2039
2037
2033
2031
2029
2031
2032
2031
2030
2030
2029
2029
2030
2030
2030
2029
2030
2029
2029
2030
2029
2029
2030
2030
2030
2030
2028
2027
2027
2029
2032
2034
2035
2033
2031
2029
2029
2028
2029
2030
2030
2032
2033
2034
2035
2035
2035
2034
2033
2032
2032
2032
2032
2032
2033
2034
2033
2031
2029
2028
2029
2033
2037
2040
2041
2043
2048
2054
2068
2083
2101
2111
2112
2103
2084
2063
2048
2037
2033
2033
2033
2033
2032
2031
2031
2032
2031
2030
2028
2027
2028
2030
2034
2036
2036
2034
2033
2031
2030
2032
2032
2033
2033
2035
2036
2037
2038
2038
2038
2039
2039
2040
2041
2042
2043
2042
2046
2046
2046
2045
2045
2047
2049
2053
2057
2058
2057
2055
2054
2052
2054
2055
2055
2055
2055
2053
2051
2049
2048
2046
2044
2042
2040
2039
2038
2037
2036
2036
2035
2036
2035
2033
2032
2033
2035
2037
2038
2037
2036
2034
2033
2033
2033
2035
2035
2036
2036
2036
2036
2035
2036
2036
2036
2037
2037
2037
2037
2037
2036
2036
2036
2035
2034
2034
2035
2037
2038
2039
2037
2035
2033
2032
2034
2034
2035
2034
2035
2034
2034
2034
2034
2034
2035
2035
2035
2035
2035
2034
2034
2035
2036
2035
2035
2034
2034
2034
2036
2037
2039
2037
2036
2034
2033
2034
2034
2035
2035
2035
2035
2035
2035
2036
2037
2038
2040
2041
2041
2041
2040
2038
2036
2038
2037
2036
2035
2033
2033
2034
2036
2039
2039
2038
2035
2033
2032
2034
2036
2040
2047
2054
2064
2079
2096
2111
2117
2113
2097
2076
2056
2044
2037
2035
2037
2036
2035
2033
2031
2031
2031
2034
2036
2037
2036
2035
2034
2033
2034
2033
2033
2034
2032
2033
2035
2035
2036
2036
2037
2037
2037
2038
2038
2039
2039
2040
2041
2041
2041
2040
2040
2041
2044
2048
2050
2052
2051
2051
2050
2051
2053
2054
2055
2056
2056
2056
2056
2055
2054
2053
2051
2050
2048
2047
2045
2043
2041
2042
2040
2039
2036
2033
2031
2032
2036
2040
2042
2040
2037
2033
2030
2033
2033
2036
2036
2036
2036
2036
2036
2036
2035
2036
2036
2036
2036
2037
2037
2036
2039
2038
2037
2035
2033
2033
2035
2039
2042
2042
2040
2036
2034
2032
2034
2036
2036
2036
2036
2036
2036
2035
2035
2035
2034
2035
2035
2035
2036
2036
2035
2036
2035
2036
2034
2034
2033
2034
2036
2037
2038
2037
2036
2034
2033
2034
2034
2036
2035
2035
2035
2034
2034
2034
2034
2036
2036
2038
2039
2040
2041
2040
2040
2041
2040
2039
2037
2036
2036
2036
2037
2038
2038
2037
2036
2035
2035
2036
2034
2034
2034
2035
2039
2044
2051
2060
2073
2089
2105
2116
2117
2105
2086
2064
2048
2040
2037
2037
2037
2035
2035
2036
2037
2038
2037
2035
2031
2029
2030
2032
2036
2038
2038
2035
2032
2031
2031
2033
2035
2037
2036
2037
2036
2037
2036
2039
2040
2040
2039
2038
2038
2039
2041
2045
2047
2047
2046
2047
2046
2048
2050
2051
2052
2053
2054
2054
2055
2055
2055
2055
2055
2054
2052
2051
2049
2047
2046
2045
2045
2043
2039
2036
2034
2035
2038
2041
2041
2040
2038
2035
2035
2035
2035
2036
2035
2036
2036
2036
2037
2037
2037
2036
2036
2036
2037
2037
2037
2038
2040
2038
2037
2035
2035
2036
2040
2043
2044
2042
2040
2037
2036
2037
2038
2037
2037
2037
2037
2036
2036
2036
2035
2035
2035
2035
2034
2035
2035
2035
2038
2038
2037
2035
2033
2032
2033
2036
2038
2039
2038
2036
2035
2034
2034
2035
2035
2035
2034
2035
2035
2035
2034
2034
2034
2033
2033
2033
2034
2034
2036
2036
2039
2039
2037
2035
2032
2032
2034
2037
2041
2041
2038
2034
2032
2031
2033
2035
2035
2035
2034
2032
2032
2033
2036
2041
2048
2058
2069
2084
2098
2109
2112
2105
2087
2067
2048
2037
2032
2033
2036
2038
2037
2034
2032
2030
2028
2029
2029
2030
2030
2030
2030
2031
2030
2030
2030
2031
2031
2031
2032
2032
2033
2033
2033
2036
2035
2035
2034
2033
2035
2037
2041
2044
2044
2042
2041
2042
2042
2046
2046
2047
2048
2048
2049
2050
2051
2051
2052
2053
2053
2053
2053
2052
2051
2049
2048
2047
2044
2042
2039
2038
2038
2038
2039
2037
2036
2034
2032
2032
2033
2033
2034
2034
2033
2033
2033
2033
2033
2034
2036
2036
2037
2036
2036
2036
2034
2037
2037
2037
2036
2034
2034
2034
2036
2038
2039
2039
2037
2036
2035
2037
2037
2037
2038
2037
2038
2037
2038
2038
2038
2038
2038
2037
2037
2037
2036
2035
2037
2037
2038
2036
2036
2035
2035
2036
2037
2039
2039
2039
2038
2036
2035
2034
2034
2034
2036
2038
2038
2039
2040
2041
2041
2040
2039
2039
2038
2037
2037
2038
2038
2038
2038
2036
2036
2036
2038
2040
2039
2038
2038
2039
2045
2052
2064
2078
2093
2107
2116
2114
2102
2084
2064
2049
2041
2038
2037
2037
2037
2037
2036
2037
2035
2035
2034
2032
2032
2033
2036
2039
2041
2040
2039
2036
2034
2035
2035
2037
2038
2038
2039
2040
2040
2040
2041
2041
2041
2042
2043
2044
2044
2044
2047
2047
2047
2047
2048
2049
2051
2055
2057
2058
2057
2056
2055
2054
2056
2056
2057
2056
2055
2053
2051
2049
2048
2046
2044
2043
2042
2041
2040
2039
2038
2039
2037
2038
2036
2034
2032
2032
2036
2040
2043
2043
2040
2037
2035
2035
2035
2037
2037
2036
2037
2037
2037
2037
2038
2038
2039
2039
2039
2039
2039
2037
2039
2040
2038
2037
2034
2033
2034
2038
2042
2043
2041
2038
2035
2033
2034
2036
2036
2036
2036
2036
2035
2035
2035
2035
2035
2036
2036
2036
2036
2036
2036
2036
2036
2035
2035
2033
2033
2033
2036
2038
2039
2038
2036
2034
2034
2033
2036
2037
2039
2039
2039
2039
2038
2038
2038
2038
2037
2036
2037
2036
2036
2036
2036
2038
2038
2036
2034
2031
2031
2033
2039
2046
2052
2060
2071
2086
2102
2116
2119
2108
2089
2067
2049
2040
2037
2037
2037
2036
2034
2033
2033
2033
2032
2032
2033
2033
2032
2031
2029
2029
2030
2033
2036
2037
2037
2037
2036
2034
2036
2036
2036
2036
2038
2038
2038
2039
2040
2041
2042
2042
2043
2043
2044
2045
2046
2048
2049
2049
2049
2049
2048
2050
2053
2056
2059
2059
2058
2056
2054
2053
2053
2051
2050
2048
2048
2046
2044
2043
2041
2039
2039
2038
2038
2037
2037
2038
2036
2037
2036
2036
2034
2032
2033
2035
2038
2041
2042
2041
2040
2037
2034
2036
2035
2037
2038
2038
2039
2039
2039
2038
2039
2039
2039
2038
2036
2035
2036
2038
2043
2044
2043
2038
2034
2032
2034
2038
2040
2040
2039
2036
2035
2034
2035
2036
2036
2037
2037
2037
2037
2037
2037
2036
2037
2037
2037
2037
2037
2037
2037
2037
2037
2037
2035
2033
2033
2034
2039
2043
2046
2046
2043
2040
2038
2038
2038
2039
2038
2038
2038
2037
2037
2036
2036
2037
2037
2038
2038
2036
2035
2034
2036
2040
2045
2051
2059
2073
2090
2108
2121
2121
2109
2086
2063
2047
2038
2037
2037
2038
2037
2035
2034
2034
2034
2033
2033
2034
2034
2034
2034
2034
2033
2032
2035
2034
2035
2033
2032
2033
2035
2038
2041
2041
2040
2039
2038
2037
2040
2040
2041
2041
2041
2042
2042
2044
2045
2047
2048
2049
2050
2050
2051
2052
2051
2054
2054
2055
2055
2053
2052
2052
2053
2053
2052
2050
2048
2045
2042
2042
2041
2039
2038
2037
2037
2036
2036
2037
2037
2037
2036
2036
2036
2037
2036
2036
2037
2037
2039
2037
2037
2036
2037
2039
2040
2041
2040
2039
2038
2038
2039
2038
2038
2037
2036
2037
2038
2038
2038
2038
2038
2037
2037
2037
2037
2037
2036
2038
2038
2037
2036
2034
2034
2035
2037
2040
2041
2039
2037
2035
2034
2035
2036
2036
2036
2037
2036
2036
2036
2036
2036
2037
2037
2037
2037
2037
2037
2037
2038
2039
2038
2038
2036
2034
2033
2035
2038
2041
2042
2042
2040
2037
2036
2038
2038
2041
2041
2040
2040
2039
2038
2037
2036
2036
2035
2035
2035
2035
2036
2035
2038
2036
2034
2031
2029
2030
2035
2044
2051
2060
2069
2082
2096
2108
2113
2107
2091
2071
2053
2043
2037
2036
2036
2035
2034
2033
2032
2032
2032
2032
2031
2032
2031
2032
2030
2030
2030
2031
2034
2038
2039
2038
2035
2033
2031
2033
2035
2037
2037
2038
2038
2038
2038
2037
2038
2038
2040
2041
2042
2043
2044
2045
2045
2048
2048
2048
2048
2048
2049
2053
2057
2059
2057
2053
2050
2049
2048
2050
2048
2047
2045
2042
2040
2039
2038
2037
2037
2036
2036
2035
2035
2034
2034
2033
2035
2035
2034
2032
2030
2030
2033
2037
2040
2041
2038
2035
2033
2032
2035
2036
2037
2036
2035
2035
2035
2036
2036
2037
2037
2036
2037
2036
2036
2036
2033
2036
2035
2035
2034
2033
2033
2034
2036
2038
2037
2036
2034
2034
2033
2035
2035
2035
2035
2034
2035
2035
2035
2035
2035
2036
2035
2035
2035
2035
2034
2034
2035
2035
2036
2035
2033
2032
2032
2035
2039
2042
2042
2041
2039
2037
2038
2039
2040
2040
2038
2038
2037
2037
2038
2037
2038
2038
2038
2039
2038
2036
2035
2035
2037
2041
2046
2052
2062
2076
2093
2109
2118
2115
2101
2080
2061
2047
2041
2039
2039
2039
2038
2037
2036
2036
2035
2035
2035
2035
2035
2035
2036
2037
2037
2038
2037
2036
2034
2032
2033
2035
2038
2042
2044
2044
2043
2040
2038
2040
2039
2041
2042
2043
2044
2045
2046
2046
2047
2048
2048
2049
2051
2052
2053
2053
2056
2055
2055
2054
2053
2053
2054
2056
2057
2056
2052
2048
2046
2043
2043
2042
2040
2040
2038
2038
2038
2037
2037
2036
2035
2035
2035
2035
2036
2036
2036
2037
2037
2037
2035
2033
2033
2033
2037
2040
2041
2040
2038
2036
2034
2035
2037
2038
2038
2037
2037
2037
2037
2037
2036
2036
2036
2036
2036
2035
2035
2034
2035
2036
2035
2034
2033
2032
2033
2036
2039
2040
2039
2036
2034
2033
2033
2035
2035
2035
2035
2035
2035
2035
2035
2035
2035
2035
2035
2035
2035
2035
2035
2034
2036
2035
2034
2032
2031
2031
2034
2038
2040
2040
2039
2037
2037
2037
2041
2041
2040
2039
2038
2037
2036
2036
2036
2037
2037
2037
2037
2037
2037
2036
2034
2035
2034
2034
2036
2039
2046
2055
2071
2089
2105
2113
2112
2103
2086
2071
2058
2049
2044
2040
2036
2034
2033
2033
2034
2033
2032
2032
2032
2032
2031
2031
2032
2033
2033
2032
2030
2029
2030
2035
2040
2043
2042
2039
2036
2033
2034
2035
2037
2040
2040
2041
2040
2041
2041
2042
2043
2044
2045
2047
2048
2049
2050
2052
2053
2054
2054
2052
2051
2051
2053
2057
2060
2059
2056
2052
2048
2046
2046
2045
2043
2042
2040
2039
2038
2038
2038
2038
2038
2037
2036
2036
2037
2037
2037
2039
2038
2038
2036
2033
2032
2034
2038
2043
2046
2045
2042
2038
2034
2036
2036
2039
2040
2040
2040
2040
2039
2038
2037
2037
2037
2037
2038
2038
2038
2036
2037
2037
2037
2035
2033
2032
2033
2037
2041
2043
2041
2038
2034
2032
2034
2035
2036
2036
2036
2036
2036
2035
2036
2034
2035
2035
2035
2035
2035
2035
2034
2034
2036
2036
2034
2031
2029
2030
2035
2041
2045
2044
2041
2037
2035
2035
2038
2039
2039
2039
2040
2039
2038
2037
2036
2036
2036
2036
2037
2037
2037
2036
2035
2035
2036
2039
2042
2048
2057
2072
2092
2110
2121
2120
2107
2087
2065
2050
2041
2037
2037
2037
2037
2036
2035
2034
2033
2034
2035
2035
2036
2035
2034
2033
2034
2034
2035
2033
2032
2032
2033
2037
2040
2041
2040
2037
2035
2034
2036
2037
2039
2039
2040
2040
2041
2042
2043
2044
2046
2047
2048
2048
2048
2049
2048
2052
2053
2054
2053
2051
2049
2050
2054
2057
2058
2055
2051
2048
2044
2043
2043
2041
2040
2038
2037
2036
2036
2036
2036
2035
2035
2034
2034
2034
2034
2033
2034
2035
2036
2034
2033
2031
2031
2034
2037
2039
2038
2036
2034
2031
2031
2032
2033
2034
2036
2038
2038
2036
2034
2033
2033
2032
2034
2034
2033
2033
2033
2035
2035
2035
2034
2032
2030
2031
2034
2038
2040
2040
2037
2034
2032
2032
2032
2032
2032
2032
2032
2033
2034
2034
2034
2033
2033
2032
2031
2032
2032
2032
2034
2035
2035
2035
2033
2032
2032
2035
2038
2041
2041
2038
2034
2031
2030
2031
2032
2034
2034
2035
2035
2033
2032
2031
2031
2035
2040
2048
2058
2072
2088
2102
2112
2110
2096
2074
2052
2038
2033
2036
2039
2039
2035
2030
2026
2025
2025
2027
2027
2028
2028
2029
2030
2030
2030
2031
2031
2032
2033
2033
2034
2034
2034
2035
2036
2036
2034
2032
2032
2034
2039
2044
2046
2044
2041
2039
2039
2042
2045
2047
2048
2048
2049
2049
2050
2052
2052
2053
2053
2054
2054
2054
2054
2053
2052
2052
2050
2048
2046
2044
2043
2043
2044
2043
2042
2039
2036
2035
2035
2036
2036
2037
2036
2036
2036
2036
2037
2037
2037
2038
2038
2038
2038
2038
2037
2037
2037
2037
2038
2038
2038
2039
2040
2040
2040
2040
2039
2037
2036
2037
2037
2037
2038
2037
2037
2037
2036
2036
2036
2037
2037
2038
2038
2038
2037
2037
2035
2037
2037
2037
2036
2034
2033
2034
2036
2038
2039
2039
2039
2038
2038
2039
2040
2040
2039
2038
2037
2036
2036
2036
2037
2037
2037
2036
2036
2037
2036
2035
2035
2034
2037
2039
2043
2049
2058
2072
2090
2107
2118
2117
2106
2085
2064
2048
2039
2037
2037
2038
2037
2035
2034
2033
2033
2032
2033
2033
2033
2033
2034
2035
2036
2036
2036
2034
2033
2034
2036
2040
2043
2043
2042
2039
2037
2036
2038
2039
2041
2041
2042
2042
2043
2044
2045
2046
2047
2048
2048
2050
2051
2052
2053
2055
2056
2056
2055
2055
2055
2057
2059
2060
2059
2055
2051
2048
2046
2047
2045
2045
2044
2043
2042
2040
2040
2039
2038
2038
2037
2037
2036
2035
2035
2034
2036
2034
2033
2031
2029
2029
2032
2035
2038
2038
2035
2032
2031
2030
2032
2034
2034
2035
2035
2036
2036
2035
2036
2036
2036
2035
2033
2032
2032
2034
2036
2037
2038
2034
2029
2024
2024
2026
2031
2035
2036
2034
2030
2027
2025
2027
2030
2032
2032
2031
2031
2031
2031
2032
2032
2032
2031
2032
2032
2032
2033
2033
2035
2036
2036
2036
2035
2034
2034
2036
2037
2036
2034
2032
2030
2028
2029
2031
2032
2032
2030
2029
2028
2029
2033
2039
2046
2055
2068
2085
2103
2115
2118
2108
2088
2065
2047
2035
2031
2033
2035
2036
2036
2034
2032
2030
2028
2029
2029
2028
2028
2028
2027
2027
2027
2027
2028
2029
2030
2030
2030
2030
2030
2031
2031
2034
2035
2034
2034
2033
2034
2036
2040
2043
2044
2043
2042
2041
2041
2043
2044
2045
2046
2047
2047
2048
2048
2048
2048
2048
2048
2048
2047
2047
2045
2043
2042
2040
2038
2035
2032
2030
2030
2032
2034
2035
2034
2033
2032
2030
2032
2031
2031
2031
2030
2031
2032
2033
2033
2032
2030
2029
2028
2028
2029
2030
2031
2032
2032
2032
2032
2030
2029
2029
2030
2032
2034
2034
2033
2031
2030
2029
2030
2030
2030
2030
2030
2030
2030
2029
2029
2029
2029
2029
2030
2030
2030
2031
2030
2031
2031
2031
2028
2027
2026
2027
2030
2033
2036
2035
2033
2029
2026
2028
2027
2029
2030
2031
2032
2032
2033
2034
2035
2036
2036
2036
2036
2036
2035
2034
2035
2034
2033
2032
2030
2030
2032
2035
2037
2037
2034
2030
2027
2026
2029
2036
2045
2055
2069
2085
2101
2112
2115
2107
2089
2068
2051
2041
2037
2035
2035
2034
2032
2031
2029
2028
2027
2027
2030
2033
2034
2034
2033
2032
2031
2031
2032
2032
2033
2033
2034
2034
2034
2034
2034
2035
2036
2037
2038
2038
2038
2038
2038
2040
2041
2042
2041
2042
2043
2046
2050
2052
2052
2051
2050
2051
2051
2054
2054
2054
2053
2052
2051
2050
2048
2048
2047
2045
2044
2043
2042
2041
2039
2037
2038
2037
2036
2034
2033
2033
2035
2037
2039
2039
2037
2035
2034
2033
2035
2035
2035
2035
2035
2035
2035
2036
2036
2038
2039
2040
2041
2041
2041
2041
2040
2042
2041
2041
2040
2037
2036
2036
2037
2038
2038
2037
2035
2033
2032
2033
2033
2033
2033
2033
2034
2034
2034
2034
2034
2034
2033
2033
2032
2033
2032
2032
2033
2033
2035
2034
2034
2034
2035
2037
2038
2039
2038
2037
2035
2033
2034
2034
2035
2034
2033
2033
2034
2035
2036
2035
2035
2033
2032
2033
2033
2035
2035
2037
2038
2038
2037
2035
2035
2035
2036
2038
2038
2037
2035
2034
2031
2032
2033
2033
2033
2031
2030
2030
2030
2033
2038
2045
2053
2066
2083
2101
2116
2121
2113
2094
2070
2049
2036
2030
2030
2033
2036
2036
2035
2032
2030
2028
2027
2029
2029
2030
2030
2031
2031
2031
2032
2031
2031
2032
2032
2033
2033
2033
2034
2033
2036
2035
2035
2034
2032
2033
2036
2040
2043
2043
2042
2040
2040
2041
2044
2045
2045
2046
2046
2047
2048
2048
2049
2049
2049
2050
2050
2051
2051
2049
2048
2047
2045
2043
2040
2038
2036
2036
2036
2037
2038
2037
2035
2033
2032
2032
2032
2033
2033
2034
2034
2034
2034
2034
2034
2034
2035
2035
2035
2035
2035
2035
2034
2036
2035
2034
2033
2032
2034
2037
2040
2041
2039
2037
2034
2033
2032
2035
2035
2035
2036
2036
2036
2036
2036
2036
2036
2036
2037
2037
2037
2036
2035
2034
2034
2035
2035
2034
2033
2033
2033
2034
2036
2036
2034
2032
2030
2029
2031
2031
2032
2031
2031
2031
2032
2032
2033
2033
2034
2034
2033
2033
2032
2032
2031
2034
2034
2033
2031
2029
2029
2031
2035
2038
2038
2035
2032
2031
2031
2033
2036
2036
2037
2037
2038
2037
2037
2036
2035
2035
2034
2034
2033
2033
2033
2033
2034
2035
2035
2033
2031
2029
2031
2035
2042
2048
2053
2063
2079
2099
2117
2125
2118
2096
2069
2047
2034
2031
2034
2035
2034
2032
2031
2030
2029
2031
2031
2030
2031
2031
2030
2029
2028
2028
2030
2032
2033
2033
2033
2032
2032
2032
2033
2034
2035
2035
2036
2037
2037
2037
2038
2039
2040
2040
2041
2042
2043
2045
2046
2047
2048
2048
2048
2048
2048
2050
2053
2056
2057
2055
2054
2051
2049
2050
2048
2048
2047
2046
2045
2043
2042
2040
2039
2038
2037
2037
2037
2037
2037
2035
2037
2036
2035
2034
2032
2032
2034
2038
2039
2039
2037
2035
2033
2032
2034
2034
2034
2034
2035
2035
2036
2035
2035
2035
2035
2036
2036
2036
2036
2036
2035
2036
2036
2036
2034
2033
2032
2033
2035
2038
2039
2037
2035
2033
2031
2033
2033
2035
2035
2035
2035
2035
2036
2036
2036
2036
2037
2037
2038
2038
2038
2037
2037
2038
2037
2036
2034
2032
2034
2038
2042
2043
2041
2037
2034
2032
2031
2033
2034
2033
2033
2032
2032
2032
2033
2034
2034
2034
2033
2032
2033
2032
2034
2035
2037
2038
2037
2036
2034
2033
2034
2036
2038
2037
2034
2031
2030
2030
2032
2033
2034
2033
2031
2029
2029
2031
2035
2042
2051
2063
2078
2095
2110
2120
2117
2106
2083
2061
2043
2032
2028
2030
2035
2037
2036
2033
2029
2025
2024
2025
2026
2027
2027
2028
2028
2028
2028
2028
2029
2029
2029
2029
2030
2031
2031
2031
2032
2033
2034
2034
2034
2033
2034
2035
2038
2040
2040
2041
2041
2042
2042
2044
2046
2048
2048
2049
2050
2051
2052
2053
2054
2055
2055
2054
2052
2051
2050
2049
2048
2047
2044
2040
2038
2037
2037
2038
2038
2037
2035
2034
2033
2032
2033
2033
2033
2033
2033
2033
2033
2034
2035
2035
2035
2035
2034
2034
2035
2035
2035
2036
2035
2035
2034
2033
2033
2035
2038
2040
2040
2038
2036
2034
2032
2035
2034
2035
2035
2035
2035
2035
2035
2034
2034
2034
2033
2034
2034
2034
2034
2033
2035
2035
2034
2033
2032
2032
2034
2037
2039
2039
2038
2036
2034
2033
2034
2035
2035
2035
2036
2035
2035
2035
2035
2035
2035
2036
2037
2038
2039
2039
2040
2040
2039
2038
2036
2035
2034
2034
2035
2037
2039
2038
2037
2035
2034
2035
2034
2034
2033
2033
2035
2040
2047
2054
2066
2082
2100
2115
2122
2116
2098
2076
2054
2043
2036
2034
2033
2032
2033
2035
2038
2039
2037
2034
2031
2031
2030
2033
2033
2033
2033
2033
2033
2033
2033
2035
2035
2036
2037
2038
2038
2038
2038
2038
2040
2040
2041
2040
2039
2040
2042
2044
2047
2048
2048
2048
2047
2047
2049
2050
2053
2053
2054
2054
2054
2054
2055
2055
2055
2055
2053
2052
2049
2048
2045
2046
2045
2042
2039
2036
2035
2036
2039
2041
2041
2039
2036
2034
2034
2035
2036
2036
2036
2036
2036
2037
2037
2037
2037
2036
2036
2036
2036
2036
2036
2036
2037
2038
2038
2037
2036
2035
2036
2038
2040
2040
2038
2037
2035
2034
2035
2035
2035
2035
2034
2034
2035
2035
2035
2034
2034
2035
2036
2037
2037
2036
2035
2034
2035
2035
2036
2034
2032
2032
2034
2037
2040
2041
2040
2037
2034
2033
2034
2035
2036
2036
2036
2036
2036
2036
2036
2036
2036
2036
2036
2036
2037
2037
2039
2041
2041
2041
2039
2038
2037
2039
2042
2043
2043
2040
2037
2034
2033
2035
2036
2037
2037
2036
2035
2034
2034
2035
2037
2043
2048
2058
2070
2087
2105
2117
2122
2112
2091
2067
2048
2038
2036
2040
2043
2041
2038
2034
2033
2032
2034
2034
2033
2033
2033
2033
2033
2033
2034
2034
2034
2035
2035
2036
2036
2036
2037
2038
2038
2038
2037
2037
2036
2038
2040
2043
2045
2044
2043
2042
2041
2043
2044
2047
2048
2048
2050
2050
2052
2053
2054
2053
2052
2051
2052
2054
2057
2058
2056
2054
2048
2046
2042
2041
2043
2044
2046
2046
2044
2040
2036
2035
2034
2037
2036
2037
2037
2037
2037
2036
2036
2037
2037
2037
2037
2037
2037
2037
2037
2037
2037
2037
2037
2037
2036
2037
2038
2040
2041
2041
2039
2037
2035
2035
2036
2036
2037
2037
2036
2036
2035
2035
2035
2035
2036
2037
2037
2036
2035
2035
2034
2037
2037
2036
2034
2032
2032
2034
2037
2041
2041
2039
2035
2033
2032
2034
2035
2035
2035
2035
2035
2035
2035
2036
2036
2036
2036
2036
2035
2035
2035
2035
2036
2037
2039
2039
2038
2038
2038
2040
2041
2042
2041
2039
2037
2035
2034
2034
2035
2035
2035
2035
2036
2036
2035
2033
2032
2033
2035
2041
2048
2057
2069
2083
2101
2114
2118
2109
2090
2069
2052
2044
2042
2040
2039
2035
2032
2031
2032
2032
2032
2032
2032
2032
2032
2033
2033
2033
2032
2032
2032
2032
2033
2033
2034
2035
2035
2035
2034
2034
2034
2036
2039
2042
2043
2041
2039
2038
2037
2040
2041
2044
2045
2046
2047
2048
2048
2049
2050
2051
2051
2052
2053
2053
2054
2052
2054
2053
2051
2049
2047
2045
2045
2047
2047
2045
2043
2039
2037
2035
2036
2036
2035
2035
2035
2034
2034
2034
2034
2034
2034
2035
2035
2035
2035
2035
2034
2035
2035
2035
2034
2034
2034
2036
2038
2040
2041
2038
2035
2032
2031
2031
2031
2032
2032
2032
2031
2031
2031
2030
2030
2030
2029
2029
2029
2029
2029
2029
2029
2031
2030
2030
2028
2027
2028
2031
2035
2037
2036
2034
2031
2029
2028
2030
2031
2030
2032
2032
2032
2032
2032
2032
2032
2032
2033
2033
2034
2034
2035
2036
2038
2038
2037
2036
2035
2035
2036
2037
2038
2037
2034
2032
2030
2030
2033
2033
2035
2034
2032
2031
2030
2032
2036
2043
2051
2061
2074
2090
2105
2115
2115
2107
2088
2067
2050
2038
2033
2033
2035
2038
2039
2038
2035
2031
2029
2029
2030
2031
2032
2033
2033
2033
2033
2034
2034
2034
2034
2035
2035
2035
2035
2037
2038
2039
2040
2040
2040
2040
2040
2042
2044
2045
2046
2046
2046
2046
2047
2048
2050
2051
2052
2053
2054
2055
2056
2057
2057
2056
2055
2054
2054
2054
2054
2053
2052
2048
2046
2043
2041
2042
2041
2042
2041
2040
2038
2036
2036
2035
2036
2036
2035
2036
2036
2036
2036
2036
2037
2037
2037
2037
2036
2036
2036
2036
2037
2038
2038
2038
2036
2035
2035
2036
2039
2040
2040
2038
2036
2034
2033
2035
2035
2036
2035
2035
2035
2035
2035
2035
2035
2034
2034
2034
2034
2035
2035
2034
2036
2035
2034
2033
2031
2032
2034
2036
2037
2037
2035
2033
2032
2033
2035
2037
2039
2039
2040
2039
2039
2037
2037
2036
2035
2035
2035
2036
2036
2036
2037
2036
2036
2036
2033
2031
2030
2034
2040
2048
2056
2065
2078
2094
2109
2117
2115
2099
2077
2056
2043
2037
2035
2034
2033
2031
2032
2034
2036
2036
2035
2033
2031
2033
2033
2034
2032
2031
2031
2033
2037
2040
2040
2037
2034
2032
2032
2035
2037
2038
2039
2039
2039
2039
2039
2039
2039
2041
2042
2044
2045
2045
2046
2046
2049
2050
2051
2050
2049
2050
2052
2057
2060
2060
2057
2053
2050
2048
2049
2048
2048
2045
2043
2041
2040
2039
2039
2038
2038
2037
2037
2036
2036
2036
2034
2036
2035
2036
2035
2033
2033
2035
2037
2040
2041
2040
2038
2036
2035
2036
2036
2037
2037
2037
2038
2038
2038
2037
2037
2037
2037
2036
2035
2035
2034
2034
2034
2035
2034
2034
2032
2030
2032
2035
2039
2042
2041
2038
2035
2032
2031
2032
2033
2034
2033
2034
2034
2035
2035
2034
2036
2034
2033
2032
2032
2032
2033
2036
2037
2036
2034
2030
2031
2032
2037
2039
2039
2038
2037
2038
2041
2043
2042
2038
2034
2031
2032
2033
2035
2034
2034
2034
2035
2036
2034
2033
2032
2033
2035
2041
2048
2056
2066
2080
2096
2111
2120
2117
2101
2077
2054
2040
2032
2034
2035
2036
2034
2033
2033
2032
2032
2032
2031
2031
2031
2032
2032
2032
2032
2030
2033
2033
2033
2031
2029
2029
2032
2037
2041
2042
2041
2038
2035
2034
2036
2037
2038
2039
2040
2040
2041
2042
2043
2044
2045
2046
2047
2048
2049
2049
2050
2050
2051
2052
2051
2050
2048
2048
2051
2053
2054
2050
2046
2041
2038
2037
2037
2037
2037
2036
2035
2034
2034
2033
2033
2034
2035
2035
2036
2036
2036
2036
2035
2037
2036
2035
2033
2032
2033
2036
2041
2044
2044
2041
2037
2035
2033
2036
2037
2037
2037
2036
2036
2036
2035
2035
2035
2035
2034
2034
2034
2033
2033
2033
2035
2035
2034
2032
2030
2029
2031
2035
2038
2039
2037
2034
2031
2029
2031
2032
2034
2033
2033
2032
2031
2031
2031
2033
2034
2035
2034
2033
2032
2032
2031
2034
2034
2033
2031
2029
2029
2032
2037
2042
2044
2043
2039
2035
2033
2034
2034
2034
2034
2033
2032
2032
2032
2033
2034
2034
2034
2032
2031
2030
2030
2033
2039
2047
2057
2067
2082
2097
2111
2119
2115
2099
2076
2054
2040
2034
2034
2035
2035
2031
2028
2026
2026
2027
2028
2027
2029
2028
2028
2027
2027
2028
2030
2031
2033
2033
2031
2029
2028
2028
2031
2034
2035
2035
2035
2033
2033
2033
2034
2035
2035
2036
2037
2038
2038
2040
2042
2043
2044
2045
2046
2047
2048
2049
2049
2050
2050
2049
2048
2047
2047
2048
2049
2049
2048
2044
2041
2037
2034
2036
2035
2035
2034
2033
2033
2032
2032
2031
2032
2032
2032
2032
2032
2032
2033
2032
2034
2034
2033
2032
2031
2031
2033
2037
2039
2039
2038
2035
2034
2033
2034
2034
2033
2034
2034
2034
2035
2034
2034
2034
2033
2034
2034
2034
2034
2033
2033
2034
2033
2033
2033
2032
2032
2033
2034
2036
2037
2037
2036
2034
2032
2032
2032
2034
2035
2034
2034
2034
2034
2033
2034
2035
2036
2037
2038
2039
2039
2038
2036
2037
2036
2035
2033
2032
2033
2035
2039
2041
2041
2039
2035
2032
2028
2030
2032
2036
2043
2050
2060
2074
2091
2107
2117
2116
2104
2085
2064
2048
2039
2035
2036
2036
2035
2033
2031
2030
2031
2033
2035
2036
2035
2033
2032
2030
2031
2032
2033
2033
2033
2033
2033
2034
2035
2036
2037
2037
2038
2038
2037
2038
2037
2040
2041
2040
2041
2039
2038
2040
2044
2049
2052
2052
2050
2048
2048
2048
2050
2050
2052
2052
2051
2052
2052
2051
2050
2049
2048
2046
2045
2043
2042
2041
2039
2038
2038
2037
2036
2034
2034
2035
2037
2037
2037
2036
2035
2034
2033
2033
2035
2035
2034
2034
2035
2035
2036
2036
2037
2036
2037
2036
2036
2036
2036
2036
2038
2038
2037
2035
2034
2034
2035
2037
2038
2038
2037
2035
2034
2033
2034
2035
2035
2034
2034
2034
2034
2034
2034
2034
2034
2034
2034
2034
2034
2034
2033
2033
2033
2033
2032
2031
2031
2033
2035
2037
2038
2036
2033
2031
2029
2032
2033
2034
2035
2036
2037
2038
2038
2038
2038
2037
2036
2035
2035
2035
2035
2034
2036
2035
2034
2033
2032
2032
2033
2034
2035
2035
2036
2038
2043
2050
2062
2077
2095
2111
2119
2115
2099
2077
2056
2042
2036
2035
2036
2036
2035
2034
2034
2034
2033
2033
2032
2031
2031
2033
2035
2037
2037
2036
2034
2032
2031
2032
2033
2035
2035
2036
2036
2036
2036
2036
2037
2037
2038
2039
2040
2040
2041
2042
2041
2045
2044
2045
2045
2045
2048
2051
2055
2056
2056
2053
2050
2051
2051
2054
2054
2053
2052
2050
2049
2048
2048
2045
2042
2039
2039
2041
2043
2044
2042
2039
2037
2035
2035
2036
2036
2035
2036
2039
2041
2041
2040
2039
2037
2036
2038
2039
2039
2039
2038
2038
2038
2038
2038
2039
2040
2040
2040
2040
2039
2039
2038
2040
2040
2039
2038
2035
2035
2036
2039
2042
2042
2041
2038
2035
2035
2035
2037
2036
2036
2036
2036
2036
2037
2038
2038
2038
2038
2037
2037
2037
2037
2037
2038
2038
2039
2038
2037
2036
2035
2036
2038
2039
2040
2040
2038
2037
2037
2038
2039
2040
2039
2038
2037
2037
2037
2036
2036
2036
2036
2036
2036
2036
2036
2037
2038
2036
2036
2034
2034
2038
2045
2055
2067
2083
2097
2109
2115
2110
2096
2076
2057
2044
2038
2036
2037
2037
2036
2035
2035
2034
2034
2034
2034
2034
2035
2035
2036
2036
2035
2034
2032
2033
2035
2038
2040
2041
2040
2038
2037
2039
2040
2042
2043
2044
2044
2044
2044
2044
2044
2044
2044
2045
2045
2046
2047
2046
2048
2048
2048
2048
2048
2048
2050
2053
2056
2057
2056
2053
2051
2048
2048
2047
2044
2044
2042
2040
2039
2038
2037
2037
2036
2036
2036
2036
2037
2037
2038
2037
2039
2039
2038
2037
2036
2038
2042
2046
2048
2047
2043
2040
2039
2039
2042
2043
2042
2042
2041
2040
2040
2039
2039
2039
2038
2038
2038
2038
2039
2038
2037
2040
2039
2039
2037
2036
2036
2039
2042
2044
2043
2040
2037
2035
2035
2037
2038
2037
2037
2036
2036
2037
2037
2037
2037
2037
2037
2037
2038
2037
2037
2036
2036
2037
2037
2036
2035
2034
2035
2037
2040
2041
2040
2039
2038
2038
2040
2041
2042
2041
2040
2038
2037
2036
2037
2038
2038
2039
2038
2038
2038
2038
2036
2037
2036
2034
2035
2038
2044
2052
2064
2080
2095
2108
2113
2109
2096
2076
2059
2045
2038
2036
2036
2036
2035
2035
2034
2034
2034
2033
2033
2033
2032
2033
2033
2034
2035
2034
2033
2032
2033
2034
2037
2038
2038
2037
2036
2035
2036
2036
2038
2039
2038
2039
2039
2040
2040
2041
2042
2043
2042
2045
2044
2045
2046
2047
2049
2051
2052
2050
2049
2049
2050
2053
2055
2056
2053
2049
2047
2044
2043
2043
2042
2041
2039
2038
2037
2037
2036
2036
2035
2035
2034
2034
2034
2035
2035
2035
2035
2034
2033
2033
2033
2034
2036
2038
2038
2037
2036
2035
2034
2035
2035
2035
2035
2035
2036
2036
2035
2034
2034
2033
2033
2033
2033
2032
2032
2031
2033
2032
2031
2030
2028
2029
2031
2033
2036
2036
2035
2034
2033
2033
2033
2033
2033
2033
2033
2033
2033
2033
2034
2033
2034
2035
2036
2037
2038
2038
2038
2036
2037
2035
2033
2031
2029
2029
2032
2036
2039
2039
2037
2034
2031
2029
2030
2031
2035
2039
2047
2055
2067
2082
2097
2110
2114
2107
2091
2070
2052
2041
2035
2036
2036
2036
2033
2031
2030
2032
2036
2039
2039
2037
2034
2032
2031
2033
2033
2034
2035
2035
2035
2035
2035
2036
2037
2037
2039
2039
2039
2039
2039
2039
2039
2040
2041
2041
2041
2041
2043
2045
2048
2049
2049
2049
2049
2049
2050
2052
2054
2054
2054
2054
2054
2053
2053
2053
2053
2052
2050
2048
2046
2044
2042
2043
2042
2040
2040
2038
2037
2036
2037
2039
2040
2040
2039
2037
2036
2035
2035
2035
2037
2037
2038
2038
2038
2039
2039
2039
2039
2039
2039
2039
2038
2038
2039
2039
2040
2038
2037
2036
2036
2038
2040
2041
2040
2039
2037
2035
2035
2035
2036
2036
2036
2036
2036
2036
2036
2036
2037
2036
2036
2037
2037
2037
2037
2037
2037
2036
2035
2034
2035
2036
2038
2040
2040
2041
2039
2038
2038
2038
2040
2040
2041
2040
2039
2038
2037
2036
2036
2036
2036
2036
2036
2036
2036
2037
2036
2037
2036
2034
2034
2037
2043
2050
2061
2075
2092
2108
2119
2119
2105
2084
2061
2045
2037
2036
2037
2038
2036
2035
2034
2034
2034
2034
2035
2035
2036
2034
2036
2035
2034
2032
2032
2032
2034
2037
2039
2040
2039
2037
2036
2036
2038
2039
2039
2040
2040
2041
2041
2041
2041
2041
2042
2043
2044
2045
2047
2048
2049
2050
2050
2051
2051
2050
2051
2051
2054
2056
2057
2056
2053
2051
2048
2048
2047
2046
2045
2043
2042
2041
2040
2039
2039
2039
2038
2038
2038
2038
2038
2038
2037
2039
2038
2038
2037
2037
2038
2040
2042
2042
2042
2040
2038
2038
2038
2041
2040
2040
2040
2039
2039
2039
2038
2038
2038
2037
2037
2036
2036
2036
2036
2035
2036
2036
2036
2036
2035
2036
2037
2039
2040
2040
2039
2037
2036
2036
2038
2038
2039
2039
2038
2038
2038
2037
2038
2038
2039
2039
2039
2038
2038
2038
2037
2038
2041
2040
2038
2036
2035
2036
2041
2046
2048
2048
2044
2040
2038
2037
2039
2038
2038
2038
2038
2037
2038
2039
2039
2039
2039
2037
2036
2035
2037
2040
2046
2053
2063
2074
2088
2102
2113
2116
2108
2090
2069
2051
2040
2036
2036
2037
2037
2036
2035
2035
2035
2036
2036
2036
2036
2036
2035
2035
2034
2034
2036
2035
2038
2037
2036
2035
2035
2038
2041
2044
2045
2044
2043
2040
2040
2039
2041
2042
2044
2045
2046
2046
2047
2048
2048
2049
2051
2052
2052
2053
2054
2055
2055
2055
2056
2056
2055
2054
2053
2053
2053
2053
2052
2049
2046
2043
2041
2041
2041
2040
2039
2040
2039
2038
2038
2037
2037
2037
2037
2037
2038
2038
2039
2038
2040
2039
2038
2036
2036
2037
2040
2043
2045
2045
2043
2041
2039
2039
2040
2039
2039
2039
2039
2039
2039
2038
2038
2037
2037
2037
2037
2036
2036
2035
2035
2035
2035
2035
2033
2032
2032
2033
2036
2038
2039
2038
2036
2034
2034
2035
2036
2036
2036
2036
2036
2036
2036
2036
2036
2036
2036
2036
2036
2036
2036
2035
2036
2036
2035
2036
2036
2038
2040
2043
2045
2045
2043
2039
2036
2034
2034
2036
2035
2036
2035
2035
2034
2034
2034
2032
2031
2029
2029
2031
2036
2043
2051
2063
2078
2092
2105
2110
2105
2093
2076
2060
2048
2041
2036
2035
2034
2033
2034
2034
2033
2032
2032
2032
2031
2031
2032
2033
2033
2034
2034
2034
2034
2034
2033
2035
2035
2035
2035
2035
2036
2037
2039
2042
2042
2042
2040
2039
2039
2040
2041
2042
2042
2043
2045
2046
2047
2048
2048
2048
2048
2049
2049
2051
2051
2052
2052
2054
2054
2051
2048
2046
2044
2046
2048
2049
2048
2043
2039
2035
2033
2035
2035
2035
2034
2034
2033
2033
2033
2033
2033
2033
2033
2034
2035
2036
2037
2038
2039
2038
2038
2037
2036
2037
2040
2042
2044
2043
2041
2038
2036
2036
2037
2037
2037
2037
2037
2037
2036
2036
2037
2037
2037
2037
2037
2038
2038
2038
2038
2039
2038
2037
2035
2035
2035
2037
2039
2040
2040
2039
2037
2035
2034
2036
2037
2037
2037
2037
2037
2037
2038
2038
2039
2040
2040
2041
2042
2043
2043
2041
2042
2040
2038
2037
2035
2034
2036
2038
2040
2041
2040
2039
2037
2035
2034
2034
2036
2040
2047
2054
2064
2078
2094
2109
2118
2116
2102
2082
2061
2047
2040
2038
2038
2039
2037
2035
2034
2035
2036
2037
2038
2037
2035
2033
2032
2032
2033
2034
2034
2034
2035
2035
2036
2036
2036
2037
2038
2038
2039
2040
2040
2041
2040
2043
2041
2042
2040
2040
2042
2046
2049
2051
2051
2050
2049
2050
2051
2055
2055
2055
2055
2054
2055
2055
2055
2054
2053
2052
2051
2049
2048
2046
2045
2042
2042
2041
2040
2039
2038
2038
2039
2041
2042
2041
2040
2038
2037
2037
2039
2039
2039
2039
2039
2039
2039
2037
2036
2036
2038
2041
2044
2046
2044
2041
2038
2038
2039
2039
2038
2036
2035
2037
2040
2043
2043
2041
2037
2036
2035
2036
2037
2036
2037
2037
2037
2037
2037
2037
2037
2037
2038
2037
2037
2038
2038
2038
2039
2038
2038
2037
2036
2036
2037
2039
2041
2041
2040
2039
2037
2036
2037
2037
2038
2037
2037
2038
2039
2040
2042
2043
2043
2043
2042
2041
2040
2040
2039
2039
2040
2038
2039
2037
2037
2037
2039
2042
2044
2043
2040
2037
2036
2038
2043
2048
2057
2067
2082
2097
2110
2116
2110
2094
2074
2056
2045
2040
2039
2039
2039
2038
2037
2036
2034
2034
2034
2035
2038
2040
2040
2039
2037
2035
2034
2035
2036
2037
2037
2038
2038
2039
2039
2039
2040
2040
2040
2040
2041
2042
2043
2042
2045
2046
2046
2046
2046
2047
2048
2051
2054
2055
2055
2054
2054
2055
2055
2056
2056
2056
2056
2056
2056
2055
2053
2052
2051
2050
2048
2048
2046
2045
2044
2042
2043
2042
2039
2037
2036
2037
2041
2044
2046
2044
2041
2038
2037
2038
2041
2041
2042
2041
2041
2041
2040
2041
2041
2042
2042
2042
2041
2041
2041
2041
2041
2042
2041
2041
2040
2040
2041
2042
2044
2044
2043
2041
2039
2039
2038
2041
2041
2041
2041
2040
2040
2040
2040
2040
2040
2041
2041
2041
2041
2041
2041
2040
2041
2041
2041
2040
2039
2040
2041
2044
2046
2046
2043
2042
2041
2039
2041
2041
2041
2040
2040
2041
2042
2044
2045
2047
2047
2046
2046
2044
2043
2042
2041
2042
2042
2042
2041
2041
2041
2042
2044
2045
2043
2041
2039
2039
2043
2048
2054
2062
2073
2086
2102
2114
2118
2111
2094
2073
2056
2045
2041
2041
2042
2041
2040
2039
2039
2038
2037
2037
2037
2038
2040
2041
2041
2039
2038
2037
2037
2037
2038
2038
2038
2039
2040
2041
2042
2042
2042
2042
2042
2042
2043
2044
2045
2046
2047
2046
2048
2048
2048
2048
2050
2053
2055
2057
2056
2055
2054
2053
2054
2055
2056
2056
2056
2055
2054
2052
2051
2050
2048
2047
2046
2044
2042
2041
2040
2041
2042
2041
2037
2034
2033
2034
2039
2043
2045
2044
2041
2038
2035
2037
2038
2039
2039
2040
2041
2040
2039
2038
2038
2039
2039
2039
2039
2039
2039
2038
2039
2039
2038
2036
2033
2033
2035
2039
2042
2043
2042
2039
2036
2035
2035
2036
2036
2037
2037
2037
2037
2037
2036
2035
2035
2036
2036
2037
2037
2036
2036
2036
2036
2036
2034
2032
2030
2032
2038
2045
2048
2048
2044
2039
2035
2036
2037
2040
2039
2038
2037
2036
2035
2036
2036
2036
2037
2037
2037
2038
2040
2042
2048
2055
2065
2076
2090
2105
2118
2126
2125
2112
2090
2068
2051
2042
2040
2042
2042
2040
2038
2037
2037
2037
2037
2036
2035
2035
2036
2036
2037
2037
2036
2035
2036
2036
2035
2033
2032
2033
2034
2038
2040
2040
2038
2036
2034
2034
2036
2037
2038
2038
2038
2039
2040
2041
2043
2045
2047
2047
2048
2048
2049
2050
2050
2051
2051
2051
2050
2049
2048
2048
2049
2048
2047
2044
2040
2036
2034
2033
2032
2031
2030
2029
2029
2030
2030
2030
2030
2030
2030
2030
2030
2031
2031
2031
2031
2031
2032
2030
2029
2028
2029
2031
2034
2036
2036
2034
2032
2032
2032
2032
2034
2033
2032
2033
2032
2032
2032
2031
2031
2030
2030
2029
2028
2027
2026
2025
2026
2025
2026
2023
2021
2021
2023
2027
2031
2033
2032
2029
2028
2026
2029
2030
2032
2032
2031
2031
2031
2031
2032
2031
2031
2031
2031
2031
2032
2033
2032
2032
2030
2029
2029
2030
2036
2046
2060
2078
2097
2112
2121
2119
2105
2084
2062
2045
2035
2032
2033
2034
2033
2032
2031
2030
2029
2030
2030
2030
2031
2031
2033
2032
2032
2031
2030
2030
2030
2032
2034
2036
2038
2040
2041
2040
2038
2036
2036
2037
2039
2040
2040
2040
2041
2041
2042
2042
2043
2045
2046
2048
2048
2049
2049
2050
2051
2050
2049
2050
2052
2055
2056
2054
2050
2045
2042
2041
2041
2041
2040
2037
2035
2033
2033
2034
2033
2033
2033
2031
2031
2031
2032
2032
2031
2033
2032
2032
2030
2029
2030
2032
2036
2038
2039
2037
2035
2033
2031
2033
2034
2035
2034
2033
2033
2032
2033
2033
2034
2034
2035
2035
2036
2035
2033
2031
2030
2029
2029
2029
2029
2029
2031
2032
2034
2034
2033
2031
2030
2030
2031
2032
2034
2034
2035
2036
2037
2037
2038
2038
2037
2036
2035
2034
2034
2034
2034
2035
2036
2035
2033
2031
2030
2031
2033
2036
2039
2042
2046
2053
2065
2082
2102
2115
2120
2112
2092
2069
2049
2038
2033
2033
2034
2033
2031
2031
2030
2030
2031
2031
2031
2030
2029
2028
2030
2032
2034
2035
2033
2031
2029
2029
2031
2032
2033
2035
2035
2036
2037
2038
2039
2040
2040
2040
2040
2040
2040
2041
2042
2043
2047
2047
2047
2047
2046
2048
2050
2054
2057
2057
2056
2054
2052
2050
2051
2050
2048
2048
2047
2046
2044
2042
2041
2040
2039
2038
2037
2037
2037
2037
2038
2037
2037
2036
2035
2035
2036
2038
2040
2041
2041
2040
2038
2037
2036
2036
2037
2038
2038
2039
2040
2040
2040
2039
2039
2038
2038
2038
2038
2038
2039
2038
2039
2038
2037
2036
2034
2035
2037
2038
2040
2040
2039
2037
2036
2035
2036
2036
2036
2036
2036
2036
2036
2035
2035
2035
2035
2035
2035
2034
2035
2035
2036
2037
2038
2038
2038
2037
2037
2038
2039
2041
2041
2039
2036
2034
2034
2035
2036
2037
2037
2036
2035
2034
2033
2033
2034
2038
2043
2050
2060
2074
2092
2108
2119
2119
2105
2084
2061
2045
2037
2037
2039
2039
2037
2034
2031
2030
2029
2031
2032
2033
2032
2032
2032
2031
2031
2031
2032
2032
2033
2033
2034
2034
2034
2034
2036
2037
2037
2036
2036
2037
2039
2041
2044
2044
2043
2041
2040
2040
2043
2044
2045
2047
2048
2048
2049
2050
2051
2052
2053
2053
2053
2052
2051
2051
2049
2049
2048
2047
2045
2042
2041
2040
2041
2041
2040
2038
2036
2036
2035
2036
2036
2036
2036
2035
2036
2037
2037
2038
2037
2037
2037
2037
2037
2038
2038
2038
2037
2039
2039
2038
2036
2035
2035
2038
2040
2042
2042
2039
2037
2035
2035
2036
2035
2036
2035
2036
2036
2036
2036
2036
2036
2036
2036
2035
2035
2036
2036
2036
2037
2036
2035
2034
2033
2034
2035
2037
2037
2037
2035
2035
2035
2035
2035
2035
2035
2035
2036
2039
2040
2040
2040
2040
2039
2039
2038
2037
2037
2036
2035
2035
2036
2036
2035
2034
2033
2034
2035
2036
2037
2037
2039
2042
2048
2058
2072
2088
2105
2116
2118
2107
2088
2066
2049
2039
2036
2035
2036
2035
2035
2034
2035
2034
2033
2032
2032
2033
2034
2036
2037
2037
2035
2034
2033
2033
2034
2035
2035
2036
2037
2037
2038
2038
2038
2038
2039
2039
2040
2040
2041
2042
2042
2042
2043
2043
2043
2043
2044
2046
2049
2053
2055
2054
2052
2051
2049
2051
2051
2051
2051
2050
2048
2047
2046
2044
2043
2041
2040
2038
2037
2036
2035
2034
2034
2035
2033
2033
2033
2033
2034
2035
2038
2038
2037
2036
2036
2035
2035
2036
2035
2035
2035
2035
2036
2036
2037
2037
2037
2038
2037
2037
2036
2035
2034
2034
2035
2035
2034
2032
2030
2031
2033
2036
2039
2039
2036
2033
2031
2031
2032
2033
2033
2033
2033
2033
2033
2033
2033
2034
2034
2034
2034
2033
2032
2032
2032
2034
2034
2034
2033
2031
2031
2033
2036
2039
2040
2040
2039
2038
2037
2037
2037
2036
2036
2035
2036
2034
2033
2032
2033
2036
2040
2041
2039
2035
2031
2029
2032
2041
2049
2058
2068
2081
2095
2108
2114
2108
2092
2070
2051
2039
2034
2035
2035
2036
2034
2034
2035
2034
2034
2034
2034
2033
2034
2034
2034
2034
2035
2035
2036
2035
2035
2034
2034
2035
2038
2040
2042
2042
2040
2039
2039
2039
2041
2041
2041
2040
2041
2042
2043
2044
2045
2047
2048
2049
2050
2051
2052
2053
2053
2056
2056
2056
2053
2050
2048
2049
2051
2054
2054
2051
2047
2042
2038
2039
2039
2040
2039
2039
2038
2037
2037
2037
2036
2036
2036
2037
2037
2037
2038
2037
2039
2038
2038
2038
2037
2037
2038
2040
2042
2043
2042
2040
2039
2037
2038
2038
2038
2038
2039
2039
2039
2038
2038
2037
2037
2038
2038
2038
2038
2037
2037
2036
2037
2037
2036
2035
2035
2035
2037
2039
2040
2040
2038
2036
2035
2036
2036
2037
2037
2036
2036
2036
2035
2035
2035
2035
2035
2035
2036
2037
2037
2038
2039
2040
2040
2040
2039
2037
2036
2037
2038
2038
2037
2036
2034
2034
2033
2036
2037
2037
2036
2034
2034
2035
2038
2044
2050
2060
2073
2089
2106
2117
2117
2105
2086
2065
2048
2038
2034
2034
2036
2039
2041
2043
2042
2039
2037
2036
2037
2037
2037
2036
2035
2035
2034
2034
2034
2035
2035
2034
2034
2034
2034
2035
2035
2036
2036
2035
2035
2034
2036
2037
2040
2042
2042
2041
2040
2041
2042
2044
2045
2045
2046
2047
2048
2048
2049
2049
2049
2050
2049
2049
2048
2048
2047
2045
2045
2043
2042
2040
2037
2035
2035
2037
2038
2039
2038
2036
2034
2033
2034
2034
2034
2035
2034
2034
2034
2034
2035
2035
2034
2034
2034
2034
2034
2034
2034
2034
2036
2035
2035
2032
2029
2030
2032
2038
2040
2038
2035
2032
2030
2029
2033
2033
2033
2033
2032
2032
2032
2033
2033
2033
2033
2033
2033
2033
2034
2034
2035
2034
2035
2033
2032
2032
2032
2034
2036
2038
2038
2036
2034
2033
2033
2033
2034
2034
2034
2035
2035
2036
2037
2038
2039
2040
2040
2040
2040
2039
2038
2037
2037
2036
2035
2034
2034
2034
2035
2037
2039
2038
2035
2033
2033
2034
2038
2045
2052
2063
2078
2094
2109
2117
2113
2098
2078
2058
2045
2038
2037
2036
2036
2035
2033
2033
2031
2030
2031
2031
2033
2035
2035
2034
2031
2030
2030
2031
2031
2033
2033
2033
2033
2033
2033
2034
2034
2035
2036
2036
2037
2037
2037
2038
2038
2040
2040
2040
2039
2039
2040
2044
2048
2050
2051
2049
2048
2048
2048
2051
2052
2052
2051
2049
2048
2048
2047
2047
2045
2043
2042
2040
2039
2038
2037
2036
2037
2037
2036
2035
2034
2034
2035
2037
2039
2039
2038
2036
2036
2035
2037
2037
2038
2037
2036
2036
2036
2036
2037
2038
2039
2039
2038
2037
2036
2036
2035
2036
2037
2036
2035
2032
2031
2032
2035
2039
2041
2040
2037
2035
2033
2033
2036
2035
2035
2035
2035
2035
2035
2036
2036
2036
2036
2036
2035
2036
2036
2036
2037
2037
2037
2036
2035
2034
2035
2037
2039
2041
2042
2041
2041
2041
2041
2041
2041
2041
2039
2039
2039
2039
2039
2039
2039
2039
2039
2040
2039
2038
2037
2035
2038
2038
2042
2046
2051
2062
2079
2098
2116
2121
2115
2097
2075
2054
2045
2039
2039
2039
2038
2036
2034
2032
2034
2034
2034
2034
2034
2034
2034
2035
2035
2035
2036
2035
2033
2033
2033
2034
2036
2037
2039
2038
2037
2036
2036
2037
2039
2040
2040
2041
2041
2041
2042
2042
2043
2044
2045
2046
2048
2048
2049
2050
2051
2052
2051
2051
2050
2051
2052
2054
2055
2053
2050
2048
2046
2043
2043
2042
2041
2040
2039
2038
2038
2037
2036
2036
2036
2036
2036
2037
2037
2037
2036
2037
2037
2036
2035
2035
2035
2037
2038
2039
2040
2040
2041
2043
2043
2043
2041
2039
2037
2038
2039
2040
2039
2039
2039
2039
2039
2039
2039
2038
2038
2037
2038
2038
2037
2037
2036
2036
2037
2039
2041
2042
2041
2039
2037
2036
2035
2037
2037
2038
2038
2038
2038
2038
2039
2039
2040
2041
2042
2043
2043
2043
2042
2040
2040
2040
2039
2037
2035
2036
2038
2042
2045
2046
2043
2038
2035
2033
2035
2039
2044
2051
2060
2072
2087
2102
2115
2119
2113
2097
2077
2058
2047
2042
2040
2041
2043
2040
2039
2036
2035
2036
2040
2044
2046
2044
2040
2037
2036
2036
2040
2039
2039
2040
2040
2041
2041
2042
2043
2043
2043
2043
2044
2044
2045
2045
2046
2047
2048
2047
2047
2046
2048
2049
2053
2055
2056
2056
2055
2055
2056
2056
2058
2058
2058
2059
2059
2059
2059
2057
2055
2054
2051
2049
2047
2045
2045
2043
2043
2043
2042
2040
2039
2039
2040
2042
2044
2044
2044
2042
2041
2040
2040
2041
2042
2043
2043
2043
2042
2042
2042
2043
2044
2043
2042
2043
2043
2043
2041
2042
2042
2041
2040
2039
2038
2040
2043
2046
2046
2044
2041
2038
2037
2038
2039
2040
2040
2040
2040
2040
2040
2040
2039
2039
2039
2039
2039
2040
2040
2039
2040
2040
2040
2040
2040
2041
2043
2046
2047
2047
2046
2043
2042
2040
2040
2040
2040
2040
2040
2041
2041
2041
2041
2040
2039
2038
2038
2040
2045
2050
2058
2069
2084
2101
2115
2121
2117
2102
2082
2064
2051
2045
2042
2041
2040
2040
2039
2039
2039
2037
2037
2037
2036
2037
2037
2037
2038
2038
2038
2039
2039
2039
2039
2040
2039
2040
2039
2039
2040
2042
2045
2046
2047
2045
2044
2043
2042
2046
2046
2047
2048
2048
2049
2049
2051
2052
2053
2054
2055
2056
2056
2057
2057
2055
2056
2056
2054
2051
2048
2047
2047
2048
2048
2048
2045
2042
2040
2038
2040
2040
2041
2040
2039
2039
2038
2039
2039
2040
2040
2040
2041
2040
2040
2041
2040
2041
2041
2040
2040
2038
2039
2040
2042
2043
2042
2041
2039
2039
2039
2040
2040
2039
2039
2038
2039
2039
2039
2040
2039
2040
2039
2039
2038
2039
2038
2038
2038
2040
2040
2038
2036
2035
2035
2039
2043
2045
2044
2041
2038
2036
2036
2038
2038
2039
2038
2038
2038
2038
2039
2040
2041
2042
2042
2043
2042
2042
2041
2042
2041
2040
2039
2037
2037
2038
2040
2042
2042
2041
2038
2037
2035
2034
2036
2039
2046
2054
2066
2081
2097
2112
2119
2116
2102
2081
2060
2046
2039
2037
2039
2040
2039
2037
2034
2033
2033
2035
2037
2038
2037
2036
2034
2033
2032
2034
2035
2035
2036
2036
2036
2037
2038
2038
2039
2038
2039
2039
2039
2040
2041
2041
2042
2042
2042
2042
2042
2043
2045
2048
2050
2052
2052
2051
2051
2050
2051
2052
2053
2054
2054
2054
2053
2052
2050
2048
2048
2046
2045
2044
2043
2042
2041
2040
2039
2038
2037
2036
2036
2037
2038
2041
2041
2040
2038
2037
2037
2038
2039
2039
2039
2038
2038
2038
2038
2038
2038
2038
2038
2039
2039
2039
2039
2038
2037
2039
2038
2038
2036
2034
2035
2037
2041
2043
2042
2040
2037
2036
2035
2038
2038
2037
2037
2037
2037
2038
2038
2038
2037
2038
2038
2037
2037
2036
2036
2035
2036
2036
2036
2036
2035
2035
2036
2037
2039
2038
2037
2036
2036
2036
2038
2039
2040
2040
2040
2039
2038
2037
2037
2037
2037
2037
2037
2037
2037
2037
2037
2039
2040
2037
2034
2031
2030
2034
2043
2053
2064
2075
2088
2101
2111
2113
2106
2087
2066
2049
2040
2036
2036
2037
2036
2034
2034
2033
2032
2033
2032
2033
2033
2034
2034
2033
2032
2031
2032
2033
2034
2036
2036
2036
2036
2035
2036
2036
2037
2038
2038
2037
2036
2036
2038
2042
2046
2048
2047
2045
2042
2042
2044
2046
2048
2049
2048
2048
2048
2049
2051
2053
2054
2054
2053
2052
2050
2048
2046
2044
2042
2042
2042
2041
2039
2038
2037
2036
2036
2036
2035
2035
2035
2034
2034
2034
2035
2034
2033
2032
2032
2033
2035
2037
2038
2036
2035
2034
2033
2035
2035
2036
2036
2036
2036
2036
2036
2035
2035
2034
2034
2034
2034
2034
2034
2034
2035
2034
2032
2031
2030
2031
2033
2035
2037
2036
2034
2032
2032
2032
2033
2033
2033
2033
2033
2034
2034
2034
2033
2033
2033
2033
2034
2034
2034
2034
2034
2035
2034
2035
2034
2035
2037
2038
2041
2043
2042
2040
2036
2034
2033
2035
2035
2036
2036
2036
2037
2036
2036
2034
2033
2033
2035
2039
2047
2055
2067
2081
2096
2111
2115
2111
2095
2075
2057
2047
2043
2041
2040
2038
2035
2034
2033
2035
2034
2034
2034
2034
2034
2034
2034
2034
2035
2035
2035
2036
2036
2035
2035
2035
2037
2038
2039
2039
2038
2039
2041
2043
2045
2045
2043
2041
2041
2042
2044
2045
2047
2048
2048
2048
2049
2050
2052
2053
2055
2056
2055
2055
2054
2054
2053
2054
2055
2052
2048
2045
2041
2041
2043
2045
2045
2043
2040
2037
2036
2036
2039
2038
2037
2036
2036
2036
2037
2039
2041
2042
2042
2041
2040
2039
2039
2039
2039
2040
2041
2040
2038
2037
2038
2040
2044
2046
2046
2043
2041
2039
2038
2038
2038
2038
2038
2038
2039
2039
2040
2039
2038
2037
2037
2037
2037
2038
2038
2037
2038
2038
2037
2035
2032
2032
2034
2038
2043
2045
2042
2038
2035
2032
2034
2035
2035
2036
2036
2038
2039
2040
2040
2040
2040
2040
2041
2041
2041
2040
2039
2039
2039
2038
2036
2035
2034
2036
2040
2043
2043
2040
2036
2034
2035
2042
2049
2060
2073
2089
2106
2119
2122
2112
2093
2070
2052
2043
2039
2039
2040
2038
2038
2038
2037
2035
2033
2033
2034
2037
2041
2042
2041
2037
2034
2033
2034
2036
2037
2038
2038
2038
2039
2038
2039
2039
2040
2041
2041
2043
2044
2044
2045
2045
2045
2044
2044
2044
2045
2047
2050
2054
2057
2057
2055
2053
2053
2054
2055
2056
2056
2055
2054
2052
2051
2049
2048
2046
2045
2044
2042
2041
2040
2039
2038
2038
2037
2037
2036
2034
2034
2036
2038
2041
2042
2040
2038
2036
2036
2038
2038
2039
2038
2038
2038
2038
2039
2040
2041
2041
2040
2040
2040
2040
2040
2039
2040
2040
2039
2038
2036
2035
2037
2039
2042
2043
2041
2038
2036
2034
2035
2036
2036
2035
2035
2035
2035
2035
2035
2036
2037
2037
2037
2036
2035
2035
2034
2036
2037
2037
2035
2032
2030
2032
2036
2040
2042
2041
2038
2035
2033
2033
2035
2034
2034
2034
2035
2036
2037
2038
2040
2041
2041
2041
2040
2040
2038
2038
2038
2038
2037
2036
2034
2034
2035
2038
2041
2043
2041
2037
2034
2031
2033
2037
2043
2051
2059
2072
2088
2105
2117
2119
2108
2088
2065
2048
2039
2036
2036
2036
2037
2035
2034
2030
2027
2028
2031
2036
2040
2040
2037
2033
2029
2029
2031
2031
2032
2032
2032
2033
2034
2035
2036
2036
2036
2036
2036
2038
2038
2038
2040
2040
2041
2041
2040
2040
2041
2044
2048
2050
2052
2050
2049
2048
2048
2049
2051
2053
2054
2054
2053
2051
2049
2048
2046
2046
2045
2044
2042
2040
2039
2037
2038
2037
2037
2035
2033
2033
2033
2036
2040
2042
2042
2039
2036
2033
2031
2032
2033
2034
2034
2035
2035
2035
2035
2035
2035
2036
2036
2037
2037
2037
2037
2037
2036
2036
2034
2034
2034
2034
2037
2038
2039
2038
2036
2035
2034
2033
2034
2035
2035
2035
2035
2035
2034
2034
2034
2034
2034
2034
2034
2034
2035
2033
2035
2034
2034
2033
2031
2031
2032
2035
2038
2039
2038
2035
2033
2031
2033
2034
2035
2035
2035
2035
2034
2034
2034
2034
2034
2034
2034
2035
2035
2035
2035
2036
2038
2039
2039
2038
2037
2036
2037
2039
2041
2040
2038
2035
2034
2033
2036
2036
2036
2036
2035
2034
2034
2033
2034
2037
2042
2049
2058
2070
2085
2101
2113
2118
2113
2094
2071
2050
2038
2034
2038
2043
2044
2041
2037
2034
2033
2033
2036
2035
2034
2035
2035
2035
2036
2036
2036
2036
2036
2036
2037
2037
2038
2039
2040
2041
2041
2041
2039
2039
2039
2042
2045
2047
2047
2046
2045
2045
2047
2048
2049
2051
2052
2053
2054
2055
2056
2057
2057
2058
2058
2058
2058
2058
2057
2055
2057
2054
2051
2048
2045
2044
2044
2046
2048
2047
2044
2041
2039
2036
2037
2038
2037
2038
2037
2037
2037
2038
2039
2040
2040
2039
2039
2040
2041
2043
2043
2042
2042
2041
2040
2039
2038
2039
2041
2043
2044
2043
2041
2040
2039
2040
2040
2041
2040
2041
2040
2040
2040
2040
2040
2039
2040
2040
2040
2040
2040
2040
2041
2041
2039
2038
2038
2039
2042
2044
2045
2044
2042
2040
2039
2038
2040
2040
2040
2041
2041
2042
2041
2041
2040
2040
2040
2040
2040
2041
2042
2042
2043
2045
2045
2045
2044
2043
2043
2044
2046
2047
2046
2044
2041
2040
2039
2041
2042
2042
2042
2041
2039
2038
2038
2040
2044
2050
2058
2069
2083
2100
2115
2121
2118
2105
2083
2062
2047
2039
2039
2042
2045
2045
2043
2040
2037
2036
2036
2038
2039
2039
2038
2038
2038
2038
2038
2039
2039
2039
2040
2040
2041
2041
2042
2042
2044
2044
2044
2044
2044
2045
2047
2049
2051
2051
2050
2049
2049
2050
2053
2054
2056
2056
2057
2058
2059
2060
2062
2064
2065
2066
2065
2064
2062
2061
2060
2060
2059
2057
2053
2049
2046
2045
2047
2049
2051
2049
2047
2045
2043
2043
2045
2044
2044
2044
2045
2045
2046
2046
2046
2046
2046
2045
2045
2045
2045
2045
2046
2047
2048
2047
2045
2042
2042
2044
2048
2049
2049
2048
2046
2045
2043
2045
2045
2045
2045
2045
2045
2045
2046
2046
2046
2045
2045
2045
2045
2045
2046
2045
2048
2047
2046
2044
2041
2041
2043
2046
2048
2049
2048
2045
2043
2041
2043
2043
2044
2046
2045
2045
2045
2044
2044
2044
2046
2047
2047
2046
2045
2044
2043
2046
2046
2046
2045
2045
2046
2048
2050
2052
2053
2051
2049
2048
2046
2046
2046
2046
2046
2047
2047
2047
2048
2047
2047
2046
2044
2043
2045
2048
2053
2060
2069
2081
2096
2112
2123
2127
2119
2101
2081
2062
2050
2046
2044
2044
2044
2042
2042
2042
2042
2042
2042
2041
2041
2041
2041
2041
2041
2042
2042
2042
2043
2042
2042
2043
2042
2042
2042
2043
2045
2047
2048
2048
2047
2046
2046
2046
2047
2048
2048
2049
2050
2050
2051
2051
2052
2053
2054
2056
2057
2058
2058
2059
2058
2059
2058
2057
2055
2053
2052
2052
2052
2051
2049
2047
2044
2042
2039
2040
2039
2039
2039
2038
2038
2038
2037
2038
2038
2038
2038
2038
2038
2037
2037
2037
2039
2039
2039
2038
2037
2037
2039
2041
2043
2043
2041
2040
2039
2038
2041
2040
2040
2038
2037
2036
2036
2037
2037
2037
2037
2037
2037
2036
2036
2036
2035
2037
2037
2036
2035
2033
2033
2034
2037
2039
2039
2037
2035
2035
2034
2036
2035
2035
2035
2036
2036
2036
2036
2036
2036
2036
2036
2036
2035
2035
2035
2034
2035
2036
2037
2035
2033
2033
2035
2039
2043
2046
2045
2042
2039
2035
2034
2035
2034
2035
2034
2036
2036
2036
2037
2036
2034
2032
2032
2034
2039
2047
2055
2068
2083
2097
2109
2113
2109
2095
2077
2061
2048
2042
2038
2036
2036
2033
2034
2035
2035
2032
2029
2030
2031
2035
2040
2042
2040
2036
2033
2032
2033
2035
2036
2037
2036
2036
2033
2032
2033
2037
2043
2047
2047
2044
2041
2038
2037
2041
2042
2044
2045
2046
2047
2048
2048
2049
2051
2052
2052
2053
2053
2054
2054
2054
2055
2054
2053
2051
2049
2048
2047
2047
2046
2045
2043
2040
2038
2036
2036
2036
2036
2036
2036
2036
2035
2035
2035
2034
2035
2035
2036
2037
2038
2038
2038
2037
2037
2036
2036
2036
2036
2037
2038
2039
2040
2039
2038
2036
2035
2035
2036
2037
2037
2037
2037
2036
2036
2035
2035
2035
2035
2036
2036
2036
2036
2035
2035
2036
2035
2034
2034
2033
2034
2035
2037
2038
2037
2036
2034
2034
2034
2036
2036
2035
2035
2035
2035
2035
2035
2036
2035
2036
2036
2036
2036
2035
2035
2034
2036
2036
2037
2037
2037
2037
2039
2042
2044
2044
2042
2039
2038
2036
2038
2038
2038
2037
2036
2037
2037
2038
2037
2036
2035
2035
2037
2041
2047
2054
2063
2079
2096
2112
2120
2116
2101
2079
2060
2047
2041
2039
2038
2038
2035
2035
2034
2033
2034
2034
2034
2033
2033
2033
2034
2035
2035
2035
2034
2035
2034
2035
2035
2036
2037
2036
2034
2034
2034
2038
2042
2044
2045
2043
2041
2040
2039
2042
2042
2044
2045
2047
2048
2048
2049
2050
2051
2052
2052
2053
2053
2054
2054
2054
2055
2054
2052
2049
2047
2045
2044
2045
2046
2045
2042
2039
2037
2035
2036
2036
2036
2036
2036
2035
2036
2035
2035
2035
2035
2036
2037
2038
2038
2037
2035
2035
2036
2036
2034
2031
2031
2033
2038
2042
2043
2040
2036
2033
2030
2033
2034
2035
2035
2035
2035
2035
2035
2035
2035
2035
2034
2034
2034
2035
2035
2033
2035
2034
2033
2032
2031
2031
2033
2035
2036
2036
2035
2033
2032
2030
2033
2033
2033
2033
2033
2033
2033
2033
2033
2033
2033
2033
2034
2033
2033
2034
2033
2034
2034
2034
2035
2036
2037
2038
2039
2041
2042
2041
2039
2036
2034
2033
2033
2034
2035
2035
2035
2036
2036
2034
2033
2032
2033
2036
2041
2047
2054
2064
2079
2096
2109
2116
2111
2095
2075
2057
2047
2041
2038
2037
2035
2033
2032
2033
2033
2033
2033
2032
2033
2033
2032
2033
2032
2033
2034
2034
2034
2034
2034
2034
2036
2035
2036
2035
2033
2034
2036
2040
2043
2043
2042
2040
2039
2039
2042
2043
2044
2044
2045
2045
2047
2048
2050
2051
2053
2053
2053
2053
2053
2053
2052
2053
2053
2051
2049
2047
2044
2043
2044
2045
2045
2043
2040
2037
2035
2035
2036
2037
2036
2036
2036
2035
2035
2035
2036
2036
2036
2036
2036
2036
2036
2037
2038
2037
2039
2038
2036
2035
2035
2037
2040
2042
2041
2040
2038
2036
2036
2036
2037
2037
2036
2036
2037
2037
2037
2037
2037
2036
2036
2035
2035
2035
2035
2034
2037
2036
2036
2034
2033
2034
2036
2040
2043
2043
2040
2037
2036
2034
2037
2037
2038
2037
2037
2037
2035
2036
2036
2036
2035
2035
2036
2037
2039
2041
2041
2042
2041
2040
2037
2037
2035
2036
2038
2040
2041
2039
2038
2036
2036
2037
2037
2036
2035
2036
2039
2044
2050
2060
2071
2086
2101
2113
2117
2111
2096
2076
2059
2048
2041
2038
2035
2035
2035
2037
2041
2042
2041
2037
2034
2033
2034
2036
2036
2037
2037
2036
2037
2037
2037
2037
2037
2038
2038
2039
2040
2040
2041
2041
2042
2043
2042
2042
2041
2043
2045
2048
2049
2048
2048
2048
2048
2050
2053
2055
2056
2056
2057
2057
2057
2056
2056
2056
2056
2056
2055
2054
2052
2049
2048
2047
2045
2043
2040
2039
2038
2039
2040
2041
2040
2038
2036
2036
2035
2037
2037
2038
2038
2038
2037
2038
2038
2038
2039
2039
2039
2040
2040
2040
2039
2037
2037
2038
2041
2044
2043
2041
2039
2038
2039
2041
2042
2041
2039
2036
2037
2037
2037
2038
2037
2037
2037
2037
2038
2039
2040
2040
2040
2040
2039
2039
2038
2040
2040
2038
2037
2035
2036
2037
2041
2044
2045
2044
2042
2042
2040
2043
2043
2042
2041
2040
2040
2039
2039
2039
2039
2040
2040
2041
2040
2040
2038
2037
2037
2040
2045
2049
2056
2065
2080
2099
2117
2127
2123
2106
2082
2060
2045
2039
2038
2039
2039
2039
2038
2038
2038
2037
2037
2036
2036
2036
2036
2036
2036
2036
2038
2037
2036
2034
2033
2033
2037
2040
2043
2043
2041
2039
2038
2038
2040
2040
2042
2043
2043
2044
2045
2046
2047
2048
2048
2049
2050
2050
2052
2053
2053
2056
2056
2054
2053
2051
2050
2053
2055
2058
2057
2053
2048
2044
2041
2041
2041
2040
2040
2039
2039
2038
2038
2037
2037
2037
2037
2038
2038
2038
2038
2038
2039
2039
2039
2038
2037
2036
2036
2038
2040
2041
2040
2039
2038
2037
2037
2038
2038
2039
2039
2038
2038
2038
2037
2037
2037
2037
2038
2038
2038
2038
2038
2038
2037
2037
2037
2036
2036
2036
2038
2040
2040
2040
2038
2036
2035
2035
2036
2038
2038
2038
2037
2037
2037
2036
2036
2036
2036
2037
2037
2037
2038
2039
2039
2042
2042
2042
2042
2041
2042
2043
2044
2044
2043
2041
2040
2040
2039
2040
2040
2040
2039
2038
2037
2037
2038
2042
2047
2054
2064
2077
2094
2110
2122
2123
2115
2095
2072
2053
2042
2038
2040
2043
2045
2043
2040
2037
2036
2036
2038
2039
2039
2038
2038
2037
2037
2038
2039
2040
2041
2042
2042
2042
2041
2042
2042
2044
2046
2045
2044
2043
2042
2044
2047
2051
2053
2053
2051
2050
2050
2050
2053
2053
2054
2056
2057
2058
2059
2060
2060
2060
2060
2060
2059
2059
2058
2057
2056
2054
2053
2050
2048
2045
2044
2045
2046
2047
2046
2045
2042
2041
2041
2041
2042
2041
2040
2041
2041
2041
2042
2042
2042
2042
2041
2041
2041
2041
2041
2040
2043
2042
2041
2039
2038
2039
2042
2046
2048
2047
2044
2041
2039
2037
2040
2040
2040
2041
2040
2041
2041
2041
2041
2041
2042
2041
2041
2040
2040
2041
2041
2042
2042
2041
2039
2038
2037
2037
2041
2042
2043
2041
2040
2038
2037
2038
2039
2039
2040
2041
2041
2041
2041
2040
2041
2040
2041
2042
2043
2044
2046
2045
2046
2045
2043
2042
2040
2040
2040
2041
2042
2043
2043
2042
2041
2040
2039
2038
2037
2038
2039
2042
2047
2054
2063
2076
2092
2108
2120
2122
2112
2093
2071
2053
2043
2039
2040
2040
2038
2037
2037
2039
2040
2040
2039
2037
2036
2036
2037
2038
2039
2038
2038
2038
2038
2038
2039
2039
2040
2041
2043
2044
2044
2045
2045
2046
2046
2046
2046
2045
2047
2048
2050
2052
2053
2053
2052
2053
2052
2054
2055
2055
2057
2057
2057
2058
2058
2059
2059
2059
2058
2056
2055
2052
2051
2048
2048
2048
2045
2044
2041
2039
2040
2043
2046
2047
2045
2042
2039
2037
2038
2040
2040
2040
2040
2040
2040
2040
2041
2042
2042
2042
2043
2043
2043
2043
2041
2042
2044
2043
2042
2039
2038
2038
2041
2046
2048
2047
2043
2040
2038
2037
2040
2040
2040
2040
2040
2040
2040
2040
2040
2041
2041
2040
2040
2040
2040
2040
2040
2041
2042
2041
2039
2038
2038
2039
2041
2042
2042
2042
2041
2041
2042
2043
2044
2044
2044
2044
2043
2043
2042
2041
2041
2041
2041
2041
2041
2042
2042
2042
2043
2041
2039
2037
2038
2042
2049
2061
2074
2088
2103
2115
2120
2115
2101
2081
2062
2049
2043
2041
2042
2042
2041
2040
2041
2040
2039
2039
2039
2040
2040
2042
2043
2042
2040
2037
2036
2038
2042
2045
2046
2046
2045
2043
2040
2040
2041
2043
2046
2049
2051
2050
2048
2046
2044
2046
2048
2050
2050
2052
2053
2054
2056
2057
2057
2058
2059
2060
2060
2062
2063
2063
2062
2060
2058
2056
2054
2052
2051
2049
2048
2047
2046
2044
2043
2042
2042
2042
2042
2042
2043
2043
2043
2043
2042
2042
2041
2041
2041
2042
2043
2045
2045
2045
2044
2042
2041
2042
2042
2044
2043
2044
2044
2043
2043
2043
2043
2043
2043
2043
2043
2043
2043
2043
2042
2043
2041
2040
2038
2038
2040
2044
2047
2048
2048
2046
2043
2041
2039
2041
2041
2042
2042
2042
2042
2042
2041
2041
2041
2041
2041
2041
2041
2041
2040
2039
2041
2042
2043
2040
2038
2037
2040
2046
2051
2054
2051
2047
2042
2039
2039
2041
2042
2041
2041
2041
2041
2041
2042
2043
2042
2040
2039
2038
2040
2044
2048
2057
2069
2082
2097
2108
2116
2115
2106
2091
2073
2056
2045
2039
2037
2038
2039
2039
2039
2038
2037
2037
2037
2036
2037
2037
2038
2038
2038
2038
2038
2037
2039
2040
2040
2039
2037
2036
2037
2040
2044
2046
2047
2045
2043
2041
2042
2044
2045
2047
2047
2048
2049
2050
2051
2051
2053
2053
2055
2055
2055
2056
2056
2056
2058
2058
2058
2055
2051
2049
2049
2050
2052
2052
2049
2046
2043
2040
2040
2040
2040
2040
2040
2040
2040
2041
2040
2040
2041
2041
2040
2039
2038
2039
2040
2043
2044
2044
2040
2037
2036
2037
2041
2045
2047
2045
2042
2039
2037
2038
2039
2041
2040
2040
2040
2041
2041
2040
2039
2039
2039
2039
2040
2040
2040
2040
2041
2040
2039
2038
2037
2037
2039
2042
2043
2043
2040
2038
2037
2037
2038
2038
2038
2038
2038
2038
2038
2038
2038
2039
2039
2039
2038
2038
2038
2037
2038
2037
2039
2040
2040
2040
2040
2041
2043
2046
2047
2046
2043
2039
2037
2036
2037
2039
2039
2039
2039
2039
2040
2039
2037
2036
2035
2035
2038
2042
2048
2056
2067
2084
2100
2114
2117
2109
2092
2073
2057
2048
2043
2040
2038
2036
2033
2034
2034
2034
2033
2033
2033
2034
2034
2034
2034
2035
2035
2035
2035
2035
2034
2033
2035
2036
2036
2035
2033
2033
2036
2041
2047
2048
2047
2043
2040
2038
2040
2043
2045
2046
2047
2048
2048
2049
2052
2054
2055
2056
2056
2056
2057
2057
2057
2058
2058
2057
2054
2051
2048
2047
2048
2049
2049
2048
2045
2042
2040
2039
2040
2040
2040
2040
2039
2039
2039
2039
2039
2039
2039
2039
2039
2039
2038
2039
2039
2042
2042
2041
2038
2036
2037
2041
2046
2048
2048
2047
2043
2041
2039
2041
2041
2041
2040
2041
2040
2040
2040
2040
2041
2041
2041
2041
2038
2037
2036
2036
2038
2039
2039
2038
2038
2038
2039
2041
2043
2043
2042
2040
2039
2039
2039
2039
2040
2040
2039
2039
2040
2040
2041
2042
2042
2043
2044
2045
2045
2045
2044
2043
2042
2042
2041
2040
2039
2040
2041
2043
2044
2044
2043
2041
2039
2038
2037
2038
2041
2047
2054
2065
2078
2094
2108
2117
2118
2108
2090
2070
2054
2045
2041
2041
2041
2040
2038
2038
2038
2039
2041
2042
2041
2039
2038
2037
2037
2038
2038
2040
2040
2040
2040
2040
2040
2040
2041
2042
2043
2044
2045
2046
2046
2046
2048
2047
2047
2047
2048
2048
2051
2053
2055
2055
2054
2053
2054
2054
2057
2058
2059
2060
2061
2061
2061
2060
2060
2059
2058
2056
2054
2052
2050
2048
2046
2045
2043
2042
2041
2040
2039
2040
2041
2042
2043
2042
2041
2040
2039
2040
2040
2041
2041
2041
2041
2041
2041
2041
2042
2042
2043
2043
2043
2043
2042
2041
2042
2041
2042
2042
2042
2041
2042
2043
2044
2045
2044
2043
2041
2039
2039
2039
2039
2040
2040
2040
2040
2040
2041
2042
2042
2042
2042
2041
2038
2037
2035
2038
2042
2045
2046
2043
2039
2037
2038
2042
2044
2044
2042
2040
2039
2039
2041
2039
2040
2041
2042
2044
2045
2045
2046
2045
2045
2044
2043
2043
2042
2042
2043
2043
2044
2043
2041
2039
2039
2040
2041
2042
2042
2043
2046
2050
2058
2070
2086
2104
2118
2125
2120
2103
2081
2061
2048
2042
2040
2041
2041
2040
2039
2038
2041
2040
2039
2037
2035
2034
2037
2041
2045
2046
2044
2040
2038
2035
2038
2039
2040
2040
2041
2042
2042
2042
2043
2044
2045
2045
2044
2046
2047
2047
2047
2048
2049
2050
2051
2051
2052
2053
2056
2058
2060
2060
2059
2057
2057
2058
2058
2058
2057
2057
2055
2053
2051
2048
2048
2046
2045
2044
2044
2043
2042
2042
2042
2041
2041
2039
2039
2039
2041
2043
2045
2045
2044
2042
2041
2040
2040
2041
2041
2041
2041
2041
2041
2041
2041
2041
2041
2041
2041
2041
2041
2041
2041
2040
2040
2041
2039
2037
2036
2037
2040
2044
2046
2045
2041
2038
2036
2036
2038
2039
2039
2038
2038
2038
2037
2038
2038
2038
2039
2039
2039
2038
2038
2038
2038
2039
2038
2039
2038
2038
2038
2039
2040
2040
2039
2037
2036
2036
2036
2039
2039
2040
2041
2042
2043
2043
2043
2043
2042
2042
2041
2040
2040
2039
2039
2037
2039
2038
2039
2039
2038
2037
2037
2038
2040
2043
2048
2054
2062
2074
2091
2107
2119
2121
2111
2092
2070
2053
2044
2040
2040
2040
2040
2038
2038
2038
2037
2038
2039
2037
2035
2033
2032
2034
2038
2040
2041
2040
2037
2036
2035
2036
2038
2037
2037
2037
2038
2039
2040
2040
2041
2042
2042
2042
2043
2044
2045
2046
2048
2049
2051
2050
2048
2048
2049
2052
2056
2059
2059
2057
2055
2053
2054
2054
2054
2052
2050
2048
2047
2046
2045
2043
2042
2040
2039
2038
2036
2036
2037
2036
2039
2037
2036
2034
2031
2031
2034
2039
2044
2045
2043
2039
2036
2032
2034
2036
2036
2038
2037
2037
2037
2037
2038
2038
2038
2037
2035
2036
2035
2035
2035
2035
2034
2035
2034
2033
2033
2034
2036
2039
2039
2038
2035
2032
2031
2032
2033
2034
2034
2035
2035
2035
2035
2034
2034
2033
2033
2034
2034
2034
2034
2034
2035
2035
2034
2034
2032
2032
2033
2035
2037
2038
2037
2035
2034
2032
2033
2034
2035
2037
2038
2039
2040
2040
2040
2039
2038
2038
2037
2037
2037
2037
2037
2036
2037
2037
2036
2035
2034
2034
2036
2038
2040
2042
2044
2048
2054
2066
2083
2100
2112
2115
2107
2089
2067
2050
2039
2035
2035
2036
2035
2034
2033
2032
2032
2033
2032
2033
2032
2032
2033
2034
2036
2036
2036
2034
2033
2032
2032
2034
2034
2035
2035
2036
2036
2035
2036
2036
2037
2038
2039
2039
2040
2040
2040
2040
2042
2042
2043
2043
2044
2046
2048
2050
2052
2053
2052
2051
2050
2050
2051
2050
2051
2049
2048
2047
2046
2044
2043
2042
2041
2040
2039
2038
2037
2036
2035
2035
2035
2034
2034
2033
2033
2033
2034
2036
2037
2036
2036
2035
2034
2034
2035
2034
2036
2035
2036
2036
2036
2036
2036
2036
2036
2036
2036
2036
2036
2036
2036
2037
2037
2036
2035
2033
2032
2033
2036
2038
2038
2037
2035
2034
2034
2034
2034
2034
2033
2034
2034
2035
2035
2035
2034
2034
2035
2035
2035
2035
2035
2035
2036
2037
2036
2034
2031
2030
2032
2036
2040
2042
2040
2037
2035
2033
2035
2039
2040
2040
2040
2040
2039
2038
2037
2036
2036
2036
2035
2035
2036
2037
2036
2038
2036
2034
2032
2031
2032
2037
2045
2054
2065
2076
2089
2101
2110
2111
2102
2085
2066
2050
2041
2037
2037
2037
2036
2034
2034
2034
2033
2033
2033
2033
2034
2034
2033
2033
2032
2032
2033
2035
2037
2040
2040
2039
2036
2034
2033
2036
2039
2044
2045
2044
2042
2039
2039
2041
2042
2045
2045
2046
2047
2048
2048
2048
2050
2052
2052
2052
2052
2053
2054
2057
2059
2059
2058
2055
2052
2050
2049
2049
2048
2047
2045
2043
2042
2040
2039
2038
2037
2037
2037
2037
2037
2038
2037
2037
2036
2036
2036
2036
2037
2038
2040
2041
2041
2039
2038
2037
2036
2038
2038
2040
2039
2039
2039
2039
2039
2038
2039
2038
2038
2038
2037
2037
2037
2036
2037
2037
2037
2037
2036
2036
2037
2038
2039
2040
2040
2038
2038
2037
2037
2037
2036
2037
2037
2037
2037
2038
2040
2041
2042
2042
2042
2041
2040
2039
2038
2037
2037
2037
2037
2036
2035
2036
2038
2041
2042
2040
2038
2036
2037
2042
2048
2057
2068
2083
2099
2113
2118
2113
2097
2076
2057
2045
2039
2038
2038
2038
2037
2036
2036
2035
2034
2033
2033
2035
2037
2038
2037
2036
2035
2034
2034
2035
2036
2036
2036
2036
2037
2038
2039
2039
2040
2041
2042
2043
2043
2043
2044
2043
2047
2047
2047
2046
2045
2046
2048
2053
2058
2059
2058
2055
2053
2050
2053
2054
2054
2054
2053
2052
2051
2049
2048
2046
2044
2042
2040
2040
2039
2038
2039
2040
2039
2037
2035
2034
2035
2037
2040
2042
2042
2040
2038
2035
2036
2037
2037
2038
2038
2039
2039
2039
2040
2039
2039
2039
2039
2040
2041
2041
2042
2041
2041
2041
2040
2038
2036
2036
2038
2042
2046
2047
2045
2041
2037
2036
2036
2038
2039
2039
2039
2039
2039
2038
2038
2037
2037
2038
2038
2039
2040
2040
2041
2041
2043
2044
2043
2041
2040
2039
2040
2041
2042
2041
2039
2037
2036
2036
2037
2039
2038
2036
2035
2035
2037
2042
2048
2057
2069
2085
2102
2117
2123
2117
2099
2076
2055
2042
2035
2034
2035
2037
2036
2036
2035
2034
2033
2033
2033
2036
2036
2037
2036
2036
2036
2037
2038
2038
2039
2040
2040
2041
2041
2041
2040
2040
2041
2041
2042
2042
2042
2042
2043
2046
2048
2049
2049
2048
2048
2049
2051
2052
2054
2055
2055
2056
2056
2057
2057
2058
2059
2058
2058
2056
2054
2052
2051
2049
2048
2046
2044
2040
2039
2040
2042
2044
2044
2042
2040
2038
2037
2037
2038
2037
2038
2038
2038
2038
2038
2038
2039
2039
2039
2038
2038
2038
2038
2039
2040
2041
2042
2041
2039
2038
2039
2041
2043
2044
2043
2042
2040
2037
2038
2038
2038
2038
2037
2037
2036
2037
2037
2037
2037
2037
2037
2036
2036
2036
2035
2036
2037
2039
2040
2038
2037
2037
2041
2045
2048
2048
2045
2040
2037
2036
2037
2039
2039
2039
2039
2039
2038
2037
2035
2035
2038
2044
2051
2061
2075
2091
2108
2122
2125
2116
2095
2072
2053
2044
2043
2044
2045
2041
2037
2034
2033
2034
2034
2035
2035
2036
2036
2036
2037
2036
2036
2036
2036
2037
2038
2038
2039
2040
2039
2040
2039
2039
2039
2040
2043
2046
2048
2049
2048
2046
2044
2045
2045
2048
2049
2051
2051
2052
2053
2053
2054
2054
2055
2055
2055
2056
2055
2055
2054
2052
2051
2050
2048
2046
2045
2044
2043
2043
2043
2041
2040
2038
2037
2037
2036
2038
2037
2037
2037
2037
2037
2037
2037
2037
2037
2037
2038
2038
2037
2037
2036
2037
2036
2037
2037
2037
2038
2039
2040
2041
2041
2040
2038
2037
2036
2037
2037
2037
2037
2037
2036
2036
2036
2036
2036
2036
2036
2036
2035
2035
2034
2033
2034
2035
2035
2034
2033
2033
2034
2037
2040
2042
2041
2040
2038
2038
2038
2038
2037
2036
2035
2034
2034
2035
2036
2037
2038
2037
2036
2034
2034
2035
2037
2043
2051
2059
2073
2090
2107
2120
2123
2113
2092
2068
2048
2037
2033
2032
2035
2033
2032
2031
2031
2031
2031
2032
2032
2033
2034
2034
2031
2030
2029
2030
2034
2038
2040
2037
2034
2031
2031
2034
2038
2041
2041
2040
2038
2038
2038
2040
2041
2042
2042
2042
2043
2044
2046
2047
2048
2048
2048
2049
2049
2051
2052
2052
2056
2055
2054
2052
2048
2048
2048
2050
2051
2049
2046
2041
2038
2035
2037
2037
2037
2037
2036
2036
2036
2036
2036
2036
2037
2037
2037
2037
2038
2038
2038
2038
2038
2038
2037
2036
2036
2037
2038
2040
2042
2041
2040
2038
2037
2037
2037
2037
2037
2038
2038
2037
2037
2036
2036
2036
2036
2036
2036
2036
2036
2037
2037
2037
2036
2035
2034
2034
2036
2038
2039
2039
2038
2036
2035
2034
2035
2036
2036
2038
2039
2040
2041
2041
2041
2040
2040
2039
2039
2039
2039
2038
2038
2038
2038
2038
2038
2037
2037
2037
2037
2039
2040
2043
2046
2051
2060
2075
2093
2111
2122
2122
2109
2088
2065
2048
2039
2037
2038
2039
2038
2037
2036
2035
2035
2036
2035
2034
2033
2034
2036
2038
2039
2039
2037
2035
2034
2034
2034
2038
2038
2038
2039
2040
2040
2041
2041
2042
2043
2044
2045
2045
2045
2045
2045
2046
2048
2048
2049
2048
2048
2049
2052
2055
2057
2057
2056
2054
2054
2054
2054
2053
2052
2051
2049
2048
2046
2045
2044
2043
2043
2042
2041
2040
2039
2038
2037
2037
2038
2037
2037
2036
2036
2038
2040
2042
2042
2041
2040
2038
2038
2038
2039
2038
2039
2040
2040
2040
2041
2041
2041
2041
2041
2040
2040
2040
2040
2040
2040
2040
2040
2039
2038
2037
2037
2038
2040
2041
2040
2039
2037
2036
2036
2036
2037
2037
2037
2037
2038
2038
2038
2038
2038
2037
2037
2037
2037
2037
2038
2037
2040
2040
2040
2039
2039
2040
2044
2048
2050
2050
2047
2042
2039
2036
2038
2039
2040
2041
2041
2041
2042
2042
2041
2039
2039
2039
2041
2047
2054
2064
2076
2093
2109
2120
2124
2115
2097
2077
2060
2050
2048
2046
2046
2043
2041
2040
2040
2039
2041
2041
2041
2041
2041
2041
2042
2042
2042
2042
2043
2043
2044
2044
2045
2046
2045
2045
2043
2043
2045
2048
2052
2054
2054
2051
2048
2048
2048
2052
2053
2054
2055
2055
2056
2056
2057
2058
2059
2059
2060
2061
2062
2062
2062
2061
2060
2060
2058
2056
2054
2053
2051
2051
2051
2049
2048
2045
2044
2042
2042
2044
2043
2043
2042
2042
2042
2042
2042
2042
2043
2043
2043
2043
2043
2043
2043
2044
2043
2043
2043
2044
2045
2046
2047
2047
2046
2045
2043
2043
2042
2044
2043
2043
2043
2043
2042
2041
2041
2041
2042
2042
2042
2042
2041
2041
2040
2039
2041
2040
2041
2039
2039
2039
2039
2041
2042
2042
2041
2039
2038
2038
2040
2040
2042
2042
2042
2043
2044
2044
2045
2045
2044
2043
2042
2041
2041
2041
2041
2042
2041
2040
2040
2038
2038
2038
2040
2042
2044
2047
2051
2058
2069
2086
2104
2117
2123
2116
2099
2077
2057
2046
2041
2040
2041
2040
2039
2038
2037
2037
2038
2038
2038
2037
2036
2036
2037
2039
2041
2042
2041
2040
2038
2036
2038
2038
2039
2040
2040
2040
2041
2042
2043
2043
2043
2044
2044
2045
2045
2046
2047
2048
2050
2050
2050
2049
2049
2051
2055
2058
2060
2060
2059
2058
2057
2056
2056
2055
2053
2051
2050
2049
2048
2047
2046
2045
2043
2042
2041
2040
2040
2040
2040
2041
2041
2039
2038
2037
2038
2040
2042
2044
2044
2042
2040
2040
2040
2040
2039
2037
2039
2040
2042
2043
2044
2044
2043
2042
2042
2043
2042
2042
2041
2040
2040
2041
2040
2039
2037
2036
2038
2042
2046
2048
2046
2042
2038
2036
2036
2039
2039
2041
2040
2040
2040
2039
2039
2039
2039
2039
2040
2041
2041
2040
2040
2040
2040
2040
2039
2037
2037
2038
2040
2044
2046
2045
2040
2034
2032
2034
2040
2046
2048
2047
2044
2041
2039
2040
2041
2042
2041
2041
2040
2040
2040
2039
2037
2039
2039
2039
2038
2036
2036
2037
2041
2045
2048
2051
2054
2062
2075
2096
2113
2123
2121
2106
2084
2062
2047
2039
2038
2039
2039
2038
2038
2037
2037
2035
2036
2036
2036
2035
2034
2034
2035
2037
2040
2041
2039
2037
2035
2034
2036
2037
2039
2039
2039
2039
2040
2041
2042
2043
2043
2044
2044
2043
2044
2045
2046
2047
2049
2050
2050
2048
2048
2049
2053
2058
2061
2061
2058
2055
2054
2053
2054
2053
2052
2050
2048
2048
2046
2044
2043
2042
2041
2040
2040
2039
2039
2039
2039
2040
2041
2040
2038
2036
2037
2039
2042
2045
2045
2043
2040
2037
2036
2037
2039
2040
2039
2039
2040
2040
2041
2041
2041
2040
2040
2039
2039
2040
2039
2039
2042
2041
2040
2037
2035
2035
2038
2043
2047
2047
2044
2039
2035
2032
2035
2037
2037
2037
2037
2037
2037
2038
2039
2039
2039
2038
2038
2038
2039
2039
2039
2039
2041
2039
2036
2035
2033
2035
2039
2044
2046
2045
2041
2037
2034
2034
2037
2037
2037
2039
2038
2039
2039
2040
2041
2042
2042
2043
2042
2042
2041
2040
2040
2039
2039
2037
2035
2035
2037
2041
2044
2045
2042
2038
2035
2034
2037
2042
2049
2058
2069
2084
2101
2115
2122
2118
2102
2080
2060
2046
2039
2038
2038
2039
2037
2036
2034
2033
2032
2034
2037
2040
2041
2039
2035
2033
2031
2033
2035
2037
2037
2038
2038
2037
2037
2037
2037
2039
2040
2041
2042
2042
2041
2040
2041
2043
2044
2044
2045
2045
2047
2049
2054
2056
2056
2054
2052
2051
2053
2055
2057
2057
2056
2055
2054
2054
2053
2052
2051
2049
2048
2047
2045
2043
2041
2039
2040
2039
2038
2037
2036
2036
2040
2043
2044
2041
2037
2034
2032
2034
2037
2037
2037
2037
2037
2037
2037
2038
2039
2040
2041
2041
2041
2041
2040
2039
2039
2040
2040
2039
2039
2037
2036
2037
2038
2040
2041
2041
2040
2038
2038
2037
2038
2037
2036
2036
2036
2037
2037
2037
2038
2037
2038
2037
2038
2038
2038
2038
2038
2039
2040
2039
2037
2035
2035
2038
2042
2045
2045
2042
2039
2037
2036
2037
2037
2038
2038
2039
2041
2042
2044
2043
2043
2042
2041
2040
2039
2040
2040
2039
2041
2040
2040
2038
2036
2036
2037
2041
2044
2044
2042
2040
2041
2045
2054
2065
2082
2099
2114
2122
2118
2103
2081
2060
2047
2040
2038
2039
2040
2039
2038
2037
2037
2036
2036
2036
2035
2036
2037
2038
2038
2037
2037
2036
2036
2036
2036
2037
2037
2038
2039
2039
2039
2039
2040
2040
2041
2042
2042
2043
2044
2044
2045
2045
2045
2046
2046
2047
2049
2051
2054
2056
2056
2055
2055
2054
2055
2056
2056
2057
2056
2055
2053
2051
2049
2048
2046
2045
2044
2043
2042
2041
2041
2040
2038
2039
2038
2038
2038
2038
2039
2041
2041
2041
2040
2038
2037
2037
2038
2040
2040
2040
2040
2040
2040
2040
2040
2041
2041
2041
2041
2040
2040
2039
2038
2040
2039
2039
2038
2039
2040
2042
2042
2042
2041
2038
2037
2037
2037
2039
2039
2039
2038
2038
2038
2038
2038
2038
2039
2039
2039
2039
2039
2038
2038
2038
2037
2037
2038
2038
2038
2039
2039
2040
2041
2041
2040
2039
2038
2038
2038
2038
2039
2038
2038
2038
2038
2038
2038
2039
2041
2042
2042
2043
2043
2043
2043
2044
2044
2042
2041
2039
2038
2038
2040
2042
2043
2043
2041
2040
2039
2039
2038
2036
2037
2038
2042
2047
2054
2063
2076
2092
2109
2120
2121
2110
2089
2067
2051
2044
2041
2039
2038
2035
2035
2038
2042
2044
2042
2038
2034
2032
2033
2036
2037
2037
2036
2036
2037
2037
2038
2038
2039
2039
2037
2037
2036
2038
2042
2045
2048
2046
2043
2039
2038
2041
2045
2049
2050
2051
2050
2049
2048
2049
2052
2053
2054
2055
2055
2055
2056
2056
2057
2057
2056
2056
2054
2053
2051
2049
2048
2047
2047
2045
2042
2040
2039
2040
2044
2046
2045
2041
2038
2035
2035
2038
2039
2040
2039
2039
2039
2038
2041
2040
2040
2040
2040
2041
2042
2042
2042
2042
2043
2043
2045
2045
2046
2047
2048
2048
2049
2050
2049
2048
2046
2045
2044
2042
2042
2041
2040
2040
2039
2038
2037
2036
2035
2034
2034
2034
2034
2034
2034
2034
2033
2034
2035
2035
2035
2036
2038
2039
2040
2040
2039
2037
2037
2037
2039
2041
2041
2042
2042
2042
2042
2041
2042
2042
2042
2042
2042
2042
2042
2041
2040
2041
2041
2041
2041
2041
2042
2043
2045
2046
2046
2045
2044
2043
2041
2042
2041
2040
2039
2038
2038
2038
2038
2038
2039
2039
2040
2040
2038
2037
2037
2039
2044
2050
2058
2068
2083
2100
2115
2122
2117
2099
2076
2056
2044
2038
2038
2039
2038
2036
2035
2034
2034
2033
2034
2034
2035
2035
2035
2035
2035
2035
2035
2037
2037
2036
2037
2035
2035
2036
2038
2041
2042
2042
2040
2038
2038
2038
2040
2039
2041
2041
2042
2043
2044
2045
2047
2048
2048
2049
2050
2051
2051
2053
2054
2057
2057
2057
2055
2054
2053
2054
2056
2056
2054
2051
2048
2047
2045
2046
2044
2043
2041
2041
2041
2041
2041
2040
2040
2039
2039
2039
2038
2038
2038
2037
2039
2037
2036
2034
2033
2033
2036
2039
2041
2042
2040
2037
2036
2034
2037
2036
2037
2037
2037
2037
2037
2037
2037
2037
2037
2038
2038
2038
2039
2039
2038
2039
2039
2038
2037
2034
2033
2033
2036
2042
2044
2044
2040
2035
2031
2032
2033
2035
2037
2036
2036
2036
2036
2036
2036
2037
2037
2038
2038
2039
2038
2038
2039
2038
2038
2038
2037
2037
2039
2041
2043
2042
2041
2038
2036
2036
2036
2037
2037
2039
2040
2041
2042
2042
2042
2041
2040
2040
2039
2038
2038
2037
2037
2037
2037
2038
2038
2037
2036
2035
2035
2036
2037
2039
2043
2048
2054
2065
2080
2097
2111
2117
2112
2098
2078
2058
2046
2039
2037
2038
2038
2036
2035
2035
2033
2034
2033
2032
2032
2031
2032
2033
2035
2036
2035
2034
2033
2033
2033
2035
2035
2036
2036
2036
2036
2036
2037
2038
2038
2040
2041
2042
2042
2042
2043
2043
2044
2046
2047
2048
2048
2049
2050
2052
2054
2055
2055
2054
2052
2052
2053
2053
2053
2052
2050
2048
2046
2044
2043
2042
2041
2039
2037
2036
2034
2033
2033
2034
2035
2033
2033
2031
2031
2031
2034
2037
2038
2039
2038
2037
2037
2037
2037
2036
2036
2037
2038
2038
2038
2037
2036
2035
2035
2035
2034
2034
2034
2034
2033
2034
2035
2034
2032
2029
2029
2031
2036
2039
2040
2038
2036
2034
2033
2035
2037
2037
2037
2037
2037
2037
2037
2037
2037
2036
2036
2035
2034
2034
2033
2032
2033
2032
2032
2030
2029
2030
2031
2035
2038
2039
2039
2037
2037
2037
2039
2040
2041
2040
2039
2039
2038
2038
2038
2038
2038
2037
2037
2037
2037
2037
2036
2035
2033
2032
2032
2035
2041
2052
2068
2088
2105
2117
2118
2107
2088
2067
2049
2039
2033
2032
2032
2032
2031
2031
2030
2030
2030
2031
2031
2031
2032
2032
2032
2031
2031
2030
2029
2030
2031
2033
2034
2035
2034
2032
2032
2031
2032
2033
2034
2035
2036
2036
2036
2036
2036
2036
2036
2037
2038
2039
2041
2043
2045
2048
2048
2050
2050
2050
2050
2052
2055
2057
2057
2055
2052
2048
2046
2045
2044
2044
2042
2041
2040
2038
2037
2036
2036
2036
2036
2036
2036
2036
2036
2036
2036
2037
2036
2035
2035
2034
2035
2038
2041
2042
2039
2035
2033
2034
2037
2043
2044
2043
2039
2036
2034
2036
2037
2038
2038
2037
2037
2037
2037
2037
2037
2037
2038
2037
2037
2036
2037
2038
2039
2040
2040
2038
2036
2035
2035
2036
2038
2038
2037
2037
2037
2036
2036
2036
2037
2038
2039
2039
2039
2038
2037
2036
2036
2038
2039
2039
2040
2039
2040
2041
2043
2045
2046
2045
2043
2041
2039
2039
2038
2038
2038
2039
2039
2039
2040
2040
2040
2038
2037
2037
2039
2043
2048
2057
2067
2084
2101
2115
2120
2114
2098
2078
2061
2050
2044
2041
2040
2039
2037
2037
2036
2036
2035
2036
2036
2037
2037
2037
2037
2036
2036
2037
2037
2037
2038
2038
2040
2039
2039
2038
2038
2039
2041
2044
2045
2046
2044
2043
2043
2042
2044
2045
2046
2047
2048
2048
2049
2051
2052
2053
2055
2056
2057
2057
2057
2057
2057
2058
2058
2056
2054
2050
2048
2047
2048
2050
2054
2051
2047
2041
2036
2035
2037
2039
2041
2041
2040
2039
2039
2038
2039
2039
2039
2040
2040
2041
2041
2040
2041
2040
2040
2040
2039
2039
2041
2043
2044
2044
2042
2040
2038
2038
2038
2039
2039
2039
2039
2039
2039
2038
2038
2037
2037
2038
2038
2038
2038
2037
2038
2038
2038
2039
2038
2038
2037
2037
2038
2040
2042
2041
2040
2038
2037
2037
2038
2040
2039
2039
2039
2039
2038
2038
2038
2038
2038
2039
2040
2041
2042
2043
2043
2044
2043
2042
2041
2039
2039
2039
2040
2041
2040
2039
2037
2037
2037
2039
2038
2037
2036
2035
2037
2040
2046
2054
2064
2078
2094
2107
2115
2113
2101
2082
2064
2051
2045
2042
2041
2042
2042
2042
2043
2042
2040
2037
2036
2036
2037
2038
2039
2038
2038
2038
2038
2038
2039
2040
2040
2041
2041
2041
2040
2041
2041
2043
2044
2043
2043
2042
2042
2044
2047
2048
2049
2049
2048
2049
2048
2051
2052
2052
2053
2054
2055
2056
2057
2056
2057
2056
2056
2055
2054
2054
2052
2051
2049
2049
2048
2045
2042
2039
2039
2042
2045
2047
2047
2044
2041
2038
2037
2039
2040
2040
2040
2041
2042
2042
2042
2042
2043
2042
2042
2043
2043
2044
2044
2045
2047
2046
2045
2044
2044
2045
2047
2048
2048
2048
2045
2043
2043
2042
2044
2044
2044
2043
2043
2042
2042
2042
2042
2042
2042
2041
2041
2040
2039
2039
2039
2041
2041
2040
2038
2036
2036
2037
2040
2042
2042
2041
2038
2035
2033
2034
2035
2036
2039
2040
2041
2041
2040
2039
2038
2038
2037
2036
2036
2035
2035
2034
2034
2034
2034
2032
2032
2030
2030
2030
2031
2034
2038
2044
2051
2062
2077
2093
2106
2112
2107
2092
2072
2053
2041
2035
2033
2034
2034
2033
2033
2033
2033
2033
2033
2034
2033
2033
2033
2034
2036
2038
2039
2039
2037
2036
2035
2036
2037
2039
2040
2040
2040
2040
2041
2041
2042
2043
2044
2045
2045
2046
2046
2047
2047
2048
2048
2050
2051
2052
2053
2055
2057
2059
2059
2059
2058
2057
2056
2057
2056
2055
2053
2051
2049
2047
2046
2045
2044
2042
2041
2040
2039
2038
2037
2037
2037
2037
2037
2037
2038
2041
2044
2046
2046
2045
2043
2042
2042
2043
2044
2044
2043
2043
2044
2044
2044
2045
2046
2046
2047
2048
2048
2047
2046
2045
2045
2047
2048
2048
2048
2046
2046
2046
2048
2050
2051
2051
2048
2047
2046
2047
2048
2047
2048
2048
2048
2048
2049
2049
2050
2050
2050
2050
2051
2052
2052
2053
2053
2054
2054
2051
2048
2045
2044
2045
2048
2049
2049
2048
2047
2047
2046
2046
2043
2042
2041
2044
2048
2055
2063
2073
2088
2104
2117
2124
2118
2102
2081
2062
2051
2046
2045
2045
2045
2044
2045
2048
2048
2048
2047
2045
2044
2043
2044
2044
2045
2045
2045
2045
2045
2046
2047
2047
2046
2045
2044
2046
2049
2052
2054
2054
2051
2051
2049
2048
2048
2049
2054
2060
2065
2066
2063
2059
2056
2057
2058
2060
2063
2063
2064
2065
2065
2064
2062
2061
2060
2060
2058
2056
2055
2053
2053
2050
2048
2045
2043
2042
2044
2046
2048
2047
2045
2042
2040
2040
2041
2041
2042
2043
2043
2043
2043
2042
2041
2041
2041
2042
2043
2043
2043
2043
2043
2043
2043
2043
2042
2041
2040
2042
2043
2045
2045
2044
2042
2040
2039
2039
2040
2041
2041
2041
2040
2040
2040
2040
2040
2040
2040
2040
2040
2040
2040
2041
2041
2042
2041
2040
2038
2037
2038
2040
2042
2044
2043
2040
2039
2038
2038
2040
2041
2042
2043
2043
2042
2041
2040
2039
2038
2038
2038
2038
2038
2038
2038
2037
2037
2037
2036
2034
2033
2035
2039
2046
2054
2063
2075
2090
2103
2113
2113
2103
2084
2063
2048
2040
2037
2037
2038
2038
2037
2037
2036
2036
2035
2034
2034
2034
2035
2035
2035
2033
2032
2033
2034
2036
2037
2037
2036
2035
2035
2036
2037
2036
2037
2037
2038
2039
2040
2041
2042
2042
2043
2044
2045
2046
2047
2048
2049
2052
2054
2054
2053
2051
2052
2055
2060
2064
2064
2061
2057
2054
2051
2052
2051
2050
2048
2047
2045
2044
2043
2041
2040
2038
2037
2038
2037
2038
2038
2037
2039
2038
2038
2037
2037
2037
2039
2041
2043
2044
2042
2041
2040
2039
2041
2041
2042
2042
2042
2042
2042
2042
2042
2042
2041
2041
2041
2041
2042
2041
2041
2042
2042
2041
2039
2038
2037
2039
2042
2044
2044
2042
2040
2037
2037
2038
2038
2038
2038
2038
2038
2039
2039
2038
2037
2036
2036
2036
2037
2036
2036
2035
2036
2035
2035
2034
2035
2036
2037
2040
2042
2044
2044
2042
2041
2040
2039
2038
2039
2039
2039
2039
2039
2039
2040
2040
2039
2038
2037
2036
2037
2040
2045
2051
2059
2071
2086
2100
2111
2113
2105
2090
2071
2055
2045
2039
2038
2037
2037
2038
2037
2037
2037
2037
2037
2037
2037
2037
2038
2038
2038
2039
2039
2039
2039
2040
2040
2041
2041
2041
2041
2042
2044
2045
2046
2045
2044
2043
2042
2045
2046
2047
2048
2048
2048
2048
2049
2050
2051
2053
2054
2055
2056
2057
2057
2057
2058
2058
2057
2055
2054
2054
2055
2056
2054
2051
2048
2045
2044
2044
2045
2044
2043
2042
2042
2041
2041
2041
2041
2041
2042
2042
2042
2041
2040
2040
2040
2041
2042
2040
2040
2038
2038
2039
2041
2044
2044
2043
2041
2039
2037
2038
2038
2037
2037
2037
2037
2037
2038
2038
2038
2038
2037
2037
2037
2038
2037
2036
2036
2036
2036
2038
2039
2038
2039
2041
2043
2045
2045
2043
2040
2037
2037
2038
2038
2040
2039
2038
2038
2038
2039
2040
2041
2041
2042
2043
2042
2042
2042
2041
2042
2041
2039
2037
2035
2035
2038
2042
2046
2047
2044
2040
2036
2034
2036
2040
2045
2052
2061
2073
2089
2104
2115
2116
2105
2087
2066
2051
2043
2040
2040
2041
2041
2039
2036
2034
2033
2034
2037
2041
2042
2041
2038
2034
2033
2035
2037
2038
2037
2037
2037
2038
2040
2041
2041
2041
2040
2040
2041
2041
2042
2042
2042
2042
2042
2042
2041
2041
2044
2048
2052
2054
2055
2052
2049
2048
2048
2050
2052
2054
2054
2054
2053
2052
2051
2050
2049
2049
2048
2047
2046
2043
2043
2040
2042
2042
2040
2038
2036
2035
2038
2043
2047
2047
2044
2040
2037
2035
2038
2039
2040
2039
2039
2039
2039
2040
2040
2041
2040
2040
2040
2040
2040
2039
2038
2039
2039
2039
2038
2036
2037
2038
2041
2043
2043
2042
2039
2038
2036
2038
2038
2038
2037
2036
2036
2037
2037
2037
2037
2038
2037
2038
2038
2039
2041
2041
2043
2043
2043
2042
2039
2038
2039
2041
2041
2040
2038
2038
2040
2042
2045
2043
2039
2035
2032
2034
2036
2042
2047
2054
2064
2077
2092
2106
2114
2112
2101
2082
2064
2049
2042
2038
2038
2038
2039
2040
2041
2041
2039
2037
2035
2035
2035
2035
2036
2035
2036
2036
2037
2037
2037
2037
2037
2037
2038
2038
2039
2040
2040
2041
2041
2041
2040
2038
2040
2043
2047
2049
2050
2049
2047
2046
2047
2048
2049
2051
2051
2051
2053
2054
2055
2055
2054
2053
2053
2053
2053
2053
2051
2048
2048
2046
2045
2042
2040
2039
2040
2043
2045
2046
2044
2042
2039
2037
2039
2040
2041
2041
2041
2041
2042
2042
2042
2043
2043
2042
2042
2042
2042
2043
2042
2044
2044
2042
2042
2039
2039
2040
2043
2047
2048
2048
2045
2040
2036
2037
2037
2038
2040
2039
2039
2038
2038
2039
2040
2041
2041
2040
2039
2039
2039
2040
2041
2040
2039
2037
2036
2036
2038
2042
2045
2047
2045
2042
2041
2040
2043
2044
2046
2045
2044
2042
2041
2042
2042
2042
2042
2040
2039
2039
2039
2040
2040
2038
2038
2038
2038
2041
2045
2052
2065
2082
2101
2115
2120
2115
2100
2080
2063
2050
2042
2039
2039
2038
2037
2036
2035
2035
2034
2035
2035
2035
2035
2035
2035
2037
2036
2037
2035
2035
2036
2038
2041
2042
2042
2040
2039
2038
2038
2041
2042
2043
2043
2042
2042
2042
2042
2043
2044
2045
2046
2047
2048
2048
2048
2049
2050
2052
2054
2053
2052
2051
2052
2055
2058
2059
2057
2052
2048
2046
2045
2045
2044
2042
2041
2039
2038
2037
2037
2038
2038
2037
2037
2036
2036
2036
2036
2037
2038
2037
2038
2037
2037
2038
2039
2042
2043
2043
2042
2041
2040
2041
2042
2041
2042
2041
2040
2040
2040
2040
2039
2039
2038
2037
2037
2037
2037
2037
2038
2038
2039
2038
2036
2035
2034
2036
2038
2040
2040
2039
2037
2036
2036
2037
2037
2037
2036
2037
2038
2039
2041
2041
2042
2042
2041
2041
2040
2039
2039
2038
2039
2038
2039
2037
2037
2037
2039
2041
2042
2042
2039
2037
2037
2039
2047
2054
2066
2079
2095
2108
2114
2111
2097
2077
2059
2047
2041
2040
2040
2040
2039
2039
2038
2039
2038
2035
2033
2032
2036
2042
2046
2047
2044
2039
2035
2035
2036
2037
2041
2040
2040
2040
2040
2041
2041
2043
2044
2044
2044
2044
2045
2045
2047
2048
2048
2048
2048
2048
2048
2052
2055
2058
2058
2057
2056
2055
2055
2057
2057
2058
2057
2056
2055
2053
2051
2049
2048
2047
2046
2044
2044
2042
2042
2041
2041
2041
2040
2039
2039
2039
2040
2042
2044
2044
2043
2042
2041
2040
2042
2043
2043
2042
2042
2042
2042
2042
2042
2042
2042
2043
2043
2043
2043
2042
2042
2043
2042
2042
2041
2041
2040
2041
2042
2043
2043
2041
2040
2039
2038
2040
2040
2040
2040
2039
2039
2039
2039
2039
2039
2039
2040
2040
2040
2040
2039
2038
2038
2039
2039
2038
2037
2037
2036
2038
2040
2042
2043
2043
2042
2042
2042
2043
2043
2043
2041
2040
2039
2039
2039
2040
2040
2040
2040
2040
2039
2040
2039
2038
2039
2038
2040
2042
2047
2055
2066
2082
2098
2112
2117
2113
2098
2078
2061
2047
2040
2040
2041
2041
2040
2039
2038
2037
2037
2037
2037
2037
2037
2037
2037
2037
2038
2036
2035
2034
2035
2038
2041
2043
2042
2041
2039
2039
2039
2040
2040
2041
2041
2042
2044
2044
2046
2046
2047
2047
2048
2049
2050
2052
2053
2053
2056
2055
2055
2054
2053
2054
2057
2059
2060
2060
2057
2054
2051
2048
2048
2047
2046
2045
2044
2043
2043
2043
2042
2042
2042
2041
2041
2041
2041
2041
2041
2042
2043
2043
2041
2038
2036
2037
2041
2046
2049
2048
2046
2041
2038
2037
2039
2040
2041
2041
2041
2041
2041
2040
2039
2038
2039
2041
2044
2047
2047
2045
2042
2041
2038
2039
2037
2037
2037
2039
2042
2044
2044
2041
2039
2038
2037
2039
2039
2040
2040
2039
2039
2039
2038
2038
2038
2039
2039
2039
2040
2040
2040
2039
2039
2040
2039
2038
2038
2039
2041
2044
2047
2047
2046
2043
2042
2041
2041
2042
2041
2041
2041
2041
2041
2041
2041
2041
2041
2041
2041
2039
2039
2039
2040
2045
2049
2058
2068
2082
2098
2112
2118
2113
2096
2075
2056
2045
2039
2040
2041
2041
2039
2038
2037
2037
2036
2036
2036
2036
2036
2036
2036
2037
2036
2036
2036
2037
2037
2037
2036
2037
2038
2040
2042
2043
2043
2041
2040
2040
2041
2043
2044
2044
2044
2045
2045
2046
2048
2049
2051
2053
2053
2053
2053
2054
2054
2055
2057
2057
2056
2054
2054
2053
2054
2054
2052
2050
2048
2046
2045
2044
2044
2042
2041
2040
2039
2040
2040
2040
2040
2040
2040
2040
2040
2040
2040
2040
2040
2041
2041
2041
2039
2037
2037
2038
2040
2043
2043
2043
2042
2040
2039
2040
2039
2039
2038
2038
2039
2039
2040
2039
2039
2037
2037
2037
2037
2038
2038
2037
2038
2037
2037
2036
2034
2034
2035
2037
2039
2040
2039
2037
2036
2034
2036
2036
2037
2036
2036
2037
2037
2037
2037
2037
2037
2037
2038
2038
2038
2038
2037
2038
2038
2039
2039
2037
2036
2037
2040
2046
2050
2050
2047
2042
2037
2036
2037
2038
2039
2039
2038
2038
2039
2039
2039
2038
2038
2037
2037
2039
2044
2049
2058
2070
2084
2098
2109
2113
2107
2094
2077
2060
2048
2041
2038
2038
2038
2037
2036
2036
2035
2035
2035
2035
2034
2034
2034
2035
2036
2036
2037
2036
2036
2036
2036
2037
2036
2036
2036
2038
2041
2043
2045
2044
2041
2039
2038
2039
2040
2042
2043
2043
2043
2044
2045
2045
2046
2048
2048
2050
2051
2052
2053
2053
2052
2053
2052
2052
2050
2049
2048
2048
2047
2047
2046
2044
2042
2039
2037
2038
2037
2038
2037
2037
2036
2036
2036
2036
2036
2036
2036
2036
2036
2036
2035
2035
2035
2036
2037
2037
2036
2035
2035
2037
2039
2041
2041
2039
2037
2036
2036
2037
2038
2037
2036
2036
2035
2035
2035
2035
2036
2036
2036
2036
2035
2035
2035
2035
2037
2036
2035
2033
2032
2032
2034
2036
2037
2037
2035
2035
2034
2034
2036
2035
2034
2034
2035
2036
2038
2039
2040
2040
2040
2039
2038
2038
2036
2036
2035
2036
2036
2036
2034
2033
2033
2035
2037
2039
2038
2036
2034
2034
2037
2043
2051
2062
2075
2090
2104
2111
2109
2097
2078
2059
2047
2039
2037
2037
2037
2036
2036
2035
2035
2034
2033
2032
2034
2037
2040
2041
2039
2036
2034
2032
2034
2035
2035
2035
2036
2036
2037
2037
2038
2039
2039
2039
2039
2040
2041
2041
2042
2043
2044
2044
2043
2043
2043
2045
2048
2050
2052
2052
2051
2049
2049
2050
2051
2052
2052
2053
2052
2051
2050
2048
2047
2046
2045
2044
2043
2041
2040
2038
2037
2038
2037
2036
2034
2033
2034
2037
2041
2042
2042
2039
2037
2036
2035
2038
2038
2039
2039
2039
2040
2039
2040
2040
2040
2040
2040
2041
2041
2040
2040
2040
2039
2040
2039
2038
2037
2038
2039
2041
2042
2041
2039
2037
2036
2035
2036
2037
2037
2037
2037
2037
2037
2036
2036
2036
2036
2037
2037
2037
2036
2036
2035
2038
2037
2037
2035
2033
2034
2036
2040
2042
2042
2041
2039
2039
2038
2041
2041
2040
2039
2037
2037
2036
2036
2036
2036
2037
2037
2037
2038
2037
2036
2034
2034
2035
2037
2040
2044
2050
2061
2077
2096
2111
2118
2111
2094
2073
2055
2043
2038
2037
2037
2036
2035
2035
2035
2036
2036
2036
2035
2035
2034
2033
2033
2034
2035
2035
2035
2034
2034
2035
2035
2036
2038
2040
2044
2047
2049
2049
2048
2046
2046
2046
2048
2048
2048
2048
2048
2048
2048
2048
2048
2048
2048
2049
2051
2052
2053
2052
2051
2049
2049
2051
2053
2055
2055
2052
2049
2048
2045
2044
2042
2040
2039
2038
2038
2038
2038
2037
2037
2036
2036
2036
2035
2035
2035
2034
2036
2035
2036
2034
2033
2032
2034
2036
2039
2041
2040
2039
2038
2036
2038
2038
2039
2039
2039
2039
2039
2039
2040
2040
2040
2039
2039
2039
2039
2039
2038
2039
2038
2039
2038
2035
2032
2032
2035
2041
2046
2047
2044
2039
2035
2033
2035
2037
2039
2038
2039
2038
2038
2037
2037
2037
2037
2038
2038
2038
2038
2036
2037
2035
2036
2034
2033
2033
2035
2038
2040
2041
2040
2038
2036
2035
2036
2037
2036
2037
2036
2037
2037
2037
2038
2038
2038
2038
2038
2038
2037
2037
2038
2041
2047
2053
2061
2074
2089
2104
2115
2115
2104
2084
2063
2047
2039
2037
2037
2038
2037
2036
2035
2035
2034
2033
2033
2033
2034
2034
2035
2035
2035
2035
2035
2036
2036
2037
2037
2037
2038
2039
2040
2042
2043
2042
2041
2041
2040
2042
2043
2043
2044
2044
2044
2044
2045
2046
2047
2048
2048
2050
2051
2052
2053
2053
2056
2056
2056
2055
2054
2054
2054
2055
2054
2052
2049
2047
2045
2044
2044
2044
2043
2042
2041
2040
2040
2039
2040
2040
2040
2041
2040
2040
2039
2039
2039
2040
2041
2040
2040
2038
2037
2037
2039
2041
2043
2044
2043
2042
2041
2041
2041
2040
2041
2040
2041
2040
2040
2039
2039
2038
2038
2037
2037
2038
2037
2036
2036
2036
2036
2036
2034
2033
2032
2034
2037
2039
2039
2037
2036
2035
2034
2035
2035
2036
2034
2035
2036
2036
2037
2037
2037
2037
2036
2036
2035
2036
2036
2036
2038
2037
2037
2035
2034
2034
2035
2038
2040
2042
2042
2040
2039
2037
2037
2037
2037
2037
2036
2036
2036
2036
2037
2037
2038
2038
2038
2037
2035
2034
2034
2038
2043
2050
2059
2068
2080
2094
2108
2116
2114
2099
2077
2055
2041
2035
2036
2037
2039
2036
2035
2034
2035
2034
2034
2033
2032
2033
2034
2036
2036
2036
2035
2034
2034
2033
2033
2032
2033
2036
2039
2040
2040
2038
2037
2037
2038
2039
2039
2040
2041
2042
2043
2043
2044
2045
2045
2046
2047
2048
2050
2050
2051
2052
2052
2053
2052
2051
2050
2051
2053
2055
2055
2052
2049
2046
2043
2042
2041
2041
2040
2040
2039
2039
2038
2037
2037
2037
2037
2037
2037
2037
2037
2037
2036
2037
2036
2037
2037
2036
2036
2036
2037
2038
2039
2039
2037
2036
2035
2037
2037
2038
2038
2038
2038
2037
2037
2037
2037
2037
2037
2037
2037
2036
2035
2034
2034
2034
2035
2034
2034
2033
2033
2034
2036
2037
2038
2037
2036
2035
2036
2036
2038
2038
2038
2038
2038
2039
2040
2041
2043
2043
2042
2041
2040
2040
2039
2040
2042
2041
2040
2038
2038
2038
2040
2043
2043
2042
2039
2037
2036
2036
2037
2035
2034
2034
2035
2036
2037
2037
2037
2035
2034
2033
2034
2037
2041
2048
2055
2069
2086
2102
2114
2116
2106
2089
2069
2053
2043
2038
2036
2036
2034
2034
2033
2033
2032
2032
2033
2034
2035
2035
2034
2034
2033
2034
2033
2034
2035
2035
2037
2036
2037
2036
2036
2037
2039
2041
2043
2045
2044
2043
2042
2040
2042
2043
2044
2045
2046
2047
2048
2049
2050
2051
2052
2053
2053
2053
2053
2053
2053
2053
2054
2053
2051
2047
2042
2041
2042
2046
2048
2046
2041
2034
2030
2028
2029
2030
2032
2033
2034
2035
2038
2038
2038
2038
2038
2039
2040
2041
2042
2042
2040
2039
2038
2037
2038
2038
2038
2040
2041
2042
2042
2040
2038
2037
2037
2037
2038
2038
2038
2038
2038
2037
2035
2033
2033
2035
2039
2042
2043
2041
2038
2035
2033
2035
2036
2036
2035
2036
2037
2039
2040
2040
2039
2038
2037
2037
2037
2039
2039
2039
2039
2039
2039
2038
2038
2038
2038
2038
2038
2038
2039
2039
2039
2040
2040
2041
2041
2041
2041
2043
2043
2044
2043
2041
2039
2038
2036
2038
2038
2039
2038
2038
2038
2038
2038
2037
2036
2036
2037
2039
2044
2049
2056
2066
2082
2097
2110
2114
2107
2091
2071
2054
2044
2038
2036
2035
2034
2033
2034
2033
2033
2033
2032
2031
2031
2031
2032
2032
2034
2034
2034
2034
2034
2034
2034
2035
2036
2036
2035
2034
2034
2035
2037
2040
2042
2042
2041
2040
2040
2040
2041
2042
2043
2044
2046
2048
2048
2050
2051
2052
2053
2054
2055
2056
2056
2056
2056
2057
2056
2053
2050
2048
2045
2045
2047
2048
2047
2044
2042
2040
2038
2038
2038
2038
2038
2039
2039
2039
2039
2038
2039
2038
2038
2038
2038
2038
2038
2037
2039
2038
2038
2036
2035
2035
2037
2040
2042
2042
2041
2039
2037
2036
2037
2037
2037
2037
2037
2037
2037
2037
2037
2037
2037
2037
2036
2036
2036
2036
2036
2037
2038
2038
2037
2033
2030
2029
2032
2038
2043
2043
2040
2035
2030
2029
2030
2032
2034
2034
2033
2033
2033
2032
2031
2031
2031
2031
2032
2034
2036
2034
2035
2034
2032
2030
2027
2026
2027
2031
2034
2036
2036
2034
2034
2033
2034
2034
2033
2032
2032
2034
2038
2045
2053
2064
2078
2093
2106
2113
2109
2096
2077
2058
2046
2039
2036
2036
2035
2035
2035
2037
2038
2038
2036
2033
2032
2031
2032
2034
2033
2033
2033
2033
2033
2033
2034
2034
2035
2035
2036
2036
2036
2037
2036
2038
2038
2039
2039
2039
2040
2042
2045
2046
2048
2047
2046
2045
2044
2047
2048
2052
2054
2055
2054
2053
2052
2052
2054
2054
2053
2051
2049
2047
2045
2043
2042
2041
2040
2038
2037
2037
2039
2041
2043
2045
2043
2041
2039
2038
2039
2039
2040
2038
2037
2036
2036
2036
2036
2037
2037
2037
2038
2038
2037
2037
2037
2037
2038
2039
2039
2036
2035
2034
2036
2039
2042
2043
2041
2039
2037
2036
2036
2036
2036
2037
2037
2038
2038
2038
2037
2037
2036
2036
2035
2035
2035
2035
2035
2036
2037
2035
2034
2033
2033
2035
2038
2040
2040
2039
2037
2036
2036
2037
2040
2042
2042
2043
2044
2044
2043
2042
2042
2042
2041
2042
2042
2042
2042
2040
2042
2042
2041
2038
2035
2034
2036
2043
2051
2060
2068
2079
2092
2104
2114
2112
2099
2079
2059
2046
2040
2038
2039
2039
2037
2036
2035
2034
2035
2036
2036
2037
2037
2036
2035
2032
2030
2031
2035
2040
2044
2044
2041
2037
2034
2035
2036
2038
2041
2041
2042
2042
2043
2042
2043
2044
2044
2044
2044
2045
2047
2048
2051
2053
2053
2052
2052
2052
2055
2059
2062
2064
2063
2059
2056
2054
2054
2055
2053
2052
2049
2048
2046
2045
2045
2044
2043
2043
2042
2042
2042
2042
2041
2041
2042
2043
2042
2039
2037
2037
2041
2047
2051
2051
2048
2044
2040
2039
2041
2044
2045
2045
2045
2045
2045
2045
2045
2045
2046
2046
2046
2047
2047
2047
2046
2047
2046
2046
2045
2044
2044
2046
2049
2051
2050
2048
2047
2046
2047
2049
2050
2051
2050
