2009
2010
2012
2014
2016
2019
2022
2025
2029
2033
2036
2039
2042
2044
2046
2048
2048
2049
2049
2048
2044
2037
2028
2017
2005
1995
1986
1978
1972
1968
1964
1961
1958
1955
1953
1952
1951
1951
1951
1951
1951
1951
1950
1950
1950
1950
1951
1952
1953
1954
1955
1955
1955
1955
1955
1955
1956
1957
1958
1959
1960
1960
1960
1960
1959
1959
1959
1960
1961
1962
1963
1963
1962
1961
1961
1961
1962
1962
1962
1963
1963
1963
1963
1963
1962
1962
1962
1963
1964
1965
1965
1965
1965
1965
1964
1964
1965
1965
1966
1967
1967
1967
1967
1967
1966
1966
1967
1967
1968
1969
1969
1970
1970
1970
1969
1969
1969
1970
1970
1971
1971
1971
1971
1970
1968
1967
1967
1967
1968
1970
1973
1976
1979
1981
1982
1982
1980
1979
1979
1978
1978
1977
1975
1973
1971
1970
1970
1971
1971
1971
1972
1972
1972
1972
1972
1972
1970
1966
1960
1959
1972
2005
2051
2094
2110
2085
2027
1956
1902
1880
1892
1923
1955
1976
1986
1988
1986
1984
1983
1983
1984
1985
1986
1986
1986
1987
1988
1989
1990
1991
1992
1993
1993
1994
1994
1995
1996
1997
1999
2000
2002
2003
2004
2005
2005
2007
2008
2010
2013
2016
2018
2020
2022
2024
2027
2030
2033
2037
2041
2044
2047
2049
2050
2052
2053
2054
2055
2054
2052
2048
2041
2031
2021
2010
2000
1992
1985
1980
1976
1973
1970
1967
1965
1963
1962
1961
1961
1962
1962
1962
1962
1962
1962
1962
1962
1963
1964
1964
1965
1965
1965
1965
1965
1966
1966
1966
1966
1966
1967
1967
1968
1968
1968
1967
1967
1966
1966
1967
1968
1968
1969
1968
1967
1967
1966
1966
1967
1967
1967
1967
1967
1967
1967
1967
1967
1967
1967
1967
1968
1968
1968
1968
1968
1968
1968
1968
1968
1968
1969
1969
1969
1969
1969
1969
1969
1969
1969
1970
1971
1971
1972
1972
1971
1969
1968
1967
1968
1969
1970
1971
1971
1972
1971
1971
1970
1969
1969
1969
1971
1973
1976
1979
1981
1983
1983
1982
1980
1979
1978
1978
1977
1975
1973
1970
1968
1967
1968
1969
1970
1970
1970
1970
1971
1971
1971
1971
1968
1962
1955
1959
1984
2031
2085
2122
2115
2059
1975
1897
1854
1855
1887
1928
1959
1976
1981
1981
1981
1980
1980
1981
1982
1983
1984
1984
1985
1986
1988
1989
1991
1993
1993
1994
1995
1995
1995
1996
1996
1996
1998
1999
2002
2004
2005
2006
2007
2009
2011
2014
2017
2020
2023
2025
2027
2030
2033
2037
2042
2048
2052
2056
2059
2062
2064
2067
2068
2069
2068
2065
2060
2051
2042
2030
2018
2006
1995
1986
1979
1973
1968
1965
1963
1960
1959
1958
1957
1956
1956
1955
1955
1955
1955
1955
1955
1955
1955
1956
1956
1957
1958
1958
1959
1959
1960
1960
1961
1961
1961
1962
1962
1963
1964
1965
1965
1964
1963
1963
1963
1963
1964
1965
1965
1965
1964
1963
1963
1962
1962
1963
1964
1964
1964
1964
1963
1963
1962
1962
1963
1963
1964
1965
1965
1965
1964
1964
1964
1964
1964
1965
1965
1965
1966
1966
1966
1966
1965
1965
1965
1965
1965
1964
1963
1963
1964
1965
1966
1969
1972
1975
1977
1978
1977
1976
1974
1973
1972
1971
1969
1968
1966
1965
1965
1965
1965
1965
1964
1963
1963
1964
1965
1966
1965
1962
1953
1947
1954
1984
2035
2088
2116
2099
2038
1955
1885
1852
1861
1895
1933
1960
1975
1980
1980
1978
1977
1976
1975
1976
1977
1978
1980
1981
1982
1982
1982
1983
1983
1983
1984
1985
1986
1986
1987
1987
1987
1988
1988
1990
1991
1993
1995
1997
1998
2000
2001
2002
2004
2007
2010
2014
2018
2022
2025
2029
2032
2036
2039
2042
2044
2047
2048
2049
2049
2048
2044
2036
2026
2014
2003
1992
1983
1976
1969
1964
1959
1955
1952
1950
1949
1949
1948
1948
1948
1948
1948
1947
1946
1946
1946
1947
1948
1949
1950
1950
1950
1950
1950
1950
1951
1952
1953
1954
1955
1955
1955
1955
1955
1955
1956
1957
1958
1958
1958
1958
1958
1957
1957
1957
1957
1958
1959
1959
1959
1959
1959
1958
1957
1957
1957
1957
1958
1959
1959
1959
1959
1958
1958
1958
1958
1959
1959
1960
1960
1960
1960
1959
1959
1959
1960
1961
1962
1962
1962
1961
1961
1960
1959
1959
1960
1960
1961
1962
1962
1962
1961
1961
1961
1961
1961
1961
1962
1962
1962
1963
1963
1962
1962
1962
1963
1963
1963
1963
1962
1961
1960
1960
1961
1963
1966
1969
1972
1975
1976
1976
1974
1972
1971
1970
1969
1968
1967
1966
1965
1964
1964
1964
1964
1963
1963
1963
1964
1965
1966
1966
1964
1960
1953
1949
1959
1989
2035
2080
2104
2089
2036
1965
1905
1876
1882
1910
1943
1966
1978
1981
1978
1975
1974
1973
1974
1975
1976
1977
1978
1979
1979
1980
1980
1981
1982
1983
1984
1985
1985
1986
1986
1986
1987
1988
1990
1992
1994
1996
1997
1998
1999
1999
2000
2002
2004
2007
2010
2013
2016
2019
2022
2025
2028
2031
2034
2037
2040
2043
2046
2047
2048
2047
2045
2040
2034
2026
2017
2007
1998
1990
1982
1975
1969
1964
1961
1959
1957
1957
1956
1955
1954
1953
1952
1952
1953
1954
1955
1955
1956
1956
1955
1954
1954
1954
1954
1955
1957
1958
1958
1958
1958
1958
1958
1958
1958
1959
1959
1960
1960
1960
1960
1959
1959
1959
1959
1960
1961
1962
1962
1961
1961
1960
1960
1960
1961
1961
1962
1962
1962
1962
1962
1961
1961
1961
1961
1961
1962
1962
1963
1963
1963
1963
1962
1962
1962
1962
1963
1964
1964
1964
1964
1964
1963
1963
1963
1964
1964
1965
1966
1966
1966
1965
1965
1965
1965
1965
1966
1967
1967
1967
1966
1965
1964
1964
1964
1965
1966
1966
1967
1967
1966
1966
1965
1965
1965
1966
1966
1965
1965
1964
1963
1963
1964
1965
1966
1969
1972
1975
1977
1978
1977
1976
1973
1972
1971
1970
1969
1968
1967
1967
1966
1967
1966
1966
1966
1966
1966
1966
1967
1968
1966
1962
1954
1950
1961
1996
2048
2099
2122
2097
2030
1947
1881
1854
1867
1902
1938
1963
1977
1981
1981
1980
1978
1977
1977
1978
1980
1982
1983
1983
1983
1984
1984
1985
1985
1987
1988
1989
1990
1990
1990
1991
1991
1992
1994
1996
1998
2000
2001
2002
2003
2005
2006
2008
2010
2013
2017
2020
2023
2026
2029
2032
2035
2039
2042
2046
2048
2051
2054
2056
2056
2055
2052
2048
2041
2033
2022
2012
2001
1991
1982
1974
1968
1963
1960
1957
1956
1955
1954
1952
1950
1949
1948
1947
1948
1948
1949
1950
1951
1951
1951
1951
1951
1951
1952
1953
1954
1955
1955
1956
1956
1956
1955
1956
1956
1957
1958
1959
1960
1960
1960
1959
1958
1957
1957
1957
1958
1959
1959
1959
1959
1958
1958
1957
1957
1958
1958
1959
1959
1959
1959
1958
1958
1958
1958
1958
1959
1959
1959
1958
1958
1957
1957
1957
1957
1957
1958
1958
1959
1958
1958
1957
1957
1957
1957
1959
1960
1961
1962
1962
1961
1961
1960
1960
1961
1961
1962
1963
1962
1962
1961
1961
1961
1961
1961
1961
1962
1962
1962
1962
1961
1960
1958
1958
1958
1960
1962
1965
1968
1971
1973
1973
1972
1971
1969
1969
1968
1968
1966
1964
1962
1961
1960
1960
1961
1962
1962
1962
1962
1962
1962
1962
1961
1959
1953
1948
1951
1972
2011
2059
2094
2095
2055
1989
1921
1878
1871
1893
1927
1956
1972
1978
1976
1973
1970
1970
1970
1972
1974
1975
1975
1976
1976
1976
1977
1978
1979
1980
1981
1981
1982
1982
1982
1982
1983
1985
1987
1989
1991
1992
1993
1993
1994
1996
1998
2000
2003
2005
2007
2009
2011
2013
2016
2020
2024
2027
2031
2034
2037
2040
2041
2042
2043
2043
2043
2040
2036
2029
2020
2010
2000
1989
1981
1974
1968
1965
1962
1959
1957
1954
1952
1950
1949
1949
1950
1951
1952
1953
1953
1953
1953
1953
1952
1952
1951
1952
1953
1954
1955
1955
1955
1954
1954
1954
1955
1955
1956
1956
1957
1957
1957
1957
1957
1957
1957
1958
1958
1958
1958
1958
1957
1957
1956
1957
1957
1958
1959
1959
1959
1959
1959
1958
1958
1958
1958
1959
1960
1961
1961
1961
1960
1960
1959
1959
1960
1960
1961
1962
1963
1963
1962
1962
1962
1961
1961
1962
1963
1964
1964
1964
1964
1963
1962
1962
1962
1963
1963
1964
1965
1965
1964
1964
1963
1962
1962
1963
1963
1964
1964
1964
1964
1963
1963
1963
1964
1964
1965
1965
1965
1964
1963
1962
1962
1962
1963
1965
1967
1970
1973
1975
1977
1978
1976
1975
1973
1971
1970
1969
1968
1966
1965
1964
1964
1964
1963
1964
1964
1965
1965
1966
1966
1966
1963
1957
1950
1951
1969
2010
2063
2108
2116
2077
2003
1923
1868
1854
1875
1912
1945
1967
1977
1979
1978
1977
1976
1976
1977
1978
1979
1980
1981
1981
1981
1981
1982
1983
1983
1985
1986
1986
1987
1988
1988
1989
1990
1991
1992
1994
1995
1996
1998
1999
2001
2002
2004
2006
2008
2011
2014
2017
2019
2022
2024
2027
2031
2035
2038
2042
2044
2046
2048
2048
2048
2048
2047
2043
2037
2029
2019
2008
1998
1988
1979
1973
1967
1963
1960
1957
1955
1953
1951
1950
1949
1948
1948
1948
1949
1950
1950
1950
1950
1950
1949
1949
1950
1951
1952
1953
1954
1955
1955
1954
1955
1955
1956
1957
1958
1958
1958
1958
1958
1958
1958
1958
1958
1958
1959
1959
1959
1959
1958
1957
1957
1957
1957
1957
1958
1958
1958
1958
1957
1955
1955
1954
1954
1955
1956
1956
1957
1957
1956
1955
1955
1955
1955
1956
1957
1957
1958
1958
1958
1957
1957
1957
1957
1958
1958
1959
1959
1959
1959
1959
1958
1958
1957
1958
1958
1959
1959
1959
1959
1959
1958
1958
1959
1959
1960
1960
1960
1960
1960
1960
1960
1960
1960
1959
1959
1958
1958
1959
1959
1960
1962
1965
1968
1971
1973
1973
1972
1971
1969
1967
1966
1965
1963
1962
1962
1962
1962
1962
1962
1961
1961
1961
1962
1963
1964
1964
1962
1957
1951
1952
1970
2008
2055
2092
2097
2061
1997
1929
1884
1874
1893
1926
1955
1973
1981
1980
1978
1975
1974
1973
1974
1975
1976
1977
1978
1980
1980
1981
1981
1981
1982
1982
1983
1984
1985
1986
1987
1988
1989
1989
1990
1991
1992
1994
1996
1998
1999
2001
2002
2004
2006
2008
2011
2014
2017
2020
2023
2026
2028
2031
2033
2035
2037
2039
2042
2043
2044
2044
2041
2037
2031
2023
2014
2006
1997
1989
1982
1976
1970
1966
1962
1959
1957
1956
1956
1956
1956
1956
1955
1954
1954
1954
1955
1955
1956
1957
1958
1958
1958
1958
1957
1958
1958
1959
1959
1960
1960
1960
1960
1960
1960
1960
1961
1961
1962
1962
1963
1963
1962
1962
1962
1962
1962
1962
1963
1963
1963
1963
1962
1961
1961
1961
1962
1963
1963
1964
1964
1965
1965
1965
1965
1965
1965
1965
1965
1965
1965
1965
1965
1965
1965
1966
1966
1967
1968
1968
1968
1968
1968
1968
1968
1968
1968
1969
1969
1970
1970
1970
1970
1969
1969
1969
1969
1970
1971
1971
1972
1972
1972
1972
1972
1972
1972
1972
1972
1972
1973
1973
1972
1971
1970
1970
1970
1970
1972
1973
1975
1977
1980
1983
1985
1985
1984
1983
1982
1981
1980
1979
1977
1975
1974
1973
1973
1973
1974
1974
1974
1974
1974
1974
1974
1973
1971
1966
1961
1965
1990
2034
2086
2121
2116
2065
1988
1913
1870
1868
1895
1933
1962
1980
1987
1989
1989
1988
1987
1987
1987
1988
1989
1989
1989
1990
1990
1991
1992
1994
1995
1995
1995
1995
1996
1997
1998
2000
2001
2003
2004
2005
2005
2006
2007
2008
2010
2012
2015
2017
2020
2022
2024
2027
2029
2032
2036
2039
2043
2047
2049
2051
2054
2055
2057
2058
2059
2059
2057
2052
2047
2038
2027
2016
2005
1995
1987
1981
1976
1972
1969
1966
1963
1962
1960
1959
1958
1958
1957
1958
1958
1958
1957
1957
1957
1958
1958
1959
1960
1961
1962
1962
1962
1961
1961
1962
1962
1963
1964
1965
1965
1965
1965
1965
1964
1964
1964
1964
1964
1965
1965
1965
1964
1963
1963
1962
1962
1963
1963
1964
1964
1964
1963
1962
1962
1962
1962
1962
1963
1964
1964
1964
1963
1963
1963
1963
1963
1963
1964
1965
1965
1965
1964
1964
1963
1963
1963
1964
1965
1965
1966
1966
1965
1965
1965
1965
1965
1965
1966
1966
1967
1967
1966
1966
1965
1965
1965
1965
1966
1967
1967
1967
1967
1966
1965
1964
1963
1962
1963
1963
1965
1966
1968
1971
1973
1975
1977
1977
1976
1975
1974
1972
1971
1969
1967
1965
1964
1964
1965
1966
1966
1966
1965
1964
1964
1964
1964
1963
1960
1955
1951
1961
1990
2036
2081
2104
2086
2031
1957
1896
1867
1875
1904
1938
1962
1975
1979
1978
1976
1975
1975
1975
1975
1975
1975
1976
1976
1978
1979
1981
1981
1982
1982
1982
1982
1983
1984
1985
1986
1988
1989
1990
1991
1991
1991
1992
1994
1996
1998
2000
2002
2005
2007
2008
2010
2013
2015
2018
2021
2024
2028
2030
2032
2034
2036
2038
2039
2041
2041
2041
2038
2033
2026
2017
2007
1998
1989
1981
1975
1970
1965
1962
1958
1956
1954
1952
1951
1951
1951
1951
1952
1952
1952
1952
1952
1952
1953
1954
1955
1956
1957
1957
1957
1957
1957
1957
1957
1958
1959
1960
1960
1960
1960
1960
1960
1960
1960
1961
1961
1962
1962
1962
1961
1960
1960
1959
1960
1960
1961
1962
1962
1962
1962
1962
1961
1961
1961
1962
1962
1963
1963
1963
1963
1963
1963
1963
1963
1964
1965
1965
1965
1965
1965
1965
1965
1965
1965
1966
1967
1968
1968
1968
1968
1967
1967
1967
1968
1968
1969
1969
1969
1969
1969
1969
1968
1968
1968
1968
1969
1970
1970
1970
1970
1970
1969
1970
1970
1971
1971
1972
1972
1971
1970
1969
1968
1967
1968
1969
1972
1974
1977
1979
1982
1983
1983
1982
1981
1979
1978
1978
1976
1974
1972
1970
1969
1969
1969
1970
1971
1972
1972
1972
1973
1973
1972
1968
1963
1958
1963
1988
2032
2081
2114
2108
2058
1985
1914
1874
1873
1899
1935
1963
1980
1986
1986
1985
1984
1984
1985
1986
1988
1989
1989
1990
1990
1990
1991
1992
1994
1995
1996
1996
1996
1996
1997
1997
1999
2000
2002
2003
2005
2007
2008
2009
2010
2011
2013
2015
2018
2021
2024
2026
2029
2031
2033
2036
2040
2044
2048
2051
2054
2057
2059
2060
2061
2061
2061
2059
2055
2049
2041
2031
2020
2008
1998
1990
1983
1978
1974
1971
1968
1966
1963
1962
1960
1960
1959
1959
1960
1960
1961
1961
1961
1961
1961
1961
1961
1962
1964
1965
1966
1966
1966
1965
1965
1965
1965
1966
1967
1967
1968
1968
1968
1968
1968
1968
1968
1968
1968
1968
1968
1968
1967
1967
1967
1967
1967
1967
1967
1968
1968
1968
1967
1967
1966
1966
1966
1967
1967
1968
1968
1968
1968
1968
1967
1967
1967
1968
1969
1970
1970
1970
1970
1969
1968
1968
1968
1969
1970
1970
1970
1970
1969
1969
1969
1969
1969
1970
1971
1971
1972
1972
1971
1970
1969
1968
1967
1968
1969
1970
1972
1974
1977
1980
1982
1983
1982
1981
1980
1979
1978
1977
1975
1972
1970
1969
1969
1970
1970
1971
1971
1971
1970
1970
1970
1970
1968
1964
1958
1956
1969
2003
2051
2096
2111
2083
2019
1942
1884
1862
1876
1910
1945
1968
1980
1983
1982
1980
1979
1980
1980
1981
1982
1981
1981
1982
1983
1984
1985
1986
1987
1987
1988
1988
1988
1988
1989
1990
1991
1993
1994
1995
1996
1997
1998
1999
2000
2002
2005
2007
2010
2012
2014
2015
2017
2020
2023
2027
2031
2034
2038
2040
2042
2044
2046
2047
2047
2047
2045
2042
2036
2027
2017
2006
1996
1987
1979
1973
1968
1964
1961
1958
1956
1954
1952
1951
1951
1951
1952
1952
1952
1952
1951
1951
1951
1951
1952
1952
1953
1955
1955
1956
1956
1956
1956
1956
1956
1957
1958
1959
1960
1960
1960
1960
1959
1959
1959
1960
1960
1961
1961
1961
1961
1960
1960
1960
1960
1961
1962
1962
1963
1962
1962
1961
1960
1960
1960
1961
1962
1962
1963
1963
1963
1962
1962
1962
1962
1962
1963
1963
1964
1964
1964
1964
1964
1964
1964
1965
1965
1965
1965
1965
1965
1965
1965
1965
1965
1966
1967
1967
1968
1967
1967
1966
1966
1966
1966
1966
1966
1966
1967
1967
1967
1967
1967
1967
1968
1968
1969
1970
1970
1970
1969
1969
1968
1967
1966
1967
1968
1969
1971
1973
1976
1978
1979
1980
1980
1980
1979
1979
1978
1977
1975
1973
1970
1969
1969
1970
1970
1971
1971
1970
1970
1970
1971
1971
1970
1967
1961
1958
1967
1996
2042
2088
2112
2097
2043
1970
1908
1878
1884
1912
1946
1970
1983
1987
1986
1984
1983
1983
1984
1985
1986
1987
1987
1988
1989
1990
1991
1992
1992
1993
1993
1994
1994
1995
1995
1997
1998
2000
2001
2002
2003
2004
2004
2006
2007
2009
2012
2014
2016
2018
2020
2022
2024
2027
2031
2034
2038
2042
2045
2048
2050
2053
2055
2057
2058
2059
2059
2057
2052
2046
2037
2026
2015
2005
1996
1989
1983
1978
1974
1970
1968
1965
1963
1962
1962
1962
1962
1963
1963
1962
1962
1962
1962
1963
1963
1964
1965
1966
1966
1966
1965
1965
1965
1965
1966
1967
1968
1969
1969
1969
1969
1968
1968
1968
1969
1970
1971
1971
1971
1971
1970
1969
1969
1969
1969
1969
1970
1970
1970
1970
1969
1969
1968
1968
1969
1969
1970
1971
1971
1972
1972
1971
1971
1971
1972
1972
1973
1974
1974
1973
1973
1972
1972
1972
1972
1973
1974
1974
1975
1974
1974
1973
1972
1972
1973
1973
1974
1975
1975
1975
1974
1973
1973
1972
1972
1973
1973
1974
1974
1974
1974
1973
1973
1973
1973
1973
1972
1972
1971
1971
1971
1972
1973
1976
1979
1982
1985
1986
1985
1984
1982
1980
1979
1977
1976
1974
1973
1972
1972
1972
1972
1972
1971
1971
1971
1972
1973
1973
1972
1968
1961
1956
1966
1996
2045
2094
2119
2100
2040
1960
1894
1863
1871
1903
1939
1966
1981
1986
1986
1984
1982
1981
1981
1982
1983
1984
1985
1986
1987
1987
1987
1988
1988
1988
1989
1990
1991
1992
1993
1993
1993
1994
1994
1995
1996
1997
1999
2001
2003
2005
2006
2007
2008
2010
2013
2016
2019
2022
2025
2028
2031
2034
2036
2039
2042
2045
2048
2049
2051
2051
2048
2045
2039
2031
2022
2012
2002
1993
1984
1977
1971
1965
1961
1957
1955
1953
1952
1952
1952
1951
1950
1950
1950
1950
1950
1950
1951
1951
1952
1952
1953
1953
1953
1952
1952
1953
1955
1956
1957
1957
1957
1956
1956
1956
1957
1958
1959
1960
1961
1961
1961
1960
1959
1959
1960
1960
1961
1962
1962
1961
1961
1960
1959
1959
1959
1960
1960
1961
1961
1960
1959
1959
1958
1958
1959
1959
1960
1960
1960
1961
1961
1961
1961
1961
1961
1962
1962
1963
1963
1963
1963
1963
1962
1962
1962
1963
1964
1965
1965
1965
1965
1965
1965
1965
1966
1966
1967
1967
1967
1967
1966
1966
1966
1966
1966
1967
1967
1967
1968
1968
1968
1967
1967
1966
1966
1967
1968
1969
1970
1970
1970
1969
1969
1968
1969
1969
1970
1971
1971
1971
1970
1970
1970
1970
1971
1971
1972
1973
1974
1973
1972
1971
1970
1969
1969
1970
1972
1974
1976
1979
1982
1984
1985
1985
1984
1982
1981
1980
1979
1978
1977
1975
1974
1973
1973
1974
1974
1975
1976
1976
1976
1976
1975
1974
1972
1967
1962
1964
1984
2024
2073
2112
2116
2078
2011
1940
1893
1883
1903
1936
1964
1982
1989
1990
1989
1988
1987
1988
1988
1989
1989
1989
1989
1989
1990
1991
1993
1994
1995
1996
1995
1995
1995
1996
1997
1999
2000
2001
2002
2003
2003
2004
2006
2008
2010
2012
2014
2016
2018
2020
2023
2025
2028
2031
2035
2038
2042
2046
2049
2052
2055
2057
2059
2061
2062
2063
2062
2060
2055
2048
2039
2029
2017
2007
1997
1990
1984
1979
1976
1972
1970
1967
1965
1964
1963
1962
1962
1963
1963
1963
1962
1961
1961
1961
1962
1963
1965
1965
1965
1966
1966
1967
1967
1967
1968
1968
1969
1970
1970
1970
1970
1969
1968
1968
1968
1969
1970
1970
1971
1971
1970
1970
1969
1969
1969
1970
1970
1971
1971
1970
1970
1970
1969
1969
1969
1970
1971
1971
1972
1972
1972
1971
1971
1971
1971
1972
1972
1973
1973
1973
1973
1972
1972
1971
1971
1972
1972
1973
1973
1973
1973
1972
1971
1971
1971
1972
1973
1973
1973
1973
1973
1972
1972
1972
1972
1973
1973
1974
1974
1973
1973
1972
1972
1971
1971
1972
1972
1973
1973
1973
1973
1972
1972
1972
1972
1972
1973
1973
1973
1973
1972
1971
1970
1970
1969
1969
1970
1972
1973
1976
1978
1980
1982
1982
1981
1980
1979
1978
1977
1976
1974
1972
1970
1969
1969
1969
1970
1971
1971
1970
1970
1970
1970
1970
1969
1965
1959
1955
1965
1994
2042
2089
2114
2096
2040
1963
1899
1868
1875
1904
1938
1963
1976
1980
1980
1978
1977
1977
1978
1978
1978
1978
1978
1979
1980
1981
1982
1983
1984
1984
1985
1985
1986
1986
1987
1988
1989
1991
1992
1992
1993
1993
1994
1995
1997
1999
2002
2004
2006
2008
2010
2012
2014
2017
2020
2024
2028
2032
2035
2038
2041
2043
2045
2046
2048
2048
2048
2047
2042
2034
2025
2014
2004
1994
1986
1979
1973
1968
1964
1960
1957
1955
1953
1952
1951
1951
1951
1951
1951
1951
1951
1951
1950
1950
1950
1951
1952
1953
1953
1954
1954
1954
1954
1953
1954
1955
1956
1958
1959
1959
1959
1959
1959
1959
1960
1960
1961
1961
1961
1961
1961
1961
1961
1961
1961
1962
1962
1962
1962
1962
1962
1962
1961
1961
1961
1961
1962
1962
1962
1963
1962
1962
1962
1962
1962
1963
1963
1964
1964
1964
1964
1964
1963
1964
1964
1965
1966
1967
1967
1967
1967
1966
1966
1966
1966
1967
1967
1968
1968
1968
1968
1968
1968
1968
1969
1969
1970
1970
1970
1970
1970
1970
1969
1969
1970
1970
1971
1972
1973
1973
1972
1972
1971
1971
1972
1973
1974
1974
1974
1974
1974
1973
1973
1973
1973
1974
1975
1975
1976
1975
1975
1975
1974
1974
1974
1975
1976
1977
1977
1978
1977
1977
1977
1976
1977
1977
1978
1979
1979
1979
1978
1977
1977
1976
1977
1977
1979
1981
1983
1987
1989
1991
1990
1989
1987
1986
1985
1985
1983
1982
1979
1978
1977
1977
1977
1978
1978
1979
1979
1980
1980
1981
1980
1978
1974
1968
1966
1980
2014
2065
2112
2130
2104
2040
1963
1902
1879
1892
1924
1957
1980
1991
1994
1993
1992
1991
1991
1992
1993
1993
1994
1994
1994
1995
1997
1998
1999
2000
2000
2000
2001
2002
2003
2004
2005
2006
2008
2009
2010
2010
2010
2011
2012
2014
2016
2019
2021
2024
2026
2029
2032
2035
2037
2040
2043
2047
2050
2054
2059
2063
2066
2068
2070
2072
2073
2074
2072
2069
2063
2054
2043
2032
2020
2010
2001
1994
1988
1983
1978
1974
1971
1968
1966
1964
1964
1963
1964
1965
1965
1965
1965
1964
1964
1964
1964
1965
1966
1967
1967
1968
1968
1968
1968
1968
1969
1970
1971
1972
1972
1972
1972
1971
1972
1972
1972
1973
1974
1974
1974
1973
1973
1972
1972
1972
1972
1972
1973
1973
1973
1972
1971
1971
1970
1970
1970
1971
1972
1972
1972
1972
1971
1970
1969
1969
1969
1970
1971
1972
1972
1972
1971
1971
1971
1971
1971
1972
1972
1973
1973
1973
1973
1972
1972
1971
1971
1971
1971
1972
1972
1973
1973
1972
1972
1971
1971
1972
1973
1974
1974
1974
1973
1972
1971
1971
1972
1972
1973
1973
1973
1972
1972
1971
1970
1970
1969
1969
1969
1970
1972
1974
1976
1979
1981
1982
1983
1982
1981
1980
1979
1978
1977
1975
1973
1971
1970
1970
1971
1972
1972
1972
1971
1971
1971
1972
1972
1971
1968
1962
1958
1966
1994
2042
2091
2119
2105
2049
1973
1906
1872
1876
1905
1940
1966
1981
1986
1985
1984
1983
1982
1982
1982
1982
1983
1983
1984
1985
1986
1988
1989
1989
1990
1990
1991
1991
1992
1993
1994
1994
1995
1996
1996
1996
1997
1998
2000
2002
2004
2006
2008
2010
2012
2014
2016
2018
2021
2025
2029
2032
2036
2039
2043
2045
2048
2049
2052
2054
2055
2055
2052
2048
2040
2031
2020
2010
2000
1991
1983
1977
1971
1967
1963
1960
1957
1956
1955
1954
1954
1955
1955
1954
1954
1953
1953
1953
1953
1953
1953
1954
1954
1955
1955
1955
1955
1955
1955
1955
1957
1958
1959
1960
1960
1960
1960
1960
1961
1962
1963
1963
1964
1964
1964
1964
1963
1963
1962
1963
1963
1964
1964
1964
1964
1963
1962
1962
1962
1963
1963
1964
1964
1964
1964
1964
1963
1963
1964
1964
1965
1966
1966
1966
1966
1966
1965
1965
1966
1966
1967
1968
1969
1969
1969
1969
1969
1969
1969
1969
1969
1969
1970
1970
1970
1970
1970
1970
1971
1972
1973
1973
1973
1973
1973
1973
1972
1973
1973
1973
1974
1974
1975
1975
1974
1974
1974
1974
1974
1975
1976
1977
1977
1977
1977
1976
1976
1976
1976
1976
1977
1977
1977
1977
1977
1977
1977
1977
1977
1977
1977
1977
1977
1978
1978
1979
1981
1984
1987
1989
1991
1990
1989
1988
1986
1985
1983
1982
1981
1980
1980
1980
1981
1981
1981
1980
1979
1979
1980
1982
1983
1982
1979
1972
1968
1977
2006
2053
2103
2129
2114
2058
1983
1918
1886
1890
1919
1952
1977
1991
1995
1995
1994
1992
1991
1991
1991
1991
1992
1993
1995
1996
1997
1998
1998
1998
1998
1998
1999
2000
2001
2002
2003
2004
2005
2006
2007
2008
2009
2010
2011
2013
2015
2017
2019
2020
2022
2024
2027
2030
2034
2037
2041
2045
2048
2051
2054
2058
2061
2065
2068
2070
2072
2072
2071
2067
2060
2051
2042
2031
2021
2011
2002
1993
1986
1979
1974
1970
1967
1966
1965
1965
1965
1965
1964
1964
1963
1963
1962
1963
1963
1963
1963
1964
1963
1963
1964
1964
1965
1966
1968
1969
1970
1970
1969
1969
1968
1968
1968
1969
1970
1971
1971
1971
1971
1970
1970
1969
1970
1970
1970
1971
1971
1971
1971
1970
1969
1969
1969
1969
1969
1970
1970
1970
1969
1969
1968
1968
1968
1969
1969
1970
1971
1971
1970
1969
1969
1968
1968
1969
1970
1970
1971
1970
1970
1969
1969
1969
1969
1969
1969
1970
1970
1970
1970
1969
1969
1969
1969
1968
1969
1969
1970
1970
1970
1969
1968
1968
1967
1968
1968
1968
1968
1968
1968
1968
1967
1967
1967
1966
1966
1966
1966
1966
1966
1967
1967
1969
1972
1975
1978
1980
1980
1978
1976
1974
1972
1971
1970
1968
1967
1967
1967
1967
1966
1966
1965
1965
1965
1966
1967
1968
1967
1964
1957
1952
1957
1983
2030
2081
2113
2105
2053
1978
1907
1868
1868
1895
1931
1959
1976
1982
1982
1980
1978
1977
1977
1977
1978
1979
1980
1981
1982
1982
1983
1983
1983
1983
1983
1984
1985
1986
1986
1987
1987
1988
1988
1988
1990
1991
1993
1995
1997
1998
1999
2000
2001
2003
2005
2008
2012
2015
2018
2022
2025
2028
2031
2035
2038
2041
2044
2046
2048
2049
2048
2047
2042
2035
2027
2017
2006
1996
1987
1978
1971
1965
1960
1956
1953
1951
1950
1949
1949
1948
1947
1946
1945
1945
1944
1944
1944
1945
1945
1946
1946
1946
1946
1947
1947
1948
1949
1950
1951
1952
1952
1952
1952
1953
1953
1954
1955
1956
1956
1956
1956
1956
1956
1956
1957
1958
1958
1959
1959
1958
1958
1957
1957
1957
1957
1957
1958
1959
1959
1959
1958
1958
1958
1958
1958
1958
1959
1959
1960
1960
1959
1959
1959
1959
1960
1961
1962
1962
1962
1961
1961
1961
1961
1961
1961
1962
1963
1963
1964
1964
1964
1963
1963
1963
1963
1964
1965
1965
1965
1965
1965
1964
1964
1964
1964
1965
1966
1968
1968
1968
1968
1967
1966
1966
1966
1967
1968
1969
1969
1969
1969
1968
1968
1968
1968
1969
1970
1971
1971
1971
1970
1970
1970
1970
1970
1970
1971
1972
1972
1972
1971
1969
1968
1969
1970
1972
1974
1977
1980
1983
1984
1985
1983
1982
1980
1979
1979
1978
1977
1975
1973
1971
1971
1971
1971
1972
1972
1972
1973
1973
1974
1974
1973
1970
1964
1960
1967
1993
2038
2087
2118
2110
2060
1988
1920
1882
1882
1908
1942
1968
1983
1988
1987
1985
1984
1984
1984
1985
1986
1987
1988
1988
1988
1988
1989
1989
1991
1992
1993
1994
1994
1994
1994
1995
1995
1996
1997
1999
2000
2001
2002
2002
2003
2004
2006
2009
2012
2014
2017
2020
2023
2025
2028
2031
2035
2039
2043
2047
2050
2053
2056
2058
2060
2062
2063
2062
2059
2054
2048
2038
2027
2015
2004
1994
1986
1979
1974
1970
1966
1963
1960
1958
1957
1956
1955
1955
1955
1955
1955
1955
1955
1955
1954
1954
1955
1955
1956
1957
1958
1959
1959
1959
1959
1959
1960
1960
1961
1961
1961
1962
1962
1962
1962
1962
1963
1964
1964
1965
1965
1964
1964
1963
1962
1962
1962
1962
1963
1963
1964
1964
1963
1963
1962
1962
1962
1962
1963
1964
1964
1964
1963
1963
1963
1963
1963
1964
1965
1965
1965
1965
1965
1964
1964
1964
1964
1964
1964
1965
1965
1966
1966
1966
1966
1966
1965
1965
1965
1966
1966
1966
1966
1965
1965
1965
1965
1965
1966
1966
1966
1966
1966
1965
1964
1964
1964
1965
1965
1966
1966
1965
1964
1963
1962
1961
1962
1963
1964
1965
1967
1970
1972
1974
1975
1974
1973
1972
1972
1971
1971
1969
1967
1965
1963
1962
1962
1962
1963
1963
1963
1963
1964
1964
1964
1963
1961
1956
1950
1953
1974
2016
2068
2106
2108
2065
1992
1917
1869
1860
1883
1919
1950
1969
1977
1977
1976
1975
1974
1975
1976
1977
1978
1979
1979
1979
1980
1981
1982
1982
1983
1983
1983
1984
1984
1985
1985
1986
1988
1989
1990
1992
1993
1993
1994
1995
1996
1998
2000
2003
2005
2007
2009
2011
2013
2017
2020
2024
2028
2032
2035
2039
2042
2045
2047
2048
2048
2049
2048
2045
2040
2033
2023
2013
2002
1991
1981
1972
1966
1961
1957
1954
1951
1949
1947
1945
1944
1944
1945
1945
1945
1945
1945
1944
1944
1944
1944
1945
1946
1946
1947
1947
1947
1948
1948
1949
1950
1951
1952
1952
1953
1953
1953
1953
1952
1953
1953
1954
1955
1956
1956
1957
1957
1956
1956
1956
1956
1956
1957
1957
1958
1958
1958
1957
1957
1957
1957
1957
1958
1958
1958
1958
1958
1958
1957
1957
1957
1958
1958
1959
1960
1959
1959
1958
1958
1958
1959
1959
1960
1961
1962
1962
1962
1962
1961
1961
1961
1962
1963
1964
1964
1964
1964
1964
1963
1963
1964
1965
1965
1966
1966
1966
1966
1966
1966
1966
1966
1966
1966
1967
1967
1967
1967
1967
1966
1966
1966
1967
1968
1969
1969
1969
1968
1968
1968
1968
1969
1969
1969
1969
1968
1967
1967
1967
1968
1970
1972
1976
1979
1982
1983
1982
1980
1978
1976
1974
1973
1973
1972
1972
1971
1971
1970
1970
1969
1969
1970
1971
1973
1974
1975
1974
1971
1964
1958
1963
1987
2032
2083
2117
2113
2065
1993
1923
1882
1879
1904
1938
1966
1983
1989
1989
1986
1984
1982
1982
1984
1985
1987
1988
1989
1990
1990
1990
1990
1991
1991
1992
1993
1994
1995
1996
1996
1997
1998
1999
2000
2001
2002
2004
2005
2007
2009
2010
2012
2013
2016
2019
2022
2025
2028
2031
2034
2037
2041
2045
2048
2052
2056
2060
2064
2066
2068
2067
2066
2062
2057
2050
2042
2031
2020
2009
1999
1990
1983
1976
1971
1968
1965
1963
1962
1960
1959
1958
1957
1957
1957
1957
1957
1957
1957
1956
1957
1957
1957
1957
1957
1958
1958
1959
1960
1961
1961
1961
1962
1962
1963
1963
1963
1964
1964
1964
1965
1965
1964
1964
1964
1964
1965
1965
1966
1966
1966
1966
1965
1965
1965
1965
1965
1965
1965
1965
1965
1965
1965
1965
1965
1965
1966
1967
1967
1967
1967
1966
1966
1965
1966
1966
1967
1968
1968
1968
1968
1967
1966
1966
1967
1967
1968
1968
1968
1968
1968
1968
1967
1967
1968
1968
1969
1970
1970
1970
1970
1969
1969
1969
1969
1970
1970
1971
1970
1969
1968
1967
1967
1967
1967
1969
1970
1973
1976
1979
1982
1982
1981
1979
1978
1977
1976
1976
1975
1973
1971
1969
1968
1967
1968
1968
1968
1969
1969
1970
1970
1970
1969
1966
1960
1955
1958
1981
2024
2076
2113
2113
2068
1994
1919
1873
1866
1890
1926
1957
1975
1983
1983
1981
1979
1978
1979
1980
1982
1983
1983
1983
1983
1983
1984
1985
1986
1987
1988
1988
1988
1988
1988
1989
1990
1991
1993
1995
1996
1997
1997
1997
1998
1999
2001
2003
2006
2008
2010
2012
2015
2017
2020
2023
2027
2031
2035
2039
2043
2046
2048
2050
2052
2053
2054
2052
2048
2043
2035
2025
2014
2003
1992
1983
1974
1968
1964
1961
1958
1955
1952
1950
1948
1948
1947
1948
1948
1948
1948
1948
1948
1948
1947
1947
1947
1948
1949
1950
1951
1951
1952
1953
1953
1953
1953
1954
1954
1955
1955
1955
1956
1956
1956
1957
1958
1958
1959
1960
1960
1960
1960
1959
1959
1958
1958
1959
1959
1960
1960
1960
1960
1960
1960
1960
1960
1960
1961
1961
1961
1962
1961
1961
1961
1960
1961
1961
1962
1963
1963
1964
1963
1963
1963
1963
1963
1964
1965
1966
1966
1966
1966
1965
1965
1965
1966
1967
1968
1968
1969
1969
1968
1968
1968
1968
1968
1969
1969
1970
1969
1969
1968
1968
1968
1968
1969
1970
1970
1971
1972
1972
1972
1972
1971
1971
1971
1972
1972
1973
1973
1972
1972
1972
1973
1973
1973
1974
1974
1975
1975
1974
1974
1973
1973
1974
1974
1975
1976
1976
1976
1975
1974
1973
1973
1974
1975
1978
1980
1984
1987
1990
1991
1990
1988
1986
1984
1983
1982
1982
1981
1980
1979
1978
1977
1977
1976
1977
1978
1979
1980
1981
1981
1979
1977
1971
1965
1965
1983
2022
2073
2117
2127
2093
2025
1949
1896
1880
1898
1932
1963
1984
1993
1995
1993
1990
1989
1989
1989
1991
1992
1992
1992
1993
1993
1994
1994
1995
1996
1997
1998
1998
1999
1999
1999
2000
2000
2002
2003
2005
2007
2008
2009
2010
2011
2012
2014
2016
2018
2021
2023
2026
2028
2030
2033
2036
2040
2045
2049
2053
2057
2060
2063
2065
2066
2068
2069
2068
2065
2059
2051
2042
2030
2019
2008
1998
1990
1983
1978
1973
1969
1966
1963
1960
1958
1957
1956
1956
1957
1957
1958
1958
1958
1957
1957
1957
1958
1959
1960
1961
1961
1961
1961
1960
1960
1960
1961
1962
1963
1964
1964
1964
1963
1963
1962
1962
1963
1963
1964
1965
1964
1964
1963
1963
1962
1962
1962
1962
1963
1963
1963
1962
1962
1962
1961
1961
1961
1961
1961
1961
1961
1961
1961
1960
1960
1960
1960
1961
1961
1962
1962
1962
1962
1961
1961
1960
1961
1961
1962
1962
1962
1962
1962
1962
1962
1962
1962
1962
1963
1963
1963
1963
1963
1963
1962
1962
1962
1962
1962
1963
1963
1963
1964
1963
1963
1962
1962
1961
1962
1962
1963
1963
1964
1964
1963
1962
1962
1961
1961
1962
1962
1963
1965
1966
1968
1971
1973
1974
1974
1972
1971
1969
1968
1967
1965
1963
1962
1961
1961
1961
1961
1961
1961
1961
1961
1961
1962
1963
1961
1958
1951
1947
1956
1986
2033
2080
2105
2089
2033
1958
1895
1864
1869
1899
1933
1958
1971
1974
1973
1970
1969
1969
1969
1970
1971
1971
1972
1972
1973
1974
1975
1976
1976
1976
1976
1976
1977
1978
1979
1981
1982
1983
1983
1984
1984
1985
1986
1987
1989
1991
1993
1995
1997
1999
2000
2002
2004
2007
2011
2015
2019
2023
2026
2029
2032
2034
2037
2040
2043
2044
2045
2043
2039
2033
2024
2015
2005
1995
1986
1977
1970
1963
1958
1954
1950
1948
1946
1945
1944
1944
1944
1944
1943
1942
1941
1941
1942
1942
1943
1944
1944
1945
1945
1944
1944
1945
1946
1947
1948
1948
1949
1949
1949
1949
1949
1949
1950
1951
1951
1952
1952
1952
1953
1953
1953
1953
1953
1953
1954
1955
1955
1955
1955
1954
1954
1954
1954
1955
1955
1956
1956
1956
1956
1955
1955
1955
1956
1956
1957
1958
1958
1958
1958
1958
1958
1958
1958
1959
1960
1961
1962
1962
1962
1961
1961
1960
1960
1960
1961
1962
1963
1963
1963
1962
1961
1961
1961
1962
1963
1964
1965
1965
1965
1964
1964
1964
1965
1966
1967
1967
1967
1966
1966
1965
1965
1965
1966
1966
1967
1967
1967
1968
1968
1968
1967
1967
1967
1967
1968
1970
1971
1971
1971
1971
1970
1970
1970
1970
1970
1970
1970
1970
1970
1970
1970
1970
1970
1970
1970
1970
1969
1969
1968
1967
1967
1968
1969
1971
1974
1978
1981
1983
1983
1981
1979
1978
1977
1977
1977
1975
1973
1971
1970
1969
1970
1970
1971
1972
1972
1973
1973
1973
1973
1970
1965
1959
1959
1976
2014
2065
2110
2121
2087
2018
1940
1885
1868
1885
1919
1951
1972
1982
1984
1983
1981
1979
1979
1980
1981
1983
1984
1985
1985
1985
1985
1985
1986
1987
1988
1989
1990
1990
1991
1991
1992
1993
1994
1996
1997
1998
2000
2001
2002
2003
2004
2006
2008
2010
2013
2015
2017
2020
2023
2025
2029
2032
2037
2041
2046
2050
2053
2056
2059
2060
2062
2062
2062
2059
2054
2048
2038
2027
2015
2004
1993
1985
1977
1971
1966
1962
1959
1957
1955
1954
1952
1951
1951
1950
1951
1951
1951
1952
1951
1951
1950
1950
1951
1952
1953
1953
1954
1954
1953
1953
1953
1953
1954
1955
1956
1957
1957
1957
1957
1956
1955
1955
1956
1956
1957
1957
1957
1957
1956
1956
1955
1955
1956
1956
1956
1957
1957
1956
1956
1955
1955
1955
1955
1956
1956
1956
1956
1956
1956
1956
1956
1956
1956
1956
1957
1957
1957
1957
1957
1956
1956
1956
1957
1958
1958
1959
1960
1960
1959
1959
1958
1958
1957
1958
1958
1959
1960
1960
1959
1958
1957
1957
1958
1958
1959
1960
1960
1959
1958
1958
1957
1957
1957
1957
1958
1958
1958
1958
1958
1958
1957
1957
1958
1958
1959
1960
1960
1960
1959
1959
1958
1958
1958
1959
1960
1961
1961
1961
1961
1961
1961
1960
1961
1961
1961
1962
1962
1961
1960
1958
1957
1957
1957
1959
1961
1963
1966
1969
1972
1973
1972
1971
1970
1970
1969
1969
1967
1965
1963
1962
1961
1961
1962
1962
1962
1962
1962
1962
1962
1963
1963
1961
1957
1951
1951
1966
2000
2048
2089
2105
2079
2020
1950
1895
1874
1886
1916
1947
1967
1977
1978
1975
1972
1971
1972
1973
1974
1975
1975
1975
1975
1975
1976
1977
1979
1980
1981
1981
1981
1981
1982
1983
1984
1985
1987
1988
1989
1990
1991
1992
1993
1995
1997
1999
2001
2003
2005
2006
2008
2010
2013
2017
2020
2024
2028
2032
2036
2039
2042
2044
2046
2048
2050
2052
2052
2050
2047
2040
2031
2021
2011
2001
1993
1985
1980
1975
1970
1967
1963
1960
1958
1957
1956
1956
1957
1957
1957
1957
1957
1957
1957
1957
1957
1958
1959
1960
1961
1962
1962
1961
1961
1962
1962
1964
1965
1966
1966
1966
1966
1966
1966
1966
1966
1967
1968
1969
1970
1970
1970
1969
1969
1968
1968
1969
1970
1970
1970
1971
1971
1971
1971
1971
1971
1971
1971
1971
1971
1971
1971
1971
1970
1970
1970
1970
1971
1972
1973
1973
1973
1973
1973
1973
1974
1974
1974
1975
1975
1976
1976
1975
1974
1974
1974
1975
1976
1977
1977
1977
1977
1976
1976
1976
1976
1977
1977
1978
1978
1978
1978
1978
1977
1976
1976
1976
1977
1978
1978
1979
1978
1978
1977
1977
1977
1978
1979
1979
1979
1979
1978
1978
1978
1978
1978
1978
1978
1978
1979
1980
1980
1980
1979
1979
1979
1980
1981
1982
1981
1980
1979
1977
1976
1977
1978
1979
1981
1984
1987
1990
1992
1992
1991
1989
1988
1986
1985
1984
1983
1981
1979
1978
1978
1978
1978
1978
1979
1979
1980
1981
1982
1981
1979
1975
1968
1964
1974
2005
2053
2104
2131
2114
2054
1975
1907
1874
1879
1909
1944
1969
1984
1989
1989
1988
1987
1986
1987
1988
1990
1990
1990
1990
1990
1990
1991
1992
1993
1994
1994
1995
1996
1996
1997
1997
1998
1998
1999
2001
2002
2002
2003
2004
2004
2005
2007
2009
2012
2014
2017
2019
2021
2023
2026
2028
2032
2035
2040
2044
2048
2050
2053
2055
2057
2059
2060
2059
2058
2054
2048
2041
2031
2020
2009
1999
1990
1982
1975
1970
1966
1962
1959
1957
1955
1954
1954
1953
1953
1953
1953
1952
1952
1951
1951
1951
1951
1952
1953
1954
1955
1955
1955
1955
1954
1954
1954
1955
1956
1957
1958
1958
1958
1957
1957
1957
1958
1958
1959
1960
1960
1960
1959
1959
1959
1959
1959
1959
1959
1960
1960
1959
1959
1958
1958
1958
1958
1958
1959
1959
1960
1959
1959
1958
1958
1958
1958
1959
1960
1961
1961
1961
1961
1961
1961
1961
1961
1961
1962
1963
1963
1963
1963
1963
1962
1962
1962
1963
1963
1964
1965
1965
1965
1964
1963
1963
1963
1963
1964
1964
1965
1965
1965
1964
1964
1964
1964
1965
1965
1966
1966
1966
1966
1966
1966
1966
1966
1966
1967
1967
1967
1967
1967
1967
1966
1966
1966
1967
1967
1968
1968
1968
1968
1968
1968
1967
1966
1966
1966
1967
1968
1969
1971
1973
1975
1977
1978
1978
1977
1976
1975
1975
1974
1972
1970
1968
1967
1967
1968
1969
1970
1969
1969
1968
1968
1969
1969
1969
1967
1962
1957
1958
1976
2013
2060
2099
2109
2077
2015
1945
1896
1880
1895
1926
1956
1975
1983
1984
1982
1980
1979
1979
1979
1979
1980
1980
1982
1983
1984
1986
1986
1986
1986
1986
1986
1987
1988
1989
1991
1992
1993
1993
1994
1994
1994
1995
1997
1999
2001
2004
2006
2008
2009
2010
2012
2014
2017
2021
2025
2029
2033
2036
2038
2041
2044
2048
2050
2054
2057
2060
2060
2059
2056
2050
2044
2036
2026
2016
2007
1998
1989
1982
1975
1970
1966
1963
1961
1960
1959
1959
1958
1957
1957
1957
1957
1957
1957
1958
1958
1958
1959
1959
1959
1958
1958
1958
1959
1960
1961
1962
1963
1963
1963
1963
1963
1963
1964
1964
1965
1965
1965
1965
1964
1964
1964
1964
1965
1965
1966
1966
1966
1967
1966
1966
1966
1965
1965
1965
1966
1966
1966
1966
1965
1965
1965
1965
1965
1966
1967
1968
1968
1968
1968
1967
1967
1967
1967
1967
1968
1969
1969
1969
1969
1968
1968
1967
1967
1968
1969
1970
1970
1971
1971
1970
1970
1970
1970
1970
1971
1972
1972
1972
1971
1971
1970
1971
1971
1972
1972
1972
1972
1972
1971
1971
1971
1971
1971
1971
1971
1971
1971
1971
1971
1971
1971
1971
1971
1971
1972
1971
1971
1970
1969
1969
1969
1970
1971
1973
1975
1979
1981
1983
1983
1981
1979
1977
1976
1975
1974
1973
1971
1970
1970
1969
1969
1968
1968
1968
1969
1970
1970
1971
1970
1966
1961
1955
1958
1981
2024
2075
2112
2112
2067
1994
1919
1872
1864
1887
1923
1954
1973
1981
1982
1980
1978
1977
1977
1978
1979
1980
1981
1981
1982
1982
1982
1983
1983
1984
1985
1986
1987
1987
1988
1988
1988
1989
1990
1991
1992
1993
1994
1995
1996
1997
1998
2000
2002
2004
2007
2009
2012
2015
2017
2019
2022
2025
2028
2032
2036
2040
2044
2047
2048
2049
2050
2050
2049
2047
2043
2036
2028
2017
2006
1996
1986
1977
1971
1965
1962
1959
1956
1954
1952
1951
1950
1949
1948
1948
1948
1948
1948
1948
1948
1948
1948
1948
1949
1949
1950
1951
1952
1952
1952
1952
1952
1953
1954
1955
1956
1957
1957
1957
1957
1957
1957
1958
1958
1959
1959
1960
1960
1960
1960
1960
1960
1960
1961
1962
1962
1963
1962
1962
1962
1961
1961
1961
1961
1962
1962
1963
1963
1963
1963
1962
1962
1962
1962
1963
1964
1964
1965
1965
1965
1964
1964
1964
1964
1965
1965
1966
1966
1967
1966
1966
1966
1965
1965
1966
1967
1967
1967
1968
1968
1968
1968
1968
1968
1968
1968
1969
1969
1969
1969
1969
1968
1968
1969
1969
1970
1970
1971
1971
1971
1971
1970
1970
1970
1970
1970
1971
1971
1972
1972
1972
1971
1971
1971
1972
1972
1973
1973
1973
1973
1973
1972
1972
1972
1971
1971
1971
1971
1972
1972
1973
1975
1977
1980
1982
1984
1984
1983
1982
1980
1979
1977
1976
1974
1973
1973
1973
1973
1974
1974
1973
1973
1972
1973
1974
1974
1974
1971
1966
1961
1966
1990
2032
2080
2112
2109
2064
1996
1929
1889
1885
1908
1941
1968
1984
1989
1988
1985
1984
1983
1983
1983
1984
1986
1988
1989
1990
1991
1990
1990
1989
1990
1991
1992
1994
1995
1996
1997
1997
1997
1997
1997
1998
2000
2003
2005
2007
2009
2011
2012
2013
2014
2015
2017
2020
2024
2028
2032
2035
2037
2040
2043
2047
2050
2054
2058
2062
2065
2066
2067
2065
2062
2057
2051
2043
2034
2024
2014
2005
1998
1991
1985
1980
1975
1971
1970
1969
1969
1969
1968
1967
1965
1965
1965
1966
1967
1969
1970
1970
1970
1969
1969
1970
1971
1972
1973
1974
1975
1976
1976
1976
1975
1975
1975
1975
1977
1979
1981
1982
1982
1980
1978
1977
1976
1978
1979
1981
1981
1981
1981
1981
1981
1980
1980
1980
1980
1980
1981
1981
1981
1982
1983
1984
1984
1983
1983
1983
1984
1984
1984
1982
1981
1980
1981
1983
1986
1988
1988
1988
1986
1984
1983
1983
1984
1985
1986
1987
1987
1987
1986
1986
1986
1986
1987
1987
1987
1986
1986
1986
1985
1985
1985
1986
1987
1988
1988
1988
1987
1986
1985
1986
1986
1987
1986
1985
1985
1984
1984
1983
1982
1982
1982
1983
1985
1988
1991
1993
1995
1995
1994
1992
1991
1990
1989
1989
1988
1986
1983
1981
1980
1981
1981
1982
1983
1982
1982
1982
1982
1981
1980
1976
1969
1965
1974
2004
2053
2106
2134
2118
2058
1976
1903
1867
1871
1902
1939
1967
1984
1990
1991
1991
1989
1989
1989
1990
1991
1992
1992
1993
1993
1993
1993
1994
1994
1994
1995
1996
1997
1998
1999
2000
2000
2001
2001
2001
2002
2002
2003
2005
2007
2008
2010
2011
2013
2015
2017
2020
2023
2026
2028
2031
2035
2039
2044
2048
2052
2055
2057
2059
2061
2062
2063
2064
2062
2058
2053
2046
2035
2024
2012
2000
1990
1982
1975
1971
1967
1964
1962
1960
1958
1956
1955
1954
1954
1954
1955
1956
1956
1956
1955
1954
1953
1953
1954
1955
1957
1958
1958
1958
1958
1958
1958
1958
1958
1959
1960
1962
1963
1964
1964
1963
1962
1961
1961
1962
1963
1964
1964
1963
1963
1963
1963
1963
1963
1964
1964
1964
1963
1962
1961
1960
1960
1961
1962
1962
1963
1964
1964
1964
1964
1963
1963
1964
1964
1963
1963
1963
1964
1964
1964
1963
1963
1963
1964
1965
1966
1966
1967
1967
1967
1966
1965
1964
1964
1965
1966
1967
1968
1968
1967
1967
1966
1966
1966
1966
1967
1968
1968
1969
1969
1968
1968
1968
1968
1969
1969
1969
1969
1969
1969
1968
1968
1967
1967
1967
1967
1968
1970
1973
1976
1978
1980
1980
1979
1978
1977
1976
1976
1974
1972
1970
1968
1968
1968
1968
1969
1969
1969
1969
1969
1969
1970
1970
1968
1964
1958
1956
1970
2004
2051
2095
2112
2086
2025
1951
1894
1872
1884
1916
1949
1971
1981
1983
1982
1981
1981
1981
1981
1981
1981
1980
1980
1980
1982
1984
1986
1988
1989
1989
1988
1987
1986
1987
1988
1990
1991
1993
1994
1996
1996
1997
1997
1998
1999
2001
2003
2006
2008
2010
2012
2014
2016
2019
2023
2026
2029
2032
2036
2040
2044
2048
2049
2050
2052
2053
2055
2055
2053
2049
2043
2034
2025
2015
2006
1997
1988
1981
1975
1971
1967
1963
1960
1957
1956
1956
1957
1957
1957
1957
1957
1957
1957
1957
1957
1958
1958
1959
1960
1960
1960
1960
1960
1960
1961
1961
1962
1963
1964
1965
1966
1965
1964
1963
1963
1963
1966
1968
1969
1969
1968
1966
1965
1964
1964
1965
1966
1967
1968
1969
1968
1968
1967
1966
1966
1966
1967
1968
1969
1969
1969
1969
1969
1970
1970
1971
1971
1971
1970
1970
1970
1970
1970
1970
1970
1971
1971
1971
1972
1972
1972
1972
1971
1971
1971
1971
1972
1973
1974
1974
1974
1974
1974
1974
1974
1975
1976
1976
1977
1977
1977
1976
1975
1975
1976
1977
1978
1979
1979
1979
1978
1976
1975
1975
1975
1976
1977
1978
1978
1978
1977
1977
1976
1976
1976
1977
1977
1978
1979
1979
1979
1978
1977
1976
1975
1974
1975
1976
1977
1978
1980
1983
1985
1987
1989
1990
1989
1988
1987
1986
1985
1983
1981
1979
1978
1977
1977
1977
1978
1978
1978
1978
1979
1980
1981
1981
1980
1976
1970
1968
1983
2020
2072
2119
2135
2103
2034
1953
1892
1871
1886
1921
1955
1979
1991
1995
1996
1996
1995
1994
1994
1994
1995
1995
1996
1997
1999
2000
2001
2002
2003
2003
2002
2002
2002
2003
2004
2005
2007
2009
2010
2011
2012
2013
2014
2016
2018
2020
2022
2024
2026
2028
2030
2032
2034
2038
2042
2046
2050
2054
2058
2062
2066
2070
2074
2077
2080
2083
2085
2085
2082
2078
2070
2061
2051
2042
2031
2020
2010
2001
1993
1987
1981
1976
1973
1970
1969
1968
1968
1968
1968
1968
1967
1967
1967
1967
1967
1967
1967
1967
1967
1967
1968
1968
1969
1971
1972
1972
1972
1972
1971
1971
1970
1971
1972
1973
1975
1975
1975
1975
1974
1973
1973
1973
1973
1973
1974
1975
1975
1975
1975
1974
1973
1972
1972
1972
1973
1973
1973
1973
1973
1972
1972
1972
1972
1973
1973
1973
1973
1972
1973
1973
1973
1973
1972
1972
1972
1973
1974
1974
1974
1973
1972
1972
1971
1972
1973
1974
1974
1974
1973
1972
1971
1970
1970
1970
1971
1973
1974
1977
1979
1982
1984
1985
1984
1983
1982
1981
1980
1979
1977
1975
1973
1971
1971
1971
1972
1972
1973
1973
1973
1973
1973
1973
1971
1968
1962
1958
1968
1999
2050
2103
2129
2109
2045
1958
1885
1850
1858
1892
1932
1960
1976
1982
1983
1983
1983
1983
1983
1984
1985
1986
1986
1987
1988
1988
1989
1990
1991
1992
1992
1993
1993
1993
1994
1995
1996
1998
1999
1999
2000
2000
2001
2002
2004
2006
2009
2011
2013
2016
2018
2021
2024
2027
2031
2036
2040
2045
2048
2052
2056
2060
2063
2066
2069
2072
2073
2072
2069
2063
2053
2042
2029
2016
2004
1993
1984
1977
1971
1966
1961
1957
1954
1953
1952
1951
1951
1951
1951
1951
1950
1950
1949
1949
1949
1950
1950
1951
1952
1952
1952
1952
1952
1952
1953
1954
1955
1956
1957
1958
1958
1957
1957
1957
1958
1958
1959
1960
1960
1960
1960
1959
1959
1959
1959
1960
1960
1961
1961
1961
1961
1961
1960
1960
1960
1960
1961
1961
1961
1961
1961
1961
1960
1960
1961
1961
1962
1962
1963
1963
1963
1962
1962
1962
1962
1962
1963
1963
1964
1964
1964
1963
1963
1963
1963
1964
1964
1965
1965
1965
1964
1964
1964
1964
1964
1965
1965
1965
1966
1966
1965
1964
1963
1962
1961
1961
1962
1964
1967
1969
1972
1975
1976
1976
1975
1974
1973
1972
1972
1971
1969
1966
1965
1964
1964
1964
1965
1966
1966
1966
1966
1966
1966
1966
1964
1960
1953
1953
1969
2006
2058
2102
2114
2082
2015
1938
1882
1865
1882
1916
1949
1970
1979
1980
1978
1975
1974
1974
1975
1976
1976
1976
1976
1977
1978
1980
1981
1981
1982
1982
1982
1982
1982
1983
1984
1985
1987
1988
1989
1990
1990
1991
1992
1993
1994
1996
1998
2000
2002
2004
2006
2009
2011
2014
2017
2021
2025
2029
2033
2037
2040
2043
2046
2048
2050
2052
2053
2052
2050
2045
2037
2027
2015
2004
1994
1985
1978
1972
1967
1963
1959
1955
1953
1951
1950
1950
1950
1951
1951
1952
1952
1952
1951
1951
1951
1952
1953
1955
1956
1957
1957
1958
1958
1958
1959
1959
1961
1962
1963
1963
1963
1962
1961
1961
1962
1962
1963
1963
1963
1962
1962
1962
1962
1962
1963
1963
1964
1964
1965
1965
1965
1965
1964
1964
1963
1963
1964
1964
1965
1966
1966
1966
1966
1966
1965
1965
1966
1967
1968
1969
1969
1968
1967
1967
1967
1968
1968
1969
1969
1969
1969
1969
1969
1969
1969
1970
1970
1971
1971
1971
1971
1970
1970
1969
1969
1970
1970
1971
1971
1971
1971
1970
1969
1968
1968
1969
1970
1971
1971
1971
1971
1971
1970
1970
1969
1969
1969
1970
1971
1972
1973
1972
1972
1971
1971
1972
1972
1973
1973
1973
1973
1972
1971
1971
1971
1972
1973
1973
1973
1973
1972
1970
1969
1969
1970
1972
1974
1977
1980
1983
1984
1984
1982
1981
1979
1979
1979
1978
1977
1976
1974
1973
1972
1972
1972
1973
1974
1975
1975
1976
1976
1976
1974
1969
1963
1962
1975
2008
2056
2102
2122
2100
2042
1968
1908
1883
1894
1925
1958
1981
1991
1992
1989
1986
1985
1985
1985
1987
1988
1988
1989
1989
1989
1989
1989
1989
1991
1992
1993
1995
1996
1996
1996
1996
1997
1998
1999
2001
2002
2003
2005
2006
2007
2009
2010
2012
2014
2016
2018
2020
2021
2024
2026
2030
2034
2038
2043
2046
2049
2051
2054
2056
2058
2059
2061
2062
2061
2059
2054
2048
2040
2030
2020
2011
2002
1996
1990
1985
1981
1976
1972
1968
1965
1964
1964
1965
1965
1966
1967
1966
1966
1965
1964
1965
1966
1967
1969
1970
1971
1971
1971
1971
1971
1972
1973
1974
1975
1976
1976
1977
1976
1976
1976
1976
1976
1976
1977
1978
1978
1978
1978
1977
1977
1977
1978
1979
1979
1980
1980
1980
1979
1978
1978
1978
1978
1979
1981
1981
1982
1982
1981
1981
1981
1981
1981
1982
1983
1985
1986
1987
1987
1987
1986
1986
1986
1987
1988
1988
1988
1987
1986
1987
1987
1988
1989
1990
1991
1991
1992
1992
1992
1991
1991
1991
1992
1992
1993
1993
1993
1993
1993
1993
1993
1993
1993
1993
1993
1993
1992
1991
1990
1990
1991
1992
1993
1995
1998
2001
2004
2005
2005
2003
2001
1999
1998
1996
1995
1994
1993
1992
1992
1991
1991
1990
1989
1989
1990
1991
1993
1992
1990
1985
1977
1976
1991
2029
2083
2130
2144
2108
2034
1948
1885
1865
1884
1922
1959
1984
1996
2000
2000
1999
1998
1998
1997
1998
1999
2000
2001
2002
2002
2002
2001
2001
2002
2003
2005
2006
2007
2008
2009
2010
2011
2011
2011
2012
2013
2015
2017
2018
2020
2021
2022
2024
2027
2030
2032
2035
2037
2040
2043
2047
2050
2054
2058
2062
2066
2070
2074
2078
2081
2083
2083
2082
2080
2075
2067
2058
2047
2035
2022
2010
1999
1990
1984
1978
1975
1972
1970
1968
1966
1965
1964
1963
1962
1963
1963
1963
1963
1963
1964
1964
1964
1964
1964
1965
1966
1966
1967
1967
1967
1968
1968
1968
1968
1969
1969
1970
1970
1970
1970
1970
1970
1971
1971
1971
1971
1971
1971
1971
1971
1970
1970
1970
1970
1970
1971
1971
1971
1971
1970
1969
1969
1969
1969
1970
1971
1971
1972
1971
1971
1970
1970
1969
1969
1970
1971
1971
1972
1972
1972
1971
1971
1970
1970
1970
1971
1972
1973
1973
1972
1970
1968
1967
1967
1968
1970
1974
1977
1980
1983
1983
1983
1981
1980
1978
1978
1978
1977
1976
1974
1972
1970
1970
1970
1971
1971
1971
1971
1972
1972
1972
1971
1968
1963
1956
1958
1979
2022
2075
2116
2118
2071
1992
1911
1860
1852
1878
1918
1952
1973
1981
1983
1983
1982
1981
1981
1982
1983
1984
1984
1985
1985
1985
1986
1987
1988
1989
1990
1990
1990
1991
1991
1992
1992
1994
1995
1997
1998
2000
2000
2001
2002
2003
2005
2007
2009
2012
2014
2017
2020
2022
2025
2028
2031
2035
2040
2044
2048
2051
2055
2057
2059
2061
2062
2062
2061
2056
2049
2041
2029
2017
2005
1994
1985
1977
1971
1966
1963
1959
1957
1954
1953
1951
1951
1950
1950
1950
1950
1950
1950
1950
1950
1950
1950
1951
1952
1952
1953
1953
1954
1954
1954
1955
1955
1955
1955
1956
1957
1957
1958
1958
1958
1958
1959
1960
1960
1961
1961
1961
1961
1961
1960
1960
1960
1961
1961
1961
1961
1961
1961
1960
1960
1960
1960
1960
1961
1961
1961
1961
1961
1960
1960
1960
1960
1961
1962
1963
1963
1963
1963
1963
1963
1963
1963
1963
1964
1964
1965
1965
1964
1964
1963
1963
1963
1964
1965
1965
1965
1964
1963
1962
1961
1961
1960
1960
1959
1959
1959
1959
1958
1957
1957
1957
1957
1957
1958
1958
1958
1958
1958
1958
1958
1958
1957
1957
1956
1956
1955
1956
1956
1958
1960
1963
1966
1969
1970
1970
1968
1967
1965
1964
1962
1961
1959
1958
1957
1957
1958
1958
1958
1957
1957
1957
1958
1959
1959
1958
1955
1949
1945
1953
1981
2027
2075
2104
2092
2039
1965
1899
1864
1867
1895
1930
1956
1969
1973
1971
1969
1968
1967
1967
1968
1969
1970
1971
1972
1973
1974
1975
1975
1975
1975
1976
1976
1977
1978
1979
1980
1981
1982
1982
1982
1983
1984
1986
1988
1990
1991
1993
1994
1996
1997
1999
2002
2004
2007
2010
2013
2016
2019
2021
2024
2027
2031
2034
2037
2040
2042
2043
2043
2042
2039
2034
2028
2021
2013
2004
1995
1986
1978
1971
1965
1961
1957
1955
1953
1952
1951
1950
1949
1948
1948
1947
1948
1948
1949
1950
1951
1952
1952
1952
1952
1952
1952
1953
1954
1955
1955
1956
1956
1956
1956
1956
1956
1956
1957
1958
1958
1958
1958
1957
1957
1957
1957
1957
1958
1958
1958
1958
1958
1958
1958
1958
1958
1959
1959
1960
1960
1960
1960
1959
1959
1959
1959
1960
1961
1962
1962
1962
1961
1961
1961
1961
1961
1961
1962
1962
1963
1963
1963
1963
1963
1963
1963
1964
1965
1966
1966
1966
1966
1965
1965
1965
1965
1966
1966
1967
1967
1967
1966
1966
1966
1966
1966
1967
1967
1967
1967
1967
1967
1967
1968
1968
1968
1969
1969
1970
1970
1970
1970
1969
1969
1968
1969
1969
1970
1971
1971
1971
1969
1968
1967
1966
1967
1968
1971
1973
1976
1979
1981
1983
1982
1981
1979
1978
1977
1976
1975
1974
1972
1971
1970
1969
1969
1970
1971
1971
1972
1973
1973
1973
1972
1969
1964
1958
1961
1982
2022
2070
2108
2112
2073
2005
1935
1888
1879
1900
1934
1963
1981
1987
1986
1984
1982
1981
1982
1983
1984
1985
1986
1986
1986
1987
1988
1988
1989
1990
1990
1991
1991
1992
1993
1993
1994
1995
1997
1998
2000
2001
2002
2003
2003
2004
2005
2006
2008
2011
2013
2016
2018
2020
2023
2026
2029
2032
2036
2040
2043
2046
2048
2050
2051
2053
2055
2057
2059
2059
2056
2051
2045
2036
2027
2017
2007
1998
1990
1984
1979
1976
1973
1969
1966
1963
1962
1961
1962
1964
1965
1965
1965
1964
1964
1964
1964
1965
1966
1967
1968
1969
1968
1968
1968
1969
1971
1973
1973
1972
1971
1970
1970
1970
1971
1972
1972
1973
1974
1975
1976
1976
1975
1975
1974
1974
1974
1975
1975
1975
1975
1975
1975
1975
1975
1975
1976
1976
1977
1978
1978
1978
1977
1977
1976
1976
1976
1977
1977
1979
1980
1981
1981
1981
1980
1980
1979
1979
1980
1980
1981
1981
1981
1982
1981
1981
1980
1980
1979
1980
1981
1982
1983
1982
1981
1981
1981
1982
1983
1982
1981
1980
1979
1979
1979
1979
1981
1983
1987
1991
1994
1994
1992
1990
1988
1987
1986
1985
1983
1982
1980
1980
1980
1980
1981
1980
1980
1979
1980
1981
1981
1981
1977
1970
1965
1975
2007
2058
2111
2136
2113
2046
1959
1887
1856
1867
1904
1944
1972
1987
1991
1991
1991
1990
1990
1991
1992
1993
1993
1994
1994
1996
1997
1997
1996
1996
1996
1997
1998
1999
2000
2000
2001
2001
2002
2003
2004
2006
2008
2010
2011
2012
2013
2014
2016
2018
2020
2022
2025
2028
2031
2034
2037
2041
2045
2048
2052
2055
2059
2063
2066
2069
2071
2072
2071
2068
2064
2057
2048
2039
2027
2015
2004
1993
1984
1977
1972
1967
1964
1961
1959
1957
1956
1955
1955
1954
1954
1954
1955
1956
1957
1957
1956
1955
1955
1955
1957
1958
1958
1959
1958
1958
1958
1959
1959
1960
1960
1961
1961
1962
1962
1962
1962
1961
1961
1961
1961
1962
1962
1963
1963
1963
1962
1962
1961
1961
1960
1960
1961
1961
1962
1962
1962
1962
1962
1961
1961
1962
1963
1963
1963
1963
1963
1962
1962
1961
1962
1962
1963
1964
1965
1965
1965
1964
1963
1962
1960
1960
1960
1962
1964
1967
1970
1972
1975
1976
1976
1975
1974
1973
1973
1972
1971
1968
1966
1964
1963
1963
1964
1965
1966
1966
1966
1966
1966
1966
1965
1962
1955
1951
1961
1992
2042
2092
2116
2094
2030
1946
1877
1848
1859
1894
1933
1960
1974
1979
1980
1979
1978
1977
1978
1979
1980
1980
1980
1981
1981
1982
1983
1984
1985
1986
1986
1987
1988
1989
1990
1991
1992
1993
1994
1995
1996
1997
1998
1999
2001
2003
2006
2008
2010
2012
2014
2016
2019
2022
2026
2029
2033
2037
2041
2044
2047
2049
2051
2053
2056
2058
2059
2058
2055
2049
2041
2030
2018
2007
1997
1988
1980
1973
1968
1963
1959
1956
1954
1952
1951
1951
1951
1952
1952
1952
1951
1950
1950
1950
1950
1951
1953
1954
1955
1955
1955
1955
1954
1954
1955
1955
1956
1957
1958
1958
1958
1958
1958
1958
1958
1958
1959
1960
1960
1961
1960
1960
1959
1959
1959
1960
1960
1961
1961
1961
1961
1960
1960
1959
1959
1960
1960
1961
1961
1961
1961
1961
1961
1961
1961
1961
1961
1962
1962
1963
1963
1962
1962
1962
1962
1963
1964
1965
1965
1963
1961
1959
1958
1958
1959
1961
1964
1968
1971
1974
1975
1975
1973
1972
1970
1970
1970
1969
1968
1966
1964
1963
1962
1962
1962
1963
1964
1964
1965
1965
1965
1963
1960
1954
1948
1952
1975
2018
2070
2108
2107
2062
1987
1912
1867
1861
1887
1925
1956
1974
1980
1979
1976
1974
1973
1973
1974
1975
1977
1977
1978
1979
1979
1980
1980
1981
1982
1983
1984
1985
1985
1986
1986
1987
1988
1989
1991
1992
1993
1994
1995
1996
1997
1999
2001
2003
2006
2008
2010
2013
2015
2017
2020
2023
2026
2030
2033
2037
2040
2042
2045
2046
2047
2048
2048
2046
2043
2037
2029
2019
2008
1998
1988
1979
1972
1967
1962
1959
1956
1953
1951
1950
1949
1948
1948
1948
1949
1950
1950
1950
1950
1950
1950
1950
1951
1952
1953
1954
1954
1954
1954
1954
1954
1954
1954
1955
1956
1956
1956
1956
1956
1956
1956
1956
1956
1956
1956
1956
1957
1957
1957
1956
1956
1956
1956
1956
1957
1958
1958
1958
1958
1957
1956
1956
1956
1957
1958
1958
1959
1958
1958
1957
1957
1958
1958
1959
1960
1961
1962
1962
1961
1961
1960
1960
1961
1962
1962
1963
1964
1964
1963
1963
1963
1963
1963
1963
1963
1962
1961
1960
1959
1959
1960
1962
1965
1969
1972
1974
1974
1973
1971
1969
1967
1966
1966
1964
1963
1962
1961
1961
1960
1960
1960
1960
1960
1960
1961
1962
1962
1960
1956
1949
1947
1960
1993
2043
2088
2106
2083
2022
1946
1886
1862
1874
1908
1943
1967
1978
1979
1976
1973
1971
1970
1971
1972
1973
1974
1975
1976
1977
1978
1978
1978
1978
1979
1980
1981
1983
1983
1984
1985
1985
1986
1987
1988
1989
1991
1993
1994
1996
1997
1998
1999
2000
2002
2004
2007
2010
2013
2015
2018
2020
2023
2026
2029
2032
2035
2037
2040
2042
2043
2043
2042
2039
2035
2029
2022
2013
2003
1994
1984
1976
1969
1964
1960
1957
1955
1954
1952
1951
1950
1949
1949
1948
1949
1950
1951
1952
1952
1953
1953
1953
1953
1953
1953
1954
1955
1956
1956
1956
1956
1955
1955
1955
1956
1956
1957
1957
1958
1958
1957
1957
1957
1957
1957
1958
1958
1958
1958
1958
1958
1958
1958
1958
1958
1958
1959
1959
1960
1960
1959
1959
1959
1958
1958
1959
1959
1960
1960
1961
1961
1960
1960
1960
1960
1961
1962
1962
1962
1962
1962
1961
1961
1962
1963
1963
1964
1965
1965
1964
1964
1964
1963
1963
1964
1964
1965
1966
1967
1967
1966
1966
1965
1965
1965
1965
1966
1967
1966
1965
1964
1963
1962
1963
1965
1968
1971
1975
1978
1980
1980
1978
1976
1974
1973
1973
1972
1971
1970
1969
1968
1968
1967
1967
1967
1967
1968
1970
1971
1971
1969
1966
1959
1954
1960
1984
2029
2079
2112
2106
2056
1980
1909
1869
1868
1897
1934
1964
1981
1988
1987
1985
1983
1983
1983
1984
1986
1987
1988
1988
1988
1989
1989
1990
1991
1992
1993
1994
1995
1995
1995
1995
1995
1996
1998
1999
2001
2003
2004
2006
2007
2008
2010
2011
2013
2015
2018
2020
2023
2025
2028
2031
2034
2037
2040
2042
2045
2048
2051
2054
2056
2058
2060
2060
2060
2058
2054
2048
2039
2028
2017
2005
1995
1987
1980
1975
1971
1968
1965
1963
1961
1959
1958
1957
1957
1957
1958
1958
1959
1959
1959
1959
1960
1960
1960
1961
1962
1963
1964
1965
1965
1965
1965
1965
1965
1965
1966
1966
1967
1967
1967
1967
1966
1965
1965
1965
1965
1966
1966
1967
1967
1966
1965
1965
1964
1965
1965
1966
1967
1967
1966
1966
1965
1965
1965
1966
1967
1968
1968
1968
1967
1967
1966
1966
1967
1967
1968
1969
1969
1968
1967
1966
1966
1967
1968
1969
1969
1970
1970
1969
1969
1969
1969
1968
1968
1969
1969
1969
1969
1968
1967
1966
1965
1965
1966
1969
1972
1976
1979
1981
1981
1980
1978
1977
1976
1975
1975
1973
1971
1969
1968
1967
1967
1968
1968
1969
1969
1969
1970
1970
1969
1967
1961
1954
1954
1970
2009
2062
2106
2115
2076
2000
1916
1859
1844
1867
1907
1944
1968
1980
1983
1982
1981
1980
1979
1980
1982
1983
1984
1984
1985
1985
1985
1986
1986
1987
1989
1990
1991
1992
1991
1991
1991
1992
1993
1995
1997
1999
2000
2001
2002
2003
2004
2005
2007
2010
2012
2015
2017
2020
2022
2025
2028
2031
2035
2038
2041
2045
2048
2051
2053
2055
2055
2055
2054
2051
2046
2039
2030
2019
2008
1997
1987
1978
1971
1966
1962
1959
1957
1955
1953
1951
1949
1949
1949
1949
1950
1950
1951
1951
1951
1951
1951
1951
1952
1952
1953
1954
1955
1956
1956
1956
1956
1956
1956
1957
1957
1958
1959
1959
1958
1958
1957
1957
1957
1957
1958
1958
1959
1959
1958
1957
1957
1956
1956
1956
1957
1957
1957
1958
1958
1957
1957
1956
1956
1957
1957
1958
1958
1958
1957
1957
1957
1957
1957
1958
1959
1959
1960
1960
1960
1959
1959
1959
1959
1960
1960
1960
1961
1961
1961
1960
1960
1960
1960
1961
1961
1962
1962
1962
1961
1961
1961
1960
1960
1960
1960
1961
1961
1961
1961
1961
1960
1959
1958
1957
1957
1957
1959
1960
1963
1965
1969
1971
1972
1972
1972
1970
1969
1968
1967
1965
1963
1961
1960
1960
1961
1961
1962
1962
1962
1961
1961
1962
1962
1961
1959
1953
1948
1955
1982
2027
2075
2103
2092
2040
1965
1898
1864
1867
1896
1932
1958
1972
1976
1974
1972
1971
1970
1971
1971
1972
1972
1972
1973
1975
1976
1977
1978
1978
1978
1978
1978
1979
1980
1981
1983
1984
1985
1986
1986
1987
1987
1989
1990
1992
1994
1996
1997
1999
2000
2001
2003
2005
2007
2010
2014
2017
2020
2023
2025
2027
2030
2032
2035
2037
2039
2041
2042
2040
2037
2031
2024
2015
2006
1997
1988
1981
1973
1967
1962
1957
1954
1951
1949
1948
1948
1948
1947
1947
1947
1946
1946
1946
1947
1948
1949
1950
1950
1951
1951
1950
1950
1951
1951
1952
1953
1954
1954
1954
1954
1953
1952
1952
1953
1953
1954
1955
1955
1955
1955
1955
1955
1954
1954
1954
1955
1955
1955
1955
1955
1955
1954
1954
1954
1955
1955
1956
1956
1956
1956
1955
1955
1955
1956
1956
1957
1957
1958
1958
1958
1958
1958
1957
1957
1958
1958
1959
1959
1959
1959
1959
1959
1959
1959
1959
1960
1960
1961
1961
1961
1961
1960
1960
1960
1961
1961
1962
1962
1962
1962
1961
1961
1961
1961
1961
1962
1962
1962
1962
1962
1962
1962
1962
1962
1962
1963
1964
1964
1964
1963
1963
1963
1963
1963
1964
1964
1964
1963
1962
1961
1961
1962
1964
1966
1970
1973
1975
1976
1975
1974
1972
1971
1970
1968
1967
1966
1965
1965
1965
1964
1964
1963
1963
1963
1963
1964
1965
1966
1965
1961
1954
1950
1958
1984
2030
2077
2105
2094
2044
1971
1906
1871
1874
1903
1938
1965
1978
1981
1979
1976
1973
1973
1973
1974
1975
1977
1978
1979
1980
1980
1980
1980
1980
1981
1982
1983
1984
1985
1986
1986
1987
1987
1988
1989
1991
1993
1994
1996
1997
1998
1998
1999
2001
2003
2005
2007
2010
2012
2014
2016
2019
2021
2024
2027
2030
2033
2035
2038
2039
2040
2041
2040
2040
2038
2035
2030
2023
2015
2005
1996
1987
1979
1972
1967
1963
1960
1958
1956
1954
1952
1951
1950
1950
1950
1950
1951
1952
1953
1953
1953
1953
1952
1952
1953
1954
1955
1955
1956
1956
1955
1955
1955
1955
1955
1955
1956
1957
1957
1957
1957
1957
1956
1956
1956
1957
1958
1958
1959
1958
1958
1957
1957
1957
1957
1957
1958
1958
1958
1958
1958
1957
1957
1957
1957
1958
1959
1959
1959
1959
1959
1959
1959
1959
1959
1960
1960
1961
1961
1961
1961
1960
1960
1961
1961
1962
1962
1963
1963
1963
1963
1963
1963
1962
1962
1963
1963
1964
1964
1964
1964
1964
1965
1965
1965
1964
1964
1964
1964
1965
1965
1965
1965
1966
1966
1966
1965
1965
1965
1965
1965
1965
1964
1964
1965
1966
1967
1967
1967
1967
1967
1967
1967
1967
1968
1968
1969
1969
1969
1968
1967
1965
1965
1964
1965
1967
1970
1973
1976
1978
1979
1978
1977
1975
1974
1973
1972
1971
1970
1969
1969
1969
1968
1968
1967
1967
1967
1968
1969
1970
1969
1966
1961
1955
1954
1968
2001
2047
2089
2105
2080
2021
1949
1893
1872
1884
1917
1950
1973
1984
1985
1982
1979
1977
1977
1978
1979
1980
1981
1982
1983
1984
1985
1985
1986
1987
1987
1988
1988
1988
1987
1987
1988
1989
1990
1993
1995
1996
1997
1998
1999
1999
2000
2002
2003
2006
2008
2011
2013
2016
2017
2019
2021
2023
2025
2028
2032
2035
2038
2040
2042
2043
2044
2045
2045
2045
2043
2039
2033
2025
2017
2007
1998
1989
1982
1975
1970
1966
1963
1961
1959
1957
1955
1954
1953
1953
1954
1954
1955
1955
1956
1956
1955
1955
1955
1955
1956
1958
1959
1960
1960
1960
1959
1959
1959
1960
1961
1962
1963
1963
1962
1961
1961
1960
1961
1961
1962
1963
1963
1963
1962
1961
1960
1960
1961
1961
1962
1963
1963
1963
1963
1962
1962
1962
1962
1963
1963
1964
1964
1964
1964
1964
1964
1964
1964
1964
1965
1966
1966
1967
1967
1966
1966
1966
1966
1967
1967
1967
1967
1968
1968
1968
1968
1968
1968
1969
1969
1969
1970
1970
1970
1970
1970
1970
1970
1970
1971
1971
1972
1972
1971
1971
1971
1971
1972
1972
1973
1973
1973
1973
1972
1972
1972
1973
1974
1975
1976
1975
1975
1974
1973
1973
1973
1974
1974
1975
1977
1979
1982
1986
1988
1989
1988
1986
1984
1983
1981
1980
1978
1976
1975
1974
1974
1974
1975
1976
1977
1978
1978
1979
1978
1976
1972
1966
1962
1971
2001
2048
2098
2124
2106
2046
1965
1896
1863
1871
1905
1943
1971
1987
1992
1992
1990
1989
1989
1990
1992
1994
1995
1996
1996
1996
1996
1997
1998
1999
2000
2000
2001
2001
2002
2002
2003
2004
2005
2006
2008
2010
2011
2012
2013
2013
2015
2016
2018
2021
2023
2026
2028
2031
2034
2036
2038
2041
2044
2048
2052
2056
2060
2063
2066
2067
2068
2069
2070
2069
2067
2062
2054
2044
2033
2021
2010
2000
1991
1984
1978
1973
1970
1968
1965
1964
1962
1961
1960
1958
1957
1956
1954
1953
1953
1953
1954
1955
1956
1958
1959
1959
1959
1959
1958
1958
1958
1958
1958
1959
1959
1960
1960
1961
1961
1961
1961
1960
1960
1961
1961
1961
1960
1959
1958
1957
1956
1956
1956
1956
1957
1958
1958
1958
1958
1957
1956
1956
1956
1956
1956
1956
1956
1956
1956
1956
1956
1956
1955
1956
1956
1957
1957
1957
1956
1955
1954
1954
1954
1954
1955
1955
1955
1955
1954
1953
1952
1952
1952
1952
1952
1951
1951
1951
1952
1952
1952
1953
1954
1956
1959
1962
1965
1965
1963
1961
1958
1956
1954
1953
1951
1950
1950
1950
1949
1947
1944
1942
1943
1946
1950
1953
1953
1950
1942
1933
1926
1933
1961
2009
2059
2088
2074
2017
1936
1863
1824
1826
1856
1895
1927
1946
1954
1955
1953
1949
1946
1945
1946
1947
1948
1949
1949
1948
1947
1947
1947
1948
1950
1951
1951
1951
1951
1950
1950
1951
1950
1950
1949
1950
1950
1951
1952
1953
1953
1954
1954
1953
1953
1954
1958
1962
1968
1972
1975
1977
1979
1982
1985
1989
1993
1997
2001
2004
2005
2005
2003
2000
1996
1989
1981
1970
1959
1948
1938
1928
1920
1913
1908
1904
1902
1900
1898
1896
1894
1894
1894
1895
1895
1896
1896
1895
1895
1895
1895
1896
1898
1899
1899
1899
1899
1901
1903
1905
1906
1905
1904
1904
1905
1907
1908
1909
1910
1912
1913
1914
1913
1912
1911
1911
1913
1915
1917
1918
1917
1917
1916
1917
1917
1918
1919
1919
1919
1918
1917
1918
1920
1923
1925
1925
1925
1924
1924
1926
1927
1929
1930
1930
1931
1930
1930
1929
1929
1930
1931
1933
1934
1935
1935
1933
1932
1932
1934
1936
1938
1940
1941
1941
1941
1940
1939
1939
1938
1938
1939
1940
1942
1944
1946
1949
1953
1956
1958
1959
1957
1955
1953
1953
1954
1956
1956
1955
1953
1951
1950
1950
1951
1951
1949
1947
1945
1946
1947
1949
1949
1944
1934
1928
1937
1971
2025
2076
2098
2071
2002
1917
1853
1831
1849
1887
1923
1945
1955
1957
1956
1955
1955
1957
1959
1962
1964
1964
1964
1964
1965
1966
1967
1968
1969
1969
1971
1973
1974
1975
1975
1974
1973
1972
1972
1973
1975
1978
1981
1984
1986
1987
1988
1989
1991
1993
1996
1998
2001
2005
2008
2012
2015
2019
2022
2026
2030
2035
2041
2048
2052
2054
2054
2050
2044
2037
2030
2022
2014
2005
1995
1985
1975
1967
1960
1953
1948
1944
1940
1937
1935
1933
1933
1935
1937
1938
1938
1938
1938
1938
1938
1938
1938
1939
1941
1944
1945
1944
1942
1941
1942
1946
1951
1953
1953
1951
1950
1951
1953
1954
1954
1951
1947
1945
1946
1951
1955
1957
1956
1955
1955
1958
1961
1962
1959
1956
1955
1957
1959
1961
1959
1957
1955
1956
1959
1963
1965
1964
1962
1960
1957
1955
1954
1954
1955
1957
1957
1957
1956
1956
1957
1960
1962
1961
1960
1957
1955
1953
1952
1951
1950
1951
1954
1956
1957
1956
1956
1957
1960
1965
1968
1968
1965
1959
1954
1950
1948
1949
1952
1954
1953
1950
1947
1944
1944
1945
1946
1947
1946
1945
1943
1938
1930
1927
1940
1976
2029
2075
2088
2054
1982
1901
1844
1827
1847
1885
1921
1944
1953
1954
1951
1949
1948
1948
1949
1948
1947
1947
1949
1954
1958
1961
1961
1958
1955
1953
1953
1956
1960
1963
1965
1965
1965
1966
1968
1969
1968
1966
1965
1966
1969
1974
1978
1981
1982
1982
1983
1986
1991
1996
1999
1999
1999
2001
2007
2015
2023
2029
2032
2033
2034
2034
2033
2030
2025
2018
2009
1998
1986
1974
1962
1951
1942
1935
1931
1928
1927
1926
1925
1924
1922
1919
1916
1915
1914
1914
1914
1914
1916
1919
1922
1924
1924
1925
1925
1925
1926
1927
1928
1929
1930
1932
1932
1932
1932
1932
1933
1934
1935
1937
1937
1935
1933
1931
1931
1933
1936
1940
1942
1943
1941
1939
1937
1937
1938
1939
1940
1940
1940
1941
1942
1942
1942
1940
1939
1941
1944
1948
1950
1951
1949
1948
1946
1945
1945
1946
1948
1950
1952
1953
1953
1952
1950
1949
1948
1948
1950
1953
1957
1959
1958
1956
1953
1952
1952
1955
1958
1960
1959
1956
1953
1950
1948
1949
1952
1957
1962
1967
1970
1971
1970
1968
1966
1965
1965
1965
1964
1962
1960
1958
1956
1955
1953
1953
1953
1955
1956
1958
1959
1960
1960
1959
1954
1946
1942
1955
1991
2042
2087
2101
2069
2001
1923
1868
1853
1875
1914
1947
1966
1971
1968
1963
1961
1961
1964
1966
1968
1969
1969
1969
1969
1969
1970
1971
1971
1971
1970
1970
1970
1971
1972
1973
1974
1975
1976
1977
1979
1981
1982
1983
1982
1982
1981
1982
1983
1985
1988
1991
1993
1995
1996
1996
1996
1997
1999
2002
2006
2011
2014
2017
2020
2021
2020
2019
2017
2015
2012
2007
2000
1990
1978
1966
1956
1947
1941
1934
1928
1924
1921
1921
1924
1926
1926
1923
1920
1917
1917
1919
1922
1925
1926
1925
1925
1924
1924
1924
1925
1927
1929
1930
1930
1929
1927
1926
1927
1929
1931
1933
1933
1934
1934
1934
1934
1934
1934
1934
1935
1935
1935
1935
1934
1935
1937
1939
1940
1940
1938
1937
1936
1937
1938
1939
1938
1937
1936
1937
1939
1941
1941
1939
1935
1932
1929
1930
1932
1934
1934
1932
1930
1928
1926
1926
1927
1929
1931
1932
1930
1927
1925
1926
1929
1933
1934
1931
1927
1924
1924
1927
1930
1931
1929
1925
1922
1920
1919
1921
1923
1924
1923
1921
1920
1919
1920
1921
1921
1921
1920
1920
1920
1922
1923
1923
1920
1917
1913
1911
1912
1916
1921
1925
1926
1925
1926
1928
1934
1939
1940
1936
1930
1926
1926
1930
1933
1934
1931
1927
1923
1922
1924
1928
1930
1931
1930
1928
1927
1927
1929
1929
1926
1923
1927
1950
1992
2041
2073
2068
2021
1947
1878
1840
1842
1875
1915
1944
1958
1960
1957
1957
1958
1960
1960
1958
1955
1955
1958
1961
1963
1963
1964
1966
1969
1971
1970
1966
1963
1964
1969
1977
1984
1987
1988
1986
1985
1985
1985
1985
1987
1989
1994
1998
2000
2000
1998
1997
1999
2003
2009
2015
2019
2021
2021
2021
2022
2024
2027
2030
2032
2034
2036
2038
2038
2036
2031
2023
2014
2004
1994
1984
1974
1965
1957
1950
1944
1938
1933
1928
1925
1924
1923
1922
1918
1914
1911
1910
1911
1913
1915
1916
1916
1915
1914
1915
1916
1919
1922
1924
1924
1922
1920
1919
1918
1918
1917
1915
1913
1909
1905
1899
1895
1892
1891
1893
1895
1898
1900
1902
1904
1905
1904
1900
1898
1899
1903
1910
1915
1917
1916
1913
1910
1908
1907
1908
1910
1914
1916
1916
1915
1914
1915
1917
1920
1922
1922
1921
1920
1919
1920
1922
1924
1926
1926
1926
1924
1923
1922
1921
1921
1923
1926
1929
1931
1931
1930
1929
1928
1929
1931
1932
1932
1933
1933
1934
1935
1936
1938
1941
1943
1944
1945
1945
1944
1943
1943
1943
1946
1949
1953
1954
1952
1950
1950
1953
1958
1962
1963
1961
1958
1956
1958
1964
1971
1977
1982
1983
1982
1980
1980
1980
1981
1980
1977
1974
1971
1970
1971
1973
1975
1976
1975
1975
1975
1976
1977
1978
1977
1974
1968
1962
1965
1988
2030
2079
2114
2112
2066
1995
1926
1886
1885
1912
1947
1976
1992
1998
1999
1999
2000
2000
2000
2001
2003
2005
2007
2010
2012
2014
2015
2016
2017
2017
2017
2018
2020
2022
2025
2027
2029
2029
2030
2031
2032
2033
2035
2038
2040
2043
2044
2046
2047
2048
2049
2051
2053
2056
2060
2065
2070
2074
2078
2082
2086
2089
2093
2095
2097
2100
2104
2108
2110
2109
2104
2096
2087
2077
2067
2057
2050
2045
2040
2035
2029
2023
2018
2015
2015
2015
2016
2015
2014
2013
2013
2015
2018
2021
2023
2024
2025
2027
2030
2032
2033
2032
2030
2030
2030
2032
2035
2036
2036
2035
2034
2032
2031
2031
2031
2032
2034
2035
2035
2034
2033
2031
2030
2030
2030
2029
2029
2029
2028
2027
2026
2025
2025
2024
2024
2024
2024
2026
2027
2029
2029
2029
2027
2025
2025
2025
2027
2028
2028
2028
2028
2028
2028
2029
2030
2031
2031
2032
2031
2031
2031
2031
2032
2032
2033
2032
2032
2032
2032
2033
2033
2033
2031
2031
2032
2035
2038
2039
2040
2040
2040
2042
2044
2046
2048
2048
2048
2048
2048
2049
2049
2048
2047
2045
2044
2043
2044
2045
2047
2048
2048
2049
2049
2050
2052
2052
2050
2045
2037
2040
2062
2108
2163
2198
2189
2131
2047
1968
1926
1927
1960
2002
2035
2054
2064
2069
2071
2071
2071
2071
2072
2072
2073
2074
2075
2076
2078
2079
2080
2080
2080
2080
2080
2080
2082
2084
2085
2086
2086
2086
2086
2087
2088
2089
2090
2090
2091
2092
2094
2096
2098
2099
2101
2102
2104
2108
2112
2116
2120
2124
2127
2130
2133
2136
2139
2142
2145
2147
2147
2144
2138
2129
2118
2105
2091
2079
2067
2057
2048
2042
2035
2029
2024
2020
2018
2017
2016
2015
2014
2012
2011
2010
2009
2008
2007
2007
2007
2008
2008
2009
2008
2008
2007
2007
2006
2006
2007
2007
2008
2008
2007
2006
2005
2005
2005
2006
2006
2007
2006
2006
2005
2003
2003
2002
2002
2002
2003
2003
2003
2003
2002
2000
1998
1997
1997
1998
1999
1999
1999
1999
1998
1997
1995
1995
1994
1994
1995
1995
1994
1993
1991
1989
1988
1988
1989
1991
1993
1996
1999
2001
2002
2002
2000
1998
1996
1995
1995
1994
1992
1989
1987
1985
1984
1984
1984
1984
1984
1984
1984
1984
1983
1982
1979
1972
1965
1969
1994
2041
2094
2127
2116
2056
1971
1893
1852
1856
1890
1931
1962
1980
1988
1990
1989
1988
1987
1987
1988
1989
1990
1990
1990
1990
1990
1990
1991
1992
1993
1994
1994
1995
1996
1996
1997
1998
1999
2000
2002
2003
2005
2006
2007
2008
2009
2011
2013
2016
2018
2020
2023
2026
2029
2032
2035
2038
2043
2047
2051
2055
2059
2062
2065
2067
2069
2069
2067
2063
2057
2048
2037
2025
2012
1999
1989
1980
1973
1967
1963
1960
1958
1955
1953
1952
1950
1950
1949
1949
1950
1950
1950
1949
1949
1948
1947
1947
1947
1948
1949
1950
1950
1951
1951
1950
1950
1951
1951
1952
1953
1953
1954
1954
1954
1954
1953
1953
1954
1954
1955
1955
1955
1955
1954
1954
1953
1953
1954
1954
1954
1954
1954
1954
1954
1954
1953
1953
1953
1954
1954
1954
1954
1954
1953
1953
1953
1953
1953
1953
1954
1954
1953
1952
1951
1950
1951
1952
1954
1957
1960
1964
1966
1967
1966
1965
1963
1962
1961
1961
1961
1959
1957
1956
1955
1954
1954
1953
1953
1953
1954
1955
1956
1956
1954
1950
1943
1939
1950
1983
2034
2083
2106
2084
2021
1941
1875
1847
1858
1892
1928
1955
1968
1971
1970
1967
1965
1964
1965
1967
1968
1970
1971
1972
1972
1972
1972
1973
1973
1974
1975
1977
1979
1980
1980
1981
1981
1981
1983
1984
1986
1988
1989
1990
1991
1992
1994
1995
1998
2000
2003
2006
2009
2012
2015
2018
2022
2025
2029
2033
2037
2040
2043
2046
2048
2048
2048
2047
2044
2038
2030
2019
2008
1997
1986
1977
1969
1962
1956
1953
1950
1948
1947
1945
1944
1944
1943
1943
1944
1944
1945
1945
1945
1946
1945
1945
1945
1946
1946
1946
1948
1949
1950
1950
1950
1950
1950
1950
1951
1952
1953
1953
1954
1954
1954
1954
1953
1954
1954
1955
1956
1957
1958
1958
1957
1957
1957
1957
1957
1957
1958
1958
1959
1959
1959
1959
1959
1959
1959
1959
1960
1960
1961
1962
1962
1962
1961
1961
1961
1962
1963
1964
1965
1964
1964
1962
1960
1960
1960
1961
1964
1967
1970
1973
1975
1976
1976
1975
1974
1973
1972
1972
1972
1970
1968
1966
1965
1964
1964
1965
1965
1965
1966
1966
1966
1966
1966
1965
1961
1956
1953
1964
1995
2043
2091
2115
2098
2039
1961
1896
1865
1874
1906
1943
1969
1983
1985
1983
1981
1979
1980
1981
1983
1984
1985
1985
1985
1985
1985
1986
1987
1989
1990
1990
1991
1991
1992
1992
1994
1995
1996
1998
1999
2000
2001
2002
2003
2005
2007
2009
2011
2013
2015
2016
2018
2019
2021
2024
2026
2029
2032
2035
2038
2041
2044
2046
2048
2050
2052
2052
2051
2048
2043
2036
2026
2016
2005
1995
1987
1979
1973
1968
1964
1961
1958
1955
1953
1952
1952
1952
1952
1952
1953
1953
1953
1953
1953
1953
1954
1954
1955
1956
1957
1957
1957
1957
1957
1957
1957
1957
1958
1958
1959
1959
1959
1959
1959
1959
1959
1960
1960
1961
1961
1962
1962
1961
1961
1961
1961
1961
1961
1961
1961
1961
1961
1960
1960
1960
1960
1961
1962
1963
1963
1963
1963
1963
1963
1962
1963
1964
1965
1966
1967
1967
1967
1967
1968
1968
1968
1969
1969
1970
1970
1970
1969
1969
1969
1970
1970
1971
1972
1972
1972
1970
1969
1968
1968
1969
1972
1976
1979
1982
1984
1984
1983
1981
1979
1978
1977
1977
1975
1974
1972
1971
1971
1971
1970
1970
1970
1970
1971
1972
1973
1973
1971
1967
1961
1956
1962
1987
2032
2080
2111
2102
2051
1976
1907
1869
1870
1899
1937
1967
1983
1988
1987
1984
1981
1980
1981
1982
1984
1986
1987
1987
1988
1988
1989
1989
1990
1991
1992
1994
1995
1995
1996
1995
1996
1996
1998
2000
2002
2004
2005
2006
2007
2008
2010
2012
2014
2016
2018
2021
2023
2025
2028
2031
2034
2037
2041
2045
2048
2052
2055
2057
2059
2060
2060
2060
2058
2055
2050
2044
2035
2024
2014
2003
1994
1986
1980
1975
1972
1970
1968
1966
1964
1962
1961
1961
1961
1961
1962
1963
1964
1965
1965
1964
1964
1964
1965
1966
1967
1968
1968
1968
1967
1967
1966
1967
1967
1968
1969
1970
1970
1970
1969
1969
1969
1969
1969
1970
1970
1971
1971
1971
1970
1970
1970
1970
1970
1970
1971
1972
1972
1973
1973
1972
1972
1971
1971
1972
1973
1974
1975
1975
1974
1974
1973
1973
1974
1975
1977
1978
1978
1978
1977
1976
1976
1977
1978
1979
1979
1980
1980
1980
1979
1978
1978
1978
1979
1980
1980
1980
1981
1980
1980
1980
1980
1980
1981
1981
1982
1982
1981
1981
1981
1980
1981
1983
1985
1989
1993
1995
1996
1995
1994
1993
1993
1993
1992
1990
1988
1987
1986
1986
1986
1986
1986
1986
1985
1986
1987
1988
1988
1987
1983
1976
1973
1984
2017
2067
2115
2133
2104
2036
1953
1889
1866
1881
1918
1956
1981
1995
2000
2001
2000
1999
1998
1998
1999
2000
2001
2003
2004
2004
2005
2005
2005
2006
2007
2008
2009
2010
2010
2010
2011
2012
2014
2015
2016
2017
2019
2020
2021
2022
2023
2025
2027
2029
2031
2033
2036
2039
2042
2046
2049
2052
2055
2058
2062
2066
2070
2075
2078
2081
2083
2084
2084
2081
2077
2069
2060
2050
2039
2028
2017
2006
1998
1991
1985
1981
1978
1975
1972
1971
1970
1970
1970
1970
1969
1969
1968
1968
1969
1971
1972
1972
1971
1971
1971
1972
1973
1975
1975
1975
1974
1973
1973
1974
1974
1975
1976
1977
1977
1977
1976
1975
1974
1973
1973
1974
1974
1975
1975
1976
1975
1974
1973
1972
1971
1972
1973
1973
1974
1974
1974
1974
1974
1974
1974
1974
1974
1974
1974
1974
1974
1974
1973
1974
1974
1975
1976
1977
1977
1976
1975
1975
1975
1975
1975
1975
1975
1974
1973
1973
1972
1972
1974
1976
1979
1983
1986
1988
1988
1987
1985
1983
1981
1979
1978
1977
1977
1976
1976
1975
1974
1973
1972
1972
1973
1974
1975
1976
1975
1974
1970
1963
1962
1978
2016
2068
2113
2122
2081
2004
1919
1861
1847
1871
1912
1949
1973
1985
1988
1988
1987
1986
1985
1986
1987
1988
1990
1990
1990
1991
1991
1991
1992
1994
1995
1996
1997
1998
1999
2000
2000
2001
2002
2003
2004
2006
2009
2011
2013
2015
2016
2017
2018
2020
2022
2025
2029
2032
2035
2038
2041
2045
2049
2053
2057
2060
2064
2068
2071
2074
2075
2074
2072
2067
2059
2050
2040
2028
2016
2005
1995
1986
1979
1973
1969
1966
1964
1963
1962
1961
1960
1958
1957
1956
1956
1957
1958
1959
1960
1961
1961
1961
1961
1961
1961
1962
1963
1965
1966
1966
1966
1966
1966
1966
1966
1966
1967
1968
1969
1970
1969
1968
1967
1967
1967
1968
1969
1969
1969
1969
1969
1968
1968
1967
1967
1967
1968
1968
1969
1969
1968
1968
1967
1967
1968
1969
1970
1971
1972
1972
1972
1971
1970
1969
1969
1969
1970
1971
1972
1973
1973
1974
1974
1973
1973
1973
1973
1974
1974
1974
1973
1972
1972
1972
1972
1973
1974
1976
1979
1983
1985
1985
1984
1981
1980
1978
1979
1979
1978
1977
1975
1974
1974
1974
1975
1975
1975
1975
1975
1976
1977
1977
1975
1970
1963
1959
1971
2006
2059
2113
2138
2114
2046
1959
1890
1860
1872
1909
1948
1975
1989
1992
1992
1990
1989
1989
1991
1992
1994
1995
1995
1995
1995
1996
1997
1999
2001
2002
2002
2003
2003
2003
2003
2004
2005
2007
2008
2010
2012
2014
2015
2017
2018
2019
2021
2023
2026
2028
2031
2035
2039
2044
2048
2051
2055
2060
2065
2070
2075
2079
2082
2085
2087
2090
2091
2091
2088
2082
2072
2059
2046
2033
2020
2009
2000
1993
1988
1984
1980
1976
1972
1969
1967
1966
1966
1965
1965
1964
1965
1966
1967
1967
1967
1967
1967
1968
1969
1969
1970
1969
1969
1969
1970
1971
1972
1972
1972
1972
1972
1971
1971
1971
1970
1970
1971
1971
1972
1973
1973
1973
1972
1971
1970
1970
1970
1970
1971
1971
1971
1970
1969
1968
1968
1968
1968
1969
1969
1970
1970
1970
1970
1970
1970
1970
1971
1971
1970
1969
1967
1966
1965
1966
1968
1970
1974
1977
1980
1982
1983
1981
1979
1978
1976
1976
1975
1974
1972
1970
1970
1970
1970
1970
1970
1970
1969
1970
1971
1972
1972
1970
1965
1958
1960
1981
2025
2079
2120
2121
2072
1992
1911
1861
1856
1885
1926
1960
1979
1987
1988
1986
1984
1982
1981
1981
1982
1984
1986
1988
1989
1989
1990
1990
1990
1991
1991
1992
1994
1995
1997
1998
1999
1999
1999
1999
2000
2002
2004
2007
2009
2010
2012
2014
2016
2019
2021
2025
2028
2032
2036
2039
2043
2046
2049
2053
2057
2062
2066
2070
2072
2073
2073
2070
2066
2058
2048
2037
2025
2013
2002
1992
1983
1976
1969
1964
1961
1959
1957
1957
1956
1956
1955
1955
1955
1955
1954
1954
1955
1956
1957
1958
1959
1959
1959
1959
1959
1960
1961
1961
1962
1962
1962
1962
1962
1962
1962
1963
1964
1965
1965
1965
1965
1965
1964
1964
1965
1965
1966
1967
1967
1967
1966
1965
1965
1965
1966
1967
1967
1967
1967
1966
1965
1965
1965
1966
1967
1968
1968
1969
1969
1969
1969
1969
1969
1969
1969
1969
1970
1970
1970
1970
1970
1969
1969
1969
1970
1970
1970
1971
1971
1971
1971
1971
1970
1970
1968
1967
1967
1967
1968
1970
1972
1974
1976
1979
1980
1981
1981
1980
1979
1978
1977
1975
1973
1971
1969
1969
1969
1970
1970
1970
1969
1969
1969
1970
1971
1972
1970
1966
1959
1955
1967
1999
2048
2097
2118
2094
2031
1952
1891
1868
1882
1916
1951
1974
1983
1984
1983
1981
1980
1980
1980
1980
1980
1981
1982
1984
1985
1986
1987
1987
1987
1987
1987
1988
1989
1990
1991
1992
1993
1994
1995
1995
1996
1996
1998
1999
2002
2004
2006
2008
2009
2010
2011
2013
2015
2018
2022
2025
2029
2033
2036
2039
2043
2046
2048
2050
2053
2055
2056
2055
2052
2047
2039
2029
2019
2008
1998
1989
1981
1973
1967
1963
1959
1956
1954
1953
1952
1952
1952
1951
1951
1951
1951
1951
1951
1952
1953
1953
1954
1954
1954
1954
1953
1953
1953
1954
1955
1955
1956
1955
1955
1954
1954
1954
1955
1955
1956
1956
1956
1956
1956
1955
1955
1955
1955
1955
1956
1956
1956
1955
1954
1953
1953
1952
1952
1953
1953
1954
1954
1954
1953
1953
1952
1952
1952
1952
1953
1953
1953
1953
1952
1952
1951
1951
1951
1951
1952
1952
1952
1952
1950
1949
1948
1946
1945
1945
1945
1945
1945
1944
1943
1942
1941
1941
1940
1940
1940
1939
1939
1938
1938
1937
1937
1937
1937
1937
1938
1938
1939
1939
1939
1940
1940
1941
1941
1943
1944
1944
1945
1945
1945
1944
1943
1942
1942
1943
1944
1946
1948
1951
1953
1956
1958
1959
1959
1959
1959
1959
1959
1958
1956
1954
1952
1951
1951
1951
1952
1952
1952
1952
1952
1952
1952
1952
1951
1949
1944
1940
1945
1967
2009
2058
2093
2091
2048
1979
1911
1870
1867
1892
1926
1953
1967
1971
1969
1966
1965
1965
1966
1967
1968
1968
1969
1969
1970
1971
1972
1973
1974
1975
1975
1975
1976
1976
1978
1979
1981
1983
1984
1985
1986
1987
1988
1989
1991
1993
1995
1997
1999
2001
2003
2005
2007
2009
2012
2015
2018
2022
2026
2029
2031
2034
2036
2038
2040
2043
2045
2046
2046
2044
2039
2032
2023
2014
2004
1994
1985
1977
1971
1965
1959
1955
1952
1949
1948
1947
1947
1947
1947
1948
1948
1948
1948
1948
1949
1950
1950
1951
1952
1953
1953
1953
1953
1952
1952
1953
1953
1954
1954
1954
1954
1953
1953
1953
1953
1953
1954
1955
1955
1955
1955
1954
1954
1954
1954
1954
1954
1954
1955
1955
1955
1955
1954
1954
1955
1955
1956
1957
1957
1957
1957
1956
1956
1956
1956
1957
1957
1958
1959
1959
1959
1959
1959
1959
1959
1960
1960
1961
1961
1962
1962
1962
1962
1962
1962
1962
1963
1963
1964
1964
1964
1964
1964
1964
1964
1964
1965
1965
1966
1966
1966
1965
1965
1965
1965
1965
1966
1966
1966
1966
1966
1966
1966
1966
1967
1967
1968
1969
1969
1969
1969
1969
1969
1969
1969
1969
1970
1970
1970
1970
1970
1970
1970
1970
1970
1970
1971
1971
1971
1971
1970
1969
1969
1968
1969
1970
1972
1975
1978
1980
1982
1982
1981
1980
1978
1978
1978
1977
1976
1975
1973
1971
1970
1970
1971
1972
1972
1973
1973
1973
1973
1972
1970
1966
1961
1958
1968
1998
2045
2091
2114
2096
2041
1968
1907
1879
1887
1918
1952
1976
1987
1988
1986
1983
1981
1981
1982
1983
1984
1985
1985
1984
1984
1985
1986
1987
1988
1990
1990
1991
1991
1992
1992
1993
1994
1995
1997
1998
2000
2001
2002
2003
2004
2005
2006
2008
2010
2013
2015
2017
2019
2020
2022
2024
2026
2030
2034
2038
2042
2045
2047
2048
2050
2052
2053
2055
2055
2053
2049
2043
2035
2025
2015
2005
1996
1989
1982
1977
1972
1968
1965
1962
1960
1959
1958
1958
1958
1958
1959
1959
1959
1959
1958
1958
1958
1959
1960
1961
1962
1962
1962
1962
1961
1961
1962
1963
1964
1965
1965
1965
1965
1965
1964
1963
1963
1963
1964
1964
1965
1965
1964
1964
1963
1963
1963
1963
1964
1964
1963
1963
1962
1962
1962
1962
1962
1962
1963
1964
1964
1964
1963
1962
1962
1962
1962
1963
1964
1965
1965
1965
1965
1964
1964
1964
1965
1966
1966
1967
1967
1967
1966
1966
1966
1966
1966
1967
1967
1968
1968
1968
1968
1967
1966
1966
1966
1967
1967
1968
1968
1968
1967
1967
1967
1967
1967
1968
1968
1969
1969
1969
1969
1969
1969
1969
1969
1969
1970
1970
1970
1970
1970
1970
1970
1970
1970
1971
1971
1971
1970
1970
1970
1970
1970
1969
1968
1968
1967
1967
1967
1968
1969
1970
1973
1975
1978
1980
1981
1980
1979
1978
1976
1975
1973
1971
1970
1969
1969
1970
1970
1969
1969
1968
1967
1968
1969
1970
1970
1968
1962
1957
1959
1979
2018
2066
2102
2104
2063
1995
1924
1880
1872
1895
1930
1959
1977
1984
1984
1982
1980
1979
1979
1979
1979
1979
1980
1981
1983
1984
1985
1985
1985
1985
1985
1986
1987
1988
1989
1991
1992
1992
1993
1994
1994
1995
1997
1998
2000
2002
2004
2006
2007
2008
2009
2010
2012
2015
2018
2022
2025
2028
2031
2034
2036
2039
2042
2045
2048
2050
2052
2053
2053
2051
2048
2042
2034
2026
2016
2006
1997
1988
1980
1973
1967
1963
1960
1957
1956
1954
1954
1953
1952
1951
1951
1951
1951
1952
1953
1954
1955
1956
1956
1956
1955
1956
1956
1957
1957
1958
1959
1959
1958
1958
1958
1958
1958
1959
1959
1960
1960
1960
1960
1959
1959
1959
1959
1960
1961
1961
1961
1961
1960
1960
1959
1959
1959
1960
1960
1961
1961
1961
1960
1960
1960
1959
1960
1960
1961
1962
1962
1962
1962
1962
1961
1961
1962
1962
1963
1964
1964
1964
1964
1964
1964
1964
1964
1965
1965
1966
1966
1966
1965
1965
1964
1964
1964
1965
1966
1966
1966
1966
1965
1965
1965
1965
1965
1966
1966
1967
1967
1966
1966
1965
1965
1965
1966
1966
1967
1967
1968
1968
1968
1967
1967
1966
1966
1967
1967
1968
1968
1968
1968
1968
1968
1968
1968
1968
1967
1967
1967
1968
1968
1969
1971
1973
1976
1979
1981
1981
1980
1979
1977
1975
1974
1972
1971
1970
1969
1969
1969
1969
1968
1967
1966
1967
1968
1969
1970
1970
1966
1960
1956
1964
1990
2035
2081
2107
2094
2042
1968
1904
1871
1875
1904
1939
1966
1981
1986
1985
1983
1981
1980
1979
1979
1980
1981
1982
1983
1985
1985
1986
1986
1986
1986
1987
1988
1989
1990
1991
1992
1993
1994
1994
1995
1996
1997
1998
2000
2002
2004
2006
2007
2008
2009
2010
2012
2015
2018
2021
2025
2028
2031
2033
2036
2039
2042
2045
2048
2050
2053
2055
2055
2054
2051
2048
2041
2033
2024
2014
2004
1995
1986
1978
1971
1966
1962
1959
1958
1956
1955
1954
1953
1952
1952
1952
1952
1952
1953
1954
1955
1955
1955
1955
1955
1955
1956
1956
1957
1958
1958
1958
1958
1958
1957
1957
1958
1958
1959
1959
1960
1960
1960
1959
1959
1959
1959
1959
1959
1960
1960
1960
1959
1959
1958
1958
1958
1958
1959
1959
1959
1959
1959
1958
1958
1958
1958
1959
1959
1960
1960
1960
1960
1960
1959
1959
1960
1960
1961
1961
1962
1962
1961
1961
1961
1961
1961
1962
1962
1963
1963
1963
1963
1963
1962
1963
1963
1964
1965
1965
1965
1965
1965
1964
1964
1964
1965
1965
1966
1966
1967
1967
1966
1966
1965
1965
1965
1966
1966
1967
1967
1967
1967
1966
1966
1966
1966
1966
1967
1967
1967
1967
1967
1967
1966
1966
1967
1967
1967
1967
1967
1966
1966
1965
1965
1966
1969
1972
1975
1978
1979
1979
1978
1976
1974
1972
1971
1970
1969
1968
1967
1966
1965
1964
1964
1964
1964
1965
1966
1967
1968
1966
1963
1956
1952
1961
1989
2035
2082
2107
2091
2036
1961
1896
1864
1870
1900
1937
1964
1979
1983
1981
1978
1976
1975
1975
1976
1977
1979
1980
1981
1981
1981
1981
1981
1982
1982
1984
1985
1986
1987
1988
1988
1989
1989
1990
1991
1993
1994
1996
1998
1999
2000
2001
2002
2003
2005
2007
2010
2013
2015
2018
2020
2022
2025
2028
2031
2034
2038
2041
2044
2047
2048
2048
2049
2048
2047
2044
2038
2030
2021
2011
2000
1989
1980
1972
1966
1961
1957
1955
1953
1951
1949
1948
1947
1946
1946
1946
1947
1948
1948
1949
1949
1949
1949
1949
1950
1951
1952
1953
1953
1953
1953
1953
1953
1953
1954
1954
1955
1955
1956
1956
1956
1956
1956
1955
1955
1956
1956
1957
1957
1957
1957
1957
1956
1956
1956
1957
1957
1958
1958
1957
1957
1956
1956
1956
1956
1957
1957
1958
1958
1958
1958
1958
1958
1958
1958
1959
1959
1960
1960
1960
1960
1960
1960
1960
1960
1961
1961
1962
1962
1962
1962
1962
1961
1961
1961
1962
1963
1963
1964
1964
1964
1963
1963
1963
1963
1963
1964
1964
1964
1964
1964
1964
1963
1963
1963
1964
1964
1965
1965
1965
1965
1965
1964
1964
1964
1964
1965
1966
1966
1965
1965
1964
1963
1962
1962
1963
1965
1967
1969
1971
1973
1975
1976
1976
1976
1975
1974
1973
1973
1971
1969
1967
1965
1964
1965
1965
1966
1966
1966
1966
1966
1966
1966
1965
1963
1958
1954
1959
1982
2024
2071
2103
2098
2051
1979
1910
1868
1866
1892
1928
1958
1976
1982
1982
1980
1978
1978
1979
1980
1980
1980
1980
1980
1980
1981
1982
1984
1985
1986
1986
1986
1986
1987
1988
1989
1990
1991
1993
1994
1995
1996
1997
1998
1999
2001
2003
2005
2007
2009
2011
2013
2014
2016
2018
2022
2025
2029
2033
2037
2040
2042
2045
2047
2048
2050
2052
2054
2055
2054
2050
2045
2036
2026
2015
2005
1996
1988
1980
1974
1968
1964
1960
1957
1955
1954
1953
1952
1952
1952
1952
1952
1952
1952
1952
1952
1953
1954
1955
1956
1956
1957
1956
1956
1956
1957
1958
1959
1960
1961
1961
1960
1960
1960
1960
1960
1960
1961
1962
1962
1962
1961
1961
1961
1960
1961
1961
1961
1962
1962
1961
1961
1961
1961
1961
1961
1962
1963
1963
1964
1964
1963
1963
1962
1962
1962
1963
1963
1964
1965
1965
1965
1965
1964
1964
1964
1965
1965
1966
1966
1966
1966
1966
1966
1966
1966
1967
1967
1968
1969
1969
1969
1968
1968
1968
1968
1969
1970
1970
1970
1970
1970
1969
1969
1969
1970
1971
1971
1972
1972
1972
1972
1972
1972
1971
1972
1972
1972
1973
1973
1973
1973
1973
1973
1973
1972
1972
1972
1972
1973
1973
1974
1975
1977
1980
1983
1985
1986
1985
1984
1982
1980
1979
1977
1975
1973
1972
1972
1973
1973
1973
1973
1972
1972
1972
1973
1973
1972
1969
1963
1962
1976
2010
2056
2098
2111
2082
2018
1943
1887
1868
1883
1917
1951
1974
1986
1988
1987
1985
1984
1984
1984
1984
1984
1985
1985
1986
1987
1988
1989
1990
1990
1990
1989
1989
1990
1992
1993
1995
1997
1998
1999
1999
2000
2001
2002
2004
2006
2009
2011
2012
2013
2014
2016
2018
2020
2023
2026
2030
2033
2037
2040
2042
2045
2048
2050
2054
2057
2059
2061
2061
2060
2057
2051
2045
2036
2026
2016
2006
1997
1989
1981
1975
1970
1966
1963
1961
1960
1959
1958
1958
1957
1957
1956
1956
1956
1957
1958
1959
1960
1961
1962
1962
1962
1963
1963
1963
1963
1964
1965
1965
1965
1965
1965
1965
1965
1966
1967
1968
1968
1968
1968
1967
1967
1966
1966
1966
1966
1967
1968
1968
1968
1968
1967
1967
1967
1968
1969
1970
1970
1969
1969
1969
1970
1971
1971
1972
1972
1972
1972
1972
1972
1972
1972
1971
1971
1971
1972
1973
1974
1974
1974
1973
1973
1972
1972
1972
1973
1974
1974
1974
1974
1974
1974
1974
1975
1975
1976
1977
1977
1977
1977
1977
1978
1978
1978
1979
1979
1979
1979
1979
1979
1979
1979
1980
1980
1979
1979
1978
1977
1977
1977
1978
1979
1982
1985
1988
1991
1993
1993
1992
1989
1987
1985
1984
1983
1982
1981
1980
1980
1979
1979
1978
1978
1978
1979
1980
1982
1983
1982
1979
1973
1968
1975
2003
2050
2102
2129
2113
2051
1969
1897
1862
1869
1903
1942
1972
1990
1997
2000
2000
1998
1997
1996
1997
1998
1999
2001
2002
2003
2003
2003
2002
2003
2004
2006
2008
2009
2009
2009
2010
2011
2012
2013
2013
2013
2014
2016
2019
2022
2024
2024
2025
2025
2026
2028
2032
2036
2040
2044
2048
2051
2055
2058
2062
2065
2069
2073
2077
2081
2084
2086
2086
2085
2081
2075
2067
2056
2046
2034
2021
2010
2000
1990
1983
1977
1974
1971
1969
1968
1967
1965
1964
1963
1962
1962
1963
1964
1965
1965
1965
1964
1963
1963
1963
1964
1965
1966
1967
1967
1967
1967
1967
1967
1967
1967
1967
1968
1969
1969
1970
1970
1969
1968
1968
1968
1968
1969
1970
1970
1970
1969
1968
1967
1967
1967
1968
1968
1969
1969
1969
1969
1968
1968
1968
1968
1969
1970
1970
1970
1970
1970
1969
1969
1969
1969
1970
1970
1970
1971
1971
1971
1971
1971
1971
1971
1971
1972
1972
1971
1970
1969
1968
1968
1968
1968
1970
1972
1976
1979
1982
1984
1984
1981
1979
1977
1977
1976
1976
1975
1973
1971
1970
1969
1969
1970
1970
1971
1971
1972
1972
1972
1970
1967
1961
1956
1961
1985
2030
2082
2117
2110
2056
1974
1897
1853
1852
1883
1924
1957
1977
1985
1987
1986
1984
1983
1984
1985
1987
1988
1988
1988
1988
1988
1988
1989
1991
1992
1993
1994
1994
1994
1994
1995
1996
1998
1999
2000
2001
2003
2004
2005
2006
2008
2009
2010
2013
2015
2018
2022
2025
2028
2031
2034
2038
2042
2047
2050
2055
2058
2061
2064
2066
2068
2070
2070
2069
2065
2058
2048
2036
2023
2010
1998
1988
1980
1973
1968
1963
1960
1958
1956
1954
1952
1951
1951
1951
1952
1952
1952
1952
1951
1950
1950
1950
1951
1952
1953
1954
1954
1955
1955
1955
1955
1955
1955
1956
1957
1958
1958
1958
1958
1958
1958
1958
1958
1959
1959
1959
1960
1960
1960
1960
1959
1959
1960
1960
1960
1961
1961
1961
1960
1960
1959
1959
1959
1960
1961
1961
1961
1961
1961
1961
1961
1961
1961
1962
1962
1963
1963
1963
1963
1962
1962
1962
1962
1963
1964
1964
1964
1964
1964
1964
1964
1964
1964
1964
1965
1966
1966
1966
1965
1965
1964
1964
1964
1965
1965
1964
1963
1963
1963
1964
1966
1968
1971
1974
1977
1978
1977
1976
1974
1972
1971
1970
1969
1968
1967
1966
1966
1966
1966
1966
1965
1964
1964
1965
1966
1967
1965
1961
1955
1952
1965
1998
2048
2094
2113
2087
2023
1945
1884
1861
1875
1909
1944
1968
1980
1982
1981
1978
1976
1976
1976
1976
1977
1979
1980
1981
1982
1982
1982
1983
1983
1983
1984
1985
1986
1987
1987
1988
1988
1988
1989
1990
1991
1993
1994
1996
1998
1999
2000
2002
2003
2005
2007
2010
2013
2016
2019
2022
2025
2029
2032
2036
2040
2044
2047
2050
2053
2055
2056
2055
2052
2048
2042
2033
2023
2012
2001
1991
1981
1973
1965
1960
1956
1953
1951
1949
1948
1947
1946
1945
1945
1945
1945
1946
1947
1948
1948
1948
1948
1947
1947
1947
1949
1950
1951
1952
1953
1953
1953
1952
1952
1952
1953
1954
1954
1955
1956
1956
1956
1956
1956
1956
1956
1956
1957
1957
1958
1957
1957
1955
1954
1954
1954
1955
1957
1958
1958
1958
1958
1957
1957
1957
1957
1958
1958
1959
1959
1959
1959
1958
1958
1958
1958
1959
1960
1961
1962
1962
1962
1961
1961
1961
1961
1962
1963
1964
1964
1964
1964
1964
1963
1963
1964
1964
1965
1965
1965
1965
1965
1965
1964
1964
1964
1965
1966
1966
1966
1966
1966
1965
1965
1965
1965
1966
1966
1967
1967
1967
1967
1966
1966
1966
1966
1967
1967
1968
1968
1968
1968
1968
1968
1967
1968
1968
1969
1969
1969
1969
1969
1969
1968
1968
1968
1968
1967
1967
1967
1967
1968
1970
1972
1975
1977
1980
1981
1981
1980
1979
1977
1976
1974
1972
1971
1970
1970
1970
1970
1970
1970
1969
1969
1969
1969
1970
1971
1970
1966
1960
1957
1968
1998
2045
2091
2115
2098
2042
1969
1908
1879
1887
1916
1949
1972
1984
1986
1984
1981
1979
1979
1978
1979
1980
1981
1982
1983
1984
1984
1985
1985
1985
1985
1986
1986
1987
1989
1990
1991
1992
1993
1993
1994
1995
1996
1998
1999
2001
2003
2004
2005
2006
2008
2009
2012
2015
2018
2021
2024
2026
2029
2031
2035
2038
2043
2047
2049
2052
2055
2057
2057
2057
2055
2050
2045
2038
2029
2019
2009
2000
1991
1982
1975
1970
1966
1964
1962
1961
1959
1958
1957
1956
1955
1955
1956
1956
1957
1958
1958
1958
1958
1958
1958
1959
1959
1960
1961
1962
1962
1962
1962
1961
1961
1961
1961
1962
1963
1963
1964
1964
1964
1963
1962
1962
1962
1963
1964
1964
1965
1965
1964
1964
1963
1963
1963
1964
1964
1964
1964
1964
1964
1964
1963
1963
1963
1964
1964
1965
1965
1965
1965
1965
1964
1964
1964
1965
1966
1966
1966
1966
1966
1966
1966
1966
1967
1967
1968
1968
1968
1968
1968
1968
1967
1967
1967
1968
1969
1969
1970
1970
1970
1969
1968
1968
1968
1968
1969
1969
1969
1969
1969
1968
1968
1968
1969
1970
1971
1971
1971
1970
1970
1969
1969
1970
1970
1971
1971
1972
1972
1971
1971
1970
1970
1970
1970
1971
1972
1972
1973
1973
1973
1973
1973
1973
1973
1973
1974
1974
1974
1974
1974
1974
1974
1974
1975
1976
1977
1978
1978
1977
1976
1975
1974
1974
1975
1977
1979
1982
1985
1987
1988
1988
1987
1986
1985
1984
1984
1983
1982
1980
1979
1977
1976
1976
1976
1976
1977
1977
1978
1978
1979
1978
1975
1970
1964
1966
1986
2028
2080
2119
2121
2077
2004
1930
1884
1878
1903
1939
1968
1985
1992
1992
1991
1990
1989
1989
1990
1992
1993
1995
1995
1996
1996
1996
1996
1997
1999
2000
2001
2001
2000
2000
2001
2002
2004
2006
2008
2009
2009
2010
2011
2012
2013
2014
2016
2018
2021
2024
2027
2029
2031
2033
2036
2040
2045
2049
2054
2058
2062
2066
2069
2073
2076
2079
2081
2082
2081
2078
2074
2067
2057
2047
2034
2022
2010
2001
1994
1988
1983
1979
1976
1972
1969
1966
1965
1964
1964
1965
1965
1966
1966
1965
1964
1964
1963
1964
1966
1967
1968
1969
1969
1968
1968
1968
1968
1969
1970
1971
1972
1972
1972
1972
1972
1971
1971
1971
1972
1973
1974
1974
1974
1973
1972
1971
1971
1971
1972
1972
1972
1972
1972
1971
1971
1971
1971
1972
1972
1972
1972
1972
1972
1972
1972
1971
1971
1971
1972
1973
1973
1973
1973
1973
1972
1971
1971
1971
1971
1972
1973
1973
1973
1972
1972
1971
1972
1972
1973
1973
1973
1973
1973
1972
1971
1971
1971
1972
1973
1973
1973
1972
1970
1968
1967
1968
1970
1972
1976
1979
1982
1984
1984
1982
1980
1979
1978
1977
1977
1976
1975
1973
1972
1971
1970
1970
1970
1970
1971
1972
1973
1973
1973
1971
1966
1958
1957
1972
2009
2062
2109
2122
2087
2014
1931
1870
1851
1871
1910
1947
1971
1983
1986
1985
1984
1982
1982
1983
1984
1986
1986
1987
1987
1987
1987
1987
1988
1989
1989
1990
1991
1992
1992
1992
1993
1994
1995
1996
1998
1999
2000
2001
2003
2004
2006
2007
2009
2011
2014
2016
2019
2022
2025
2028
2032
2036
2041
2046
2050
2055
2059
2063
2066
2069
2071
2072
2072
2069
2064
2056
2046
2034
2021
2007
1996
1985
1977
1971
1966
1962
1958
1956
1953
1951
1950
1949
1949
1949
1949
1950
1950
1949
1949
1948
1948
1948
1949
1950
1951
1952
1952
1953
1954
1954
1954
1954
1954
1955
1955
1956
1957
1957
1957
1957
1957
1957
1957
1958
1959
1959
1960
1960
1959
1959
1958
1957
1957
1958
1959
1960
1960
1960
1959
1959
1958
1958
1958
1958
1959
1960
1960
1960
1960
1959
1959
1959
1959
1959
1960
1960
1961
1961
1961
1960
1959
1959
1958
1959
1960
1961
1962
1962
1962
1962
1961
1962
1962
1963
1963
1964
1964
1964
1964
1964
1964
1964
1964
1964
1965
1965
1965
1965
1965
1965
1965
1965
1965
1965
1966
1966
1967
1966
1966
1965
1963
1962
1962
1963
1965
1967
1970
1974
1976
1978
1977
1976
1974
1973
1973
1973
1972
1971
1969
1967
1965
1964
1964
1965
1965
1965
1966
1966
1966
1966
1966
1964
1961
1955
1951
1961
1992
2041
2089
2114
2096
2039
1962
1898
1868
1876
1907
1942
1967
1979
1980
1978
1976
1974
1975
1975
1977
1977
1977
1977
1977
1978
1979
1980
1981
1982
1983
1983
1983
1983
1983
1984
1985
1986
1987
1989
1990
1991
1991
1992
1992
1993
1995
1997
1999
2001
2004
2006
2007
2009
2012
2015
2018
2022
2026
2030
2034
2038
2042
2045
2048
2049
2051
2053
2055
2054
2051
2047
2038
2028
2017
2006
1996
1987
1979
1972
1966
1961
1957
1953
1951
1949
1948
1948
1948
1948
1949
1949
1948
1948
1948
1948
1948
1949
1950
1951
1951
1952
1952
1952
1952
1952
1952
1953
1954
1954
1955
1955
1955
1954
1954
1954
1955
1956
1956
1957
1957
1957
1957
1957
1956
1956
1957
1957
1958
1958
1958
1958
1957
1957
1956
1956
1956
1957
1957
1958
1959
1959
1959
1958
1958
1958
1958
1959
1960
1960
1961
1961
1960
1960
1960
1959
1960
1960
1961
1962
1963
1963
1963
1963
1962
1962
1962
1963
1963
1964
1964
1965
1964
1964
1963
1963
1962
1963
1964
1965
1966
1966
1966
1965
1965
1965
1966
1966
1967
1967
1967
1967
1967
1966
1966
1966
1966
1967
1967
1968
1968
1969
1968
1968
1967
1966
1966
1967
1968
1969
1970
1970
1969
1969
1968
1967
1967
1967
1968
1969
1971
1973
1976
1979
1981
1982
1982
1981
1980
1979
1978
1977
1975
1974
1972
1971
1971
1971
1972
1972
1972
1972
1972
1972
1972
1972
1972
1970
1966
1960
1961
1979
2017
2066
2108
2116
2082
2015
1941
1891
1877
1896
1931
1961
1980
1987
1988
1986
1984
1984
1984
1985
1985
1986
1987
1987
1988
1989
1990
1991
1991
1992
1992
1993
1993
1993
1994
1995
1996
1998
1999
2000
2000
2001
2002
2004
2006
2008
2010
2013
2014
2016
2017
2019
2021
2024
2028
2031
2035
2039
2043
2047
2049
2053
2057
2061
2065
2069
2073
2075
2076
2075
2071
2065
2057
2048
2038
2027
2016
2006
1996
1988
1981
1975
1971
1968
1965
1964
1962
1961
1961
1961
1960
1960
1960
1961
1961
1962
1963
1964
1964
1964
1964
1963
1963
1963
1964
1965
1966
1967
1968
1968
1968
1968
1967
1968
1968
1969
1970
1971
1971
1971
1970
1969
1969
1969
1969
1970
1970
1971
1971
1970
1970
1969
1969
1970
1970
1970
1971
1971
1972
1972
1971
1971
1970
1969
1969
1971
1972
1973
1973
1973
1973
1973
1972
1972
1972
1973
1973
1974
1974
1974
1974
1974
1973
1973
1973
1973
1973
1974
1975
1976
1976
1975
1974
1973
1972
1971
1972
1974
1975
1976
1976
1975
1974
1973
1973
1973
1974
1975
1976
1976
1976
1975
1974
1974
1973
1973
1973
1973
1973
1973
1973
1973
1973
1976
1979
1982
1985
1986
1985
1984
1982
1981
1979
1978
1977
1975
1974
1973
1972
1972
1971
1970
1970
1970
1970
1971
1972
1973
1972
1968
1961
1958
1968
1999
2049
2099
2123
2101
2037
1954
1886
1857
1868
1903
1940
1968
1982
1987
1986
1985
1983
1982
1981
1982
1983
1984
1985
1986
1987
1987
1987
1988
1988
1988
1989
1990
1991
1992
1993
1994
1994
1995
1995
1996
1997
1999
2000
2002
2003
2004
2005
2006
2008
2010
2012
2015
2018
2021
2024
2027
2031
2034
2038
2042
2046
2049
2053
2057
2061
2063
2065
2065
2064
2061
2055
2048
2038
2026
2014
2002
1991
1982
1974
1967
1962
1959
1956
1955
1953
1951
1950
1948
1947
1947
1947
1947
1948
1948
1949
1948
1948
1948
1948
1948
1949
1949
1950
1951
1952
1952
1952
1953
1952
1952
1952
1953
1954
1955
1955
1955
1955
1955
1955
1955
1955
1955
1955
1956
1956
1956
1955
1955
1954
1954
1955
1956
1956
1956
1956
1956
1956
1955
1955
1955
1955
1956
1957
1958
1958
1958
1958
1957
1957
1957
1957
1958
1958
1959
1959
1959
1959
1958
1958
1958
1958
1959
1960
1960
1960
1960
1960
1960
1960
1960
1960
1960
1961
1961
1961
1961
1961
1961
1960
1960
1960
1961
1961
1962
1962
1962
1962
1962
1961
1960
1960
1961
1961
1962
1963
1963
1962
1962
1962
1962
1962
1962
1962
1962
1960
1960
1959
1959
1960
1962
1965
1968
1971
1973
1973
1972
1970
1969
1967
1967
1966
1964
1963
1962
1962
1962
1961
1961
1961
1960
1960
1961
1962
1964
1964
1963
1958
1951
1947
1958
1989
2038
2085
2107
2088
2030
1955
1894
1867
1876
1907
1942
1966
1978
1980
1977
1973
1971
1970
1970
1971
1973
1974
1975
1976
1977
1978
1978
1978
1978
1979
1980
1981
1983
1984
1984
1985
1985
1986
1986
1987
1989
1991
1994
1995
1997
1997
1998
1998
2000
2002
2005
2007
2010
2013
2016
2018
2021
2025
2028
2032
2036
2040
2044
2047
2049
2052
2053
2054
2053
2051
2047
2041
2033
2023
2013
2003
1993
1983
1975
1969
1964
1961
1958
1956
1955
1953
1952
1950
1949
1949
1950
1950
1951
1952
1952
1952
1952
1952
1952
1953
1955
1956
1957
1957
1957
1957
1958
1958
1958
1957
1958
1958
1958
1959
1959
1959
1959
1959
1959
1960
1961
1961
1962
1962
1962
1961
1961
1961
1960
1960
1960
1961
1961
1962
1962
1963
1963
1963
1963
1962
1962
1962
1963
1963
1964
1964
1964
1964
1964
1964
1964
1965
1966
1966
1966
1966
1966
1966
1966
1966
1967
1968
1969
1969
1969
1969
1968
1968
1968
1969
1970
1971
1971
1971
1971
1971
1970
1970
1970
1971
1971
1971
1971
1971
1971
1971
1971
1971
1971
1971
1972
1974
1975
1975
1975
1974
1973
1972
1972
1973
1974
1974
1975
1975
1975
1975
1974
1974
1974
1974
1974
1975
1976
1976
1976
1976
1975
1974
1974
1975
1975
1975
1976
1976
1977
1979
1981
1983
1986
1989
1991
1991
1990
1988
1986
1984
1983
1981
1979
1978
1977
1977
1978
1978
1978
1978
1977
1977
1977
1978
1979
1978
1975
1969
1964
1973
2002
2050
2102
2128
2110
2049
1970
1903
1871
1878
1910
1945
1971
1985
1991
1992
1992
1991
1990
1990
1989
1989
1989
1990
1991
1992
1994
1995
1996
1996
1996
1996
1997
1998
1999
2000
2002
2004
2005
2005
2005
2005
2006
2007
2009
2010
2012
2014
2016
2017
2018
2020
2022
2025
2028
2032
2035
2038
2041
2045
2048
2052
2056
2060
2064
2068
2072
2075
2077
2077
2074
2068
2061
2052
2042
2031
2020
2009
1998
1989
1980
1974
1968
1964
1961
1959
1958
1956
1956
1955
1954
1954
1953
1953
1953
1954
1955
1956
1956
1957
1957
1956
1956
1955
1956
1957
1957
1958
1958
1958
1959
1959
1959
1959
1960
1960
1961
1961
1962
1962
1961
1961
1960
1960
1960
1960
1961
1961
1961
1961
1960
1959
1959
1959
1959
1959
1960
1960
1960
1960
1960
1959
1959
1959
1959
1960
1961
1961
1961
1960
1960
1959
1959
1959
1959
1960
1960
1961
1961
1961
1961
1961
1961
1961
1961
1961
1961
1962
1962
1961
1961
1961
1960
1961
1961
1962
1962
1962
1962
1962
1962
1961
1961
1961
1962
1962
1963
1963
1963
1963
1962
1962
1962
1963
1963
1963
1963
1962
1961
1961
1960
1961
1962
1965
1968
1971
1974
1976
1975
1974
1972
1970
1969
1969
1968
1966
1965
1964
1964
1963
1963
1962
1962
1962
1963
1964
1965
1966
1965
1962
1956
1950
1951
1971
2011
2062
2103
2110
2071
2001
1926
1876
1864
1886
1922
1954
1974
1982
1981
1978
1975
1973
1973
1974
1976
1977
1979
1980
1980
1980
1980
1980
1980
1981
1982
1983
1984
1985
1986
1986
1987
1987
1987
1988
1990
1991
1993
1994
1996
1997
1998
1999
2001
2002
2005
2008
2011
2014
2017
2019
2021
2024
2027
2030
2035
2039
2043
2047
2049
2052
2054
2055
2056
2054
2051
2046
2038
