1971
2005
2055
2112
2152
2160
2128
2069
2007
1964
1949
1956
1970
1979
1980
1975
1971
1969
1968
1968
1968
1969
1970
1971
1971
1972
1972
1972
1972
1972
1972
1973
1974
1975
1976
1977
1977
1977
1977
1978
1978
1979
1981
1982
1983
1984
1985
1986
1987
1988
1989
1990
1992
1993
1994
1994
1994
1994
1993
1992
1991
1990
1989
1987
1985
1983
1980
1978
1976
1975
1974
1974
1974
1974
1974
1974
1974
1973
1974
1974
1975
1976
1977
1977
1977
1977
1977
1977
1976
1976
1977
1977
1977
1978
1978
1978
1978
1978
1978
1978
1978
1978
1979
1980
1980
1980
1980
1979
1979
1979
1979
1980
1981
1981
1982
1982
1982
1981
1981
1980
1980
1979
1980
1981
1981
1982
1982
1981
1981
1980
1980
1980
1981
1982
1982
1982
1981
1980
1978
1977
1977
1977
1979
1982
1984
1986
1987
1988
1989
1990
1990
1989
1988
1986
1985
1984
1983
1982
1982
1981
1981
1982
1982
1983
1983
1985
1985
1985
1981
1974
1966
1962
1968
1989
2029
2081
2131
2158
2149
2105
2045
1991
1961
1957
1969
1981
1986
1983
1977
1974
1973
1973
1974
1975
1976
1976
1976
1976
1977
1977
1977
1978
1979
1980
1981
1981
1981
1981
1981
1981
1982
1983
1984
1986
1988
1989
1989
1990
1990
1990
1991
1993
1995
1996
1998
1999
1999
2000
2000
2000
2000
2000
1999
1999
1997
1995
1993
1990
1987
1985
1983
1982
1981
1981
1981
1981
1980
1980
1979
1978
1978
1977
1978
1978
1978
1978
1978
1978
1977
1977
1978
1978
1979
1979
1980
1980
1980
1979
1979
1980
1980
1980
1981
1982
1982
1983
1983
1983
1983
1982
1982
1982
1982
1983
1983
1983
1982
1982
1981
1982
1982
1983
1983
1983
1984
1983
1983
1983
1982
1982
1982
1982
1982
1983
1983
1983
1982
1981
1980
1979
1978
1977
1978
1980
1982
1984
1986
1987
1987
1988
1989
1990
1989
1988
1986
1985
1983
1982
1981
1981
1981
1981
1982
1982
1983
1984
1985
1985
1983
1978
1971
1964
1965
1977
2007
2053
2105
2145
2154
2126
2071
2013
1970
1955
1962
1976
1985
1986
1981
1977
1975
1974
1975
1975
1976
1976
1976
1976
1976
1976
1977
1978
1979
1980
1981
1981
1981
1981
1981
1982
1982
1983
1985
1986
1987
1988
1989
1989
1989
1990
1992
1993
1995
1997
1999
2000
2000
2001
2001
2000
2000
2001
2001
2000
1999
1997
1994
1991
1988
1986
1984
1983
1982
1982
1981
1981
1980
1979
1978
1978
1977
1977
1977
1978
1978
1978
1977
1977
1977
1976
1976
1977
1978
1978
1979
1979
1979
1979
1978
1978
1979
1979
1980
1980
1981
1981
1981
1981
1980
1980
1980
1981
1981
1982
1982
1982
1982
1981
1981
1981
1981
1981
1981
1982
1982
1982
1982
1981
1981
1980
1980
1980
1981
1981
1981
1980
1980
1978
1977
1976
1976
1977
1979
1982
1984
1985
1986
1987
1988
1988
1987
1986
1985
1984
1983
1982
1981
1981
1980
1980
1980
1980
1980
1981
1982
1984
1983
1980
1974
1966
1960
1965
1983
2020
2070
2119
2148
2142
2102
2043
1989
1957
1952
1964
1978
1985
1983
1979
1975
1974
1973
1974
1974
1975
1976
1976
1976
1976
1976
1976
1977
1978
1979
1980
1980
1981
1981
1980
1980
1981
1981
1982
1984
1985
1986
1987
1988
1988
1989
1990
1992
1994
1995
1997
1998
1999
1999
1999
1998
1998
1998
1997
1996
1994
1992
1990
1987
1984
1981
1979
1978
1977
1977
1976
1976
1976
1975
1974
1973
1972
1972
1973
1974
1974
1974
1974
1973
1973
1972
1972
1973
1973
1974
1974
1975
1975
1975
1976
1976
1976
1976
1976
1976
1977
1978
1978
1978
1978
1977
1977
1977
1977
1978
1979
1979
1978
1978
1977
1977
1977
1977
1977
1977
1977
1977
1977
1977
1977
1977
1976
1975
1975
1974
1974
1974
1975
1975
1977
1977
1978
1980
1982
1984
1985
1986
1985
1983
1981
1979
1977
1976
1976
1976
1977
1978
1978
1978
1978
1978
1979
1980
1979
1975
1968
1961
1960
1971
1999
2043
2093
2132
2141
2115
2062
2005
1962
1945
1951
1966
1977
1980
1978
1974
1973
1972
1971
1971
1971
1971
1971
1972
1973
1974
1975
1976
1977
1977
1977
1977
1977
1977
1978
1980
1981
1983
1984
1984
1985
1985
1985
1985
1986
1987
1989
1991
1993
1995
1996
1997
1997
1997
1998
1999
1999
2000
2000
1999
1997
1994
1991
1988
1986
1984
1982
1981
1979
1977
1976
1974
1973
1972
1972
1972
1972
1973
1973
1973
1973
1973
1972
1971
1971
1971
1972
1973
1974
1975
1974
1974
1973
1973
1973
1974
1975
1976
1977
1976
1976
1976
1975
1975
1975
1975
1975
1975
1975
1975
1975
1975
1975
1975
1975
1975
1974
1974
1973
1973
1972
1971
1971
1972
1973
1975
1976
1977
1979
1980
1981
1982
1982
1981
1979
1978
1976
1975
1975
1975
1975
1975
1975
1975
1974
1974
1975
1976
1977
1977
1973
1965
1958
1958
1972
2003
2050
2101
2136
2138
2104
2048
1989
1951
1940
1950
1966
1978
1982
1979
1975
1972
1971
1970
1971
1972
1973
1973
1973
1973
1973
1973
1974
1976
1977
1979
1980
1980
1981
1981
1981
1981
1982
1983
1984
1985
1987
1988
1989
1990
1992
1993
1994
1996
1997
1999
2000
2001
2002
2003
2003
2003
2002
2002
2001
2000
1998
1996
1992
1989
1986
1982
1980
1978
1977
1976
1977
1976
1976
1975
1973
1972
1972
1972
1973
1973
1974
1973
1973
1972
1972
1972
1972
1973
1973
1974
1975
1975
1975
1974
1974
1974
1974
1974
1974
1975
1976
1976
1977
1976
1976
1975
1974
1974
1975
1975
1974
1974
1973
1972
1971
1971
1971
1972
1973
1974
1976
1978
1979
1981
1981
1981
1979
1977
1976
1975
1974
1974
1974
1973
1972
1972
1972
1972
1973
1974
1975
1977
1976
1972
1965
1956
1951
1958
1982
2025
2078
2124
2144
2125
2074
2012
1962
1939
1941
1957
1971
1977
1976
1972
1969
1968
1967
1967
1967
1967
1968
1969
1970
1970
1970
1970
1970
1970
1970
1971
1973
1974
1974
1975
1975
1975
1976
1976
1977
1978
1980
1981
1983
1984
1986
1987
1988
1989
1990
1991
1993
1994
1995
1995
1995
1994
1993
1991
1990
1988
1986
1983
1981
1978
1976
1974
1972
1971
1970
1970
1970
1970
1969
1968
1968
1967
1967
1968
1968
1968
1968
1968
1968
1968
1968
1968
1968
1968
1969
1970
1971
1971
1972
1972
1971
1971
1971
1971
1972
1973
1973
1974
1974
1974
1973
1973
1972
1973
1973
1973
1973
1972
1972
1971
1970
1969
1969
1970
1972
1974
1975
1977
1978
1979
1980
1980
1979
1977
1976
1974
1974
1973
1973
1973
1973
1973
1973
1973
1974
1974
1975
1977
1977
1976
1970
1962
1955
1954
1966
1996
2044
2097
2138
2148
2120
2064
2004
1960
1944
1951
1967
1978
1980
1976
1972
1969
1968
1968
1969
1970
1971
1972
1973
1973
1973
1973
1974
1974
1975
1977
1978
1978
1979
1978
1978
1978
1979
1979
1980
1982
1983
1984
1986
1987
1988
1988
1989
1990
1991
1993
1995
1996
1997
1998
1997
1996
1995
1994
1993
1992
1990
1988
1985
1982
1980
1977
1976
1975
1975
1975
1975
1975
1974
1973
1972
1972
1971
1971
1971
1972
1973
1974
1975
1975
1975
1975
1975
1976
1977
1978
1978
1979
1979
1979
1979
1979
1979
1979
1980
1981
1982
1982
1982
1982
1981
1980
1979
1979
1979
1980
1981
1981
1980
1980
1978
1977
1976
1975
1975
1976
1978
1979
1980
1981
1983
1985
1986
1985
1983
1981
1978
1977
1978
1979
1979
1979
1978
1977
1977
1978
1979
1980
1981
1981
1979
1976
1971
1963
1958
1961
1978
2012
2061
2114
2150
2152
2118
2060
2002
1965
1955
1964
1977
1986
1985
1980
1976
1973
1973
1973
1974
1975
1976
1977
1978
1978
1978
1978
1978
1979
1979
1980
1980
1980
1980
1981
1981
1982
1984
1986
1988
1989
1990
1991
1993
1995
1998
2000
2002
2004
2005
2007
2008
2010
2011
2012
2013
2014
2014
2013
2011
2009
2006
2004
2001
1999
1997
1996
1996
1997
1997
1998
1998
1998
1998
1997
1997
1997
1999
2001
2003
2004
2004
2003
2001
2000
2000
2001
2003
2005
2006
2007
2007
2007
2006
2006
2005
2005
2005
2006
2007
2008
2008
2008
2007
2006
2006
2006
2005
2005
2005
2004
2003
2001
1998
1996
1994
1994
1995
1997
1999
2001
2002
2002
2001
2000
1997
1995
1993
1992
1991
1990
1990
1989
1988
1987
1987
1987
1986
1987
1987
1987
1984
1978
1970
1962
1963
1977
2010
2058
2113
2152
2158
2126
2066
2004
1960
1947
1957
1974
1987
1989
1985
1980
1978
1977
1978
1980
1983
1985
1986
1987
1987
1988
1988
1987
1987
1987
1988
1990
1993
1994
1995
1995
1995
1995
1996
1997
1998
2000
2000
2001
2002
2003
2004
2005
2007
2009
2011
2013
2015
2015
2014
2014
2014
2014
2013
2012
2010
2007
2003
2000
1997
1994
1991
1989
1987
1987
1987
1986
1986
1984
1983
1982
1981
1980
1980
1981
1982
1982
1982
1982
1982
1981
1981
1982
1982
1982
1982
1982
1982
1982
1982
1983
1983
1983
1983
1983
1984
1985
1987
1988
1987
1985
1983
1981
1981
1981
1983
1984
1986
1989
1991
1993
1994
1994
1994
1992
1990
1989
1987
1986
1985
1984
1983
1983
1983
1984
1985
1985
1985
1986
1988
1989
1988
1983
1974
1963
1958
1965
1990
2036
2093
2142
2163
2143
2090
2025
1973
1950
1954
1970
1985
1990
1986
1981
1978
1976
1976
1977
1978
1979
1978
1978
1977
1978
1979
1981
1984
1985
1986
1986
1986
1986
1986
1986
1986
1987
1988
1990
1992
1993
1994
1995
1995
1996
1997
2000
2003
2005
2007
2008
2009
2010
2010
2010
2009
2008
2006
2004
2002
2000
1999
1997
1995
1993
1990
1987
1985
1983
1983
1982
1981
1980
1979
1978
1977
1977
1977
1978
1978
1978
1978
1978
1978
1977
1977
1978
1979
1981
1982
1983
1984
1984
1984
1984
1983
1981
1981
1981
1982
1983
1984
1984
1983
1983
1982
1982
1983
1985
1988
1990
1992
1993
1993
1993
1992
1990
1989
1988
1987
1988
1988
1987
1986
1985
1985
1986
1986
1987
1987
1988
1989
1989
1987
1980
1970
1962
1962
1980
2018
2075
2135
2174
2174
2132
2066
2004
1965
1957
1968
1983
1991
1991
1985
1981
1978
1977
1978
1980
1982
1984
1985
1986
1986
1985
1984
1981
1980
1980
1983
1986
1988
1989
1988
1986
1986
1988
1990
1993
1994
1995
1995
1995
1996
1997
2000
2003
2005
2008
2009
2009
2010
2010
2010
2009
2009
2008
2006
2005
2003
2001
1999
1996
1993
1990
1988
1986
1986
1985
1985
1983
1981
1979
1978
1978
1978
1980
1981
1982
1982
1982
1981
1979
1979
1978
1978
1978
1980
1981
1982
1982
1981
1980
1980
1981
1982
1983
1983
1983
1983
1982
1981
1980
1980
1981
1983
1985
1987
1988
1989
1990
1992
1992
1992
1989
1986
1983
1981
1980
1980
1980
1981
1981
1981
1981
1980
1980
1980
1982
1985
1986
1983
1973
1961
1951
1954
1976
2022
2085
2146
2182
2175
2126
2056
1993
1956
1950
1963
1978
1986
1984
1979
1976
1974
1973
1973
1974
1974
1975
1976
1976
1977
1977
1976
1976
1977
1977
1979
1980
1981
1981
1981
1980
1980
1980
1981
1982
1983
1985
1987
1989
1989
1990
1990
1991
1992
1994
1994
1995
1996
1997
1998
1997
1996
1994
1992
1990
1988
1986
1984
1982
1980
1978
1976
1975
1974
1973
1972
1971
1970
1970
1970
1970
1970
1970
1971
1971
1971
1971
1971
1970
1971
1971
1971
1970
1969
1969
1968
1969
1970
1972
1973
1973
1973
1972
1972
1973
1973
1974
1974
1974
1973
1974
1974
1976
1977
1979
1981
1982
1983
1983
1982
1981
1978
1976
1974
1973
1972
1972
1973
1974
1974
1974
1974
1973
1973
1975
1977
1978
1975
1968
1958
1949
1949
1964
2001
2057
2120
2166
2176
2142
2079
2011
1963
1946
1952
1967
1977
1978
1974
1970
1968
1967
1966
1966
1966
1968
1969
1971
1972
1972
1971
1971
1970
1971
1972
1974
1975
1976
1976
1976
1977
1977
1978
1979
1980
1981
1982
1983
1985
1987
1989
1991
1992
1992
1991
1990
1990
1991
1993
1995
1996
1996
1994
1991
1988
1985
1984
1982
1981
1980
1977
1975
1973
1972
1972
1973
1975
1976
1977
1977
1976
1975
1973
1972
1971
1972
1973
1974
1975
1975
1975
1976
1976
1976
1976
1977
1977
1977
1977
1977
1978
1980
1981
1980
1979
1977
1977
1977
1978
1979
1978
1977
1977
1977
1978
1980
1982
1986
1989
1991
1991
1989
1986
1983
1980
1978
1978
1978
1979
1980
1981
1981
1980
1979
1978
1977
1979
1982
1983
1980
1971
1960
1952
1957
1982
2031
2096
2159
2192
2181
2129
2055
1992
1956
1952
1964
1978
1983
1979
1974
1972
1971
1971
1971
1970
1969
1969
1970
1971
1972
1972
1973
1973
1972
1972
1972
1973
1975
1977
1978
1978
1977
1977
1978
1978
1979
1979
1980
1980
1981
1983
1985
1986
1987
1988
1987
1987
1987
1987
1987
1987
1987
1986
1985
1983
1981
1978
1976
1974
1974
1973
1973
1972
1970
1968
1967
1966
1967
1968
1968
1968
1967
1966
1966
1966
1967
1968
1968
1968
1967
1967
1968
1968
1968
1968
1968
1968
1968
1969
1970
1971
1971
1970
1970
1969
1970
1970
1971
1972
1972
1972
1971
1970
1968
1967
1967
1968
1970
1972
1974
1975
1977
1978
1978
1979
1978
1977
1975
1974
1972
1971
1970
1970
1969
1969
1969
1970
1971
1971
1972
1974
1975
1975
1972
1965
1956
1948
1949
1966
2005
2063
2126
2171
2176
2137
2070
2003
1958
1945
1953
1968
1975
1974
1968
1964
1963
1963
1963
1963
1963
1963
1963
1963
1963
1963
1963
1964
1965
1966
1967
1967
1966
1966
1966
1967
1968
1970
1972
1973
1973
1973
1973
1974
1975
1977
1978
1979
1980
1981
1982
1983
1984
1984
1984
1983
1983
1983
1982
1981
1979
1976
1973
1970
1968
1966
1966
1966
1966
1966
1966
1966
1965
1964
1963
1963
1963
1963
1964
1964
1964
1963
1963
1963
1963
1964
1965
1965
1965
1965
1965
1965
1965
1965
1965
1965
1965
1965
1966
1967
1967
1967
1967
1967
1967
1967
1967
1967
1968
1968
1968
1968
1967
1966
1966
1967
1967
1967
1967
1966
1965
1963
1962
1962
1963
1964
1966
1968
1969
1971
1972
1973
1973
1972
1971
1969
1968
1968
1967
1967
1967
1968
1968
1968
1967
1967
1967
1968
1970
1971
1970
1965
1956
1947
1944
1954
1983
2033
2093
2144
2164
2142
2085
2019
1966
1942
1944
1957
1969
1971
1968
1964
1962
1960
1959
1959
1959
1959
1961
1962
1964
1964
1965
1965
1964
1964
1965
1965
1967
1968
1969
1969
1970
1969
1969
1970
1970
1971
1973
1974
1976
1977
1978
1978
1979
1980
1982
1983
1985
1986
1987
1987
1987
1986
1984
1983
1981
1979
1978
1976
1974
1972
1970
1969
1967
1967
1966
1966
1966
1966
1966
1966
1966
1966
1965
1965
1964
1965
1965
1965
1965
1965
1965
1965
1965
1965
1966
1966
1967
1968
1968
1968
1968
1968
1968
1967
1967
1968
1968
1969
1970
1970
1970
1970
1969
1968
1967
1968
1968
1969
1969
1968
1967
1965
1963
1962
1963
1964
1966
1969
1971
1972
1973
1974
1974
1974
1972
1971
1970
1969
1968
1968
1968
1968
1968
1968
1968
1968
1968
1969
1970
1972
1971
1968
1961
1952
1946
1951
1970
2010
2065
2121
2155
2151
2109
2047
1988
1953
1945
1956
1968
1974
1971
1966
1962
1961
1961
1961
1962
1963
1964
1964
1965
1965
1965
1965
1965
1966
1967
1968
1969
1969
1970
1970
1969
1969
1969
1969
1971
1973
1974
1975
1976
1976
1977
1978
1979
1981
1982
1983
1984
1984
1984
1984
1984
1983
1983
1982
1980
1979
1977
1974
1972
1970
1968
1966
1965
1964
1964
1964
1964
1963
1963
1963
1962
1962
1961
1962
1962
1962
1963
1962
1962
1962
1962
1962
1962
1963
1964
1965
1965
1966
1966
1966
1966
1965
1965
1966
1966
1967
1967
1968
1968
1967
1966
1966
1966
1967
1967
1968
1968
1967
1966
1964
1963
1963
1964
1966
1968
1970
1972
1973
1974
1974
1974
1973
1972
1970
1969
1969
1969
1968
1968
1967
1967
1967
1967
1968
1969
1970
1972
1971
1968
1960
1951
1945
1949
1969
2010
2064
2118
2150
2144
2101
2040
1983
1950
1944
1955
1968
1973
1971
1965
1962
1961
1961
1961
1962
1963
1964
1964
1965
1965
1965
1965
1965
1965
1966
1967
1968
1969
1969
1970
1970
1970
1970
1971
1971
1973
1974
1976
1977
1978
1978
1979
1980
1981
1982
1984
1985
1986
1986
1986
1985
1984
1984
1983
1982
1980
1978
1976
1974
1972
1970
1968
1967
1966
1965
1965
1965
1965
1965
1964
1963
1962
1962
1962
1962
1963
1963
1964
1964
1964
1964
1963
1963
1964
1964
1965
1966
1966
1966
1966
1966
1966
1966
1966
1967
1967
1968
1968
1968
1968
1968
1967
1966
1966
1966
1966
1966
1966
1965
1964
1963
1963
1964
1966
1967
1969
1971
1973
1974
1975
1974
1973
1971
1969
1968
1967
1967
1967
1967
1967
1966
1966
1966
1966
1967
1969
1971
1970
1967
1959
1950
1946
1952
1975
2017
2071
2120
2145
2131
2084
2024
1971
1945
1944
1956
1968
1973
1970
1965
1963
1961
1961
1961
1961
1961
1962
1963
1964
1965
1966
1966
1965
1965
1966
1967
1968
1969
1970
1971
1972
1972
1972
1972
1973
1974
1975
1976
1978
1979
1980
1980
1981
1982
1983
1985
1986
1987
1988
1988
1987
1987
1985
1984
1983
1981
1979
1977
1975
1973
1971
1970
1968
1967
1966
1965
1965
1965
1965
1965
1965
1965
1964
1964
1964
1964
1965
1965
1966
1967
1967
1967
1966
1966
1966
1967
1967
1968
1969
1969
1968
1968
1968
1967
1968
1968
1968
1969
1969
1969
1969
1969
1969
1968
1968
1969
1969
1970
1970
1970
1970
1969
1969
1969
1968
1968
1967
1967
1966
1965
1965
1965
1965
1967
1968
1970
1971
1973
1975
1977
1977
1976
1973
1971
1969
1969
1969
1969
1970
1970
1969
1969
1969
1969
1970
1971
1973
1973
1970
1963
1955
1950
1955
1976
2017
2069
2117
2142
2129
2084
2024
1973
1946
1944
1957
1970
1975
1973
1969
1967
1965
1964
1964
1963
1964
1964
1965
1966
1967
1968
1968
1968
1968
1968
1968
1969
1970
1971
1971
1972
1973
1973
1973
1974
1974
1976
1977
1979
1980
1982
1983
1983
1984
1985
1986
1987
1988
1989
1990
1990
1989
1987
1986
1984
1983
1981
1980
1978
1977
1975
1973
1971
1970
1969
1968
1968
1968
1969
1969
1969
1968
1967
1966
1965
1965
1966
1967
1968
1969
1970
1970
1970
1970
1970
1970
1970
1971
1971
1972
1972
1972
1971
1971
1970
1970
1970
1971
1972
1972
1972
1972
1971
1971
1970
1970
1970
1971
1971
1971
1972
1971
1971
1970
1970
1970
1970
1970
1970
1969
1968
1967
1966
1966
1967
1969
1971
1972
1974
1976
1978
1978
1978
1977
1975
1973
1971
1971
1971
1971
1971
1971
1971
1971
1970
1971
1972
1974
1975
1974
1968
1960
1953
1953
1967
1999
2048
2098
2134
2137
2104
2048
1991
1954
1943
1952
1966
1975
1976
1972
1969
1968
1967
1967
1967
1967
1967
1968
1969
1971
1971
1972
1972
1972
1971
1972
1972
1973
1974
1975
1976
1976
1976
1977
1977
1978
1979
1980
1981
1983
1984
1985
1986
1987
1987
1988
1989
1990
1991
1991
1991
1991
1990
1988
1986
1985
1983
1981
1979
1977
1975
1973
1971
1970
1968
1967
1967
1967
1967
1967
1967
1966
1966
1965
1964
1964
1964
1965
1966
1966
1967
1967
1967
1966
1967
1967
1967
1968
1969
1970
1970
1969
1969
1968
1968
1968
1968
1969
1970
1970
1970
1969
1969
1968
1968
1967
1967
1968
1968
1968
1968
1967
1967
1966
1966
1966
1966
1967
1967
1968
1967
1966
1964
1963
1962
1961
1962
1963
1965
1967
1968
1969
1970
1971
1972
1972
1971
1970
1969
1967
1966
1965
1965
1964
1964
1964
1965
1965
1966
1967
1968
1968
1967
1962
1954
1946
1944
1954
1980
2023
2074
2116
2131
2109
2059
2000
1955
1936
1941
1955
1966
1969
1965
1961
1959
1958
1958
1959
1960
1960
1960
1960
1961
1961
1961
1961
1962
1963
1963
1964
1965
1965
1965
1965
1965
1966
1967
1968
1969
1970
1971
1971
1972
1973
1974
1975
1976
1978
1979
1980
1981
1981
1981
1980
1980
1979
1979
1978
1977
1976
1974
1971
1969
1967
1964
1963
1962
1961
1960
1960
1959
1959
1958
1957
1956
1956
1956
1956
1957
1957
1957
1957
1957
1956
1957
1957
1958
1959
1959
1960
1960
1960
1959
1959
1959
1959
1959
1960
1960
1961
1961
1960
1960
1959
1959
1959
1959
1959
1959
1959
1959
1959
1959
1958
1958
1957
1957
1958
1958
1959
1959
1959
1958
1957
1957
1957
1957
1958
1958
1958
1958
1957
1956
1955
1954
1955
1956
1958
1960
1962
1963
1965
1966
1967
1967
1966
1964
1963
1962
1961
1960
1960
1959
1959
1958
1959
1959
1960
1961
1963
1964
1962
1957
1949
1942
1941
1953
1983
2030
2081
2119
2126
2098
2045
1987
1947
1933
1940
1955
1965
1967
1963
1960
1957
1956
1956
1957
1958
1958
1959
1960
1960
1960
1960
1960
1960
1961
1963
1964
1964
1965
1965
1965
1965
1965
1966
1968
1969
1971
1972
1973
1974
1974
1975
1976
1977
1978
1980
1981
1982
1982
1982
1982
1981
1980
1979
1978
1977
1976
1975
1973
1970
1968
1966
1964
1963
1962
1962
1961
1961
1961
1960
1960
1959
1958
1958
1959
1959
1960
1961
1961
1961
1960
1960
1960
1960
1960
1961
1962
1962
1962
1962
1962
1962
1962
1962
1962
1963
1964
1964
1964
1963
1963
1962
1962
1962
1962
1963
1963
1963
1963
1963
1962
1962
1962
1962
1962
1963
1963
1963
1963
1963
1962
1962
1962
1962
1962
1962
1963
1963
1963
1963
1963
1962
1962
1962
1962
1961
1961
1960
1960
1961
1962
1964
1965
1967
1969
1971
1972
1973
1972
1971
1968
1966
1965
1964
1964
1964
1965
1965
1965
1965
1965
1965
1966
1967
1967
1965
1959
1951
1946
1951
1971
2010
2060
2108
2132
2122
2079
2021
1970
1943
1940
1952
1964
1970
1969
1965
1963
1962
1962
1962
1962
1962
1962
1963
1963
1965
1966
1966
1967
1967
1967
1967
1967
1968
1969
1970
1971
1972
1972
1973
1973
1973
1974
1974
1976
1977
1978
1980
1981
1982
1983
1984
1984
1985
1985
1986
1986
1986
1986
1985
1983
1981
1979
1977
1975
1974
1972
1971
1970
1968
1967
1966
1965
1965
1965
1965
1965
1965
1965
1965
1964
1964
1963
1963
1964
1964
1965
1965
1966
1966
1966
1965
1966
1966
1966
1967
1968
1968
1968
1968
1968
1967
1967
1967
1968
1968
1968
1968
1968
1968
1968
1968
1967
1967
1967
1968
1968
1968
1968
1968
1967
1967
1967
1967
1967
1967
1968
1968
1968
1968
1967
1967
1967
1967
1967
1968
1968
1969
1969
1969
1968
1967
1966
1964
1964
1965
1967
1969
1971
1973
1974
1975
1976
1976
1977
1976
1975
1974
1973
1971
1970
1970
1969
1969
1969
1970
1970
1971
1971
1973
1973
1972
1967
1959
1951
1950
1962
1990
2036
2088
2128
2138
2112
2060
2002
1960
1945
1951
1964
1975
1976
1972
1968
1966
1966
1966
1967
1967
1968
1968
1968
1968
1969
1969
1970
1971
1972
1973
1973
1973
1973
1974
1974
1975
1976
1977
1978
1979
1980
1981
1981
1982
1983
1984
1985
1987
1989
1990
1991
1992
1992
1992
1992
1991
1991
1991
1990
1989
1987
1985
1982
1979
1977
1976
1974
1974
1973
1972
1972
1971
1971
1970
1969
1969
1969
1969
1969
1969
1970
1970
1969
1969
1969
1969
1970
1970
1971
1972
1972
1972
1972
1972
1971
1971
1972
1972
1973
1973
1973
1973
1973
1973
1972
1973
1973
1974
1974
1975
1975
1974
1973
1973
1972
1972
1972
1972
1973
1973
1973
1973
1972
1972
1971
1971
1972
1972
1973
1973
1973
1973
1973
1973
1973
1973
1974
1974
1975
1975
1975
1974
1972
1971
1971
1971
1972
1975
1977
1980
1982
1982
1983
1983
1982
1982
1980
1979
1978
1977
1977
1976
1975
1975
1974
1974
1974
1975
1976
1978
1979
1978
1974
1966
1958
1954
1961
1985
2026
2078
2123
2144
2128
2080
2022
1973
1949
1950
1964
1976
1981
1978
1973
1970
1969
1969
1969
1970
1971
1972
1973
1973
1973
1973
1972
1973
1974
1975
1976
1977
1977
1978
1978
1979
1979
1980
1980
1981
1983
1984
1985
1985
1986
1987
1988
1989
1990
1992
1993
1994
1995
1995
1995
1994
1993
1992
1992
1991
1990
1988
1986
1984
1981
1978
1976
1975
1974
1973
1973
1973
1972
1972
1971
1970
1970
1969
1969
1970
1970
1970
1970
1970
1970
1970
1970
1969
1970
1970
1971
1971
1971
1972
1971
1971
1971
1971
1972
1972
1973
1973
1974
1973
1973
1972
1972
1972
1972
1972
1973
1973
1973
1972
1972
1971
1971
1970
1971
1971
1971
1972
1972
1971
1971
1970
1970
1970
1970
1971
1971
1972
1972
1971
1971
1970
1970
1971
1971
1971
1972
1971
1971
1969
1968
1967
1967
1968
1971
1973
1976
1978
1979
1980
1980
1979
1978
1976
1975
1974
1973
1973
1973
1973
1972
1972
1972
1971
1972
1973
1975
1976
1974
1970
1962
1954
1952
1963
1991
2037
2089
2129
2139
2113
2060
2002
1959
1943
1949
1963
1974
1977
1974
1970
1967
1966
1965
1966
1966
1967
1968
1968
1969
1969
1969
1969
1969
1970
1971
1972
1973
1974
1974
1975
1975
1975
1975
1976
1977
1978
1979
1980
1981
1982
1983
1984
1985
1986
1987
1989
1990
1991
1992
1992
1991
1990
1989
1987
1986
1985
1983
1981
1979
1976
1973
1971
1969
1968
1968
1968
1968
1967
1967
1966
1966
1965
1965
1965
1965
1966
1966
1966
1966
1966
1966
1966
1966
1966
1966
1967
1968
1969
1969
1969
1969
1968
1968
1968
1968
1969
1970
1970
1970
1970
1970
1969
1969
1969
1969
1969
1970
1970
1970
1970
1969
1968
1968
1968
1969
1969
1970
1970
1970
1970
1969
1969
1968
1968
1968
1969
1969
1970
1970
1970
1970
1969
1968
1967
1966
1966
1966
1967
1968
1970
1972
1973
1975
1976
1977
1978
1978
1978
1976
1974
1972
1971
1970
1969
1969
1970
1970
1971
1971
1971
1971
1972
1973
1971
1966
1959
1952
1953
1966
1996
2044
2094
2130
2135
2105
2050
1994
1955
1944
1951
1965
1974
1975
1971
1968
1966
1966
1967
1967
1968
1967
1967
1967
1968
1969
1970
1971
1972
1972
1972
1972
1973
1973
1974
1975
1976
1977
1978
1978
1979
1979
1980
1980
1982
1983
1985
1987
1988
1989
1990
1991
1991
1992
1992
1992
1992
1992
1992
1991
1989
1987
1984
1981
1978
1976
1975
1974
1973
1972
1971
1970
1969
1968
1968
1968
1968
1968
1968
1968
1968
1967
1967
1967
1967
1967
1968
1969
1969
1970
1970
1970
1970
1970
1970
1970
1971
1971
1972
1972
1972
1972
1971
1971
1971
1971
1972
1972
1973
1973
1973
1972
1972
1971
1971
1971
1972
1972
1972
1972
1972
1972
1971
1971
1971
1971
1972
1972
1972
1973
1972
1972
1971
1971
1970
1970
1969
1969
1969
1969
1970
1971
1972
1973
1975
1977
1979
1981
1981
1981
1979
1977
1974
1973
1972
1972
1973
1974
1974
1974
1974
1974
1974
1975
1975
1974
1970
1963
1956
1956
1967
1995
2040
2090
2130
2139
2113
2061
2004
1962
1946
1952
1965
1975
1978
1974
1971
1970
1969
1970
1970
1970
1970
1970
1970
1971
1972
1973
1973
1974
1974
1975
1975
1976
1976
1977
1978
1979
1980
1980
1981
1981
1982
1983
1984
1985
1987
1988
1989
1990
1991
1992
1993
1994
1995
1996
1997
1998
1997
1996
1995
1993
1990
1987
1985
1983
1981
1980
1979
1977
1976
1974
1973
1972
1971
1971
1972
1972
1973
1973
1972
1972
1970
1970
1969
1970
1971
1972
1973
1973
1973
1973
1973
1973
1973
1973
1974
1975
1976
1976
1976
1975
1975
1975
1975
1976
1976
1977
1978
1978
1978
1977
1977
1976
1976
1975
1975
1975
1976
1977
1977
1976
1976
1975
1975
1975
1976
1977
1978
1978
1978
1977
1975
1974
1973
1972
1973
1974
1975
1977
1978
1979
1980
1982
1984
1986
1987
1988
1987
1984
1982
1980
1979
1979
1978
1978
1978
1978
1978
1979
1980
1981
1982
1981
1977
1970
1962
1960
1969
1994
2038
2090
2134
2150
2127
2073
2011
1962
1941
1947
1964
1978
1984
1982
1979
1977
1977
1977
1977
1978
1978
1978
1979
1979
1979
1979
1979
1980
1981
1982
1983
1984
1984
1984
1984
1985
1987
1989
1990
1991
1991
1991
1991
1991
1992
1994
1996
1999
2001
2003
2004
2005
2005
2007
2008
2010
2010
2009
2007
2004
2001
1998
1995
1993
1990
1987
1985
1983
1981
1980
1980
1980
1979
1978
1977
1976
1975
1975
1975
1975
1975
1975
1974
1974
1974
1974
1975
1976
1977
1978
1979
1980
1981
1981
1981
1981
1981
1981
1981
1981
1981
1981
1980
1980
1980
1981
1982
1983
1984
1983
1983
1982
1981
1980
1980
1980
1981
1982
1982
1981
1979
1978
1977
1977
1977
1978
1979
1981
1982
1983
1984
1985
1986
1987
1987
1986
1985
1983
1982
1982
1982
1982
1981
1981
1981
1980
1980
1980
1981
1982
1983
1981
1976
1968
1960
1961
1976
2010
2060
2116
2155
2159
2123
2061
1998
1955
1942
1952
1970
1982
1986
1983
1979
1977
1977
1977
1977
1978
1979
1980
1981
1982
1982
1982
1982
1981
1981
1982
1983
1985
1987
1987
1987
1986
1985
1986
1988
1992
1995
1997
1998
1999
1999
1999
2000
2001
2004
2006
2009
2011
2012
2012
2012
2011
2009
2008
2008
2006
2005
2002
2000
1996
1993
1989
1986
1984
1982
1981
1980
1978
1977
1976
1976
1976
1976
1976
1976
1976
1975
1975
1975
1976
1978
1979
1980
1979
1978
1978
1977
1977
1977
1978
1979
1980
1981
1982
1982
1982
1982
1982
1982
1982
1982
1982
1983
1984
1985
1984
1983
1982
1981
1980
1981
1981
1981
1981
1981
1981
1981
1982
1982
1983
1984
1986
1987
1989
1990
1990
1989
1987
1984
1982
1980
1980
1980
1981
1982
1983
1983
1983
1983
1983
1984
1985
1984
1979
1970
1963
1962
1976
2009
2061
2120
2163
2170
2135
2071
2004
1959
1945
1956
1974
1986
1988
1984
1980
1978
1978
1979
1981
1981
1981
1979
1978
1979
1980
1982
1984
1985
1985
1984
1984
1983
1983
1984
1986
1987
1989
1991
1991
1991
1991
1992
1992
1993
1995
1996
1998
2000
2002
2003
2004
2005
2006
2007
2008
2009
2008
2007
2004
2001
1998
1995
1991
1987
1984
1982
1980
1978
1977
1976
1975
1974
1973
1972
1972
1972
1973
1974
1974
1974
1974
1973
1971
1970
1969
1968
1968
1969
1970
1971
1971
1971
1971
1972
1973
1974
1975
1976
1975
1975
1974
1974
1974
1975
1975
1976
1976
1976
1977
1976
1976
1974
1972
1971
1970
1971
1972
1973
1974
1975
1976
1978
1979
1980
1982
1982
1981
1980
1978
1976
1975
1973
1973
1973
1973
1974
1975
1975
1975
1975
1975
1976
1977
1975
1970
1962
1954
1954
1968
2001
2052
2111
2156
2166
2134
2073
2007
1960
1944
1951
1966
1977
1979
1974
1970
1969
1969
1970
1971
1971
1971
1970
1970
1970
1971
1972
1974
1974
1975
1974
1974
1974
1974
1975
1976
1977
1979
1981
1982
1982
1982
1983
1983
1984
1986
1988
1989
1991
1992
1993
1995
1995
1996
1997
1997
1998
1997
1996
1994
1991
1988
1984
1982
1979
1977
1976
1974
1973
1972
1971
1970
1970
1969
1969
1968
1968
1968
1968
1968
1968
1968
1968
1968
1968
1968
1968
1968
1969
1969
1969
1969
1968
1968
1969
1969
1970
1971
1971
1971
1971
1971
1970
1970
1970
1971
1972
1973
1973
1973
1973
1972
1972
1971
1971
1971
1972
1972
1972
1972
1971
1969
1968
1966
1967
1968
1970
1972
1974
1975
1976
1977
1978
1978
1978
1977
1976
1975
1974
1973
1972
1971
1970
1970
1971
1972
1972
1973
1974
1976
1976
1974
1968
1959
1951
1950
1964
1997
2049
2109
2156
2168
2138
2078
2013
1965
1948
1954
1969
1979
1980
1974
1969
1966
1965
1966
1967
1968
1968
1969
1969
1969
1969
1969
1970
1971
1972
1972
1973
1974
1974
1975
1975
1975
1975
1976
1978
1979
1981
1982
1983
1983
1983
1984
1986
1987
1989
1991
1992
1993
1993
1994
1994
1994
1993
1993
1992
1990
1988
1986
1982
1979
1976
1974
1972
1971
1971
1971
1971
1971
1971
1970
1969
1968
1968
1968
1969
1971
1971
1971
1971
1970
1969
1968
1969
1969
1970
1970
1971
1971
1971
1971
1971
1971
1971
1972
1972
1973
1974
1974
1974
1974
1974
1974
1974
1974
1974
1974
1974
1974
1974
1974
1974
1974
1974
1974
1975
1975
1975
1974
1974
1972
1971
1970
1970
1970
1972
1974
1976
1977
1978
1979
1981
1981
1981
1981
1979
1978
1977
1976
1975
1975
1975
1974
1974
1975
1975
1976
1977
1978
1979
1978
1974
1967
1958
1953
1958
1979
2021
2078
2134
2168
2164
2120
2055
1996
1961
1954
1964
1975
1980
1977
1971
1968
1967
1967
1968
1969
1969
1970
1970
1969
1969
1969
1970
1971
1972
1973
1973
1974
1974
1974
1974
1974
1974
1975
1976
1977
1978
1979
1980
1980
1981
1982
1983
1985
1987
1989
1990
1991
1991
1991
1990
1990
1989
1989
1988
1987
1985
1983
1980
1977
1974
1972
1970
1969
1969
1968
1968
1967
1967
1966
1965
1965
1964
1965
1965
1965
1966
1965
1965
1964
1964
1963
1962
1962
1963
1963
1964
1964
1964
1964
1963
1963
1964
1964
1965
1966
1966
1967
1967
1966
1966
1965
1965
1965
1966
1966
1966
1967
1967
1966
1966
1966
1965
1965
1965
1966
1966
1966
1966
1965
1965
1964
1964
1964
1964
1964
1963
1962
1961
1960
1960
1961
1962
1964
1965
1967
1969
1970
1971
1970
1968
1966
1964
1963
1963
1963
1963
1963
1963
1963
1962
1962
1962
1963
1964
1966
1964
1960
1952
1943
1941
1952
1981
2030
2088
2136
2153
2129
2073
2008
1958
1937
1939
1953
1963
1965
1960
1956
1954
1953
1952
1953
1953
1953
1954
1955
1956
1956
1957
1957
1956
1956
1956
1957
1958
1959
1960
1961
1961
1961
1961
1961
1962
1964
1965
1966
1967
1968
1969
1970
1971
1972
1973
1974
1976
1977
1978
1978
1977
1977
1976
1974
1973
1971
1969
1967
1964
1962
1960
1958
1956
1955
1954
1954
1954
1954
1954
1953
1953
1952
1952
1951
1951
1952
1952
1952
1952
1952
1952
1951
1951
1951
1951
1951
1952
1952
1953
1953
1953
1953
1953
1953
1953
1954
1955
1955
1956
1956
1955
1955
1954
1954
1954
1955
1956
1956
1957
1957
1957
1956
1956
1956
1956
1956
1956
1957
1957
1957
1956
1955
1954
1953
1952
1952
1954
1956
1958
1960
1961
1961
1962
1963
1964
1964
1964
1964
1962
1961
1960
1959
1958
1958
1958
1959
1960
1961
1961
1962
1963
1964
1962
1957
1950
1943
1941
1951
1978
2023
2077
2124
2143
2123
2072
2011
1961
1939
1941
1954
1965
1968
1963
1959
1957
1956
1958
1959
1960
1960
1960
1961
1961
1961
1962
1963
1964
1965
1965
1966
1966
1966
1967
1967
1968
1969
1970
1971
1973
1974
1975
1977
1977
1978
1979
1980
1982
1985
1987
1988
1990
1990
1991
1991
1991
1992
1992
1992
1991
1990
1987
1984
1980
1977
1975
1974
1974
1974
1973
1972
1972
1971
1971
1970
1970
1970
1970
1971
1972
1972
1972
1972
1972
1972
1972
1973
1975
1976
1976
1976
1976
1976
1975
1975
1975
1976
1977
1979
1980
1980
1980
1979
1980
1980
1982
1983
1983
1984
1984
1984
1984
1984
1984
1985
1985
1986
1986
1985
1984
1984
1983
1983
1983
1983
1983
1985
1987
1990
1992
1994
1995
1995
1995
1994
1993
1992
1991
1990
1990
1990
1989
1988
1987
1987
1987
1988
1990
1992
1994
1994
1991
1985
1976
1970
1974
1992
2030
2081
2133
2164
2158
2117
2056
2000
1966
1961
1973
1988
1997
1998
1993
1990
1988
1988
1987
1988
1988
1989
1990
1990
1990
1990
1990
1990
1990
1991
1992
1993
1994
1995
1996
1997
1997
1998
1999
2000
2001
2003
2004
2005
2005
2006
2007
2008
2011
2014
2016
2017
2019
2020
2020
2020
2020
2019
2019
2018
2016
2014
2012
2008
2004
2000
1996
1994
1992
1992
1992
1991
1991
1991
1990
1989
1988
1987
1987
1987
1987
1987
1987
1987
1987
1988
1988
1988
1987
1987
1987
1988
1989
1990
1991
1991
1990
1989
1988
1989
1989
1990
1991
1991
1991
1991
1992
1993
1993
1992
1991
1989
1988
1988
1987
1987
1987
1988
1988
1989
1990
1992
1994
1996
1996
1996
1995
1994
1992
1990
1989
1988
1988
1987
1987
1986
1986
1985
1985
1986
1987
1990
1992
1992
1987
1978
1968
1962
1968
1993
2040
2097
2148
2170
2153
2101
2036
1982
1957
1957
1972
1985
1991
1988
1983
1981
1979
1979
1980
1981
1982
1982
1981
1980
1980
1980
1980
1981
1981
1982
1984
1985
1986
1987
1987
1987
1987
1987
1988
1989
1990
1992
1993
1993
1993
1993
1994
1996
1999
2002
2004
2006
2006
2006
2006
2005
2004
2003
2001
1999
1997
1995
1992
1989
1986
1983
1979
1976
1974
1972
1972
1972
1972
1971
1971
1969
1968
1967
1968
1968
1969
1969
1969
1968
1968
1967
1967
1967
1967
1967
1968
1968
1968
1968
1968
1968
1968
1968
1968
1968
1969
1969
1970
1969
1969
1969
1968
1968
1967
1967
1966
1966
1966
1966
1967
1968
1969
1969
1970
1971
1973
1975
1976
1975
1972
1969
1967
1965
1965
1966
1966
1966
1967
1967
1966
1966
1965
1965
1966
1967
1967
1964
1957
1948
1943
1951
1975
2021
2078
2131
2155
2139
2088
2023
1969
1942
1942
1955
1967
1971
1968
1963
1961
1960
1960
1960
1960
1959
1959
1960
1961
1961
1962
1963
1963
1964
1964
1964
1964
1965
1965
1966
1967
1968
1968
1969
1969
1970
1971
1972
1973
1975
1977
1978
1979
1980
1981
1982
1984
1985
1986
1987
1987
1987
1986
1984
1981
1979
1976
1973
1971
1968
1967
1965
1963
1961
1959
1958
1957
1957
1958
1958
1958
1958
1958
1957
1956
1956
1955
1955
1955
1955
1955
1956
1957
1957
1957
1957
1957
1957
1958
1959
1959
1960
1960
1960
1960
1960
1960
1960
1961
1962
1962
1962
1962
1961
1961
1961
1961
1961
1960
1959
1958
1957
1957
1958
1959
1961
1962
1963
1965
1967
1968
1969
1969
1967
1965
1963
1962
1962
1962
1963
1963
1963
1963
1963
1963
1963
1963
1965
1966
1967
1964
1957
1947
1941
1945
1965
2007
2064
2122
2156
2150
2105
2040
1980
1946
1940
1951
1964
1970
1967
1962
1960
1958
1957
1957
1957
1958
1959
1959
1960
1961
1962
1962
1962
1962
1962
1962
1963
1964
1965
1965
1966
1966
1966
1966
1966
1967
1969
1971
1973
1975
1976
1977
1977
1978
1979
1980
1981
1982
1983
1984
1984
1984
1983
1981
1979
1977
1975
1973
1971
1969
1967
1965
1964
1962
1961
1960
1959
1960
1960
1960
1961
1961
1960
1960
1959
1959
1959
1960
1961
1961
1961
1961
1961
1961
1961
1961
1962
1963
1963
1964
1964
1964
1964
1964
1963
1964
1964
1965
1965
1966
1966
1966
1966
1965
1965
1965
1965
1966
1966
1966
1966
1965
1964
1963
1962
1963
1964
1966
1968
1970
1971
1972
1973
1974
1974
1973
1972
1970
1969
1969
1968
1967
1967
1967
1967
1967
1968
1968
1969
1971
1972
1972
1969
1962
1953
1946
1947
1964
2001
2056
2115
2157
2163
2127
2065
2003
1961
1948
1955
1968
1975
1974
1968
1964
1962
1962
1962
1963
1964
1965
1966
1966
1965
1965
1965
1966
1967
1968
1968
1969
1970
1971
1971
1972
1972
1972
1973
1975
1976
1978
1979
1979
1980
1980
1981
1983
1985
1987
1988
1990
1991
1991
1991
1991
1991
1990
1990
1989
1988
1986
1984
1982
1979
1977
1975
1973
1973
1973
1973
1973
1973
1972
1972
1971
1971
1971
1971
1972
1972
1973
1973
1973
1972
1972
1972
1972
1972
1973
1974
1974
1975
1975
1975
1975
1975
1975
1975
1975
1976
1976
1977
1977
1976
1976
1976
1976
1976
1976
1977
1978
1978
1978
1978
1977
1977
1977
1977
1978
1978
1977
1977
1975
1974
1973
1972
1973
1975
1977
1979
1981
1982
1983
1984
1984
1984
1982
1981
1980
1979
1979
1979
1978
1978
1978
1977
1977
1977
1978
1979
1981
1982
1981
1976
1967
1959
1955
1965
1992
2039
2097
2147
2169
2150
2098
2034
1981
1957
1957
1970
1981
1983
1979
1973
1971
1969
1969
1970
1971
1972
1973
1973
1974
1973
1973
1973
1974
1975
1976
1977
1978
1979
1979
1979
1979
1980
1980
1981
1982
1984
1985
1986
1986
1987
1988
1988
1989
1991
1992
1994
1995
1995
1996
1995
1995
1994
1993
1992
1991
1990
1988
1986
1984
1981
1979
1977
1976
1975
1974
1974
1974
1974
1974
1973
1973
1973
1972
1973
1973
1973
1974
1974
1973
1973
1973
1973
1973
1973
1974
1974
1975
1975
1975
1975
1975
1975
1975
1976
1976
1977
1978
1978
1978
1977
1977
1977
1977
1977
1978
1978
1978
1978
1978
1978
1978
1977
1977
1977
1978
1978
1979
1979
1979
1978
1977
1975
1975
1974
1974
1974
1975
1976
1978
1979
1980
1981
1982
1984
1986
1986
1986
1984
1982
1980
1979
1978
1978
1979
1979
1980
1981
1981
1981
1981
1981
1982
1982
1979
1972
1965
1960
1965
1986
2027
2080
2132
2160
2152
2108
2047
1992
1961
1957
1968
1979
1984
1982
1977
1975
1975
1974
1975
1975
1975
1975
1976
1977
1977
1978
1978
1978
1979
1979
1979
1979
1979
1979
1980
1982
1983
1984
1986
1986
1987
1987
1987
1988
1990
1991
1993
1995
1996
1997
1998
1998
1998
1999
2000
2001
2002
2002
2000
1998
1996
1993
1990
1988
1987
1985
1984
1982
1981
1980
1979
1979
1978
1978
1978
1978
1978
1978
1978
1978
1978
1977
1977
1977
1977
1977
1978
1978
1978
1978
1979
1979
1979
1979
1979
1980
1980
1980
1981
1981
1980
1980
1979
1979
1979
1980
1982
1982
1983
1982
1981
1979
1978
1978
1979
1980
1981
1981
1981
1980
1979
1977
1976
1975
1975
1975
1977
1979
1981
1983
1983
1984
1985
1985
1986
1986
1985
1984
1982
1981
1980
1979
1979
1980
1980
1981
1981
1980
1980
1981
1981
1981
1978
1971
1964
1961
1969
1994
2037
2090
2135
2153
2133
2082
2021
1972
1951
1955
1971
1984
1989
1985
1979
1976
1973
1973
1974
1975
1976
1977
1978
1978
1978
1978
1977
1978
1979
1981
1982
1983
1983
1983
1984
1984
1984
1985
1985
1986
1987
1988
1990
1991
1992
1993
1994
1996
1998
2000
2002
2003
2003
2003
2002
2002
2002
2003
2002
2001
1999
1996
1993
1990
1987
1985
1983
1982
1980
1979
1979
1978
1978
1977
1976
1975
1974
1974
1974
1974
1975
1975
1975
1975
1974
1975
1975
1977
1978
1978
1978
1978
1977
1976
1977
1977
1979
1980
1981
1981
1981
1980
1980
1980
1980
1980
1980
1980
1980
1980
1981
1982
1982
1981
1980
1979
1978
1978
1978
1977
1977
1977
1978
1980
1981
1982
1984
1985
1987
1988
1989
1988
1986
1984
1982
1981
1981
1981
1981
1981
1981
1980
1980
1980
1981
1983
1985
1986
1983
1977
1969
1964
1970
1991
2033
2086
2135
2160
2146
2098
2036
1983
1956
1956
1970
1983
1989
1987
1983
1981
1980
1980
1980
1979
1979
1978
1979
1980
1982
1983
1984
1983
1983
1982
1982
1982
1983
1984
1986
1987
1988
1989
1989
1989
1990
1990
1992
1994
1996
1997
1999
1999
2000
2000
2001
2002
2003
2004
2005
2006
2006
2005
2003
2001
1999
1997
1994
1991
1989
1986
1984
1982
1979
1977
1976
1976
1977
1977
1978
1977
1977
1976
1975
1975
1974
1973
1973
1973
1974
1975
1975
1975
1975
1975
1975
1975
1976
1977
1978
1978
1978
1978
1978
1977
1976
1976
1976
1977
1978
1979
1979
1978
1978
1977
1976
1976
1976
1977
1977
1976
1975
1973
1973
1973
1974
1976
1978
1979
1981
1982
1983
1984
1983
1981
1979
1978
1977
1976
1976
1975
1975
1975
1975
1976
1975
1975
1975
1976
1977
1977
1973
1966
1957
1954
1964
1991
2039
2096
2143
2159
2135
2080
2016
1967
1947
1951
1966
1978
1981
1977
1972
1970
1969
1969
1969
1970
1970
1971
1971
1972
1973
1973
1973
1973
1972
1972
1973
1974
1975
1977
1978
1978
1978
1978
1979
1980
1981
1982
1984
1985
1986
1988
1989
1989
1990
1991
1992
1993
1994
1995
1995
1995
1994
1993
1993
1991
1990
1987
1985
1982
1980
1978
1976
1974
1972
1971
1971
1971
1971
1972
1972
1971
1971
1970
1970
1969
1969
1969
1969
1970
1970
1970
1970
1971
1971
1971
1972
1972
1972
1973
1973
1973
1973
1973
1973
1973
1974
1974
1975
1975
1975
1974
1973
1973
1973
1973
1973
1974
1975
1975
1975
1974
1974
1973
1972
1972
1971
1970
1970
1971
1972
1973
1974
1975
1976
1978
1980
1981
1982
1982
1980
1978
1976
1974
1973
1973
1974
1974
1975
1976
1976
1975
1975
1975
1976
1976
1974
1969
1961
1954
1956
1972
2008
2059
2115
2152
2154
2118
2058
1999
1961
1950
1959
1972
1979
1978
1973
1970
1969
1970
1970
1970
1969
1969
1969
1969
1970
1972
1973
1973
1974
1974
1974
1974
1974
1974
1975
1976
1977
1978
1978
1978
1979
1980
1981
1982
1983
1985
1986
1987
1988
1989
1990
1990
1991
1992
1992
1993
1993
1992
1992
1990
1988
1985
1982
1980
1977
1976
1975
1974
1973
1972
1971
1970
1969
1969
1969
1969
1970
1970
1970
1970
1969
1969
1968
1968
1967
1968
1968
1969
1969
1970
1970
1971
1971
1971
1971
1971
1972
1972
1972
1972
1971
1971
1971
1971
1971
1971
1972
1972
1972
1972
1972
1972
1972
1972
1972
1973
1973
1974
1974
1974
1973
1972
1971
1970
1970
1970
1971
1972
1974
1975
1976
1977
1979
1980
1981
1982
1981
1980
1978
1976
1974
1973
1973
1973
1974
1974
1975
1976
1976
1976
1977
1977
1976
1972
1965
1958
1955
1963
1987
2031
2085
2133
2156
2140
2091
2030
1980
1955
1955
1967
1978
1980
1976
1972
1970
1970
1970
1970
1971
1971
1971
1971
1971
1972
1973
1973
1974
1975
1975
1975
1976
1975
1975
1976
1976
1978
1979
1980
1980
1981
1981
1981
1982
1983
1984
1986
1988
1989
1990
1991
1991
1991
1991
1991
1991
1992
1992
1991
1990
1988
1985
1982
1979
1977
1976
1975
1974
1974
1973
1972
1971
1970
1969
1969
1969
1969
1970
1970
1970
1969
1968
1967
1967
1967
1968
1969
1970
1970
1971
1970
1970
1970
1970
1970
1970
1971
1972
1972
1972
1972
1972
1971
1971
1971
1972
1972
1973
1973
1973
1972
1972
1971
1971
1971
1971
1972
1972
1972
1971
1970
1969
1968
1966
1965
1965
1967
1969
1971
1973
1974
1975
1976
1977
1978
1978
1977
1975
1974
1973
1972
1972
1972
1971
1971
1972
1972
1973
1973
1974
1975
1975
1972
1967
1959
1953
1954
1968
2001
2049
2103
2142
2149
2119
2062
2003
1963
1949
1957
1970
1978
1978
1972
1968
1967
1966
1967
1968
1968
1969
1969
1969
1969
1968
1969
1969
1970
1971
1972
1973
1974
1974
1974
1974
1974
1974
1975
1976
1977
1978
1978
1979
1980
1981
1982
1982
1984
1985
1986
1987
1988
1989
1989
1988
1987
1986
1985
1984
1983
1981
1978
1976
1974
1971
1970
1969
1968
1967
1967
1967
1966
1965
1965
1964
1963
1963
1963
1963
1964
1964
1964
1963
1963
1963
1963
1963
1963
1964
1964
1964
1965
1965
1965
1966
1966
1967
1967
1967
1967
1967
1967
1967
1967
1967
1967
1967
1967
1967
1967
1967
1966
1965
1964
1964
1963
1964
1964
1964
1964
1964
1964
1965
1965
1966
1967
1968
1971
1973
1974
1974
1973
1970
1967
1965
1965
1965
1966
1967
1967
1966
1965
1964
1964
1964
1966
1968
1968
1964
1957
1949
1946
1957
1984
2029
2081
2122
2135
2111
2060
2003
1958
1940
1944
1957
1967
1970
1967
1965
1964
1964
1964
1963
1962
1961
1960
1961
1962
1963
1965
1966
1966
1966
1966
1965
1966
1966
1967
1969
1970
1971
1972
1973
1974
1974
1975
1976
1978
1979
1981
1983
1984
1984
1984
1985
1985
1987
1988
1989
1989
1989
1988
1987
1985
1983
1981
1978
1976
1973
1971
1970
1969
1968
1967
1966
1965
1965
1965
1965
1965
1965
1963
1962
1961
1962
1963
1964
1965
1966
1966
1965
1964
1964
1963
1964
1965
1966
1967
1968
1969
1970
1970
1969
1968
1967
1967
1967
1967
1968
1969
1969
1970
1969
1968
1966
1965
1966
1969
1972
1976
1977
1975
1971
1968
1968
1970
1975
1979
1981
1980
1977
1975
1973
1973
1974
1975
1976
1977
1977
1977
1976
1977
1977
1979
1982
1984
1983
1977
1968
1959
1958
1970
1999
2044
2095
2135
2147
2123
2071
2013
1968
1950
1954
1968
1980
1983
1981
1978
1977
1975
1974
1972
1971
1972
1973
1975
1976
1977
1977
1978
1979
1979
1979
1979
1978
1978
1978
1979
1980
1981
1982
1983
1984
1984
1985
1987
1989
1991
1994
1995
1995
1995
1995
1996
1997
1999
1999
1998
1997
1996
1995
1994
1992
1990
1987
1984
1982
1982
1982
1983
1982
1979
1976
1973
1971
1970
1971
1972
1974
1974
1975
1975
1975
1974
1972
1971
1971
1971
1973
1974
1975
1974
1974
1974
1975
1977
1978
1979
1978
1977
1976
1976
1978
1980
1981
1981
1980
1980
1980
1981
1981
1980
1979
1976
1974
1974
1976
1979
1983
1987
1989
1991
1991
1991
1990
1988
1986
1984
1982
1982
1982
1984
1985
1984
1983
1981
1980
1980
1981
1985
1989
1992
1990
1984
1974
1965
1967
1986
2028
2086
2144
2181
2178
2135
2071
2012
1977
1970
1982
1996
2003
2001
1996
1992
1990
1991
1993
1996
1998
1998
1997
1994
1992
1992
1993
1995
1998
2001
2003
2005
2006
2008
2009
2011
2012
2012
2012
2013
2015
2018
2021
2023
2023
2022
2021
2022
2023
2024
2026
2028
2029
2031
2032
2031
2030
2027
2024
2021
2017
2014
2011
2009
2007
2006
2004
2002
2000
1998
1998
1999
2000
2001
1999
1997
1995
1995
1997
1999
1999
1997
1994
1993
1994
1996
1997
1996
1994
1993
1994
1997
2000
2002
2002
2000
1999
1999
2000
2002
2005
2005
2005
2003
2001
2001
2002
2005
2006
2007
2007
2007
2009
2011
2013
2013
2012
2010
2011
2013
2016
2016
2014
2008
2003
2000
2001
2004
2008
2011
2011
2010
2008
2007
2008
2008
2006
2001
1992
1983
1980
1990
2019
2069
2130
2179
2193
2164
2104
2040
1994
1979
1986
2000
2009
2010
2005
2003
2003
2003
2004
2005
2007
2008
2008
2008
2008
2009
2010
2011
2012
2011
2010
2010
2011
2012
2012
2012
2012
2013
2014
2016
2019
2020
2021
2021
2019
2019
2021
2024
2028
2030
2031
2031
2030
2030
2030
2030
2030
2031
2031
2028
2025
2021
2018
2018
2018
2017
2015
2011
2006
2002
2000
2000
2002
2003
2003
2002
2000
1998
1999
2001
2003
2004
2003
2001
1998
1997
1998
2001
2004
2005
2005
2004
2002
2001
2000
2000
2001
2002
2003
2003
2003
2004
2005
2006
2005
2004
2001
1998
1995
1994
1994
1994
1995
1996
1998
1999
2001
2004
2007
2009
2009
2009
2006
2004
2000
1997
1993
1991
1991
1992
1994
1994
1994
1993
1994
1995
1997
1999
1998
1994
1987
1979
1974
1980
2003
2047
2103
2154
2177
2159
2107
2043
1991
1967
1969
1983
1994
1997
1993
1989
1988
1988
1988
1989
1988
1987
1987
1986
1985
1986
1987
1989
1991
1991
1990
1988
1988
1990
1992
1995
1997
1997
1996
1995
1995
1996
1998
2001
2004
2006
2007
2007
2007
2006
2007
2007
2008
2009
2010
2010
2009
2007
2005
2003
2001
1999
1997
1995
1993
1991
1989
1987
1986
1985
1984
1984
1984
1983
1983
1983
1983
1984
1984
1983
1982
1980
1979
1980
1981
1982
1981
1981
1980
1981
1982
1983
1984
1983
1983
1984
1986
1987
1986
1984
1982
1982
1982
1984
1985
1984
1983
1981
1980
1980
1981
1983
1985
1987
1989
1991
1992
1992
1991
1989
1987
1985
1983
1983
1983
1984
1985
1986
1986
1986
1984
1983
1981
1981
1982
1984
1984
1981
1977
1972
1967
1968
1979
2007
2054
2111
2157
2170
2140
2078
2011
1964
1951
1962
1980
1990
1990
1984
1980
1978
1977
1977
1976
1977
1978
1980
1982
1983
1983
1983
1984
1985
1987
1988
1989
1990
1990
1991
1992
1992
1992
1993
1993
1993
1994
1995
1997
1999
2000
2001
2001
2002
2002
2004
2006
2006
2006
2005
2003
2002
2002
2001
2001
1999
1997
1994
1991
1990
1988
1987
1986
1985
1983
1983
1982
1982
1982
1981
1980
1979
1979
1980
1981
1981
1981
1980
1980
1980
1982
1982
1982
1980
1978
1977
1978
1979
1981
1983
1983
1983
1982
1981
1980
1981
1982
1983
1984
1984
1982
1979
1976
1975
1975
1978
1981
1983
1984
1985
1985
1986
1987
1988
1987
1985
1983
1980
1979
1979
1980
1980
1979
1978
1977
1977
1977
1978
1979
1980
1980
1978
1974
1967
1961
1961
1975
2009
2060
2116
2152
2153
2113
2050
1990
1954
1947
1960
1977
1986
1984
1978
1972
1970
1969
1970
1972
1973
1973
1973
1974
1974
1974
1973
1972
1971
1973
1975
1977
1978
1979
1978
1978
1978
1979
1980
1981
1982
1983
1983
1983
1984
1985
1986
1987
1989
1990
1991
1992
1993
1992
1991
1989
1986
1985
1984
1984
1982
1981
1979
1977
1977
1976
1975
1973
1970
1967
1964
1962
1960
1959
1960
1961
1963
1964
1964
1963
1962
1962
1963
1965
1965
1964
1962
1961
1961
1962
1965
1967
1967
1967
1965
1963
1962
1962
1963
1966
1968
1971
1971
1970
1967
1964
1962
1961
1961
1963
1965
1967
1970
1971
1973
1974
1976
1977
1977
1976
1974
1972
1968
1965
1962
1961
1962
1964
1966
1969
1970
1971
1970
1971
1971
1969
1965
1957
1948
1945
1952
1976
2020
2073
2120
2139
2119
2066
2004
1955
1934
1940
1957
1970
1973
1968
1964
1964
1965
1967
1968
1968
1968
1967
1967
1966
1965
1964
1964
1967
1971
1975
1977
1976
1974
1972
1971
1971
1973
1975
1977
1977
1977
1978
1980
1983
1987
1991
1994
1995
1993
1991
1988
1986
1987
1989
1993
1997
1998
1996
1994
1991
1989
1987
1984
1980
1976
1972
1971
1971
1972
1973
1973
1973
1972
1971
1969
1969
1969
1969
1970
1971
1970
1969
1968
1967
1967
1968
1969
1972
1974
1975
1975
1973
1972
1971
1973
1975
1976
1977
1977
1977
1977
1976
1974
1972
1970
1969
1969
1971
1972
1975
1977
1979
1980
1982
1983
1985
1985
1983
1980
1977
1975
1973
1973
1972
1971
1971
1971
1972
1974
1976
1977
1978
1978
1977
1972
1964
1954
1948
1954
1975
2017
2072
2127
2157
2148
2101
2036
1976
1943
1940
1955
1971
1979
1979
1975
1972
1971
1970
1971
1972
1973
1974
1973
1972
1971
1970
1970
1971
1974
1977
1979
1980
1979
1977
1976
1976
1979
1983
1986
1987
1987
1984
1983
1983
1983
1986
1989
1992
1995
1997
1998
1996
1995
1995
1995
1996
1997
1996
1994
1991
1988
1985
1982
1979
1978
1976
1976
1976
1976
1975
1973
1971
1969
1968
1969
1970
1971
1970
1969
1967
1967
1967
1968
1968
1969
1969
1969
1970
1971
1972
1972
1971
1970
1969
1969
1971
1973
1974
1974
1972
1971
1970
1969
1970
1970
1972
1974
1976
1976
1976
1975
1975
1976
1978
1979
1978
1976
1973
1972
1971
1971
1972
1973
1973
1971
1970
1969
1970
1971
1973
1975
1976
1974
1970
1962
1953
1949
1955
1978
2022
2079
2134
2162
2149
2098
2031
1973
1943
1942
1957
1973
1981
1979
1973
1968
1965
1964
1965
1966
1969
1970
1971
1971
1971
1971
1972
1972
1973
1974
1975
1975
1974
1973
1973
1974
1977
1980
1982
1982
1981
1980
1980
1981
1982
1984
1986
1988
1989
1991
1992
1993
1994
1994
1992
1990
1987
1986
1986
1986
1985
1983
1981
1978
1975
1973
1972
1972
1972
1972
1971
1969
1967
1966
1965
1964
1965
1966
1967
1968
1968
1968
1967
1966
1966
1965
1966
1966
1967
1969
1970
1970
1971
1971
1972
1972
1972
1971
1971
1971
1973
1975
1976
1976
1975
1972
1970
1969
1969
1970
1972
1976
1979
1981
1982
1982
1980
1980
1979
1980
1981
1981
1980
1978
1977
1976
1975
1975
1974
1973
1973
1973
1973
1975
1977
1979
1979
1976
1969
1960
1954
1959
1980
2020
2074
2128
2160
2155
2112
2048
1989
1952
1945
1956
1971
1980
1981
1979
1977
1975
1973
1973
1973
1973
1974
1974
1974
1974
1975
1978
1980
1981
1981
1979
1977
1977
1978
1981
1983
1985
1986
1986
1987
1987
1988
1988
1989
1990
1992
1994
1996
1997
1997
1997
1997
1998
1998
1999
1999
2000
2000
1999
1996
1993
1989
1986
1984
1983
1983
1982
1982
1980
1978
1976
1975
1975
1976
1977
1976
1975
1973
1973
1974
1975
1976
1976
1976
1975
1974
1974
1974
1975
1976
1976
1976
1976
1975
1977
1979
1982
1983
1982
1978
1974
1973
1974
1976
1979
1980
1981
1980
1979
1976
1974
1972
1972
1974
1978
1980
1982
1982
1981
1981
1982
1983
1984
1983
1982
1979
1977
1977
1977
1977
1977
1977
1977
1977
1978
1979
1979
1979
1979
1979
1977
1973
1965
1959
1962
1978
2015
2067
2122
2156
2154
2113
2050
1992
1957
1951
1962
1977
1984
1982
1976
1973
1972
1971
1972
1975
1977
1979
1979
1977
1974
1972
1972
1974
1976
1978
1978
1977
1976
1977
1978
1980
1983
1986
1987
1986
1985
1983
1982
1983
1985
1988
1990
1991
1992
1993
1994
1995
1996
1997
1996
1995
1993
1992
1991
1990
1989
1987
1985
1982
1980
1978
1976
1975
1973
1973
1973
1973
1973
1973
1973
1972
1970
1969
1969
1971
1973
1975
1975
1973
1971
1969
1969
1970
1972
1973
1973
1973
1974
1975
1975
1975
1974
1972
1973
1974
1976
1977
1976
1974
1972
1971
1972
1973
1975
1975
1975
1975
1975
1975
1975
1973
1971
1969
1968
1970
1973
1977
1980
1981
1981
1981
1981
1981
1981
1980
1979
1978
1977
1975
1973
1973
1973
1975
1976
1977
1976
1976
1978
1980
1981
1978
1971
1962
1957
1961
1980
2016
2067
2119
2150
2146
2105
2044
1987
1954
1950
1963
1979
1985
1982
1975
1972
1971
1971
1971
1971
1971
1970
1971
1971
1972
1974
1975
1976
1978
1979
1979
1979
1979
1978
1978
1977
1977
1978
1980
1982
1983
1984
1984
1984
1985
1987
1989
1991
1993
1993
1993
1992
1991
1991
1991
1991
1992
1992
1990
1988
1986
1984
1984
1983
1981
1978
1975
1974
1973
1974
1974
1973
1970
1968
1967
1967
1968
1968
1968
1967
1967
1968
1969
1970
1971
1971
1971
1970
1970
1970
1970
1970
1971
1971
1971
1971
1971
1971
1972
1972
1972
1971
1970
1969
1970
1971
1972
1973
1973
1973
1971
1970
1968
1966
1966
1968
1971
1974
1975
1975
1974
1974
1975
1977
1977
1977
1976
1975
1973
1972
1970
1969
1969
1969
1970
1971
1971
1971
1970
1971
1972
1972
1970
1965
1958
1953
1956
1973
2009
2060
2112
2145
2141
2100
2039
1982
1949
1944
1956
1971
1977
1974
1968
1964
1963
1963
1964
1966
1967
1968
1969
1969
1969
1969
1968
1968
1969
1970
1971
1972
1973
1973
1973
1972
1972
1973
1976
1979
1982
1982
1981
1980
1979
1980
1981
1983
1983
1984
1985
1987
1990
1991
1990
1988
1984
1981
1980
1980
1980
1980
1979
1977
1974
1971
1968
1965
1963
1963
1962
1963
1965
1966
1965
1963
1960
1958
1957
1958
1960
1962
1964
1966
1968
1968
1966
1962
1959
1959
1961
1964
1965
1964
1961
1960
1960
1962
1964
1966
1968
1969
1969
1969
1967
1964
1962
1961
1961
1963
1964
1964
1963
1962
1961
1962
1965
1968
1970
1973
1974
1975
1974
1972
1970
1968
1966
1964
1964
1964
1965
1966
1967
1966
1965
1964
1963
1965
1967
1968
1966
1960
1951
1945
1948
1966
2002
2052
2101
2130
2123
2082
2024
1971
1941
1936
1947
1961
1968
1969
1967
1966
1965
1963
1962
1961
1961
1961
1961
1963
1965
1968
1969
1968
1967
1965
1964
1965
1967
1969
1971
1972
1973
1974
1974
1973
1973
1973
1975
1978
1981
1983
1983
1983
1983
1983
1984
1985
1986
1987
1988
1988
1988
1987
1984
1982
1979
1976
1973
1971
1969
1967
1967
1966
1965
1963
1961
1959
1958
1958
1959
1959
1958
1957
1956
1956
1957
1957
1958
1958
1958
1959
1959
1960
1961
1961
1961
1960
1959
1958
1958
1960
1962
1963
1963
1963
1963
1964
1965
1965
1964
1962
1961
1960
1960
1960
1960
1961
1962
1964
1967
1969
1972
1973
1974
1972
1970
1968
1966
1966
1966
1966
1965
1963
1962
1963
1964
1965
1967
1968
1970
1972
1973
1969
1962
1953
1945
1946
1960
1993
2043
2096
2134
2140
2107
2048
1987
1947
1936
1946
1963
1973
1975
1970
1966
1964
1963
1963
1965
1966
1968
1970
1971
1972
1972
1971
1971
1972
1974
1977
1979
1980
1980
1980
1979
1978
1977
1977
1979
1982
1984
1987
1988
1989
1989
1989
1989
1990
1991
1993
1994
1996
1997
1997
1996
1994
1993
1991
1990
1988
1986
1984
1983
1982
1981
1979
1976
1972
1968
1967
1968
1970
1972
1971
1969
1967
1966
1966
1966
1967
1967
1968
1968
1970
1971
1971
1970
1968
1966
1966
1968
1971
1974
1975
1973
1970
1969
1970
1973
1976
1977
1975
1973
1971
1970
1970
1970
1969
1968
1969
1970
1973
1975
1975
1975
1975
1976
1978
1979
1980
1980
1978
1977
1975
1973
1972
1970
1969
1968
1968
1970
1972
1974
1975
1975
1973
1971
1967
1962
1956
1954
1961
1982
2022
2075
2125
2152
2141
2094
2032
1977
1948
1948
1962
1976
1981
1977
1970
1967
1966
1968
1971
1972
1972
1971
1971
1972
1973
1974
1975
1975
1975
1975
1974
1974
1974
1976
1977
1979
1980
1981
1982
1984
1985
1986
1987
1987
1987
1988
1988
1988
1989
1990
1992
1992
1992
1992
1991
1991
1991
1990
1989
1988
1986
1985
1984
1982
1979
1977
1975
1974
1973
1973
1972
1972
1972
1971
1970
1969
1968
1969
1970
1971
1972
1972
1971
1970
1970
1971
1971
1972
1972
1972
1972
1972
1973
1974
1975
1976
1976
1976
1977
1976
1976
1975
1974
1974
1974
1974
1974
1974
1973
1972
1972
1973
1975
1976
1977
1977
1978
1979
1981
1982
1982
1980
1978
1977
1976
1975
1975
1976
1977
1977
1977
1975
1973
1971
1972
1974
1977
1978
1976
1970
1961
1955
1956
1971
2003
2050
2103
2142
2148
2116
2059
2000
1959
1947
1957
1972
1981
1980
1974
1970
1968
1969
1969
1968
1967
1966
1967
1969
1971
1973
1973
1972
1971
1972
1974
1977
1978
1977
1974
1972
1972
1973
1975
1977
1978
1979
1980
1981
1982
1983
1984
1986
1986
1987
1987
1986
1987
1987
1988
1987
1986
1984
1982
1980
1979
1978
1977
1975
1973
1971
1968
1966
1964
1964
1963
1964
1965
1966
1966
1965
1963
1962
1961
1962
1963
1964
1964
1964
1964
1964
1964
1964
1964
1965
1965
1966
1966
1967
1967
1967
1966
1966
1966
1966
1966
1967
1968
1969
1970
1970
1970
1969
1968
1967
1967
1965
1964
1963
1963
1964
1966
1967
1965
1965
1967
1972
1977
1980
1978
1974
1969
1965
1963
1964
1965
1967
1967
1967
1966
1964
1963
1964
1966
1969
1971
1970
1967
1961
1954
1949
1951
1966
1998
2046
2096
2131
2134
2100
2044
1987
1951
1941
1950
1964
1971
1970
1965
1963
1963
1964
1965
1964
1964
1962
1962
1962
1963
1964
1965
1965
1964
1964
1964
1965
1966
1968
1969
1969
1968
1968
1966
1966
1966
1967
1970
1974
1976
1977
1976
1974
1973
1974
1975
1977
1978
1979
1979
1978
1978
1978
1977
1976
1973
1970
1967
1966
1965
1966
1965
1963
1960
1959
1958
1959
1958
1957
1956
1956
1957
1959
1960
1960
1960
1959
1959
1961
1962
1965
1967
1968
1968
1968
1968
1970
1971
1972
1971
1970
1969
1969
1970
1972
1973
1973
1973
1973
1973
1974
1975
1975
1975
1974
1973
1972
1971
1971
1971
1972
1973
1973
1974
1976
1979
1981
1981
1980
1977
1974
1971
1969
1968
1967
1966
1966
1966
1967
1967
1968
1969
1969
1970
1970
1969
1965
1959
1952
1948
1953
1971
2005
2052
2099
2125
2119
2078
2021
1970
1941
1939
1952
1965
1970
1967
1962
1959
1959
1960
1962
1963
1963
1960
1958
1956
1956
1957
1960
1962
1964
1965
1965
1965
1964
1964
1965
1967
1968
1968
1967
1966
1967
1968
1971
1973
1974
1974
1974
1975
1976
1979
1981
1982
1982
1980
1978
1977
1978
1980
1981
1981
1977
1973
1969
1966
1965
1966
1967
1967
1968
1968
1968
1969
1969
1969
1969
1969
1969
1969
1969
1969
1969
1968
1968
1967
1967
1967
1967
1968
1970
1970
1971
1970
1969
1969
1969
1969
1969
1970
1970
1971
1971
1972
1972
1972
1972
1970
1969
1966
1964
1963
1962
1962
1963
1965
1966
1967
1966
1966
1966
1967
1968
1970
1970
1970
1968
1966
1965
1964
1964
1963
1962
1961
1960
1961
1962
1963
1965
1966
1967
1966
1962
1955
1946
1940
1942
1959
1993
2041
2089
2120
2118
2082
2027
1973
1941
1934
1945
1961
1972
1973
1969
1964
1958
1955
1954
1956
1959
1961
1962
1963
1963
1964
1964
1964
1963
1962
1963
1966
1970
1972
1973
1971
1968
1966
1966
1969
1973
1976
1978
1977
1976
1976
1977
1978
1980
1981
1982
1984
1985
1986
1986
1985
1985
1985
1986
1985
1982
1977
1971
1966
1964
1963
1963
1962
1960
1959
1957
1956
1956
1957
1958
1959
1960
1958
1955
1951
1949
1950
1953
1956
1958
1958
1957
1955
1956
1957
1959
1962
1963
1963
1962
1962
1962
1962
1963
1963
1962
1962
1963
1965
1968
1970
1969
1966
1962
1960
1961
1964
1968
1972
1973
1973
1973
1973
1973
1974
1975
1974
1973
1971
1969
1968
1969
1969
1969
1969
1968
1969
1970
1971
1972
1973
1972
1969
1965
1959
1954
1954
1966
1992
2035
2082
2118
2124
2096
2045
1989
1951
1938
1946
1962
1974
1978
1977
1975
1974
1973
1973
1972
1971
1971
1972
1975
1977
1978
1977
1976
1975
1975
1976
1977
1979
1980
1980
1980
1980
1981
1983
1986
1989
1992
1993
1993
1993
1994
1996
1998
1999
1998
1998
1998
1999
2001
2003
2003
2003
2002
2001
2000
1999
1996
1994
1991
1988
1986
1984
1983
1983
1983
1982
1980
1977
1975
1973
1972
1972
1972
1972
1973
1975
1977
1978
1977
1975
1974
1973
1974
1975
1977
1977
1977
1976
1975
1975
1975
1975
1976
1977
1979
1980
1981
1980
1977
1974
1972
1971
1971
1973
1974
1976
1976
1977
1978
1980
1981
1982
1982
1983
1983
1984
1984
1981
1978
1974
1972
1972
1974
1976
1978
1978
1978
1977
1976
1977
1977
1976
1972
1966
1959
1959
1972
2001
2045
2093
2126
2129
2098
2046
1991
1954
1944
1953
1969
1979
1983
1980
1978
1977
1977
1977
1977
1978
1978
1976
1975
1974
1975
1978
1980
1982
1982
1981
1980
1981
1983
1985
1987
1987
1986
1984
1984
1985
1988
1991
1993
1994
1995
1995
1996
1998
1999
2000
2001
2001
2002
2002
2003
2004
2004
2002
2000
1996
1992
1989
1987
1985
1985
1985
1983
1981
1978
1975
1972
1972
1972
1973
1974
1975
1975
1974
1973
1972
1971
1970
1970
1970
1970
1972
1974
1976
1977
1977
1975
1973
1972
1972
1973
1975
1976
1977
1976
1975
1974
1974
1974
1974
1973
1972
1971
1970
1971
1973
1976
1978
1978
1978
1978
1978
1979
1979
1978
1976
1973
1971
1970
1970
1970
1971
1972
1972
1972
1972
1971
1971
1972
1973
1972
1968
1962
1955
1953
1962
1987
2030
2081
2123
2135
2111
2057
1998
1954
1938
1945
1960
1972
1974
1971
1967
1965
1964
1964
1965
1968
1970
1970
1968
1965
1963
1963
1965
1967
1969
1968
1967
1967
1967
1968
1969
1971
1972
1973
1975
1975
1976
1977
1978
1979
1980
1980
1980
1982
1984
1985
1986
1985
1983
1982
1983
1984
1986
1987
1986
1982
1977
1973
1970
1970
1971
1970
1968
1965
1961
1959
1958
1959
1959
1960
1960
1960
1960
1960
1960
1959
1957
1956
1956
1957
1959
1961
1963
1964
1964
1965
1964
1963
1962
1960
1960
1961
1962
1963
1963
1963
1962
1963
1964
1965
1965
1964
1962
1962
1963
1964
1965
1965
1966
1966
1967
1967
1968
1969
1969
1969
1968
1967
1964
1962
1961
1961
1962
1964
1966
1967
1967
1966
1965
1964
1964
1965
1965
1962
1955
1948
1945
1953
1977
2021
2074
2119
2136
2117
2067
2008
1961
1941
1944
1957
1969
1973
1970
1965
1961
1958
1956
1957
1959
1961
1962
1964
1965
1967
1968
1968
1967
1967
1967
1969
1971
1972
1973
1973
1973
1974
1975
1975
1975
1975
1975
1977
1979
1981
1983
1984
1985
1985
1985
1985
1987
1989
1990
1991
1990
1987
1984
1981
1978
1976
1975
1974
1973
1971
1970
1968
1966
1964
1963
1963
1963
1963
1963
1963
1962
1963
1963
1963
1963
1962
1961
1960
1959
1959
1959
1960
1961
1963
1963
1964
1963
1963
1963
1964
1965
1966
1967
1967
1966
1965
1965
1966
1967
1967
1966
1965
1963
1963
1964
1967
1969
1971
1972
1973
1973
1973
1972
1971
1970
1968
1968
1967
1967
1968
1968
1969
1969
1968
1967
1965
1965
1967
1970
1971
1970
1964
1955
1947
1947
1962
1996
2047
2099
2134
2136
2101
2044
1987
1952
1943
1954
1968
1976
1975
1970
1967
1965
1965
1966
1967
1968
1970
1971
1973
1975
1976
1976
1975
1973
1972
1972
1974
1976
1978
1979
1979
1979
1979
1980
1981
1982
1983
1984
1986
1987
1989
1990
1991
1993
1994
1995
1996
1997
1998
1998
1997
1995
1993
1991
1990
1988
1987
1986
1984
1981
1979
1977
1976
1975
1974
1974
1973
1973
1972
1971
1970
1971
1972
1972
1973
1972
1970
1969
1969
1970
1970
1970
1969
1969
1969
1971
1973
1975
1974
1972
1970
1968
1968
1968
1969
1969
1970
1970
1969
1968
1966
1964
1962
1962
1963
1965
1967
1968
1968
1968
1968
1970
1971
1972
1972
1971
1969
1967
1965
1964
1963
1962
1961
1961
1961
1962
1962
1963
1964
1965
1966
1966
1964
1959
1951
1945
1947
1962
1995
2044
2092
2124
2122
2086
2031
1977
1946
1940
1952
1965
1971
1968
1961
1956
1955
1955
1957
1959
1960
1960
1960
1960
1959
1960
1961
1963
1965
1966
1966
1966
1966
1965
1966
1967
1969
1971
1973
1974
1976
1977
1978
1980
1982
1984
1987
1989
1991
1991
1992
1994
1995
1995
1995
1994
1993
1992
1992
1992
1991
1989
1985
1981
1978
1978
1978
1979
1979
1977
1973
1970
1968
1968
1969
1970
1971
1971
1971
1971
1971
1972
1972
1972
1972
1972
1971
1972
1972
1973
1974
1975
1975
1974
1974
1975
1976
1978
1979
1979
1978
1976
1975
1975
1975
1976
1976
1975
1975
1976
1976
1976
1976
1975
1976
1978
1980
1982
1983
1983
1982
1982
1981
1980
1979
1978
1977
1976
1975
1974
1974
1974
1975
1975
1975
1976
1978
1981
1981
1976
1967
1959
1958
1972
2005
2053
2102
2134
2132
2096
2040
1985
1953
1947
1959
1975
1985
1987
1983
1980
1977
1974
1972
1971
1972
1974
1977
1978
1980
1980
1980
1979
1978
1979
1980
1981
1983
1985
1986
1987
1987
1987
1986
1985
1986
1987
1990
1993
1995
1996
1997
1998
1999
2000
2001
2001
2002
2003
2004
2005
2004
2002
2000
1997
1996
1995
1993
1990
1987
1983
1980
1979
1978
1978
1977
1976
1974
1973
1973
1973
1974
1974
1974
1972
1971
1970
1971
1972
1973
1974
1974
1974
1974
1974
1975
1976
1976
1977
1977
1978
1978
1978
1978
1978
1977
1977
1976
1976
1976
1976
1976
1977
1976
1975
1972
1971
1971
1973
1976
1979
1980
1979
1978
1976
1975
1974
1973
1972
1970
1967
1964
1961
1960
1960
1961
1963
1963
1963
1963
1964
1965
1967
1966
1960
1951
1942
1940
1951
1982
2030
2084
2124
2132
2101
2045
1984
1943
1931
1941
1958
1969
1972
1968
1965
1963
1961
1961
1960
1960
1961
1962
1964
1966
1968
1969
1970
1971
1972
1973
1974
1976
1976
1977
1977
1978
1979
1979
1981
1983
1986
1989
1991
1991
1989
1988
1988
1990
1994
1997
1998
1999
2000
2001
2001
2001
1999
1997
1995
1995
1995
1993
1990
1987
1984
1982
1982
1981
1979
1977
1976
1975
1975
1976
1975
1974
1973
1972
1973
1974
1975
1975
1975
1974
1974
1974
1973
1974
1975
1976
1977
1977
1975
1973
1972
1974
1976
1978
1978
1977
1975
1973
1972
1972
1973
1974
1974
1973
1971
1970
1969
1970
1971
1973
1974
1976
1977
1978
1979
1979
1979
1979
1977
1975
1973
1971
1970
1970
1970
1970
1970
1970
1971
1973
1974
1974
1972
1970
1964
1957
1951
1951
1964
1997
2048
2104
2146
2152
2117
2055
1992
1951
1940
1951
1968
1977
1975
1968
1963
1963
1966
1970
1971
1970
1968
1965
1965
1968
1971
1973
1972
1971
1969
1969
1971
1973
1974
1974
1974
1975
1978
1981
1983
1983
1983
1983
1984
1986
1988
1991
1993
1994
1995
1996
1996
1996
1997
1997
1998
1999
1998
1995
1992
1990
1989
1988
1987
1984
1980
1975
1971
1970
1972
1974
1975
1974
1971
1969
1968
1969
1970
1971
1970
1969
1968
1970
1972
1974
1974
1971
1968
1966
1966
1968
1971
1973
1973
1972
1971
1970
1971
1973
1974
1975
1975
1973
1972
1972
1973
1975
1977
1977
1974
1971
1968
1968
1972
1976
1981
1985
1986
1985
1983
1981
1979
1977
1976
1975
1974
1974
1975
1978
1982
1984
1983
1980
1977
1976
1977
1980
1980
1974
1965
1957
1958
1974
2011
2065
2122
2161
2163
2125
2062
2002
1963
1955
1966
1982
1991
1990
1984
1981
1979
1978
1978
1979
1979
1980
1981
1981
1982
1982
1982
1982
1982
1983
1985
1987
1989
1990
1989
1988
1987
1987
1988
1990
1990
1990
1991
1992
1994
1997
2000
2002
2002
2001
2000
2001
2002
2003
2004
2004
2002
2000
1998
1995
1992
1990
1988
1986
1985
1983
1980
1977
1974
1972
1972
1974
1975
1976
1976
1975
1973
1971
1969
1968
1969
1970
1971
1972
1972
1972
1972
1972
1973
1973
1972
1970
1969
1969
1971
1973
1975
1976
1975
1973
1971
1971
1973
1974
1976
1977
1976
1975
1973
1974
1975
1977
1977
1975
1972
1969
1968
1969
1971
1973
1975
1976
1978
1979
1981
1982
1982
1981
1980
1978
1976
1974
1973
1972
1973
1974
1974
1974
1973
1973
1973
1975
1976
1976
1973
1965
1957
1953
1960
1982
2026
2081
2133
2159
2145
2095
2031
1977
1950
1949
1962
1973
1975
1970
1966
1965
1966
1967
1968
1967
1966
1965
1965
1967
1969
1971
1972
1972
1971
1970
1969
1968
1969
1969
1970
1972
1973
1975
1976
1976
1977
1976
1976
1977
1978
1981
1983
1984
1984
1984
1984
1986
1988
1989
1989
1987
1985
1983
1981
1980
1978
1976
1973
1969
1966
1963
1961
1960
1960
1960
1959
1958
1958
1959
1960
1961
1961
1959
1956
1953
1952
1953
1956
1959
1961
1960
1958
1956
1955
1955
1955
1955
1957
1959
1961
1963
1963
1961
1959
1957
1956
1956
1957
1959
1961
1963
1964
1964
1962
1960
1959
1958
1958
1958
1959
1960
1961
1962
1962
1960
1957
1955
1953
1953
1955
1958
1960
1960
1960
1959
1960
1962
1965
1967
1967
1964
1960
1957
1956
1956
1957
1958
1958
1957
1956
1956
1956
1958
1960
1963
1962
1958
1951
1942
1937
1943
1963
2002
2053
2106
2138
2134
2093
2031
1971
1936
1930
1944
1960
1968
1967
1961
1958
1957
1957
1957
1956
1957
1959
1962
1964
1965
1964
1961
1960
1960
1961
1963
1965
1966
1966
1966
1966
1968
1970
1973
1975
1976
1977
1976
1976
1976
1977
1979
1980
1982
1984
1986
1989
1990
1991
1992
1993
1994
1994
1993
1989
1984
1979
1975
1974
1975
1974
1973
1970
1967
1966
1965
1964
1963
1963
1963
1964
1966
1967
1967
1966
1964
1963
1963
1965
1967
1969
1970
1970
1969
1968
1968
1967
1968
1968
1968
1969
1971
1973
1974
1975
1974
1973
1972
1972
1974
1976
1977
1978
1977
1976
1975
1975
1975
1976
1977
1978
1977
1976
1976
1977
1979
1981
1983
1983
1984
1986
1987
1987
1987
1986
1985
1984
1984
1984
1984
1984
1983
1982
1982
1982
1982
1983
1984
1986
1987
1986
1982
1974
1966
1963
1972
1999
2045
2100
2147
2165
2145
2091
2029
1978
1956
1959
1974
1986
1990
1988
1985
1985
1984
1983
1982
1980
1980
1981
1982
1983
1985
1986
1987
1987
1987
1986
1986
1987
1989
1991
1993
1993
1993
1993
1992
1993
1994
1995
1997
1999
2001
2002
2002
2003
2003
2004
2004
2005
2006
2008
2010
2011
2011
2009
2005
2000
1996
1993
1991
1990
1989
1988
1985
1983
1981
1979
1978
1977
1977
1977
1978
1979
1978
1977
1976
1975
1974
1974
1974
1974
1976
1977
1978
1979
1978
1977
1977
1977
1977
1978
1979
1980
1981
1982
1983
1983
1983
1981
1979
1978
1978
1979
1981
1983
1983
1982
1980
1979
1978
1978
1978
1977
1977
1977
1978
1980
1982
1985
1988
1989
1989
1989
1988
1987
1985
1983
1981
1980
1980
1981
1982
1982
1981
1980
1979
1978
1978
1979
1981
1983
1982
1978
1969
1959
1956
1966
1996
2048
2109
2156
2169
2138
2076
2009
1963
1948
1958
1976
1988
1989
1983
1977
1974
1973
1974
1975
1976
1977
1977
1977
1976
1976
1977
1978
1979
1980
1980
1981
1982
1983
1983
1983
1982
1981
1981
1983
1984
1986
1987
1987
1987
1988
1990
1993
1996
1997
1997
1997
1997
1998
2000
2003
2004
2003
2000
1996
1992
1989
1987
1985
1983
1981
1978
1977
1975
1974
1973
1971
1969
1968
1967
1967
1967
1967
1966
1965
1964
1963
1963
1964
1965
1966
1967
1967
1966
1964
1963
1963
1965
1966
1967
1968
1968
1968
1968
1969
1970
1970
1971
1970
1970
1969
1968
1967
1966
1966
1966
1966
1966
1966
1966
1965
1964
1961
1960
1960
1961
1963
1966
1968
1969
1970
1971
1970
1968
1967
1965
1964
1964
1964
1964
1963
1962
1961
1959
1958
1958
1959
1961
1962
1963
1963
1961
1956
1948
1941
1939
1951
1982
2033
2090
2136
2147
2117
2057
1991
1943
1925
1933
1949
1962
1966
1962
1958
1955
1952
1951
1951
1953
1956
1958
1960
1960
1960
1959
1959
1958
1958
1958
1958
1959
1959
1960
1960
1960
1961
1961
1961
1961
1963
1965
1967
1968
1968
1966
1965
1965
1967
1970
1973
1974
1974
1974
1973
1971
1970
1968
1966
1966
1965
1964
1961
1958
1955
1952
1950
1949
1947
1946
1945
1945
1945
1945
1944
1942
1940
1939
1940
1941
1943
1943
1943
1942
1942
1944
1946
1947
1948
1949
1949
1949
1949
1948
1947
1946
1945
1945
1945
1947
1948
1950
1951
1952
1952
1951
1950
1949
1949
1950
1951
1951
1950
1949
1946
1945
1944
1944
1945
1947
1948
1950
1952
1954
1956
1957
1956
1955
1953
1952
1952
1953
1954
1955
1955
1954
1954
1953
1953
1953
1953
1956
1959
1962
1961
1956
1946
1936
1934
1947
1980
2033
2092
2138
2149
2119
2059
1994
1948
1933
1941
1958
1969
1971
1965
1960
1958
1957
1957
1959
1961
1962
1962
1962
1962
1961
1961
1961
1962
1962
1964
1966
1968
1970
1970
1970
1969
1970
1970
1971
1972
1972
1973
1975
1977
1979
1981
1981
1982
1983
1985
1987
1988
1990
1990
1990
1989
1987
1986
1985
1984
1982
1979
1977
1974
1972
1970
1969
1968
1967
1967
1967
1967
1966
1965
1964
1964
1964
1964
1965
1965
1965
1966
1966
1966
1965
1965
1965
1965
1965
1966
1967
1968
1969
1969
1969
1968
1966
1966
1966
1968
1970
1972
1973
1972
1972
1971
1971
1970
1969
1969
1968
1967
1967
1968
1968
1969
1970
1971
1972
1974
1976
1977
1977
1977
1975
1973
1970
1968
1967
1966
1966
1966
1966
1966
1966
1966
1966
1967
1969
1972
1972
1970
1962
1952
1944
1948
1969
2012
2070
2126
2158
2149
2101
2035
1976
1944
1941
1955
1970
1977
1975
1970
1967
1965
1964
1964
1965
1966
1967
1968
1968
1969
1969
1969
1968
1968
1968
1969
1969
1970
1972
1973
1975
1976
1977
1978
1978
1979
1979
1980
1981
1982
1984
1986
1987
1988
1988
1989
1989
1990
1991
1991
1990
1990
1989
1988
1986
1983
1980
1977
1974
1973
1972
1971
1970
1968
1967
1965
1964
1964
1964
1964
1964
1963
1963
1962
1962
1963
1964
1965
1965
1965
1964
1963
1963
1963
1964
1964
1965
1965
1966
1967
1968
1969
1969
1969
1969
1969
1970
1970
1972
1973
1974
1974
1974
1974
1974
1976
1979
1981
1984
1985
1985
1983
1982
1980
1979
1979
1981
1984
1987
1989
1990
1991
1992
1992
1992
1992
1991
1990
1989
1987
1986
1985
1983
1983
1982
1983
1983
1984
1985
1985
1986
1986
1984
1980
1972
1964
1962
1971
1997
2044
2101
2151
2172
2153
2100
2036
1985
1963
1967
1983
1996
2000
1996
1991
1988
1986
1986
1987
1988
1989
1989
1990
1989
1989
1989
1989
1989
1990
1991
1991
1992
1992
1992
1992
1992
1993
1993
1994
1995
1996
1996
1997
1998
1998
1998
1999
2000
2001
2002
2003
2004
2004
2004
2004
2003
2002
2001
2000
1999
1997
1994
1991
1988
1985
1983
1981
1980
1979
1979
1979
1979
1978
1977
1976
1975
1975
1974
1974
1974
1973
1973
1974
1974
1974
1974
1974
1975
1975
1976
1977
1977
1977
1976
1976
1976
1976
1977
1977
1978
1978
1978
1977
1977
1976
1976
1976
1977
1977
1977
1977
1977
1977
1976
1975
1975
1975
1975
1975
1976
1975
1975
1973
1972
1971
1971
1972
1974
1976
1978
1979
1981
1982
1983
1983
1981
1979
1977
1975
1975
1975
1975
1975
1974
1973
1973
1973
1973
1975
1977
1979
1980
1976
1970
1961
1954
1957
1974
2010
2062
2115
2148
2145
2105
2043
1985
1951
1946
1958
1973
1981
1979
1974
1970
1969
1968
1968
1969
1970
1971
1972
1973
1973
1973
1973
1973
1973
1974
1974
1975
1976
1976
1977
1978
1979
1979
1980
1980
1981
1982
1983
1984
1985
1986
1986
1986
1987
1988
1989
1990
1991
1991
1990
1989
1988
1987
1986
1984
1983
1981
1979
1977
1975
1972
1970
1969
1967
1967
1967
1967
1967
1967
1967
1967
1966
1965
1965
1964
1964
1965
1965
1966
1966
1966
1966
1965
1965
1966
1967
1967
1968
1968
1968
1968
1968
1968
1968
1969
1970
1971
1972
1972
1972
1971
1970
1970
1970
1971
1971
1972
1972
1972
1972
1971
1970
1969
1968
1968
1968
1969
1970
1970
1971
1972
1973
1975
1976
1978
1979
1980
1979
1977
1975
1974
1972
1971
1971
1972
1972
1973
1974
1974
1973
1973
1974
1975
1974
1970
1964
1956
1953
1961
1985
2027
2080
2128
2150
2133
2084
2023
1973
1949
1950
1964
1976
1979
1975
1970
1969
1969
1969
1970
1970
1970
1970
1970
1970
1971
1972
1973
1974
1975
1975
1975
1974
1974
1975
1976
1977
1978
1979
1980
1981
1981
1982
1982
1983
1984
1985
1987
1988
1989
1989
1989
1989
1990
1990
1991
1991
1991
1990
1988
1986
1984
1982
1980
1978
1977
1976
1976
1975
1974
1973
1972
1971
1971
1971
1972
1973
1974
1975
1976
1976
1977
1976
1976
1976
1977
1978
1979
1979
1980
1980
1980
1981
1981
1982
1982
1983
1983
1983
1982
1982
1983
1983
1983
1984
1984
1985
1985
1985
1985
1985
1985
1984
1984
1983
1984
1984
1985
1985
1984
1983
1981
1980
1980
1981
1982
1984
1987
1988
1990
1991
1991
1991
1990
1988
1986
1985
1985
1984
1984
1984
1983
1983
1983
1983
1983
1984
1986
1987
1986
1982
1976
1968
1964
1971
1993
2034
2084
2130
2151
2136
2089
2030
1980
1957
1958
1973
1986
1991
1988
1983
1979
1978
1977
1977
1978
1979
1980
1981
1981
1981
1981
1981
1982
1982
1983
1983
1983
1984
1985
1985
1986
1986
1987
1987
1988
1989
1991
1992
1993
1994
1994
1994
1995
1995
1997
1998
2000
2001
2001
2001
2000
1999
1998
1997
1996
1994
1992
1989
1987
1984
1982
1981
1980
1979
1978
1978
1978
1977
1977
1977
1977
1976
1976
1975
1975
1975
1976
1976
1976
1976
1976
1976
1976
1976
1976
1977
1977
1978
1979
1979
1978
1978
1978
1978
1978
1979
1979
1979
1979
1978
1978
1977
1977
1977
1977
1976
1977
1977
1978
1978
1978
1977
1976
1974
1973
1972
1973
1974
1975
1977
1978
1979
1980
1982
1983
1984
1984
1983
1980
1978
1976
1975
1975
1975
1976
1977
1978
1978
1978
1977
1977
1977
1976
1973
1968
1962
1959
1967
1990
2029
2078
2120
2137
2118
2069
2010
1964
1944
1948
1963
1977
1982
1979
1975
1973
1972
1972
1972
1973
1974
1974
1975
1975
1975
1975
1976
1977
1978
1978
1979
1979
1979
1980
1980
1980
1981
1982
1983
1984
1985
1985
1986
1986
1987
1989
1991
1993
1995
1996
1996
1996
1995
1995
1995
1996
1995
1995
1994
1992
1989
1987
1984
1981
1979
1978
1977
1976
1975
1974
1973
1971
1970
1969
1968
1968
1968
1969
1969
1969
1969
1969
1968
1969
1969
1970
1971
1972
1973
1973
1972
1972
1972
1972
1972
1973
1974
1974
1975
1975
1975
1974
1974
1974
1974
1975
1976
1976
1976
1975
1974
1973
1972
1971
1971
1971
1972
1972
1972
1972
1972
1973
1974
1975
1977
1979
1980
1982
1982
1981
1979
1977
1975
1974
1973
1973
1973
1974
1975
1975
1975
1975
1975
1975
1976
1975
1970
1963
1957
1957
1970
2000
2048
2097
2131
2131
2095
2038
1980
1944
1936
1949
1966
1977
1980
1977
1975
1974
1973
1972
1971
1971
1971
1971
1972
1973
1974
1975
1976
1977
1977
1977
1978
1978
1978
1979
1980
1981
1982
1982
1983
1983
1983
1984
1985
1987
1989
1991
1992
1993
1993
1994
1994
1994
1994
1993
1993
1993
1992
1992
1991
1989
1987
1984
1982
1980
1978
1976
1974
1972
1970
1969
1969
1968
1968
1967
1966
1965
1965
1965
1965
1965
1965
1965
1965
1965
1966
1966
1967
1967
1967
1968
1968
1968
1969
1969
1969
1970
1970
1970
1970
1970
1970
1970
1970
1971
1971
1971
1971
1971
1970
1970
1970
1970
1970
1970
1971
1971
1971
1970
1969
1967
1966
1965
1966
1968
1970
1972
1974
1976
1977
1978
1979
1978
1976
1975
1973
1972
1972
1971
1971
1971
1971
1971
1971
1971
1972
1973
1975
1975
1973
1967
1959
1953
1956
1973
2008
2056
2105
2135
2131
2091
2034
1979
1948
1944
1957
1972
1981
1980
1975
1972
1970
1969
1969
1969
1970
1971
1972
1973
1973
1973
1973
1973
1973
1974
1975
1976
1977
1978
1978
1979
1979
1980
1980
1981
1982
1983
1985
1986
1987
1988
1988
1989
1990
1991
1993
1994
1995
1995
1994
1993
1992
1990
1989
1988
1987
1986
1984
1982
1980
1977
1974
1971
1969
1968
1969
1969
1970
1970
1970
1970
1970
1969
1969
1968
1968
1969
1969
1969
1970
1970
1970
1971
1971
1971
1971
1971
1971
1971
1971
1972
1972
1973
1974
1975
1975
1974
1974
1974
1975
1975
1975
1975
1975
1975
1975
1975
1975
1974
1974
1974
1973
1973
1973
1973
1972
1972
1972
1972
1973
1974
1975
1977
1979
1980
1981
1983
1983
1982
1981
1979
1977
1976
1975
1975
1976
1977
1977
1978
1978
1978
1978
1978
1979
1978
1976
1971
1965
1960
1962
1977
2009
2056
2106
2139
2139
2103
2047
1992
1959
1952
1963
1978
1986
1985
1980
1976
1975
1975
1975
1975
1974
1974
1974
1975
1976
1977
1978
1979
1979
1979
1979
1980
1981
1982
1983
1984
1985
1985
1986
1986
1985
1985
1986
1988
1990
1993
1996
1997
1998
1997
1997
1997
1998
1999
2001
2001
2001
2000
1998
1996
1994
1991
1989
1987
1986
1985
1983
1982
1980
1978
1976
1976
1976
1977
1977
1976
1975
1974
1975
1976
1977
1978
1977
1976
1975
1975
1976
1977
1978
1978
1978
1977
1977
1977
1978
1980
1980
1980
1979
1978
1979
1980
1981
1982
1982
1982
1981
1981
1980
1980
1980
1979
1979
1979
1978
1978
1978
1979
1979
1980
1980
1982
1983
1985
1987
1988
1988
1987
1985
1984
1984
1983
1982
1981
1980
1980
1981
1982
1983
1982
1982
1982
1983
1984
1983
1978
1970
1963
1966
1983
2020
2070
2120
2146
2137
2093
2034
1982
1954
1951
1964
1978
1985
1986
1983
1981
1980
1979
1978
1977
1977
1977
1978
1979
1981
1981
1981
1981
1981
1981
1982
1982
1983
1984
1985
1986
1987
1988
1989
1990
1991
1992
1992
1993
1994
1996
1998
2000
2001
2002
2003
2003
2003
2004
2005
2006
2005
2004
2003
2001
1999
1996
1993
1990
1987
1984
1983
1981
1979
1977
1975
1974
1973
1973
1973
1973
1973
1974
1974
1974
1974
1973
1971
1971
1971
1972
1973
1974
1975
1974
1973
1973
1972
1973
1974
1976
1977
1978
1978
1977
1976
1975
1975
1975
1976
1977
1978
1978
1976
1974
1972
1971
1971
1973
1975
1977
1979
1980
1981
1982
1982
1982
1981
1979
1977
1975
1974
1974
1974
1974
1974
1973
1973
1973
1973
1973
1974
1976
1976
1974
1967
1958
1950
1951
1968
2003
2054
2107
2140
2137
2098
2040
1983
1950
1944
1956
1971
1979
1979
1975
1971
1969
1967
1967
1968
1970
1971
1972
1971
1971
1971
1971
1972
1973
1974
1976
1977
1977
1977
1976
1975
1975
1976
1978
1981
1984
1985
1985
1985
1985
1986
1987
1988
1990
1991
1992
1993
1994
1994
1995
1994
1993
1991
1989
1988
1986
1984
1981
1978
1974
1970
1968
1967
1966
1966
1965
1965
1964
1963
1963
1962
1961
1960
1960
1959
1960
1960
1960
1960
1960
1960
1960
1961
1962
1962
1963
1964
1964
1965
1965
1964
1963
1963
1963
1964
1965
1965
1965
1965
1965
1964
1964
1964
1964
1964
1964
1963
1963
1963
1964
1965
1965
1966
1968
1970
1972
1973
1974
1972
1970
1967
1964
1963
1963
1965
1967
1968
1968
1966
1965
1963
1964
1965
1967
1968
1965
1958
1949
1944
1949
1969
2011
2064
2114
2139
2126
2080
2020
1968
1943
1942
1955
1968
1973
1970
1966
1964
1962
1961
1960
1960
1960
1962
1964
1965
1966
1966
1965
1965
1965
1966
1967
1968
1968
1969
1970
1971
1972
1972
1972
1972
1972
1973
1975
1977
1979
1980
1981
1982
1982
1983
1984
1984
1985
1985
1986
1986
1985
1983
1981
1978
1976
1974
1973
1972
1971
1968
1965
1962
1961
1960
1961
1961
1960
1959
1958
1958
1959
1959
1959
1958
1958
1957
1958
1959
1960
1961
1962
1961
1960
1960
1960
1960
1961
1962
1963
1963
1963
1963
1964
1964
1963
1962
1963
1963
1965
1966
1966
1966
1964
1962
1961
1961
1961
1962
1963
1965
1966
1967
1967
1968
1968
1970
1972
1973
1973
1970
1967
1964
1962
1962
1963
1965
1966
1967
1967
1966
1965
1965
1966
1968
1968
1965
1959
1950
1943
1944
1960
1994
2046
2099
2137
2141
2107
2050
1995
1959
1948
1955
1966
1970
1968
1963
1961
1961
1962
1962
1962
1961
1961
1962
1963
1964
1965
1966
1967
1968
1969
1969
1968
1968
1968
1968
1969
1970
1971
1972
1973
1973
1974
1975
1976
1977
1978
1980
1982
1983
1984
1985
1985
1986
1986
1986
1987
1987
1987
1986
1985
1982
1979
1976
1973
1971
1970
1969
1969
1968
1966
1964
1963
1963
1964
1964
1965
1965
1964
1964
1963
1962
1961
1962
1962
1963
1963
1963
1963
1963
1963
1964
1964
1964
1964
1964
1964
1965
1966
1966
1966
1966
1967
1967
1967
1967
1967
1967
1967
1968
1969
1968
1968
1967
1966
1965
1964
1964
1964
1964
1965
1966
1966
1967
1968
1969
1972
1974
1976
1976
1974
1971
1968
1966
1964
1964
1965
1966
1968
1969
1969
1968
1967
1967
1967
1969
1969
1966
1960
1952
1946
1948
1964
1999
2050
2103
2138
2138
2101
2044
1988
1954
1947
1957
1969
1974
1971
1965
1962
1961
1962
1962
1962
1961
1961
1961
1962
1964
1966
1968
1968
1967
1966
1965
1965
1966
1967
1969
1969
1970
1970
1970
1970
1971
1972
1973
1975
1976
1977
1978
1979
1980
1981
1981
1981
1982
1982
1984
1985
1985
1984
1981
1978
1976
1974
1972
1971
1969
1967
1965
1964
1963
1961
1960
1959
1958
1957
1957
1958
1958
1958
1958
1957
1956
1955
1955
1955
1955
1956
1957
1957
1957
1957
1956
1956
1956
1957
1958
1958
1959
1959
1959
1959
1959
1959
1959
1958
1957
1957
1958
1959
1960
1961
1961
1960
1959
1958
1958
1958
1959
1960
1960
1959
1957
1955
1953
1952
1954
1957
1960
1962
1963
1963
1964
1965
1966
1966
1965
1963
1961
1960
1959
1958
1957
1957
1957
1957
1958
1959
1959
1960
1961
1961
1959
1955
1948
1940
1938
1947
1974
2019
2072
2116
2130
2107
2054
1996
1952
1935
1940
1954
1964
1965
1960
1956
1954
1954
1954
1955
1956
1956
1956
1956
1956
1955
1955
1955
1955
1957
1959
1960
1961
1960
1960
1960
1961
1962
1964
1965
1966
1966
1966
1966
1967
1968
1970
1973
1974
1976
1976
1977
1977
1977
1977
1977
1977
1977
1977
1976
1974
1971
1968
1964
1961
1959
1958
1958
1957
1957
1955
1953
1951
1950
1950
1950
1951
1952
1952
1952
1951
1950
1950
1950
1949
1949
1950
1950
1951
1952
1952
1952
1952
1951
1951
1951
1951
1952
1954
1955
1956
1956
1956
1955
1955
1954
1954
1953
1954
1954
1955
1955
1955
1954
1954
1953
1953
1952
1952
1951
1950
1950
1951
1952
1954
1956
1957
1959
1961
1962
1963
1962
1961
1959
1957
1955
1954
1953
1952
1952
1952
1953
1955
1956
1957
1958
1959
1959
1957
1951
1943
1936
1937
1952
1987
2038
2091
2126
2126
2088
2029
1970
1935
1928
1940
1956
1966
1967
1963
1961
1959
1958
1957
1957
1957
1958
1959
1960
1961
1962
1963
1964
1965
1966
1966
1966
1967
1968
1969
1970
1971
1972
1973
1973
1974
1974
1975
1975
1976
1978
1980
1982
1985
1987
1988
1988
1989
1989
1990
1990
1990
1989
1988
1985
1982
1980
1977
1974
1972
1969
1967
1964
1962
1961
1960
1959
1958
1957
1957
1956
1956
1956
1957
1957
1956
1955
1953
1953
1953
1954
1956
1958
1959
1959
1959
1959
1959
1960
1961
1963
1964
1964
1965
1964
1964
1964
1964
1964
1965
1966
1967
1968
1968
1968
1967
1966
1966
1966
1966
1967
1966
1966
1965
1965
1965
1964
1963
1963
1964
1966
1968
1971
1972
1974
1974
1975
1975
1975
1974
1973
1972
1971
1971
1971
1971
1970
1970
1970
1970
1971
1971
1972
1974
1974
1972
1966
1957
1950
1950
1965
1997
2048
2104
2143
2148
2113
2053
1991
1951
1939
1950
1966
1977
1978
1973
1969
1966
1965
1966
1967
1968
1968
1967
1966
1966
1966
1967
1968
1969
1970
1971
1972
1972
1972
1971
1971
1972
1973
1975
1977
1979
1980
1982
1982
1983
1984
1985
1987
1989
1992
1994
1996
1997
1997
1996
1996
1997
1997
1997
1996
1993
1989
1985
1982
1979
1976
1975
1973
1972
1971
1970
1970
1968
1967
1966
1966
1966
1966
1967
1967
1967
1967
1967
1966
1966
1965
1965
1966
1967
1969
1970
1970
1969
1968
1966
1966
1967
1969
1970
1971
1972
1972
1972
1971
1971
1971
1971
1972
1972
1973
1973
1973
1973
1973
1971
1970
1968
1968
1968
1970
1972
1974
1974
1974
1975
1977
1978
1979
1979
1978
1977
1975
1975
1974
1973
1973
1972
1972
1972
1973
1973
1973
1974
1976
1976
1975
1969
1961
1952
1951
1963
1996
2048
2107
2152
2162
2130
2069
2005
1961
1947
1956
1972
1982
1982
1975
1969
1966
1966
1967
1969
1971
1971
1970
1970
1970
1971
1973
1975
1977
1977
1977
1976
1975
1975
1975
1976
1976
1977
1978
1979
1980
1981
1981
1982
1983
1984
1987
1990
1994
1997
1998
1998
1996
1994
1993
1993
1993
1994
1994
1994
1992
1989
1986
1983
1979
1977
1975
1974
1973
1972
1971
1970
1970
1969
1969
1969
1969
1969
1969
1968
1967
1966
1965
1965
1965
1966
1966
1967
1968
1968
1968
1968
1967
1966
1966
1967
1968
1969
1970
1971
1972
1972
1972
1972
1971
1971
1971
1972
1973
1973
1973
1971
1970
1969
1969
1971
1973
1974
1974
1973
1971
1968
1967
1966
1966
1967
1968
1970
1971
1972
1974
1975
1977
1977
1977
1976
1974
1973
1973
1972
1971
1971
1970
1970
1971
1971
1971
1971
1973
1974
1974
1971
1965
1956
1949
1951
1970
2010
2067
2127
2165
2163
2120
2053
1991
1954
1947
1958
1973
1980
1978
1972
1969
1967
1966
1965
1964
1965
1965
1967
1968
1968
1968
1968
1968
1969
1969
1970
1971
1972
1973
1973
1974
1974
1974
1974
1975
1976
1978
1980
1982
1984
1984
1984
1984
1985
1987
1989
1991
1992
1992
1991
1991
1989
1988
1987
1986
1985
1984
1981
1978
1976
1973
1971
1969
1968
1967
1966
1966
1966
1965
1964
1962
1962
1963
1964
1966
1966
1965
1964
1964
1964
1964
1964
1964
1964
1965
1966
1967
1967
1966
1965
1965
1965
1965
1966
1967
1968
1969
1971
1971
1971
1970
1969
1969
1969
1969
1970
1970
1970
1970
1970
1970
1970
1970
1969
1967
1966
1966
1966
1968
1970
1972
1975
1977
1979
1980
1980
1980
1978
1976
1975
1973
1972
1972
1973
1973
1974
1974
1974
1973
1973
1973
1974
1975
1975
1974
1969
1963
1958
1960
1976
2012
2065
2124
2165
2168
2131
2069
2007
1967
1956
1965
1978
1984
1983
1979
1978
1978
1979
1980
1980
1980
1980
1980
1980
1981
1982
1983
1984
1985
1986
1986
1987
1987
1988
1989
1990
1991
1992
1992
1993
1995
1997
1999
2001
2003
2003
2005
2007
2009
2012
2012
2012
2010
2010
2010
2012
2015
2015
2013
2009
2004
1999
1997
1996
1996
1996
1996
1995
1994
1992
1990
1989
1990
1992
1996
1999
2001
2000
1999
1997
1996
1995
1997
1999
2000
2001
2001
2000
2001
2002
2004
2005
2005
2005
2004
2005
2007
2010
2011
2010
2008
2007
2007
2008
2011
2013
2014
2014
2013
2013
2014
2015
2015
2015
2014
2015
2016
2017
2018
2017
2015
2012
2008
2006
2007
2010
2014
2018
2021
2021
2019
2018
2017
2019
2020
2021
2020
2019
2017
2015
2012
2010
2009
2009
2011
2012
2012
2012
2012
2013
2014
2015
2012
2006
1997
1991
1995
2014
2053
2107
2158
2185
2175
2130
2068
2016
1988
1985
1997
2008
2012
2009
2004
2000
1999
1999
2000
2001
2002
2002
2002
2002
2003
2003
2003
2002
2001
2000
2000
1999
1998
1997
1996
1997
1998
1999
1999
1998
1998
1998
2000
2003
2005
2004
2002
1999
1999
2001
2004
2006
2006
2005
2002
2001
2000
2000
2000
1998
1996
1995
1994
1993
1991
1988
1985
1981
1979
1977
1976
1976
1975
1976
1976
1977
1976
1975
1974
1974
1974
1974
1974
1974
1974
1974
1974
1974
1974
1974
1975
1976
1976
1976
1975
1974
1974
1976
1979
1980
1980
1978
1975
1972
1972
1973
1975
1978
1978
1978
1977
1975
1974
1974
1974
1975
1975
1976
1977
1977
1976
1976
1976
1977
1979
1981
1983
1984
1985
1984
1983
1981
1979
1976
1973
1972
1972
1974
1976
1978
1979
1980
1981
1981
1982
1980
1976
1968
1958
1954
1960
1983
2023
2073
2119
2141
2128
2084
2025
1974
1948
1947
1960
1975
1982
1980
1975
1972
1971
1971
1973
1974
1974
1973
1972
1971
1971
1972
1973
1974
1974
1973
1973
1973
1975
1977
1978
1978
1978
1978
1979
1980
1981
1982
1983
1983
1983
1985
1986
1989
1991
1992
1993
1993
1994
1994
1995
1996
1996
1996
1995
1993
1990
1986
1983
1980
1978
1977
1976
1975
1973
1971
1968
1966
1965
1965
1966
1966
1966
1967
1967
1967
1967
1967
1967
1967
1968
1969
1969
1970
1970
1970
1970
1970
1970
1970
1970
1970
1970
1970
1970
1971
1972
1973
1973
1972
1972
1972
1972
1972
1971
1969
1967
1965
1964
1964
1967
1969
1972
1973
1974
1974
1975
1975
1976
1975
1974
1972
1970
1968
1968
1968
1968
1969
1969
1969
1969
1970
1971
1973
1975
1975
1972
1964
1955
1948
1952
1972
2012
2066
2117
2144
2133
2088
2027
1972
1944
1943
1958
1973
1980
1979
1975
1972
1971
1970
1970
1971
1971
1972
1973
1974
1973
1973
1973
1973
1973
1975
1976
1977
1978
1978
1978
1978
1979
1981
1983
1984
1986
1986
1987
1987
1988
1990
1991
1992
1993
1995
1997
1999
2001
2002
2001
2000
1998
1997
1996
1994
1993
1991
1989
1987
1985
1983
1980
1977
1973
1971
1971
1971
1972
1972
1971
1970
1969
1968
1968
1970
1972
1974
1974
1974
1973
1971
1969
1969
1969
1970
1972
1973
1974
1975
1976
1976
1976
1976
1976
1977
1978
1978
1978
1977
1976
1975
1974
1974
1976
1978
1980
1981
1982
1983
1984
1986
1986
1986
1984
1982
1980
1978
1978
1977
1977
1977
1977
1977
1977
1977
1977
1977
1978
1980
1982
1981
1976
1967
1957
1953
1962
1987
2033
2090
2139
2161
2143
2091
2028
1976
1952
1955
1970
1983
1987
1983
1978
1976
1975
1976
1978
1978
1978
1977
1977
1976
1977
1978
1980
1981
1983
1983
1983
1982
1981
1981
1981
1982
1984
1985
1986
1987
1988
1989
1990
1990
1991
1993
1995
1996
1998
1999
1999
1999
1999
1999
1999
1998
1998
1997
1996
1994
1992
1989
1986
1984
1982
1980
1978
1977
1976
1974
1973
1972
1971
1970
1969
1969
1970
1971
1971
1971
1970
1970
1970
1969
1969
1969
1969
1970
1970
1970
1970
1970
1970
1970
1970
1971
1972
1973
1974
1973
1972
1970
1969
1968
1968
1970
1971
1973
1975
1976
1977
1978
1979
1980
1979
1978
1977
1975
1973
1972
1971
1970
1970
1970
1970
1971
1972
1972
1972
1972
1972
1973
1972
1967
1958
1948
1944
1954
1984
2035
2094
2144
2161
2136
2079
2014
1964
1944
1949
1963
1975
1978
1974
1969
1967
1965
1965
1965
1965
1965
1965
1966
1966
1966
1967
1968
1969
1969
1970
1971
1971
1971
1971
1971
1972
1972
1973
1974
1975
1975
1976
1977
1977
1977
1978
1980
1982
1984
1985
1986
1986
1985
1984
1983
1983
1982
1981
1980
1978
1976
1973
1971
1969
1967
1966
1964
1963
1962
1961
1961
1961
1961
1960
1960
1960
1960
1960
1960
1960
1960
1959
1959
1959
1959
1959
1959
1960
1960
1961
1961
1961
1962
1962
1962
1961
1962
1962
1963
1964
1964
1964
1963
1962
1961
1960
1959
1959
1960
1962
1964
1966
1967
1967
1968
1969
1970
1970
1970
1968
1966
1963
1962
1961
1960
1960
1960
1961
1962
1963
1964
1964
1964
1965
1965
1963
1959
1951
1942
1938
1947
1974
2021
2079
2129
2150
2131
2078
2014
1963
1939
1941
1954
1965
1967
1963
1959
1957
1957
1957
1958
1959
1959
1958
1958
1958
1958
1959
1961
1962
1962
1963
1963
1963
1964
1964
1964
1965
1965
1966
1967
1967
1968
1968
1969
1970
1971
1973
1975
1976
1977
1978
1978
1978
1978
1978
1977
1977
1976
1976
1974
1972
1970
1968
1965
1964
1962
1962
1962
1962
1961
1960
1958
1957
1956
1956
1957
1957
1958
1958
1958
1958
1957
1957
1957
1957
1957
1958
1959
1960
1961
1961
1961
1961
1960
1960
1960
1961
1962
1963
1963
1964
1964
1963
1963
1962
1962
1962
1963
1964
1964
1964
1963
1963
1962
1962
1962
1962
1962
1963
1963
1963
1963
1962
1962
1962
1962
1962
1961
1961
1960
1959
1959
1960
1961
1963
1965
1967
1968
1970
1972
1972
1972
1970
1968
1966
1965
1964
1965
1965
1965
1966
1965
1965
1964
1964
1964
1966
1968
1968
1964
1956
1947
1943
1949
1972
2017
2073
2125
2151
2137
2089
2026
1973
1946
1945
1957
1968
1972
1969
1965
1963
1962
1962
1962
1961
1962
1962
1963
1964
1965
1966
1966
1967
1967
1967
1967
1967
1968
1969
1970
1971
1972
1972
1972
1973
1973
1974
1976
1977
1978
1979
1980
1981
1981
1982
1982
1983
1984
1984
1985
1985
1984
1983
1982
1980
1979
1977
1976
1974
1973
1971
1970
1968
1967
1966
1966
1966
1966
1967
1967
1966
1966
1965
1965
1965
1965
1966
1966
1967
1968
1968
1968
1968
1968
1968
1969
1969
1970
1971
1971
1971
1971
1971
1971
1970
1970
1971
1971
1972
1973
1973
1973
1973
1972
1972
1972
1972
1972
1973
1973
1974
1973
1973
1972
1972
1972
1972
1972
1973
1973
1973
1973
1973
1973
1972
1972
1973
1973
1974
1974
1974
1974
1973
1972
1971
1970
1969
1969
1970
1973
1976
1978
1980
1981
1982
1982
1982
1982
1981
1981
1979
1978
1977
1976
1976
1975
1976
1976
1977
1978
1978
1977
1978
1979
1979
1976
1970
1961
1955
1957
1973
2008
2060
2115
2153
2156
2121
2063
2005
1967
1956
1964
1975
1981
1979
1974
1971
1971
1971
1972
1973
1972
1972
1972
1972
1973
1973
1974
1975
1976
1976
1977
1977
1977
1977
1978
1978
1979
1980
1982
1982
1983
1983
1984
1984
1985
1986
1987
1989
1990
1991
1991
1991
1992
1992
1992
1992
1992
1991
1991
1990
1988
1986
1984
1981
1980
1979
1978
1978
1978
1977
1977
1976
1975
1975
1974
1974
1974
1974
1975
1975
1975
1975
1975
1975
1975
1975
1976
1977
1977
1978
1978
1977
1977
1977
1978
1978
1979
1980
1980
1980
1980
1980
1979
1979
1979
1979
1978
1979
1979
1980
1980
1980
1980
1979
1979
1979
1979
1979
1980
1980
1979
1978
1977
1977
1977
1977
1978
1979
1979
1979
1979
1979
1978
1978
1978
1978
1978
1978
1978
1977
1976
1975
1975
1975
1977
1980
1983
1986
1987
1988
1987
1987
1985
1984
1982
1981
1981
1980
1980
1980
1979
1978
1978
1978
1978
1978
1979
1981
1982
1981
1976
1968
1959
1956
1965
1991
2037
2092
2138
2156
2135
2084
2024
1977
1956
1959
1972
1982
1985
1981
1977
1974
1973
1972
1973
1973
1974
1975
1975
1976
1976
1976
1975
1975
1976
1976
1977
1978
1979
1980
1980
1980
1980
1980
1981
1982
1983
1984
1985
1986
1986
1987
1987
1988
1989
1990
1991
1992
1993
1993
1993
1992
1990
1989
1988
1987
1986
1985
1983
1981
1979
1977
1975
1974
1974
1973
1973
1974
1974
1973
1973
1972
1971
1971
1971
1971
1971
1972
1972
1972
1972
1972
1972
1972
1972
1973
1974
1974
1975
1975
1975
1975
1974
1974
1975
1975
1976
1976
1977
1977
1976
1976
1975
1975
1975
1975
1976
1976
1977
1977
1976
1976
1975
1974
1974
1975
1975
1976
1976
1976
1976
1975
1975
1974
1974
1975
1976
1976
1977
1977
1977
1976
1975
1973
1972
1972
1972
1974
1976
1979
1981
1982
1983
1983
1983
1983
1983
1982
1981
1980
1979
1978
1977
1976
1976
1976
1977
1977
1978
1978
1979
1979
1979
1976
1971
1962
1956
1958
1972
2005
2053
2104
2139
2142
2109
2054
1999
1962
1952
1961
1974
1981
1981
1976
1973
1972
1971
1972
1972
1973
1973
1973
1973
1974
1974
1975
1976
1977
1977
1977
1977
1977
1977
1977
1978
1979
1981
1982
1983
1983
1983
1983
1983
1984
1985
1987
1989
1991
1992
1993
1993
1993
1992
1992
1991
1991
1991
1991
1990
1989
1986
1984
1981
1979
1977
1976
1975
1975
1974
1974
1973
1972
1971
1971
1970
1971
1971
1971
1971
1971
1970
1970
1969
1969
1970
1970
1971
1972
1973
1974
1974
1974
1973
1973
1973
1974
1975
1976
1976
1976
1975
1975
1974
1975
1975
1975
1976
1976
1976
1976
1976
1976
1975
1975
1975
1976
1976
1976
1976
1976
1976
1976
1975
1975
1975
1975
1975
1975
1975
1974
1972
1971
1971
1973
1975
1978
1980
1982
1983
1984
1985
1985
1984
1982
1981
1980
1979
1979
1978
1978
1977
1977
1977
1977
1977
1978
1980
1982
1982
1978
1970
1961
1956
1961
1984
2026
2078
2125
2145
2127
2078
2018
1968
1945
1947
1963
1977
1984
1982
1978
1976
1975
1974
1974
1974
1975
1976
1977
1977
1977
1977
1978
1979
1979
1980
1980
1981
1981
1982
1983
1984
1984
1985
1985
1986
1987
1989
1990
1992
1993
1994
1995
1995
1996
1996
1997
1998
1999
2001
2002
2002
2002
2001
1999
1997
1995
1994
1992
1990
1987
1985
1982
1980
1979
1978
1978
1978
1977
1976
1976
1976
1976
1976
1976
1976
1976
1976
1976
1976
1976
1977
1977
1977
1977
1976
1976
1976
1977
1979
1981
1982
1983
1982
1982
1981
1980
1980
1981
1981
1982
1982
1983
1983
1983
1982
1981
1981
1981
1981
1982
1982
1983
1983
1982
1982
1980
1979
1979
1979
1979
1980
1981
1982
1983
1985
1986
1988
1990
1991
1991
1991
1989
1986
1984
1983
1983
1983
1984
1985
1985
1985
1985
1984
1985
1986
1988
1988
1985
1978
1970
1964
1969
1990
2031
2084
2132
2156
2141
2093
2031
1978
1952
1952
1967
1982
1990
1989
1986
1984
1982
1980
1980
1979
1979
1980
1980
1982
1983
1984
1985
1985
1984
1984
1985
1986
1987
1989
1989
1990
1990
1990
1990
1990
1990
1991
1993
1995
1997
1999
2001
2001
2001
2001
2001
2003
2005
2006
2007
2006
2006
2005
2004
2002
2000
1998
1995
1992
1989
1987
1985
1983
1980
1978
1977
1976
1976
1977
1977
1978
1978
1977
1977
1977
1976
1976
1976
1976
1976
1976
1977
1977
1977
1977
1977
1977
1978
1978
1979
1979
1980
1980
1980
1980
1980
1980
1980
1981
1982
1982
1981
1981
1980
1979
1979
1980
1980
1980
1981
1980
1980
1979
1979
1978
1978
1977
1977
1977
1977
1978
1979
1980
1981
1982
1983
1985
1986
1987
1987
1986
1984
1983
1981
1980
1980
1980
1980
1981
1981
1982
1982
1981
1981
1982
1982
1980
1976
1969
1961
1958
1968
1995
2042
2097
2142
2157
2134
2080
2019
1971
1951
1955
1969
1981
1985
1983
1980
1978
1977
1977
1977
1977
1976
1976
1976
1976
1976
1976
1977
1978
1980
1981
1981
1981
1981
1981
1981
1982
1983
1984
1985
1985
1985
1985
1986
1987
1989
1990
1992
1993
1994
1995
1995
1995
1995
1995
1996
1997
1997
1996
1995
1992
1990
1987
1984
1982
1980
1978
1977
1975
1974
1973
1973
1972
1972
1971
1971
1971
1971
1971
1971
1971
1971
1971
1970
1970
1970
1970
1971
1971
1971
1972
1972
1972
1972
1972
1973
1973
1974
1975
1975
1974
1974
1973
1973
1973
1974
1974
1975
1975
1975
1974
1973
1973
1972
1972
1973
1973
1974
1974
1974
1974
1973
1972
1972
1971
1971
1971
1971
1971
1971
1970
1970
1971
1972
1973
1975
1977
1979
1980
1981
1980
1978
1976
1975
1974
1973
1973
1974
1974
1975
1975
1974
1973
1973
1974
1976
1977
1975
1969
1960
1952
1953
1968
2003
2054
2110
2148
2152
2117
2057
1998
1959
1948
1956
1971
1979
1979
1976
1973
1972
1971
1970
1970
1969
1970
1970
1971
1973
1974
1975
1975
1975
1975
1975
1976
1977
1978
1979
1979
1980
1980
1979
1979
1979
1980
1981
1983
1985
1986
1987
1988
1988
1988
1988
1989
1989
1989
1990
1990
1989
1989
1987
1985
1983
1981
1979
1977
1976
1974
1973
1971
1970
1969
1968
1968
1968
1968
1969
1969
1969
1969
1968
1967
1967
1967
1967
1967
1968
1969
1970
1970
1970
1970
1969
1970
1970
1970
1971
1972
1972
1972
1971
1971
1971
1971
1971
1972
1972
1973
1973
1973
1972
1972
1971
1971
1971
1972
1972
1972
1972
1972
1971
1971
1970
1970
1970
1971
1971
1972
1972
1971
1971
1970
1969
1969
1969
1968
1968
1968
1969
1970
1972
1973
1975
1976
1978
1979
1980
1980
1979
1977
1975
1973
1972
1971
1971
1972
1973
1973
1973
1973
1973
1973
1974
1974
1973
1969
1962
1955
1953
1963
1990
2036
2091
2137
2154
2133
2081
2020
1972
1951
1953
1966
1977
1979
1975
1971
1969
1969
1969
1969
1969
1969
1969
1970
1971
1972
1972
1973
1973
1974
1974
1975
1975
1975
1976
1977
1978
1979
1979
1980
1980
1981
1982
1982
1984
1985
1986
1988
1989
1989
1990
1990
1990
1991
1991
1991
1991
1991
1990
1989
1987
1985
1982
1980
1978
1977
1976
1975
1974
1973
1972
1971
1971
1971
1971
1972
1973
1973
1973
1972
1972
1971
1971
1971
1972
1973
1973
1974
1974
1974
1974
1973
1973
1974
1974
1975
1976
1976
1976
1976
1976
1975
1975
1975
1975
1976
1977
1977
1977
1977
1977
1977
1976
1976
1976
1977
1977
1977
1977
1977
1977
1976
1976
1976
1976
1976
1977
1977
1977
1977
1977
1976
1976
1976
1976
1975
1975
1974
1974
1975
1977
1978
1980
1982
1983
1985
1987
1987
1986
1985
1982
1980
1979
1978
1978
1979
1979
1979
1979
1979
1979
1978
1979
1980
1981
1979
1973
1965
1959
1961
1977
2011
2061
2114
2149
2151
2117
2059
2002
1965
1955
1963
1976
1983
1983
1979
1977
1976
1975
1975
1975
1975
1975
1975
1976
1976
1977
1978
1979
1980
1980
1980
1980
1980
1981
1982
1984
1984
1985
1985
1986
1986
1986
1987
1988
1990
1991
1992
1993
1994
1994
1995
1995
1995
1995
1996
1996
1996
1995
1994
1992
1990
1988
1986
1984
1983
1982
1981
1980
1978
1977
1976
1975
1975
1975
1975
1975
1975
1975
1975
1974
1974
1974
1974
1975
1975
1976
1976
1976
1976
1976
1976
1976
1977
1977
1978
1979
1979
1979
1979
1979
1979
1978
1978
1978
1979
1979
1980
1980
1980
1979
1979
1978
1978
1979
1979
1979
1979
1979
1979
1979
1979
1978
1978
1978
1979
1979
1979
1979
1979
1978
1978
1978
1978
1978
1979
1979
1980
1979
1978
1977
1975
1974
1975
1977
1979
1982
1985
1986
1987
1987
1987
1986
1985
1984
1983
1982
1981
1981
1980
1979
1979
1979
1979
1979
1979
1980
1981
1982
1982
1978
1971
1962
1958
1963
1984
2024
2075
2124
2151
2141
2097
2039
1986
1958
1955
1967
1980
1985
1983
1978
1975
1973
1973
1973
1974
1975
1976
1977
1977
1977
1977
1977
1977
1977
1978
1979
1980
1981
1981
1981
1981
1981
1982
1983
1984
1985
1986
1987
1988
1988
1989
1989
1990
1992
1993
1994
1995
1996
1996
1995
1994
1993
1992
1991
1990
1989
1988
1986
1983
1981
1979
1977
1976
1975
1975
1975
1975
1975
1975
1974
1973
1973
1972
1972
1973
1973
1974
1974
1974
1973
1973
1973
1974
1974
1975
1976
1977
1977
1976
1976
1976
1976
1976
1977
1977
1978
1978
1978
1978
1978
1977
1977
1977
1978
1978
1978
1979
1979
1979
1978
1978
1977
1977
1977
1978
1978
1979
1978
1978
1977
1977
1977
1977
1977
1978
1978
1978
1978
1978
1978
1978
1978
1978
1978
1978
1977
1977
1976
1975
1974
1974
1975
1977
1980
1983
1986
1987
1988
1987
1986
1984
1983
1981
1980
1980
1979
1979
1979
1978
1978
1978
1978
1978
1979
1980
1982
1982
1979
1972
1963
1957
1963
1984
2026
2078
2126
2149
2134
2087
2026
1974
1947
1947
1961
1976
1984
1983
1979
1976
1974
1972
1972
1973
1974
1975
1976
1977
1977
1977
1977
1976
1976
1977
1977
1978
1979
1980
1980
1980
1980
1981
1981
1983
1984
1985
1987
1988
1988
1989
1989
1989
1990
1992
1994
1996
1997
1997
1997
1997
1996
1994
1993
1991
1989
1987
1985
1983
1981
1979
1976
1974
1972
1972
1971
1971
1971
1971
1971
1970
1969
1967
1966
1966
1966
1967
1969
1970
1970
1970
1969
1968
1968
1969
1971
1972
1972
1972
1971
1971
1970
1971
1971
1972
1973
1974
1974
1975
1975
1974
1973
1973
1972
1971
1972
1973
1974
1975
1975
1975
1974
1974
1973
1972
1972
1972
1973
1974
1974
1974
1972
1971
1971
1971
1972
1973
1974
1974
1974
1973
1972
1970
1969
1968
1970
1973
1976
1978
1980
1981
1981
1981
1981
1980
1979
1977
1976
1975
1975
1974
1974
1974
1974
1974
1975
1975
1976
1977
1978
1978
1975
1967
1958
1951
1955
1976
2018
2072
2123
2149
2136
2088
2025
1969
1940
1940
1955
1972
1981
1981
1976
1972
1970
1969
1970
1971
1973
1973
1974
1974
1974
1973
1973
1974
1974
1975
1976
1977
1978
1978
1978
1978
1978
1979
1980
1981
1983
1984
1985
1986
1987
1988
1989
1991
1992
1994
1995
1997
1997
1997
1997
1997
1996
1996
1996
1995
1994
1992
1989
1985
1982
1979
1976
1973
1972
1971
1971
1971
1970
1970
1969
1968
1967
1967
1967
1967
1967
1967
1967
1967
1967
1967
1968
1968
1968
1969
1969
1970
1970
1970
1970
1970
1970
1970
1971
1971
1972
1973
1973
1973
1973
1972
1972
1972
1972
1972
1973
1973
1972
1972
1971
1971
1970
1970
1970
1971
1971
1971
1971
1971
1971
1971
1970
1970
1970
1970
1970
1970
1970
1970
1970
1971
1971
1971
1971
1970
1970
1969
1968
1967
1967
1967
1970
1972
1975
1978
1979
1980
1979
1979
1977
1975
1973
1972
1971
1971
1971
1971
1971
1971
1971
1970
1970
1970
1971
1973
1974
1972
1967
1958
1949
1948
1960
1992
2042
2097
2139
2147
2117
2060
1999
1955
1941
1948
1963
1974
1976
1972
1968
1965
1964
1963
1963
1963
1964
1965
1967
1967
1968
1967
1967
1967
1968
1968
1969
1970
1971
1972
1973
1973
1974
1974
1974
1975
1976
1977
1979
1980
1981
1982
1982
1983
1984
1985
1986
1987
1989
1989
1990
1990
1989
1987
1986
1984
1982
1981
1979
1977
1975
1973
1971
1969
1968
1967
1966
1966
1965
1965
1965
1965
1965
1965
1964
1964
1964
1964
1965
1965
1965
1965
1965
1964
1964
1965
1965
1966
1967
1968
1969
1969
1969
1968
1968
1969
1969
1970
1971
1972
1973
1972
1972
1971
1971
1971
1971
1971
1972
1972
1972
1971
1971
1971
1971
1971
1971
1971
1972
1972
1972
1972
1971
1971
1971
1970
1971
1971
1971
1972
1972
1972
1972
1972
1972
1972
1972
1972
1972
1972
1971
1970
1969
1970
1971
1974
1976
1979
1981
1982
1982
1982
1981
1979
1977
1976
1975
1975
1975
1975
1975
1974
1974
1973
1973
1973
1973
1975
1977
1977
1973
1966
1957
1952
1957
1979
2021
2075
2128
2157
2149
2104
2043
1987
1956
1951
1963
1975
1981
1978
1974
1971
1969
1969
1969
1969
1969
1970
1971
1972
1972
1972
1972
1972
1973
1973
1974
1975
1976
1977
1977
1977
1978
1977
1978
1978
1980
1981
1983
1984
1985
1986
1986
1986
1987
1988
1989
1990
1992
1992
1993
1992
1992
1991
1990
1988
1987
1986
1984
1982
1980
1978
1976
1974
1973
1972
1972
1972
1973
1973
1973
1973
1972
1972
1972
1972
1971
1971
1972
1972
1972
1972
1972
1972
1971
1971
1972
1972
1973
1974
1974
1974
1974
1973
1973
1974
1974
1975
1975
1976
1976
1976
1976
1975
1975
1975
1975
1976
1977
1977
1977
1977
1976
1976
1975
1976
1976
1977
1977
1978
1978
1977
1977
1976
1976
1976
1976
1977
1977
1977
1977
1977
1977
1977
1977
1977
1977
1977
1977
1976
1975
1974
1974
1975
1977
1980
1982
1985
1986
1987
1987
1986
1985
1984
1982
1981
1980
1980
1979
1979
1979
1979
1979
1978
1978
1978
1979
1981
1982
1980
1975
1967
1960
1959
1972
2003
2051
2106
2148
2158
2131
2075
2016
1972
1956
1961
1975
1984
1986
1981
1977
1975
1974
1973
1974
1974
1974
1975
1976
1977
1978
1978
1978
1978
1978
1978
1979
1980
1981
1982
1982
1983
1983
1983
1984
1985
1986
1987
1988
1989
1990
1991
1992
1992
1993
1994
1995
1996
1997
1998
1998
1997
1996
1995
1993
