2007
1864
1947
2233
2672
2981
2850
2171
1187
314
3954
3946
107
493
700
762
910
1025
1116
1197
1279
1352
1415
1470
1519
1563
1608
1649
1690
1726
1760
1791
1820
1848
1873
1897
1919
1938
1958
1975
1993
2009
2023
2039
2051
2064
2070
2074
2080
2096
2124
2159
2191
2208
2207
2193
2174
2162
2156
2161
2166
2173
2180
2187
2192
2195
2198
2199
2201
2204
2206
2208
2210
2211
2214
2215
2216
2216
2212
2211
2212
2216
2221
2224
2224
2222
2219
2218
2219
2219
2218
2217
2215
2214
2214
2214
2212
2210
2207
2206
2205
2205
2205
2203
2202
2200
2199
2196
2194
2189
2184
2182
2181
2181
2182
2179
2175
2168
2160
2155
2150
2145
2143
2140
2137
2136
2135
2132
2129
2124
2121
2119
2119
2120
2119
2118
2115
2112
2109
2106
2102
2098
2096
2097
2099
2101
2100
2097
2092
2088
2086
2084
2082
2081
2080
2078
2078
2078
2076
2076
2074
2074
2073
2071
2070
2068
2069
2066
2067
2065
2063
2060
2056
2055
2056
2059
2063
2064
2062
2058
2055
2050
2049
2049
2049
2048
2048
2047
2046
2045
2043
2042
2040
2038
2037
2036
2035
2033
2030
2029
2028
2026
2022
2017
2012
2015
2018
2021
2019
2012
2005
2004
2010
2019
2023
2021
2013
2006
2002
2003
2005
2007
2006
2004
2003
2002
2001
2000
1999
1998
1997
1997
1995
1992
1987
1982
1981
1981
1984
1987
1987
1989
1993
2003
2017
2028
2031
2023
2009
1992
1978
1971
1968
1969
1972
1975
1977
1978
1978
1977
1976
1973
1977
1976
1975
1971
1966
1964
1967
1973
1979
1982
1979
1974
1971
1967
1971
1970
1970
1969
1969
1968
1968
1967
1966
1965
1965
1966
1967
1967
1966
1965
1963
1964
1966
1967
1966
1963
1961
1961
1965
1970
1973
1972
1970
1967
1963
1964
1963
1963
1961
1960
1959
1958
1958
1958
1958
1958
1956
1955
1954
1954
1952
1951
1952
1952
1953
1951
1948
1945
1946
1950
1958
1965
1965
1962
1957
1953
1952
1952
1952
1951
1950
1948
1947
1944
1941
1938
1936
1935
1936
1936
1935
1934
1931
1928
1926
1922
1918
1915
1912
1910
1909
1910
1913
1913
1913
1912
1911
1909
1908
1907
1905
1904
1904
1904
1903
1904
1904
1903
1903
1903
1903
1904
1905
1905
1904
1903
1901
1899
1896
1895
1894
1895
1898
1900
1900
1898
1894
1891
1891
1892
1894
1897
1897
1894
1893
1894
1896
1901
1903
1905
1903
1901
1900
1900
1901
1902
1903
1901
1900
1898
1897
1899
1904
1911
1916
1915
1912
1908
1910
1921
1938
1954
1963
1960
1949
1934
1921
1914
1911
1912
1911
1912
1913
1917
1922
1927
1929
1934
1933
1931
1928
1928
1928
1933
1938
1943
1933
1886
2048
2152
2051
1761
1349
1108
1319
2048
3028
3849
153
143
4002
3658
3518
3447
3308
3202
3124
3063
3003
2944
2892
2844
2801
2765
2732
2702
2672
2644
2617
2592
2572
2554
2536
2518
2499
2482
2466
2454
2444
2433
2421
2409
2398
2389
2379
2373
2364
2359
2354
2349
2344
2338
2331
2326
2324
2325
2326
2328
2327
2327
2327
2328
2329
2331
2332
2335
2337
2341
2345
2348
2352
2353
2353
2352
2352
2354
2358
2362
2365
2364
2364
2365
2366
2370
2372
2374
2375
2376
2381
2383
2386
2386
2388
2390
2392
2398
2404
2410
2413
2416
2422
2427
2432
2436
2436
2437
2435
2435
2438
2442
2449
2455
2458
2462
2464
2469
2474
2482
2488
2494
2503
2512
2521
2529
2533
2538
2545
2557
2574
2591
2615
2637
2656
2672
2682
2690
2699
2714
2735
2758
2784
2807
2826
2843
2858
2874
2889
2904
2921
2935
2952
2967
2981
2995
3006
3020
3033
3046
3060
3072
3086
3096
3105
3112
3119
3126
3132
3142
3151
3157
3162
3164
3168
3172
3176
3184
3191
3195
3198
3200
3204
3211
3215
3222
3223
3225
3227
3228
3231
3233
3235
3235
3233
3234
3232
3233
3234
3236
3239
3240
3243
3245
3246
3248
3247
3249
3250
3252
3256
3258
3262
3264
3264
3265
3262
3261
3259
3259
3259
3257
3257
3255
3252
3250
3246
3245
3245
3247
3252
3256
3263
3268
3272
3277
3280
3285
3288
3292
3295
3296
3299
3298
3297
3294
3287
3282
3276
3295
3263
3220
3189
3211
3329
3524
3741
3905
3978
3974
3935
3903
3891
3916
3916
3916
3916
3916
3916
3916
3916
3916
3916
3916
3916
3914
3914
3918
3922
3922
3914
3897
3870
3837
3803
3773
3745
3718
3692
3664
3638
3611
3585
3560
3537
3514
3490
3466
3443
3421
3399
3374
3365
3347
3331
3306
3278
3257
3248
3252
3264
3275
3275
3268
3258
3249
3251
3244
3238
3227
3219
3211
3203
3195
3185
3177
3170
3165
3161
3154
3145
3135
3122
3118
3113
3105
3092
3073
3056
3045
3045
3048
3048
3038
3021
3001
2979
2965
2952
2942
2928
2914
2903
2891
2882
2872
2864
2856
2846
2833
2822
2817
2811
2802
2793
2790
2780
2762
2741
2717
2702
2700
2708
2722
2722
2711
2688
2667
2653
2652
2649
2641
2636
2628
2619
2618
2616
2612
2595
2577
2564
2563
2574
2592
2606
2605
2603
2588
2572
2561
2547
2540
2537
2559
2578
2586
2581
2567
2553
2544
2551
2548
2543
2528
2464
2393
2438
2552
2649
2585
2236
1617
893
313
16
4081
91
207
250
190
180
179
179
179
179
179
179
180
181
181
178
174
172
177
196
229
273
316
350
370
376
375
375
380
392
408
426
445
465
486
507
526
542
557
573
592
614
637
660
686
712
737
760
778
792
801
810
820
830
841
851
862
871
881
892
902
913
923
932
942
951
960
968
976
983
991
1001
1012
1023
1032
1038
1043
1047
1052
1058
1064
1070
1074
1078
1081
1084
1089
1093
1097
1094
1085
1066
1042
1017
994
979
971
968
970
973
981
991
1006
1024
1044
1062
1078
1092
1107
1123
1141
1159
1176
1191
1204
1215
1224
1229
1234
1238
1243
1251
1264
1282
1302
1319
1328
1332
1322
1305
1280
1256
1237
1223
1213
1203
1190
1173
1156
1144
1137
1134
1127
1121
1113
1109
1106
1107
1109
1112
1115
1120
1126
1131
1136
1140
1144
1146
1152
1157
1161
1162
1162
1163
1169
1180
1193
1203
1209
1215
1219
1221
1229
1235
1241
1242
1245
1254
1269
1289
1313
1335
1350
1354
1347
1336
1325
1317
1311
1313
1321
1326
1326
1321
1322
1330
1346
1364
1380
1387
1387
1394
1407
1433
1465
1490
1519
1543
1565
1580
1596
1608
1620
1630
1639
1647
1650
1648
1649
1651
1661
1673
1682
1688
1688
1684
1685
1691
1704
1713
1720
1715
1705
1695
1689
1688
1690
1692
1689
1684
1680
1677
1676
1670
1666
1660
1656
1657
1664
1669
1674
1675
1681
1677
1675
1667
1659
1655
1659
1668
1672
1664
1650
1635
1625
1617
1610
1575
1531
1482
1448
1443
1464
1499
1535
1562
1584
1602
1622
1646
1669
1691
1711
1729
1744
1756
1766
1775
1786
1801
1817
1835
1850
1862
1874
1885
1899
1915
1932
1952
1971
1993
2013
2032
2048
2060
2070
2078
2086
2094
2102
2110
2118
2126
2135
2143
2152
2159
2166
2174
2184
2196
2207
2216
2220
2223
2225
2227
2234
2238
2243
2246
2246
2246
2244
2242
2242
2247
2260
2278
2297
2310
2311
2301
2282
2264
2251
2244
2242
2243
2245
2248
2254
2260
2264
2262
2253
2241
2226
2212
2199
2185
2171
2158
2145
2130
2117
2105
2097
2094
2094
2095
2096
2095
2094
2095
2097
2104
2108
2113
2114
2114
2115
2117
2121
2125
2130
2131
2130
2129
2127
2128
2127
2127
2126
2125
2123
2122
2122
2121
2122
2124
2126
2127
2129
2129
2129
2129
2131
2134
2137
2138
2139
2141
2145
2151
2157
2163
2165
2166
2166
2165
2168
2170
2173
2174
2175
2177
2178
2180
2182
2183
2185
2186
2185
2184
2184
2183
2183
2183
2185
2187
2186
2184
2181
2182
2187
2194
2201
2204
2203
2200
2198
2196
2198
2200
2200
2200
2201
2202
2203
2203
2204
2204
2204
2204
2204
2204
2204
2203
2203
2204
2203
2201
2198
2193
2191
2189
2190
2191
2190
2185
2178
2167
2153
2138
2123
2109
2099
2093
2091
2089
2087
2086
2086
2089
2098
2108
2119
2127
2132
2129
2126
2119
2114
2111
2113
2122
2138
2155
2164
2160
2142
2116
2093
2076
2072
2072
2074
2075
2075
2073
2068
2059
2047
2033
2019
2007
1998
1989
1982
1975
1967
1963
1957
1952
1946
1940
1936
1934
1935
1938
1940
1940
1939
1938
1937
1939
1941
1943
1946
1949
1953
1956
1959
1962
1966
1969
1974
1978
1981
1984
1987
1990
1994
1997
2002
2002
2003
2004
2007
2012
2017
2020
2022
2020
2019
2020
2026
2035
2046
2055
2064
2074
2083
2090
2094
2093
2087
2075
2063
2053
2047
2047
2049
2056
2068
2081
2093
2103
2111
2120
2129
2136
2139
2140
2138
2136
2133
2126
2117
2103
2091
2081
2076
2073
2070
2065
2060
2054
2049
2045
2040
2035
2032
2030
2027
2027
2024
2021
2015
2010
2009
2010
2014
2017
2019
2014
2009
2005
2002
2004
2005
2006
2007
2007
2006
2007
2008
2011
2017
2022
2027
2032
2035
2039
2044
2048
2055
2059
2062
2064
2069
2075
2081
2085
2084
2077
2067
2061
2058
2056
2053
2044
2030
2016
2009
2010
2021
2037
2050
2057
2053
2040
2020
2000
1985
1977
1975
1979
1985
1988
1989
1988
1988
1992
2000
2011
2020
2025
2026
2026
2025
2028
2033
2037
2041
2046
2049
2055
2061
2069
2078
2090
2101
2113
2125
2134
2141
2145
2153
2167
2187
2211
2231
2242
2244
2238
2227
2215
2202
2186
2173
2158
2151
2144
2137
2130
2123
2117
2113
2109
2104
2098
2091
2085
2080
2075
2071
2066
2061
2055
2053
2048
2043
2036
2029
2025
2023
2024
2024
2024
2021
2015
2008
2002
2004
2003
2003
2003
2001
1998
1994
1992
1990
1989
1989
1988
1986
1984
1982
1980
1976
1978
1976
1974
1971
1966
1960
1959
1962
1967
1970
1971
1967
1964
1960
1958
1958
1957
1957
1955
1954
1954
1955
1954
1953
1953
1951
1950
1948
1948
1948
1948
1950
1952
1953
1951
1947
1944
1943
1947
1953
1959
1961
1958
1953
1948
1948
1949
1952
1954
1954
1955
1954
1953
1954
1953
1951
1949
1946
1945
1948
1958
1974
1990
2003
2005
1993
1972
1950
1932
1922
1922
1924
1927
1929
1932
1935
1938
1943
1945
1945
1944
1943
1945
1947
1949
1950
1950
1951
1950
1950
1950
1949
1948
1945
1946
1945
1946
1946
1945
1947
1950
1955
1959
1964
1963
1959
1956
1953
1956
1957
1960
1961
1961
1961
1960
1960
1959
1960
1960
1960
1960
1961
1961
1961
1960
1961
1961
1959
1956
1953
1949
1949
1951
1955
1957
1957
1955
1952
1948
1948
1947
1948
1948
1950
1951
1952
1953
1952
1951
1951
1951
1951
1951
1951
1951
1949
1949
1951
1951
1949
1944
1940
1939
1943
1949
1955
1958
1955
1951
1948
1946
1949
1948
1948
1948
1948
1948
1947
1946
1946
1945
1945
1946
1947
1945
1944
1942
1940
1941
1942
1943
1942
1939
1938
1939
1945
1950
1952
1949
1945
1941
1937
1939
1939
1938
1937
1936
1938
1940
1942
1942
1940
1936
1933
1932
1936
1947
1963
1981
1999
2004
1997
1978
1955
1936
1930
1934
1941
1946
1946
1941
1938
1935
1938
1937
1937
1937
1937
1937
1936
1936
1935
1934
1934
1934
1935
1935
1934
1933
1933
1933
1933
1933
1931
1931
1931
1935
1939
1943
1944
1942
1940
1938
1938
1938
1940
1941
1942
1942
1943
1944
1945
1946
1947
1948
1949
1949
1949
1949
1949
1948
1948
1948
1947
1944
1941
1938
1938
1939
1942
1943
1942
1939
1936
1934
1935
1934
1933
1932
1932
1932
1935
1934
1935
1934
1933
1932
1934
1933
1934
1934
1934
1935
1936
1933
1931
1928
1927
1928
1932
1937
1940
1938
1935
1933
1932
1930
1932
1932
1932
1932
1930
1929
1928
1928
1929
1930
1931
1930
1929
1928
1929
1930
1929
1931
1931
1932
1930
1927
1927
1928
1932
1936
1940
1939
1935
1932
1927
1928
1927
1928
1928
1929
1930
1930
1930
1928
1929
1928
1928
1929
1928
1930
1935
1946
1966
1985
1997
1996
1983
1962
1945
1935
1934
1938
1940
1942
1941
1939
1940
1941
1942
1943
1945
1945
1945
1942
1938
1937
1939
1943
1947
1948
1949
1948
1946
1945
1948
1948
1947
1943
1940
1942
1948
1957
1964
1966
1964
1960
1957
1957
1958
1959
1960
1961
1961
1963
1964
1964
1964
1965
1966
1967
1968
1968
1968
1968
1967
1968
1966
1964
1959
1953
1950
1951
1956
1962
1964
1962
1958
1954
1951
1952
1952
1955
1954
1952
1952
1952
1951
1949
1947
1948
1952
1957
1962
1964
1962
1959
1958
1957
1958
1954
1949
1945
1946
1953
1961
1967
1968
1964
1959
1954
1957
1955
1958
1958
1958
1959
1958
1958
1959
1959
1960
1960
1961
1962
1962
1962
1962
1963
1963
1964
1963
1960
1958
1958
1961
1965
1967
1966
1963
1959
1957
1957
1959
1962
1963
1963
1963
1964
1965
1966
1967
1967
1966
1963
1961
1962
1968
1981
2000
2020
2033
2032
2018
1998
1979
1968
1966
1969
1972
1971
1970
1968
1968
1969
1970
1970
1969
1969
1970
1970
1973
1973
1973
1973
1973
1973
1973
1972
1972
1971
1972
1971
1970
1967
1965
1965
1968
1975
1981
1984
1983
1980
1978
1976
1977
1979
1981
1981
1982
1983
1984
1984
1984
1985
1985
1985
1985
1985
1986
1985
1983
1983
1981
1978
1970
1963
1958
1959
1963
1968
1971
1969
1963
1958
1954
1956
1954
1954
1952
1952
1952
1953
1954
1954
1955
1957
1960
1964
1967
1968
1970
1971
1975
1978
1979
1977
1974
1970
1971
1976
1983
1988
1988
1985
1982
1978
1980
1980
1982
1982
1982
1982
1982
1983
1982
1981
1981
1980
1979
1978
1978
1978
1977
1977
1980
1981
1980
1978
1976
1978
1983
1990
1996
1998
1997
1994
1991
1989
1990
1988
1988
1988
1988
1990
1989
1987
1984
1982
1984
1994
2011
2029
2043
2047
2039
2023
2002
1984
1972
1967
1970
1977
1987
1994
1995
1992
1987
1981
1979
1980
1981
1983
1983
1983
1983
1982
1981
1979
1981
1983
1987
1989
1990
1991
1992
1993
1998
2004
2006
2003
2000
1999
2003
2011
2017
2019
2011
1994
1975
1956
1949
1943
1944
1949
1955
1961
1964
1965
1962
1958
1954
1953
1954
1957
1959
1960
1957
1955
1950
1948
1946
1944
1943
1943
1947
1950
1950
1944
1934
1922
1912
1906
1903
1903
1906
1909
1914
1918
1921
1922
1924
1925
1926
1924
1918
1910
1902
1895
1891
1889
1889
1888
1887
1887
1890
1895
1901
1906
1910
1912
1913
1915
1918
1921
1924
1926
1927
1929
1929
1930
1931
1932
1933
1934
1935
1937
1938
1941
1943
1947
1951
1952
1953
1951
1948
1947
1947
1950
1954
1954
1953
1950
1947
1945
1947
1949
1951
1951
1948
1946
1944
1950
1965
1983
2002
2010
2007
1990
1970
1951
1937
1934
1933
1935
1933
1931
1931
1932
1935
1935
1936
1934
1935
1944
1955
1971
1982
1990
1994
1996
1997
1997
1994
1991
1988
1985
1983
1983
1982
1981
1981
1978
1978
1976
1973
1973
1970
1969
1970
1973
1977
1984
1990
1992
1995
1997
2003
2009
2013
2018
2019
2019
2018
2020
2019
2018
2017
2013
2011
2008
2006
2005
2001
1999
2000
2000
1997
1991
1985
1984
1988
1995
2003
2005
2003
1998
1994
1992
1994
1995
1995
1995
1996
1996
1995
1995
1994
1993
1994
1995
1996
1995
1994
1991
1991
1995
1997
1997
1995
1991
1989
1990
1997
2002
2004
2002
1998
1993
1990
1992
1993
1994
1994
1995
1994
1996
1997
1996
1998
2000
2001
2002
2002
2003
2005
2006
2008
2009
2007
2004
2002
2001
2003
2007
2009
2012
2013
2012
2010
2009
2010
2010
2013
2014
2015
2014
2013
2015
2025
2042
2057
2069
2070
2061
2044
2027
2015
2011
2013
2019
2024
2027
2029
2032
2036
2041
2045
2046
2044
2041
2037
2036
2036
2038
2039
2038
2038
2039
2040
2041
2042
2043
2043
2043
2043
2044
2045
2045
2044
2044
2044
2043
2042
2040
2040
2040
2043
2046
2047
2046
2042
2037
2033
2033
2031
2031
2029
2025
2022
2018
2015
2013
2010
2008
2004
2000
1995
1989
1985
1980
1981
1975
1969
1961
1951
1945
1941
1941
1936
1930
1920
1912
1907
1901
1901
1894
1886
1877
1870
1865
1858
1853
1843
1837
1838
1849
1865
1882
1895
1899
1898
1900
1903
1913
1921
1935
1952
1973
1993
2012
2031
2046
2060
2074
2081
2086
2083
2082
2080
2082
2085
2087
2086
2085
2085
2085
2084
2083
2082
2080
2076
2069
2064
2057
2049
2047
2037
2019
1990
1956
1927
1913
1916
1927
1938
1937
1929
1919
1917
1932
1951
1969
1980
1982
1977
1971
1964
1958
1952
1943
1933
1922
1913
1907
1904
1900
1891
1881
1872
1871
1879
1891
1899
1898
1888
1877
1870
1870
1879
1889
1899
1910
1921
1933
1946
1959
1971
1984
1998
2012
2026
2037
2045
2048
2048
2050
2051
2053
2052
2053
2055
2062
2074
2089
2104
2116
2127
2137
2147
2161
2169
2176
2180
2182
2183
2182
2180
2177
2175
2172
2170
2167
2167
2167
2169
2170
2172
2172
2172
2171
2171
2173
2179
2185
2191
2194
2193
2191
2189
2188
2190
2190
2190
2188
2189
2191
2194
2196
2198
2200
2203
2209
2217
2223
2227
2229
2228
2226
2223
2218
2210
2199
2187
2176
2168
2163
2158
2153
2147
2143
2140
2139
2139
2140
2139
2136
2132
2127
2122
2118
2116
2115
2115
2114
2112
2109
2107
2103
2100
2097
2096
2093
2090
2089
2089
2089
2089
2089
2089
2093
2102
2117
2134
2144
2142
2128
2106
2084
2069
2061
2059
2062
2064
2067
2069
2070
2071
2071
2071
2071
2073
2072
2070
2070
2070
2072
2075
2078
2079
2079
2078
2078
2080
2081
2083
2083
2083
2083
2082
2081
2080
2080
2081
2082
2083
2084
2085
2086
2087
2089
2091
2094
2096
2096
2094
2090
2088
2087
2089
2092
2096
2096
2092
2087
2082
2087
2098
2116
2140
2161
2180
2190
2195
2196
2196
2192
2186
2179
2170
2160
2150
2139
2134
2126
2121
2113
2104
2098
2094
2094
2098
2101
2100
2092
2084
2073
2068
2064
2063
2063
2059
2056
2053
2051
2051
2052
2054
2054
2050
2045
2040
2036
2034
2038
2041
2045
2045
2044
2043
2045
2049
2055
2060
2060
2056
2050
2045
2044
2042
2040
2038
2035
2033
2029
2026
2022
2019
2015
2012
2010
2008
2006
2003
2001
1998
1999
1998
1996
1993
1988
1984
1983
1989
1999
2011
2025
2037
2045
2043
2034
2019
1998
1983
1973
1969
1970
1972
1975
1975
1978
1976
1975
1973
1971
1970
1970
1973
1976
1976
1972
1967
1965
1964
1969
1973
1975
1974
1971
1967
1963
1964
1963
1964
1961
1963
1963
1962
1959
1957
1955
1951
1947
1943
1937
1932
1926
1921
1917
1911
1907
1899
1891
1884
1875
1869
1862
1855
1845
1834
1824
1814
1807
1804
1801
1798
1794
1793
1795
1798
1801
1807
1814
1821
1827
1835
1847
1858
1869
1879
1887
1895
1897
1897
1899
1904
1910
1916
1921
1924
1922
1916
1914
1917
1921
1927
1929
1933
1937
1939
1940
1943
1946
1947
1948
1950
1954
1958
1961
1963
1966
1970
1969
1966
1967
1968
1970
1978
1992
2004
2008
2005
2004
2003
2001
2004
2005
2006
2004
2001
1999
2000
2000
1999
1999
2004
2008
2010
2011
2014
2016
2010
2015
2015
2014
2005
1993
1990
1994
2003
2018
2028
2035
2039
2042
2038
2049
2047
2040
2030
2024
2021
2016
2015
2019
2024
2022
2020
2018
2017
2019
2017
2013
2015
2027
2025
2023
2015
2004
2003
2013
2037
2056
2060
2048
2041
2034
2026
2031
2035
2032
2030
2025
2029
2038
2041
2048
2053
2050
2048
2043
2040
2038
2041
2040
2042
2049
2050
2045
2033
2029
2036
2046
2061
2070
2071
2062
2051
2048
2050
2052
2053
2054
2056
2057
2056
2055
2054
2053
2051
2050
2053
2056
2056
2056
2051
2063
2059
2054
2043
2032
2029
2035
2054
2071
2078
2075
2066
2061
2056
2064
2061
2062
2059
2058
2061
2064
2067
2065
2063
2066
2068
2069
2066
2063
2059
2054
2057
2063
2070
2064
2052
2045
2047
2055
2067
2075
2072
2002
2001
2071
2175
2219
2081
1688
1109
534
141
4093
41
152
234
240
174
165
164
187
260
362
461
512
487
393
274
184
142
146
170
187
190
179
179
179
179
179
179
179
191
193
174
146
129
164
271
439
635
806
924
995
1038
1077
1127
1177
1217
1253
1285
1315
1349
1382
1415
1435
1435
1418
1396
1384
1394
1420
1450
1470
1473
1465
1455
1455
1462
1473
1487
1498
1508
1517
1527
1541
1558
1578
1599
1622
1645
1669
1697
1720
1734
1735
1729
1731
1750
1793
1854
1919
1979
2030
2072
2113
2159
2207
2255
2304
2351
2396
2440
2483
2526
2570
2614
2657
2700
2742
2783
2818
2846
2865
2881
2896
2917
2946
2977
3007
3033
3052
3069
3083
3098
3113
3130
3150
3173
3198
3224
3249
3271
3290
3306
3318
3326
3331
3334
3333
3330
3326
3321
3316
3310
3306
3301
3297
3292
3288
3284
3281
3279
3277
3276
3274
3271
3269
3267
3267
3268
3269
3272
3274
3276
3280
3283
3288
3293
3297
3302
3307
3312
3318
3326
3332
3337
3339
3338
3339
3344
3356
3372
3387
3393
3387
3367
3345
3325
3312
3309
3313
3320
3328
3338
3348
3357
3364
3368
3370
3368
3365
3360
3353
3345
3335
3323
3311
3297
3282
3266
3249
3231
3212
3192
3172
3152
3133
3115
3097
3080
3064
3050
3036
3023
3010
2996
2982
2968
2958
2950
2943
2938
2935
2931
2928
2925
2923
2922
2919
2917
2912
2907
2901
2931
2870
2730
2785
3025
3373
3590
3387
2669
1654
764
330
406
781
1231
1518
1565
1638
1720
1798
1863
1919
1967
2009
2048
2087
2128
2169
2207
2240
2268
2291
2311
2329
2346
2361
2373
2384
2392
2400
2406
2411
2415
2419
2422
2424
2426
2428
2430
2433
2434
2435
2437
2435
2434
2433
2434
2438
2440
2438
2434
2432
2433
2440
2448
2452
2448
2439
2430
2425
2425
2428
2430
2430
2430
2432
2435
2439
2444
2450
2456
2462
2470
2476
2481
2485
2488
2494
2502
2512
2524
2530
2533
2532
2533
2538
2552
2570
2585
2593
2589
2574
2553
2531
2513
2501
2494
2492
2491
2491
2494
2500
2501
2493
2468
2428
2379
2334
2305
2297
2303
2316
2328
2334
2335
2335
2333
2338
2343
2352
2364
2378
2394
2408
2418
2424
2424
2419
2411
2401
2390
2379
2367
2354
2345
2335
2327
2321
2313
2305
2298
2296
2299
2304
2307
2306
2302
2296
2292
2291
2292
2294
2293
2291
2291
2290
2291
2293
2295
2297
2298
2299
2300
2302
2305
2307
2310
2310
2309
2305
2303
2303
2305
2310
2314
2317
2315
2312
2308
2306
2305
2304
2304
2302
2301
2300
2299
2299
2297
2296
2294
2292
2292
2291
2290
2289
2286
2288
2287
2286
2284
2282
2281
2281
2284
2286
2287
2286
2284
2282
2279
2280
2279
2278
2278
2277
2276
2275
2274
2272
2270
2269
2267
2265
2262
2257
2255
2250
2248
2244
2240
2233
2227
2222
2220
2220
2219
2216
2214
2214
2224
2238
2257
2266
2263
2246
2222
2201
2186
2180
2180
2182
2184
2186
2189
2192
2196
2198
2199
2202
2204
2204
2203
2201
2199
2199
2202
2207
2212
2212
2208
2204
2200
2200
2201
2202
2202
2200
2199
2198
2199
2199
2198
2197
2199
2204
2204
2199
2190
2182
2179
2185
2198
2207
2207
2200
2190
2183
2182
2185
2185
2180
2172
2163
2154
2147
2139
2132
2124
2116
2108
2103
2100
2097
2095
2094
2096
2100
2106
2109
2106
2097
2087
2078
2074
2075
2078
2080
2082
2083
2082
2081
2078
2074
2072
2069
2068
2067
2065
2062
2060
2058
2057
2057
2056
2054
2054
2054
2055
2056
2058
2058
2055
2053
2052
2053
2055
2056
2056
2055
2053
2053
2054
2054
2055
2053
2051
2052
2052
2054
2053
2052
2050
2046
2042
2038
2035
2033
2031
2027
2025
2021
2019
2015
2016
2014
2013
2009
2006
2003
2000
1999
1999
2001
2009
2021
2040
2058
2070
2072
2060
2041
2019
2001
1991
1986
1988
1993
1998
2001
2003
2005
2005
2008
2008
2009
2012
2012
2012
2010
2007
2007
2009
2013
2017
2018
2016
2013
2010
2010
2012
2014
2015
2013
2012
2011
2009
2008
2008
2008
2008
2009
2011
2013
2013
2012
2010
2011
2009
2007
2003
2000
1997
1997
2000
2002
2000
1994
1986
1978
1972
1970
1967
1965
1961
1959
1957
1957
1956
1955
1956
1953
1952
1951
1950
1948
1947
1945
1947
1948
1949
1947
1944
1942
1944
1948
1952
1957
1958
1959
1959
1961
1966
1969
1972
1975
1978
1982
1985
1988
1990
1991
1992
1992
1992
1991
1992
1992
1991
1992
1992
1992
1991
1990
1989
1987
1989
1993
1996
1997
1996
1993
1989
1988
1990
1994
1999
2003
2005
2005
2005
2005
2004
2004
2005
2006
2008
2011
2014
2014
2016
2014
2014
2013
2014
2015
2017
2020
2024
2026
2027
2027
2024
2019
2016
2014
2018
2027
2044
2064
2083
2091
2086
2070
2050
2031
2019
2015
2016
2019
2021
2022
2025
2026
2028
2027
2024
2022
2022
2024
2027
2030
2029
2026
2024
2021
2022
2022
2023
2023
2022
2021
2021
2020
2019
2019
2019
2020
2021
2022
2024
2025
2024
2028
2027
2026
2023
2020
2018
2021
2025
2029
2030
2030
2028
2026
2023
2025
2025
2025
2026
2027
2029
2029
2028
2025
2023
2022
2022
2021
2020
2017
2015
2012
2013
2015
2018
2017
2015
2013
2014
2015
2020
2023
2022
2020
2016
2015
2015
2015
2015
2013
2013
2013
2015
2017
2018
2019
2019
2022
2023
2025
2026
2025
2025
2024
2027
2028
2028
2025
2020
2019
2020
2024
2027
2028
2025
2021
2018
2016
2019
2019
2019
2019
2019
2019
2017
2015
2013
2011
2011
2012
2015
2015
2014
2011
2008
2009
2009
2011
2011
2010
2010
2012
2016
2019
2021
2020
2017
2014
2011
2012
2013
2014
2014
2015
2015
2015
2016
2016
2015
2015
2014
2014
2015
2016
2017
2016
2018
2017
2015
2013
2009
2004
2003
2011
2027
2049
2071
2084
2085
2073
2057
2039
2024
2016
2013
2014
2017
2020
2022
2023
2023
2021
2021
2021
2022
2023
2024
2025
2026
2027
2027
2029
2033
2036
2042
2046
2047
2045
2042
2039
2038
2039
2041
2043
2042
2041
2040
2040
2041
2043
2044
2045
2047
2048
2048
2048
2049
2050
2052
2052
2053
2052
2050
2048
2048
2051
2054
2056
2056
2053
2048
2046
2043
2041
2041
2039
2036
2033
2030
2027
2024
2023
2022
2021
2020
2020
2020
2021
2022
2022
2026
2029
2030
2031
2031
2035
2043
2055
2070
2081
2086
2087
2086
2086
2089
2093
2096
2097
2098
2099
2100
2099
2099
2099
2100
2100
2100
2100
2100
2101
2102
2105
2107
2107
2107
2106
2107
2111
2116
2123
2129
2132
2134
2138
2143
2154
2164
2171
2176
2178
2175
2170
2163
2155
2148
2142
2138
2134
2131
2128
2125
2121
2118
2118
2112
2104
2095
2088
2085
2088
2094
2097
2096
2091
2084
2079
2073
2070
2068
2072
2082
2098
2116
2129
2129
2118
2097
2075
2058
2047
2043
2044
2048
2056
2064
2073
2077
2076
2074
2073
2073
2073
2072
2067
2064
2064
2069
2081
2091
2097
2097
2090
2079
2067
2054
2042
2031
2023
2017
2016
2017
2021
2026
2031
2035
2042
2043
2043
2038
2033
2031
2034
2041
2047
2049
2048
2045
2041
2039
2041
2040
2039
2036
2033
2030
2027
2023
2019
2014
2011
2008
2005
2003
2000
1997
1994
1994
1994
1993
1992
1986
1978
1967
1957
1948
1943
1940
1939
1939
1939
1943
1945
1947
1950
1951
1953
1955
1958
1959
1959
1958
1956
1956
1956
1957
1957
1957
1959
1959
1958
1956
1952
1950
1951
1957
1964
1971
1974
1974
1972
1969
1967
1960
1948
1933
1916
1898
1883
1874
1871
1875
1883
1891
1895
1895
1894
1896
1900
1905
1906
1904
1899
1897
1901
1909
1917
1922
1923
1921
1919
1923
1932
1945
1961
1979
1993
2002
2006
2007
2010
2019
2036
2058
2080
2095
2099
2089
2071
2052
2037
2029
2028
2029
2031
2033
2035
2040
2046
2050
2053
2050
2045
2040
2035
2035
2037
2038
2039
2041
2042
2044
2045
2047
2048
2050
2053
2057
2061
2066
2071
2074
2080
2084
2088
2090
2092
2095
2101
2109
2118
2125
2127
2127
2127
2127
2131
2134
2138
2140
2142
2144
2145
2146
2146
2146
2148
2148
2148
2147
2144
2142
2139
2140
2141
2143
2143
2140
2137
2135
2138
2146
2154
2160
2160
2155
2150
2147
2147
2149
2151
2151
2150
2150
2151
2151
2152
2153
2154
2154
2154
2154
2153
2152
2152
2154
2154
2153
2150
2148
2147
2151
2156
2161
2163
2161
2158
2155
2154
2155
2157
2159
2159
2160
2160
2160
2160
2159
2159
2160
2162
2164
2165
2164
2163
2160
2159
2158
2156
2154
2153
2152
2154
2158
2161
2163
2161
2159
2158
2157
2161
2162
2163
2163
2162
2160
2158
2157
2158
2160
2161
2162
2162
2161
2159
2158
2159
2163
2165
2166
2164
2161
2160
2164
2178
2198
2221
2239
2248
2244
2229
2210
2189
2172
2163
2159
2160
2163
2166
2169
2169
2170
2170
2170
2172
2173
2175
2175
2177
2178
2178
2177
2176
2176
2179
2183
2188
2191
2190
2188
2185
2185
2186
2189
2192
2192
2193
2192
2193
2194
2197
2197
2192
2179
2159
2136
2114
2101
2099
2106
2119
2133
2147
2163
2182
2207
2238
2271
2303
2329
2348
2357
2355
2343
2324
2305
2289
2281
2281
2287
2296
2304
2310
2312
2311
2304
2295
2283
2269
2253
2236
2220
2201
2184
2166
2151
2137
2127
2119
2111
2103
2094
2086
2079
2075
2073
2070
2067
2064
2060
2057
2053
2050
2048
2045
2043
2041
2039
2037
2035
2032
2029
2029
2026
2023
2017
2011
2005
2001
2000
2000
1998
1993
1986
1977
1969
1965
1959
1954
1949
1948
1948
1951
1954
1957
1961
1965
1969
1973
1975
1976
1975
1974
1975
1977
1981
1983
1985
1987
1989
1992
1997
1998
1998
1997
1997
1999
2004
2007
2010
2010
2008
2006
2004
2001
2000
2002
2010
2025
2043
2057
2062
2054
2036
2010
1990
1974
1965
1959
1957
1958
1961
1966
1969
1970
1968
1964
1961
1959
1962
1963
1965
1967
1970
1972
1973
1975
1976
1979
1980
1981
1984
1986
1988
1990
1992
1996
1999
2002
2003
2005
2007
2010
2015
2020
2023
2022
2019
2016
2013
2013
2014
2017
2018
2020
2021
2022
2023
2023
2023
2023
2022
2021
2019
2016
2012
2008
2007
2004
2001
1997
1990
1985
1984
1985
1989
1991
1991
1989
1987
1984
1985
1986
1988
1990
1992
1996
1999
2001
2005
2009
2013
2015
2016
2017
2017
2015
2015
2014
2015
2017
2017
2016
2013
2011
2011
2013
2015
2013
2009
2004
2001
1999
1999
1998
1997
1996
1995
1995
1996
1995
1994
1992
1990
1989
1989
1990
1991
1992
1993
1991
1991
1988
1985
1982
1981
1982
1984
1986
1986
1984
1981
1979
1978
1978
1979
1979
1979
1979
1979
1980
1980
1979
1977
1975
1976
1984
2000
2022
2043
2054
2055
2044
2024
2004
1990
1985
1987
1993
2001
2005
2006
2005
2003
2002
2002
2003
2003
2002
2001
2000
1999
1998
1997
1996
1995
1996
1996
1998
1999
2001
2005
2009
2011
2012
2011
2012
2015
2021
2028
2031
2031
2028
2025
2024
2024
2027
2026
2025
2024
2024
2024
2024
2025
2027
2027
2026
2024
2021
2018
2015
2011
2005
2001
1996
1991
1986
1981
1978
1977
1978
1980
1981
1980
1977
1975
1973
1972
1970
1969
1968
1968
1969
1969
1971
1972
1974
1973
1971
1969
1968
1968
1968
1969
1969
1970
1971
1970
1969
1967
1968
1967
1967
1967
1968
1973
1980
1985
1988
1987
1982
1978
1978
1980
1984
1984
1985
1986
1987
1989
1991
1994
1995
1997
1998
2000
2004
2006
2009
2008
2008
2009
2012
2017
2021
2024
2023
2019
2016
2014
2015
2014
2012
2010
2007
2005
2003
2002
1999
1997
1996
1994
1993
1993
1994
1993
1988
1984
1978
1974
1977
1991
2011
2030
2035
2017
1977
1922
1871
1835
1824
1838
1869
1902
1930
1949
1956
1959
1957
1960
1963
1968
1972
1976
1980
1986
1990
1993
2000
2006
2011
2015
2015
2017
2022
2029
2038
2046
2049
2051
2050
2051
2054
2056
2058
2060
2062
2064
2065
2066
2067
2067
2068
2069
2071
2072
2074
2075
2076
2078
2079
2081
2081
2080
2080
2082
2084
2088
2089
2088
2086
2083
2080
2080
2080
2081
2081
2083
2084
2086
2087
2088
2088
2088
2088
2089
2091
2094
2097
2100
2100
2101
2101
2101
2102
2104
2107
2111
2115
2118
2119
2118
2117
2116
2116
2118
2120
2121
2122
2122
2123
2124
2125
2125
2124
2124
2124
2126
2127
2130
2131
2130
2130
2129
2130
2129
2129
2130
2131
2133
2135
2135
2133
2131
2129
2128
2129
2130
2131
2131
2130
2130
2130
2130
2130
2129
2129
2129
2129
2130
2130
2129
2128
2128
2127
2126
2123
2120
2117
2116
2118
2122
2123
2124
2122
2119
2115
2112
2111
2110
2111
2120
2135
2153
2170
2177
2171
2151
2125
2103
2088
2084
2087
2092
2095
2100
2101
2100
2096
2091
2089
2093
2099
2107
2109
2107
2102
2098
2095
2097
2098
2099
2100
2100
2101
2101
2100
2099
2098
2099
2102
2106
2108
2111
2110
2108
2110
2110
2111
2110
2108
2107
2109
2114
2118
2121
2120
2118
2116
2114
2117
2117
2117
2115
2115
2115
2117
2120
2123
2128
2134
2143
2155
2168
2180
2189
2196
2198
2197
2194
2189
2182
2173
2157
2137
2113
2087
2063
2046
2037
2036
2044
2057
2074
2091
2105
2116
2127
2141
2166
2196
2229
2256
2272
2275
2268
2255
2241
2229
2219
2211
2205
2200
2196
2192
2187
2180
2169
2155
2142
2129
2121
2115
2110
2105
2098
2090
2084
2078
2074
2071
2070
2068
2067
2064
2062
2059
2056
2054
2052
2048
2046
2039
2032
2025
2021
2020
2020
2019
2015
2010
2005
2003
2005
2008
2012
2016
2019
2022
2024
2025
2027
2028
2030
2031
2032
2033
2034
2036
2035
2036
2036
2033
2029
2024
2019
2017
2022
2035
2052
2070
2082
2083
2071
2051
2034
2016
2007
2005
2005
2007
2010
2011
2011
2011
2011
2011
2012
2012
2014
2014
2013
2014
2012
2011
2009
2008
2008
2011
2014
2017
2018
2018
2015
2014
2012
2014
2016
2018
2020
2022
2023
2024
2023
2024
2024
2024
2025
2027
2028
2030
2031
2030
2031
2034
2035
2036
2035
2034
2034
2036
2040
2043
2043
2040
2036
2032
2029
2027
2026
2025
2027
2029
2033
2036
2037
2037
2036
2034
2032
2031
2030
2028
2026
2023
2023
2022
2021
2017
2012
2010
2011
2017
2024
2028
2027
2022
2017
2012
2012
2011
2012
2012
2013
2015
2014
2012
2010
2009
2010
2011
2014
2015
2016
2015
2012
2017
2017
2018
2016
2012
2009
2009
2012
2015
2016
2013
2009
2005
2003
2005
2008
2008
2007
2008
2008
2010
2014
2018
2021
2022
2020
2017
2016
2014
2016
2016
2018
2017
2018
2016
2016
2014
2013
2014
2014
2016
2016
2014
2011
2007
2007
2006
2007
2005
2003
2000
2000
2007
2021
2038
2049
2053
2046
2030
2010
1995
1985
1983
1985
1988
1989
1989
1989
1990
1994
1997
2000
2000
1998
1995
1993
1993
1994
1994
1993
1992
1991
1992
1992
1993
1993
1994
1994
1994
1995
1994
1994
1995
1996
1996
1998
1997
1995
1993
1994
1997
2002
2007
2010
2010
2008
2007
2007
2006
2009
2011
2013
2011
2007
2003
2003
2007
2015
2021
2021
2015
2008
2001
1999
1998
2001
1998
1995
1993
1991
1992
1994
1996
1996
1994
1991
1989
1987
1986
1988
1987
1987
1987
1987
1987
1986
1986
1985
1984
1983
1983
1982
1981
1982
1980
1981
1980
1979
1978
1976
1974
1974
1976
1980
1983
1985
1982
1980
1977
1975
1976
1977
1978
1978
1978
1977
1977
1976
1975
1975
1975
1976
1977
1978
1979
1979
1979
1980
1980
1980
1980
1979
1979
1980
1989
1998
2001
1993
1970
1941
1917
1904
1901
1904
1906
1905
1900
1894
1893
1894
1892
1892
1890
1891
1892
1894
1897
1907
1925
1947
1971
1986
1986
1974
1955
1938
1927
1925
1925
1926
1926
1924
1926
1929
1932
1935
1937
1939
1940
1941
1942
1943
1945
1947
1949
1951
1953
1954
1954
1954
1954
1953
1951
1948
1946
1945
1947
1949
1952
1953
1952
1950
1946
1944
1944
1945
1947
1948
1950
1950
1951
1952
1953
1954
1955
1955
1954
1954
1954
1955
1955
1959
1962
1963
1959
1952
1943
1940
1943
1950
1956
1959
1955
1948
1942
1939
1939
1941
1943
1944
1943
1941
1940
1940
1940
1941
1940
1938
1936
1935
1935
1934
1935
1935
1933
1931
1928
1925
1925
1927
1932
1934
1934
1932
1929
1927
1927
1927
1927
1927
1926
1926
1926
1926
1926
1926
1926
1925
1925
1924
1924
1924
1923
1923
1925
1924
1923
1920
1918
1917
1922
1928
1932
1932
1928
1924
1922
1922
1926
1926
1924
1921
1919
1919
1921
1924
1925
1925
1923
1919
1915
1913
1916
1926
1942
1963
1978
1983
1974
1954
1932
1916
1908
1908
1910
1911
1911
1910
1910
1912
1914
1916
1917
1918
1919
1921
1922
1923
1924
1924
1925
1926
1927
1929
1929
1930
1930
1929
1928
1927
1927
1928
1930
1933
1937
1939
1940
1939
1937
1936
1938
1940
1944
1945
1947
1949
1951
1952
1954
1955
1956
1957
1960
1963
1964
1964
1962
1962
1961
1961
1959
1956
1951
1949
1950
1952
1955
1954
1952
1947
1943
1942
1941
1941
1941
1941
1939
1938
1937
1937
1939
1939
1939
1937
1935
1934
1933
1934
1935
1937
1937
1937
1933
1928
1927
1930
1934
1939
1940
1937
1933
1931
1932
1935
1936
1938
1938
1937
1938
1938
1939
1940
1942
1943
1943
1944
1943
1942
1940
1936
1934
1930
1927
1922
1916
1911
1909
1907
1906
1905
1901
1897
1892
1888
1890
1891
1894
1896
1899
1903
1908
1916
1923
1933
1944
1954
1965
1975
1985
1998
2017
2047
2078
2109
2127
2131
2121
2108
2099
2096
2099
2101
2099
2098
2095
2097
2098
2100
2101
2101
2102
2101
2101
2099
2099
2097
2095
2096
2093
2091
2089
2086
2085
2084
2083
2079
2073
2067
2064
2064
2066
2067
2065
2061
2057
2054
2053
2052
2052
2052
2052
2053
2054
2055
2055
2055
2053
2052
2050
2048
2046
2045
2042
2042
2040
2038
2035
2030
2026
2023
2021
2020
2019
2014
2004
1992
1976
1962
1952
1943
1934
1926
1917
1911
1905
1896
1890
1881
1876
1874
1874
1876
1879
1881
1882
1886
1889
1892
1893
1893
1896
1902
1910
1918
1923
1925
1924
1923
1923
1926
1929
1931
1932
1933
1934
1936
1937
1938
1939
1940
1941
1943
1945
1947
1947
1945
1945
1942
1940
1936
1932
1930
1930
1932
1936
1940
1941
1942
1942
1942
1944
1945
1947
1947
1949
1950
1952
1953
1954
1954
1955
1955
1957
1959
1961
1962
1961
1962
1962
1960
1957
1952
1948
1947
1949
1959
1973
1988
1999
2000
1990
1971
1949
1929
1917
1912
1911
1911
1912
1911
1911
1908
1904
1901
1896
1893
1890
1890
1889
1889
1888
1887
1884
1880
1880
1882
1886
1892
1895
1896
1896
1897
1900
1905
1910
1915
1920
1925
1931
1935
1940
1944
1948
1954
1961
1969
1977
1987
1999
2021
2048
2077
2107
2132
2153
2170
2183
2191
2193
2190
2185
2180
2175
2173
2170
2164
2157
2150
2143
2137
2131
2125
2118
2111
2105
2101
2098
2095
2091
2087
2081
2079
2076
2074
2068
2062
2055
2052
2052
2054
2054
2052
2048
2043
2041
2040
2039
2037
2034
2032
2031
2031
2032
2033
2032
2032
2031
2029
2029
2029
2029
2029
2031
2032
2033
2031
2028
2025
2026
2032
2040
2046
2047
2045
2041
2037
2035
2032
2030
2025
2022
2020
2018
2016
2013
2009
2004
2000
1995
1991
1989
1986
1986
1987
1988
1989
1989
1987
1986
1985
1988
1992
1996
1997
1996
1994
1991
1990
1988
1987
1987
1991
2001
2015
2030
2040
2042
2033
2018
2001
1987
1978
1975
1976
1975
1978
1977
1976
1974
1971
1971
1974
1978
1982
1984
1982
1979
1978
1974
1977
1977
1978
1980
1983
1985
1988
1989
1989
1988
1988
1987
1987
1988
1989
1990
1989
1991
1991
1993
1993
1993
1995
1998
2006
2015
2022
2025
2026
2026
2026
2028
2030
2031
2030
2029
2026
2024
2021
2017
2013
2009
2003
1997
1992
1987
1984
1980
1981
1980
1978
1975
1971
1969
1970
1973
1978
1979
1978
1974
1972
1968
1970
1973
1976
1977
1977
1975
1973
1972
1974
1976
1977
1977
1977
1976
1977
1978
1978
1980
1982
1982
1983
1981
1980
1981
1986
1993
2000
2002
1999
1996
1993
1995
1998
1999
2002
2002
2002
2003
2003
2003
2002
2000
1998
1997
1998
1999
2002
2002
2002
2001
1999
2000
1999
2000
2001
2002
2004
2005
2004
2000
1996
1991
1989
1990
1990
1990
1990
1991
1992
1994
1994
1993
1991
1989
1993
2003
2019
2037
2050
2053
2050
2038
2022
2007
1995
1992
1993
2001
2011
2018
2021
2019
2014
2008
2006
2009
2009
2009
2007
2003
2001
2001
2006
2011
2015
2016
2014
2013
2010
2013
2013
2016
2018
2020
2020
2018
2016
2016
2019
2025
2029
2030
2028
2025
2024
2025
2027
2028
2027
2027
2028
2029
2029
2030
2032
2033
2034
2034
2033
2032
2031
2031
2032
2033
2031
2027
2021
2016
2015
2018
2024
2029
2030
2027
2022
2018
2015
2017
2017
2017
2016
2016
2017
2017
2019
2019
2020
2020
2020
2019
2019
2019
2019
2019
2019
2019
2018
2014
2010
2008
2010
2015
2020
2022
2021
2017
2013
2011
2011
2012
2013
2012
2011
2011
2011
2011
2011
2011
2011
2011
2011
2011
2011
2011
2009
2008
2008
2008
2006
2004
2003
2004
2008
2013
2016
2015
2012
2008
2005
2005
2007
2008
2008
2008
2008
2008
2008
2005
2001
1997
1996
2002
2016
2036
2053
2063
2063
2052
2036
2021
2010
2004
2004
2009
2016
2023
2026
2027
2025
2023
2025
2029
2035
2043
2048
2053
2057
2059
2060
2060
2059
2056
2053
2049
2046
2041
2039
2036
2036
2034
2031
2025
2017
2014
2016
2021
2028
2030
2029
2027
2028
2028
2031
2031
2031
2028
2027
2028
2030
2031
2032
2033
2036
2038
2041
2042
2042
2042
2040
2041
2039
2038
2033
2027
2024
2022
2025
2029
2031
2029
2025
2021
2018
2020
2022
2024
2025
2025
2026
2026
2025
2024
2021
2019
2017
2017
2018
2018
2018
2016
2017
2017
2017
2014
2009
2004
2003
2007
2013
2017
2016
2010
2003
1997
1996
1996
1997
1998
1998
1998
1999
2000
2002
2004
2005
2005
2003
2000
1997
1995
1992
1992
1990
1989
1986
1984
1983
1986
1993
2002
2007
2009
2006
2002
1999
1998
1999
1998
1998
1995
1992
1989
1987
1985
1984
1983
1984
1984
1985
1986
1987
1990
1999
2012
2027
2040
2045
2042
2033
2023
2017
2014
2013
2013
2015
2015
2018
2021
2023
2025
2025
2025
2025
2025
2024
2023
2021
2019
2017
2017
2016
2016
2015
2015
2015
2014
2013
2010
2008
2009
2012
2018
2023
2024
2021
2016
2011
2007
2009
2010
2013
2012
2010
2011
2014
2022
2030
2036
2037
2035
2032
2029
2030
2031
2031
2032
2031
2031
2027
2023
2019
2017
2018
2021
2022
2021
2019
2012
2006
2003
2001
2001
2000
2001
2004
2005
2008
2011
2015
2019
2021
2021
2021
2019
2018
2016
2016
2015
2014
2012
2008
2003
2000
1998
1997
1997
1996
1992
1988
1986
1985
1987
1987
1989
1989
1989
1989
1992
1993
1995
1995
1993
1991
1990
1990
1990
1990
1989
1990
1990
1991
1990
1988
1988
1991
1995
2000
2002
2000
1997
1995
1994
1996
1995
1995
1994
1992
1991
1989
1988
1987
1987
1989
1991
1992
1992
1993
1992
1992
1997
2008
2021
2037
2047
2050
2047
2040
2031
2021
2013
2007
2004
2003
2006
2009
2011
2012
2012
2013
2014
2015
2015
2015
2013
2013
2013
2015
2016
2016
2014
2015
2014
2014
2011
2009
2007
2007
2009
2012
2014
2014
2012
2012
2013
2015
2016
2017
2016
2016
2016
2016
2016
2016
2017
2019
2021
2023
2023
2021
2021
2020
2022
2024
2023
2021
2016
2012
2011
2015
2022
2029
2031
2028
2024
2019
2016
2017
2017
2018
2019
2020
2020
2021
2020
2020
2021
2022
2023
2025
2027
2028
2028
2028
2029
2028
2028
2026
2023
2023
2024
2027
2028
2028
2026
2021
2017
2014
2012
2012
2011
2009
2008
2007
2006
2006
2007
2009
2012
2015
2020
2026
2032
2036
2038
2045
2047
2048
2049
2048
2050
2053
2059
2064
2067
2066
2064
2062
2059
2061
2058
2057
2057
2057
2059
2061
2063
2062
2063
2062
2061
2062
2064
2067
2069
2071
2072
2071
2072
2075
2083
2098
2116
2131
2136
2129
2114
2095
2081
2072
2071
2072
2074
2074
2073
2073
2073
2072
2071
2070
2069
2067
2068
2069
2069
2068
2064
2064
2061
2060
2059
2058
2058
2060
2064
2069
2072
2073
2070
2068
2065
2066
2067
2067
2067
2065
2063
2061
2061
2062
2064
2065
2063
2063
2061
2061
2062
2062
2064
2066
2067
2068
2066
2063
2063
2066
2072
2077
2078
2075
2070
2064
2061
2061
2059
2059
2057
2057
2056
2055
2054
2054
2053
2054
2056
2057
2058
2060
2060
2061
2063
2063
2062
2059
2057
2057
2060
2064
2068
2069
2066
2062
2057
2055
2055
2055
2056
2055
2054
2053
2052
2051
2050
2048
2048
2048
2047
2047
2046
2045
2042
2043
2042
2043
2040
2037
2032
2031
2034
2039
2043
2044
2042
2038
2033
2033
2032
2031
2029
2028
2030
2031
2032
2032
2029
2027
2027
2029
2031
2034
2034
2032
2028
2023
2019
2021
2030
2049
2078
2105
2125
2130
2119
2101
2082
2068
2063
2062
2063
2063
2062
2060
2058
2055
2052
2048
2045
2042
2038
2035
2033
2031
2029
2028
2028
2026
2023
2018
2015
2012
2014
2018
2020
2018
2011
2006
2000
1995
1996
1994
1993
1992
1994
1995
1998
2001
2004
2005
2006
2007
2006
2005
2005
2005
2003
2001
2000
1996
1993
1989
1987
1987
1989
1991
1991
1989
1984
1981
1977
1976
1976
1977
1977
1977
1979
1980
1979
1978
1977
1976
1976
1976
1977
1979
1979
1978
1978
1979
1980
1980
1979
1978
1977
1978
1980
1980
1977
1972
1967
1963
1964
1966
1969
1970
1970
1971
1974
1977
1981
1984
1988
1993
1999
2005
2010
2012
2011
2010
2008
2006
2003
2000
1997
1997
1998
2001
2003
2004
2000
1998
1996
1997
2000
2000
2000
1997
1995
1995
1996
1996
1994
1992
1988
1986
1987
1988
1989
1991
1992
1992
1990
1990
1992
1999
2013
2028
2040
2040
2028
2006
1984
1968
1959
1956
1952
1947
1941
1932
1924
1914
1904
1896
1893
1896
1905
1915
1924
1931
1937
1941
1948
1954
1962
1967
1972
1976
1982
1988
1995
2000
2003
2003
2002
1996
1994
1990
1987
1984
1984
1985
1988
1990
1992
1994
1996
1998
2000
2001
2002
2000
1997
1999
2001
2006
2007
2007
2002
1999
2000
2003
2006
2005
2002
1998
1994
1994
1994
1996
1997
1999
1999
2000
2000
1999
1999
1999
2000
2002
2005
2005
2006
2005
2006
2007
2006
2005
2000
1997
1997
2000
2004
2006
2005
2002
1997
1995
1996
1997
1998
1998
1998
1998
1998
1998
1998
1998
1997
1997
1996
1996
1995
1995
1993
1994
1994
1991
1988
1982
1979
1978
1980
1985
1988
1987
1983
1979
1975
1974
1974
1974
1974
1973
1974
1976
1975
1975
1973
1973
1973
1975
1977
1979
1981
1980
1980
1978
1976
1976
1977
1985
2001
2021
2037
2045
2038
2020
2001
1984
1977
1978
1982
1988
1992
1996
1999
2001
2002
2004
2006
2008
2011
2014
2016
2020
2023
2025
2028
2029
2030
2030
2031
2034
2038
2044
2048
2052
2054
2055
2056
2057
2061
2065
2071
2076
2081
2085
2089
2090
2091
2090
2089
2090
2092
2096
2102
2107
2106
2098
2084
2070
2065
2070
2084
2097
2099
2087
2064
2038
2013
1994
1983
1970
1958
1946
1937
1929
1924
1922
1917
1913
1909
1905
1901
1899
1898
1898
1895
1895
1895
1896
1895
1895
1890
1886
1884
1886
1895
1905
1910
1910
1909
1909
1910
1914
1915
1920
1921
1922
1923
1925
1928
1929
1931
1932
1935
1935
1936
1940
1944
1945
1946
1946
1946
1945
1944
1945
1951
1959
1965
1968
1967
1963
1960
1956
1962
1964
1965
1964
1965
1968
1970
1970
1970
1968
1966
1971
1984
2002
2018
2025
2018
2012
1994
1975
1961
1944
1937
1935
1942
1957
1964
1963
1956
1954
1947
1954
1956
1955
1960
1958
1956
1964
1969
1968
1970
1971
1973
1979
1982
1983
1983
1980
1982
1987
1986
1987
1978
1972
1974
1985
1998
2007
2008
2006
1997
1991
1990
1999
2003
2010
2013
2017
2015
2016
2016
2018
2020
2017
2018
2021
2026
2027
2025
2021
2015
2012
2006
2002
1997
1995
2001
2007
2016
2020
2014
2006
2003
2003
2009
2013
2021
2026
2024
2028
2033
2039
2042
2044
2049
2048
2047
2044
2042
2045
2046
2052
2055
2056
2048
2038
2032
2035
2050
2062
2067
2068
2059
2050
2040
2040
2042
2043
2042
2044
2048
2049
2050
2052
2055
2056
2054
2051
2050
2049
2044
2040
2039
2036
2032
2022
2015
2011
2012
2021
2035
2045
2042
2035
2024
2015
2016
2015
2022
2026
2032
2035
2036
2035
2034
2026
2019
2017
2015
2012
1944
2002
2110
2279
2167
1707
1024
458
423
1075
2204
3335
4065
199
23
3936
3811
3874
3909
3916
3914
3914
3918
3921
3918
3916
3905
3883
3849
3806
3764
3719
3677
3642
3606
3570
3532
3494
3457
3425
3391
3356
3322
3290
3259
3227
3192
3160
3125
3088
3055
3025
3004
2980
2952
2923
2888
2852
2822
2801
2787
2772
2757
2736
2715
2693
2671
2653
2637
2622
2607
2591
2579
2566
2551
2536
2522
2511
2498
2487
2477
2464
2452
2438
2424
2410
2396
2383
2371
2366
2360
2352
2344
2334
2322
2311
2300
2295
2293
2289
2284
2279
2275
2269
2261
2257
2250
2243
2235
2231
2229
2226
2222
2219
2214
2211
2206
2204
2202
2201
2200
2197
2198
2197
2194
2192
2189
2189
2186
2185
2186
2185
2186
2185
2185
2189
2189
2190
2190
2192
2195
2195
2198
2200
2202
2202
2199
2202
2203
2204
2206
2208
2213
2214
2214
2217
2216
2217
2217
2219
2222
2222
2224
2224
2226
2226
2224
2226
2228
2232
2232
2230
2231
2232
2231
2232
2232
2234
2234
2234
2238
2241
2245
2247
2249
2252
2252
2253
2253
2255
2258
2258
2261
2263
2264
2264
2261
2264
2265
2267
2270
2272
2275
2275
2275
2277
2277
2279
2279
2282
2286
2288
2291
2293
2295
2298
2296
2298
2300
2303
2306
2306
2309
2311
2310
2310
2310
2312
2313
2314
2318
2320
2322
2323
2324
2326
2326
2327
2327
2330
2332
2332
2334
2335
2340
2341
2341
2341
2338
2337
2397
2365
2293
2208
2198
2368
2747
3254
3715
3997
4067
4006
3920
3867
3932
3931
3907
3856
3782
3697
3614
3545
3486
3433
3386
3340
3299
3262
3225
3194
3163
3134
3106
3080
3057
3042
3026
3006
2979
2947
2919
2907
2905
2911
2910
2892
2869
2845
2830
2821
2813
2806
2798
2788
2775
2767
2754
2740
2727
2719
2716
2712
2706
2698
2692
2678
2681
2677
2670
2654
2631
2612
2609
2620
2637
2647
2643
2630
2615
2597
2597
2598
2593
2589
2587
2583
2580
2574
2569
2568
2568
2570
2571
2572
2570
2566
2559
2566
2573
2570
2558
2539
2522
2518
2533
2558
2579
2583
2573
2560
2546
2547
2550
2552
2555
2556
2555
2551
2559
2559
2556
2552
2548
2547
2547
2549
2554
2553
2552
2550
2548
2539
2532
2518
2515
2523
2539
2552
2555
2551
2540
2526
2525
2527
2532
2533
2534
2536
2536
2534
2529
2530
2530
2531
2530
2530
2532
2528
2526
2522
2522
2522
2517
2510
2503
2499
2499
2507
2521
2529
2529
2522
2516
2514
2512
2512
2518
2519
2518
2516
2516
2516
2514
2511
2509
2509
2508
2507
2505
2503
2502
2512
2509
2508
2498
2483
2474
2479
2496
2512
2520
2519
2510
2498
2485
2491
2490
2488
2486
2484
2482
2480
2477
2475
2474
2474
2471
2469
2469
2469
2467
2462
2463
2464
2464
2457
2451
2444
2437
2440
2447
2456
2456
2449
2441
2430
2429
2427
2429
2429
2430
2429
2427
2430
2427
2423
2419
2418
2424
2426
2432
2437
2435
2436
2434
2434
2435
2428
2417
2410
2413
2423
2435
2442
2442
2435
2424
2418
2372
2349
2444
2564
2625
2484
2044
1367
666
175
4074
6
120
211
241
199
283
408
548
689
816
920
1005
1086
1163
1234
1303
1363
1415
1464
1505
1540
1576
1612
1655
1691
1718
1742
1756
1767
1781
1800
1824
1845
1865
1880
1895
1908
1918
1930
1941
1952
1960
1965
1974
1981
1985
1987
1990
1998
2003
2010
2018
2025
2033
2041
2051
2063
2073
2084
2095
2107
2119
2125
2130
2136
2142
2149
2153
2162
2170
2174
2177
2182
2188
2192
2194
2198
2199
2201
2202
2207
2215
2221
2226
2230
2234
2240
2242
2247
2252
2259
2265
2268
2275
2280
2283
2288
2291
2297
2299
2302
2308
2311
2317
2320
2323
2328
2329
2333
2337
2344
2352
2357
2363
2369
2374
2379
2382
2390
2397
2403
2409
2414
2422
2425
2428
2433
2435
2439
2442
2446
2452
2455
2459
2461
2463
2465
2463
2464
2465
2468
2470
2470
2476
2479
2479
2480
2481
2484
2484
2486
2490
2492
2495
2495
2495
2498
2497
2498
2499
2502
2506
2507
2510
2513
2516
2517
2516
2520
2523
2525
2528
2532
2537
2538
2538
2540
2541
2544
2545
2549
2553
2555
2558
2559
2562
2565
2564
2565
2567
2570
2572
2572
2577
2579
2578
2578
2578
2580
2579
2579
2582
2583
2586
2586
2587
2589
2589
2591
2592
2597
2601
2602
2605
2609
2616
2619
2622
2626
2626
2627
2628
2632
2639
2643
2643
2646
2645
2645
2645
2644
2649
2652
2654
2656
2656
2657
2652
2651
2652
2698
2651
2579
2528
2581
2809
3180
3589
3898
4034
4025
3951
3891
3868
3913
3913
3921
3928
3930
3912
3876
3825
3772
3724
3685
3652
3618
3582
3543
3506
3477
3447
3419
3396
3375
3354
3332
3308
3282
3262
3244
3227
3213
3198
3183
3167
3149
3142
3128
3113
3092
3068
3050
3042
3043
3049
3048
3040
3025
3009
2995
2990
2983
2978
2971
2965
2959
2953
2948
2940
2927
2914
2903
2898
2896
2894
2892
2880
2875
2868
2860
2853
2834
2813
2800
2802
2813
2826
2830
2822
2806
2784
2775
2770
2762
2762
2755
2750
2746
2741
2736
2732
2728
2727
2724
2722
2710
2691
2671
2667
2683
2695
2703
2688
2661
2635
2623
2630
2640
2646
2634
2616
2600
2589
2585
2576
2571
2564
2556
2549
2541
2534
2526
2518
2510
2501
2490
2464
2419
2354
2280
2216
2161
2118
2068
2004
1925
1840
1760
1693
1644
1614
1608
1626
1657
1710
1755
1802
1780
1808
1983
2231
2448
2450
2105
1458
733
190
4056
4082
119
237
242
179
179
179
179
179
179
179
179
179
179
179
179
179
179
179
179
179
179
179
179
179
179
179
179
179
179
179
179
179
179
179
179
179
179
179
179
179
179
179
179
179
179
179
179
179
179
179
179
179
179
179
179
179
179
179
179
179
179
179
180
180
180
179
177
176
179
190
209
236
266
296
323
346
369
392
417
444
471
497
521
545
568
593
617
640
662
681
699
717
735
754
773
791
809
824
838
850
865
883
904
928
948
962
969
976
985
1000
1028
1059
1093
1119
1134
1138
1131
1122
1117
1118
1126
1139
1153
1167
1182
1195
1209
1225
1238
1252
1262
1271
1281
1296
1320
1351
1384
1416
1443
1466
1483
1502
1520
1539
1558
1577
1595
1611
1625
1636
1642
1647
1652
1656
1660
1666
1670
1672
1678
1682
1684
1685
1682
1678
1677
1680
1683
1683
1676
1664
1648
1632
1621
1612
1604
1599
1594
1593
1593
1594
1595
1595
1596
1596
1598
1598
1598
1596
1593
1593
1593
1592
1589
1582
1577
1573
1575
1578
1584
1585
1582
1576
1569
1567
1562
1558
1556
1552
1551
1551
1554
1561
1571
1582
1591
1597
1598
1597
1596
1597
1600
1605
1607
1609
1607
1606
1607
1614
1624
1636
1644
1648
1648
1647
1644
1648
1650
1655
1659
1663
1667
1670
1674
1678
1682
1688
1695
1702
1708
1713
1718
1723
1729
1736
1741
1745
1747
1753
1762
1776
1790
1801
1807
1812
1818
1826
1836
1846
1853
1858
1862
1864
1865
1865
1864
1866
1874
1888
1905
1921
1930
1928
1915
1898
1879
1866
1858
1856
1858
1864
1872
1880
1888
1892
1893
1892
1891
1893
1892
1890
1886
1881
1878
1880
1886
1894
1902
1907
1911
1915
1920
1926
1930
1931
1932
1934
1935
1936
1935
1933
1934
1940
1950
1958
1962
1960
1956
1952
1951
1953
1955
1956
1954
1952
1949
1948
1951
1959
1969
1979
1986
1989
1990
1988
1987
1986
1985
1985
1985
1984
1984
1985
1990
1997
2004
2006
2006
2004
2000
1996
1990
1982
1974
1967
1965
1966
1968
1968
1966
1963
1962
1963
1964
1966
1969
1971
1973
1979
1981
1984
1983
1984
1985
1989
1997
2005
2012
2016
2017
2017
2016
2020
2023
2027
2030
2034
2038
2041
2045
2048
2052
2056
2061
2065
2068
2070
2072
2073
2076
2079
2081
2080
2079
2079
2081
2088
2096
2103
2106
2106
2105
2103
2105
2105
2107
2108
2110
2112
2114
2116
2118
2118
2120
2122
2125
2128
2129
2128
2124
2124
2129
2140
2155
2172
2184
2191
2192
2187
2177
2164
2151
2142
2139
2140
2146
2149
2150
2151
2152
2152
2153
2155
2157
2161
2165
2168
2169
2167
2165
2164
2165
2169
2174
2176
2176
2174
2173
2175
2178
2180
2179
2177
2173
2170
2168
2169
2170
2171
2171
2172
2172
2173
2174
2175
2176
2177
2177
2178
2180
2183
2188
2192
2199
2201
2201
2198
2194
2189
2187
2187
2188
2187
2182
2176
2169
2160
2159
2158
2160
2161
2160
2155
2147
2138
2131
2130
2133
2138
2144
2150
2155
2161
2163
2165
2164
2161
2155
2147
2139
2135
2133
2134
2136
2137
2135
2131
2126
2123
2121
2122
2122
2123
2124
2125
2125
2124
2122
2120
2118
2116
2115
2113
2109
2104
2101
2097
2093
2090
2086
2083
2083
2084
2087
2091
2092
2092
2087
2082
2078
2079
2085
2093
2098
2099
2096
2092
2087
2086
2086
2087
2087
2088
2088
2088
2085
2082
2079
2075
2072
2067
2062
2059
2058
2060
2063
2065
2065
2068
2074
2086
2102
2111
2109
2097
2079
2062
2050
2047
2047
2048
2048
2048
2048
2047
2046
2046
2044
2046
2046
2043
2039
2035
2033
2033
2037
2041
2044
2044
2043
2041
2037
2038
2037
2036
2034
2030
2026
2023
2019
2015
2013
2012
2012
2010
2006
2000
1992
1983
1981
1978
1976
1974
1968
1963
1965
1970
1979
1987
1989
1987
1984
1978
1976
1974
1971
1970
1968
1968
1968
1968
1966
1965
1963
1963
1961
1961
1960
1957
1953
1949
1948
1944
1940
1935
1930
1925
1924
1926
1926
1923
1918
1911
1905
1901
1903
1903
1904
1903
1904
1905
1907
1909
1911
1912
1913
1914
1915
1915
1916
1916
1917
1919
1921
1919
1916
1911
1907
1909
1914
1919
1922
1921
1918
1915
1913
1914
1914
1914
1913
1913
1915
1917
1919
1919
1919
1920
1922
1926
1930
1932
1928
1918
1907
1891
1875
1858
1844
1831
1822
1817
1811
1802
1792
1784
1780
1778
1776
1765
1744
1708
1661
1611
1568
1536
1515
1505
1505
1507
1507
1502
1502
1501
1498
1500
1505
1517
1524
1528
1533
1542
1558
1577
1596
1608
1617
1621
1618
1626
1634
1644
1648
1653
1660
1667
1672
1676
1681
1690
1695
1706
1720
1732
1741
1748
1759
1771
1780
1785
1784
1782
1784
1797
1817
1840
1857
1862
1863
1868
1873
1883
1890
1895
1899
1903
1913
1928
1944
1957
1966
1972
1977
1985
1991
2001
2012
2020
2028
2038
2043
2042
2040
2041
2051
2068
2086
2100
2106
2108
2110
2112
2121
2128
2133
2139
2146
2156
2160
2164
2166
2171
2177
2187
2200
2209
2217
2218
2210
2223
2224
2228
2222
2215
2213
2217
2231
2256
2272
2274
2267
2258
2252
2263
2274
2286
2296
2302
2304
2306
2311
2322
2328
2335
2339
2343
2345
2345
2354
2356
2371
2377
2386
2382
2369
2359
2360
2377
2400
2426
2437
2437
2434
2419
2424
2423
2425
2429
2429
2434
2437
2437
2441
2445
2447
2445
2442
2443
2448
2453
2454
2463
2463
2459
2452
2440
2432
2437
2452
2475
2492
2498
2491
2481
2471
2474
2475
2474
2477
2479
2479
2479
2482
2484
2483
2483
2485
2487
2489
2488
2491
2492
2492
2502
2503
2501
2491
2474
2464
2474
2491
2510
2525
2525
2522
2514
2505
2514
2513
2511
2516
2517
2518
2520
2516
2514
2516
2518
2519
2518
2517
2438
2452
2549
2684
2741
2568
2076
1352
631
137
4053
0
118
216
263
275
409
572
732
874
991
1087
1180
1266
1346
1415
1475
1532
1586
1640
1690
1737
1781
1819
1853
1884
1914
1941
1964
1986
2009
2032
2053
2071
2089
2104
2115
2127
2138
2154
2168
2181
2191
2199
2210
2217
2228
2237
2245
2249
2252
2258
2265
2269
2272
2275
2275
2276
2277
2281
2287
2288
2291
2290
2293
2295
2295
2296
2295
2297
2297
2300
2302
2302
2303
2304
2311
2320
2324
2325
2321
2316
2311
2307
2309
2312
2312
2311
2309
2310
2310
2311
2312
2313
2317
2317
2318
2319
2317
2316
2315
2317
2322
2320
2324
2326
2325
2323
2314
2307
2302
2303
2309
2316
2324
2325
2323
2319
2317
2318
2316
2316
2316
2315
2315
2314
2314
2314
2310
2309
2308
2309
2310
2309
2311
2312
2310
2306
2303
2304
2304
2306
2307
2305
2304
2299
2296
2297
2296
2295
2295
2296
2296
2295
2295
2295
2298
2300
2299
2297
2293
2288
2287
2287
2292
2295
2292
2290
2287
2285
2285
2284
2286
2284
2284
2282
2282
2283
2279
2278
2278
2279
2280
2278
2280
2280
2279
2278
2275
2276
2276
2275
2276
2276
2278
2276
2275
2275
2273
2271
2269
2270
2272
2271
2271
2271
2270
2269
2266
2267
2267
2267
2268
2267
2269
2269
2268
2265
2264
2265
2265
2266
2267
2266
2264
2262
2263
2265
2263
2262
2262
2262
2263
2263
2264
2265
2262
2261
2258
2259
2314
2305
2231
2136
2100
2226
2579
3095
3609
3956
4071
4033
3944
3879
3874
3919
3885
3820
3737
3647
3559
3484
3420
3370
3318
3272
3229
3187
3152
3118
3085
3054
3025
2994
2975
2954
2932
2911
2880
2848
2828
2819
2821
2823
2818
2804
2783
2757
2743
2729
2718
2706
2695
2683
2672
2659
2647
2637
2629
2621
2614
2607
2597
2585
2570
2566
2564
2554
2542
2521
2501
2489
2490
2500
2511
2512
2502
2487
2468
2463
2456
2449
2445
2439
2432
2426
2424
2422
2420
2416
2411
2405
2394
2389
2383
2381
2375
2373
2365
2363
2353
2340
2331
2329
2333
2340
2345
2343
2335
2321
2311
2309
2308
2309
2307
2304
2301
2297
2293
2291
2289
2287
2285
2284
2284
2282
2279
2275
2282
2282
2278
2266
2253
2245
2247
2261
2279
2290
2289
2281
2274
2265
2270
2269
2272
2274
2277
2278
2280
2280
2280
2280
2282
2287
2290
2291
2289
2287
2283
2288
2287
2288
2281
2268
2253
2247
2252
2263
2276
2282
2279
2270
2255
2253
2250
2251
2252
2252
2253
2253
2252
2251
2252
2252
2251
2250
2249
2248
2247
2245
2247
2251
2244
2244
2232
2219
2211
2211
2224
2240
2248
2249
2241
2234
2227
2228
2228
2234
2235
2233
2230
2229
2226
2225
2222
2223
2222
2221
2217
2214
2212
2206
2210
2208
2202
2189
2173
2166
2172
2189
2208
2216
2214
2206
2197
2189
2197
2199
2199
2197
2196
2198
2197
2196
2196
2195
2193
2192
2191
2191
2191
2190
2185
2190
2189
2186
2179
2168
2163
2163
2171
2185
2192
2191
2181
2171
2163
2167
2168
2171
2104
2114
2199
2311
2358
2213
1794
1177
559
137
4085
37
152
230
226
157
178
241
340
464
594
709
809
891
967
1037
1099
1157
1210
1263
1311
1355
1395
1430
1466
1496
1529
1558
1584
1606
1626
1647
1668
1685
1701
1716
1727
1740
1750
1764
1779
1789
1800
1808
1820
1829
1837
1845
1851
1859
1865
1874
1881
1885
1891
1898
1910
1923
1932
1937
1938
1937
1937
1938
1944
1951
1953
1955
1957
1962
1965
1969
1973
1976
1981
1982
1985
1988
1989
1990
1991
1994
1999
1999
2004
2009
2011
2011
2005
2003
2002
2008
2019
2030
2041
2046
2046
2044
2043
2045
2043
2043
2043
2042
2042
2041
2043
2044
2041
2040
2040
2042
2044
2043
2045
2046
2044
2042
2042
2045
2047
2049
2053
2053
2054
2053
2054
2059
2062
2066
2069
2074
2079
2083
2087
2090
2096
2101
2103
2104
2103
2101
2102
2104
2111
2116
2115
2115
2114
2114
2116
2118
2122
2122
2123
2121
2121
2122
2119
2119
2120
2122
2124
2123
2126
2127
2126
2127
2125
2127
2127
2128
2130
2130
2132
2130
2129
2129
2127
2126
2124
2124
2126
2124
2124
2124
2124
2124
2122
2124
2126
2128
2130
2132
2136
2136
2137
2136
2135
2138
2139
2142
2145
2145
2144
2143
2144
2147
2146
2146
2147
2147
2149
2149
2151
2151
2149
2147
2145
2146
2146
2147
2149
2149
2151
2150
2148
2149
2148
2147
2147
2148
2151
2151
2152
2153
2154
2153
2150
2151
2210
2203
2126
2025
1984
2116
2492
3039
3587
3956
4081
4044
3954
3883
3871
3892
3824
3722
3608
3503
3423
3368
3330
3293
3247
3194
3140
3089
3051
3021
2991
2960
2934
2909
2887
2863
2840
2820
2802
2786
2771
2759
2744
2727
2710
2698
2690
2677
2664
2645
2626
2611
2605
2607
2610
2607
2596
2580
2563
2551
2540
2531
2524
2515
2505
2496
2491
2486
2481
2475
2468
2460
2448
2441
2433
2429
2422
2418
2411
2403
2391
2373
2365
2362
2373
2385
2389
2375
2348
2321
2308
2321
2339
2353
2350
2336
2321
2306
2302
2299
2299
2290
2282
2280
2278
2275
2271
2262
2266
2265
2262
2253
2242
2233
2229
2236
2248
2256
2255
2246
2238
2226
2229
2225
2225
2222
2221
2219
2218
2215
2211
2207
2205
2207
2208
2208
2205
2203
2197
2200
2199
2200
2195
2183
2171
2166
2173
2186
2199
2207
2206
2198
2185
2183
2181
2181
2181
2181
2180
2179
2177
2175
2174
2174
2173
2173
2174
2175
2174
2171
2173
2178
2177
2172
2167
2156
2150
2150
2160
2173
2179
2183
2180
2176
2169
2167
2164
2163
2165
2162
2159
2158
2156
2157
2156
2158
2159
2157
2156
2157
2160
2156
2164
2164
2160
2150
2134
2128
2134
2149
2168
2177
2176
2167
2158
2149
2155
2156
2155
2153
2153
2155
2153
2151
2150
2149
2147
2145
2145
2145
2145
2144
2141
2149
2149
2147
2138
2125
2117
2118
2128
2146
2155
2154
2144
2134
2124
2129
2131
2136
2136
2134
2131
2131
2128
2128
2127
2128
2132
2132
2132
2129
2128
2125
2132
2133
2133
2123
2107
2095
2166
2146
2082
1997
1984
2169
2591
3159
3680
4001
4090
4041
3957
3879
3874
3741
3557
3353
3160
2997
2865
2752
2642
2539
2445
2361
2283
2209
2142
2082
2029
1978
1932
1891
1854
1818
1785
1755
1727
1701
1677
1656
1638
1621
1604
1589
1576
1563
1550
1539
1530
1523
1514
1507
1501
1496
1490
1484
1480
1476
1472
1469
1466
1465
1464
1462
1460
1459
1457
1455
1454
1454
1455
1454
1454
1455
1456
1455
1454
1455
1457
1457
1458
1460
1462
1463
1464
1465
1467
1468
1470
1471
1474
1477
1479
1481
1484
1487
1487
1489
1491
1495
1497
1499
1503
1506
1508
1510
1513
1516
1518
1520
1524
1528
1531
1534
1536
1539
1541
1543
1545
1549
1553
1556
1559
1563
1567
1569
1571
1574
1578
1581
1583
1587
1591
1593
1596
1599
1602
1605
1607
1610
1615
1619
1622
1624
1628
1631
1633
1635
1639
1643
1645
1648
1652
1656
1658
1661
1664
1668
1671
1673
1677
1682
1686
1689
1692
1696
1699
1701
1704
1708
1712
1714
1717
1721
1724
1726
1728
1731
1734
1737
1739
1743
1747
1750
1752
1755
1758
1760
1763
1766
1769
1773
1775
1777
1780
1782
1784
1785
1788
1791
1794
1796
1800
1803
1805
1807
1809
1813
1815
1817
1820
1824
1828
1830
1832
1835
1837
1838
1840
1844
1848
1850
1851
1854
1856
1857
1857
1860
1862
1864
1866
1869
1873
1875
1877
1879
1882
1884
1886
1888
1891
1894
1896
1898
1902
1904
1905
1906
1851
1865
1946
2047
2089
1959
1592
1051
509
142
12
52
149
226
238
179
179
179
179
179
179
179
179
179
179
179
179
179
179
179
179
179
179
179
179
179
179
179
179
179
179
179
179
179
179
179
179
179
179
179
179
179
179
179
179
179
179
179
179
179
179
179
179
179
179
179
179
179
179
179
179
179
179
179
179
179
179
179
179
179
179
179
179
179
179
179
179
179
179
179
179
179
179
179
179
179
179
179
179
179
179
179
179
179
179
179
179
179
179
179
179
179
179
179
179
179
179
179
179
179
179
179
179
179
179
179
179
179
179
179
179
179
179
179
179
179
179
179
179
179
179
179
179
179
179
179
179
179
179
179
179
179
179
179
179
179
179
179
179
179
179
179
179
179
179
179
179
179
179
179
179
179
179
179
179
179
179
179
179
179
179
179
179
179
179
179
179
179
179
179
179
179
179
179
179
179
179
179
179
179
179
179
179
179
179
179
179
179
179
179
179
179
179
179
179
179
179
179
179
179
179
179
179
179
179
179
179
179
179
179
179
179
179
179
179
179
179
179
179
179
179
179
179
179
179
179
179
179
179
179
179
179
179
179
179
179
179
179
179
179
179
308
165
4054
3870
4045
686
1862
3077
3828
3889
3398
2770
2360
2303
2655
2933
3186
3321
3408
3484
3560
3654
3762
3860
3922
3944
3934
3917
3909
3911
3915
3916
3916
3916
3916
3916
3916
3916
3916
3916
3916
3916
3916
3916
3916
3916
3916
3916
3916
3916
3916
3916
3916
3916
3916
3916
3916
3916
3916
3916
3916
3916
3916
3916
3916
3916
3916
3916
3916
3916
3916
3916
3916
3916
3916
3916
3916
3916
3916
3916
3916
3916
3916
3916
3916
3916
3916
3916
3916
3916
3916
3916
3916
3916
3916
3916
3916
3916
3916
3916
3916
3916
3916
3916
3916
3916
3916
3916
3916
3916
3916
3916
3916
3916
3916
3916
3916
3916
3916
3916
3916
3916
3916
3916
3916
3916
3916
3916
3916
3916
3916
3916
3916
3916
3916
3916
3916
3916
3916
3916
3916
3916
3916
3916
3916
3916
3916
3916
3916
3916
3916
3916
3916
3916
3916
3916
3916
3916
3916
3916
3916
3916
3916
3916
3916
3916
3916
3916
3916
3916
3916
3916
3916
3916
3916
3916
3916
3916
3916
3916
3916
3916
3916
3916
3916
3916
3916
3916
3916
3916
3916
3916
3916
3916
3916
3916
3916
3916
3916
3916
3916
3916
3916
3916
3916
3916
3916
3916
3916
3916
3916
3916
3916
3916
3916
3916
3916
3916
3916
3916
3916
3916
3916
3916
3916
3916
3916
3916
3916
3916
3916
3916
3916
3916
3916
3916
3916
3916
3916
3916
3916
3916
3916
3916
3916
3916
3916
3916
3916
3916
3787
3930
41
183
20
3450
2355
1153
249
3935
3957
67
247
324
179
179
179
179
179
179
179
179
179
179
179
179
179
179
179
179
179
179
179
179
179
179
179
179
179
179
179
179
179
179
179
179
179
179
179
179
179
179
179
179
179
179
179
179
179
179
179
179
179
179
179
179
179
179
179
179
179
179
179
179
179
179
179
179
179
179
179
179
179
179
179
179
179
179
179
179
179
179
179
179
179
179
179
179
179
179
179
179
179
179
179
179
179
179
179
179
179
179
179
179
179
179
179
179
179
179
179
179
179
179
179
179
179
179
179
179
179
179
179
179
179
179
179
179
179
179
179
179
179
179
179
179
179
179
179
179
179
179
179
179
179
179
179
179
179
179
179
179
179
179
179
179
179
179
179
179
179
179
179
179
179
179
179
179
179
179
179
179
179
179
179
179
179
179
179
179
179
179
179
179
179
179
179
179
179
179
179
179
179
179
179
179
179
179
179
179
179
179
179
179
179
179
179
179
179
179
179
179
179
179
179
179
179
179
179
179
179
179
179
179
179
179
179
179
179
179
179
179
179
179
179
179
179
179
179
179
179
179
179
179
179
179
179
179
179
179
179
179
179
179
179
179
179
193
207
192
144
96
104
239
538
976
1483
1971
2410
2795
3136
3443
3699
3866
3941
3954
3934
3913
3903
3905
3916
3916
3916
3916
3916
3916
3916
3916
3916
3916
3916
3916
3916
3916
3916
3916
3916
3916
3916
3916
3916
3916
3916
3916
3916
3916
3916
3916
3916
3916
3916
3916
3916
3916
3916
3916
3916
3916
3916
3916
3916
3916
3916
3916
3916
3916
3916
3916
3916
3916
3916
3916
3916
3916
3916
3916
3916
3916
3916
3916
3916
3916
3916
3916
3916
3916
3916
3916
3916
3916
3916
3916
3916
3916
3916
3916
3916
3916
3916
3916
3916
3916
3916
3916
3916
3916
3916
3916
3916
3916
3916
3916
3916
3916
3916
3916
3916
3916
3916
3916
3916
3916
3916
3916
3916
3916
3916
3916
3916
3916
3916
3916
3916
3916
3916
3916
3916
3916
3916
3916
3916
3916
3916
3916
3916
3916
3916
3916
3916
3916
3916
3916
3916
3916
3916
3916
3916
3916
3916
3916
3916
3916
3916
3916
3916
3916
3916
3916
3916
3916
3916
3916
3916
3916
3916
3916
3916
3916
3916
3916
3916
3916
3916
3916
3916
3916
3916
3916
3916
3916
3916
3916
3916
3916
3916
3916
3916
3916
3916
3916
3916
3916
3916
3916
3916
3916
3916
3916
3916
3916
3916
3916
3916
3916
3916
3916
3916
3916
3916
3916
3916
3916
3916
3916
3916
3916
3916
3916
3916
3916
3916
3916
3916
3916
3916
3916
3916
3916
3916
3916
3916
3916
3916
3916
3916
3916
3916
3916
3916
3916
3916
3916
3916
3916
3916
3916
3916
3916
3916
3916
3916
3916
3916
3916
3916
3916
3916
3916
3916
3916
3916
3916
3916
3916
3916
3916
3916
3916
3916
3916
3916
3916
3916
3916
3916
3916
3916
3916
3916
3916
3916
3916
3916
3916
3916
3916
3916
3916
3916
3916
3916
3916
3916
3916
3916
3916
3916
3916
3916
3916
3916
3916
3916
3916
3916
3916
3916
3916
3916
3916
3916
3916
3916
3916
3916
3916
3916
3916
3916
3916
3916
3916
3916
3916
3916
3916
3916
3916
3916
3916
3916
3916
3916
3916
3916
3916
3916
3916
3916
3916
3916
3916
3916
3916
3916
3916
3916
3916
3916
3916
3916
3916
3916
3916
3916
3916
3915
3914
3916
3920
3926
3920
3907
3884
3856
3833
3824
3825
3823
3814
3791
3776
3752
3728
3714
3692
3678
3664
3654
3643
3631
3616
3598
3582
3567
3557
3543
3529
3516
3503
3488
3477
3465
3452
3430
3408
3389
3382
3382
3381
3378
3365
3347
3327
3307
3301
3290
3281
3269
3258
3247
3233
3222
3212
3203
3194
3184
3176
3166
3159
3147
3131
3130
3117
3103
3085
3064
3049
3041
3048
3056
3059
3047
3029
3012
2995
2994
2987
2980
2972
2962
2953
2946
2939
2931
2924
2917
2910
2902
2893
2885
2877
2868
2867
2860
2854
2840
2823
2808
2804
2811
2819
2823
2818
2805
2790
2776
2772
2767
2763
2756
2749
2742
2736
2732
2726
2721
2715
2707
2704
2702
2702
2699
2692
2683
2687
2676
2665
2646
2626
2613
2618
2638
2655
2661
2651
2634
2620
2606
2655
2640
2579
2500
2464
2560
2837
3249
3661
3942
4040
4006
3933
3887
3897
3946
3909
3819
3682
3518
3354
3212
3093
2992
2897
2806
2723
2647
2576
2511
2451
2398
2349
2302
2260
2221
2186
2151
2119
2090
2063
2039
2015
1994
1975
1956
1937
1921
1906
1891
1878
1865
1855
1846
1836
1827
1819
1811
1803
1795
1789
1783
1777
1772
1768
1765
1759
1754
1750
1746
1742
1739
1736
1735
1733
1730
1728
1727
1724
1721
1719
1717
1716
1714
1712
1711
1710
1708
1705
1704
1703
1702
1701
1701
1702
1701
1700
1700
1700
1699
1699
1699
1701
1702
1702
1702
1703
1704
1704
1703
1705
1707
1707
1708
1709
1711
1710
1710
1710
1711
1711
1711
1712
1714
1715
1715
1716
1717
1719
1719
1720
1722
1725
1726
1726
1728
1730
1730
1731
1733
1735
1736
1738
1741
1745
1747
1748
1750
1753
1755
1756
1758
1762
1765
1767
1769
1771
1774
1775
1776
1779
1782
1784
1786
1789
1792
1794
1794
1796
1798
1799
1800
1801
1804
1807
1809
1810
1813
1815
1816
1817
1821
1824
1826
1827
1829
1832
1832
1832
1833
1835
1836
1837
1840
1842
1844
1845
1846
1848
1849
1850
1852
1854
1857
1859
1860
1862
1864
1865
1866
1868
1871
1873
1874
1877
1879
1880
1880
1881
1883
1884
1885
1886
1889
1890
1891
1892
1893
1895
1895
1896
1898
1900
1900
1901
1903
1904
1904
1903
1903
1904
1904
1904
1905
1907
1907
1906
1906
1906
1906
1906
1846
1913
2013
2079
2004
1694
1186
628
208
20
32
129
211
245
179
179
179
179
179
179
179
179
179
179
179
179
179
179
179
179
179
179
179
179
179
179
179
179
179
179
179
179
179
179
179
179
179
179
179
179
179
179
179
179
179
179
179
179
179
179
179
179
179
179
179
179
179
179
179
179
179
179
179
179
179
179
179
179
179
179
179
179
179
179
179
179
179
179
179
179
179
179
179
179
179
179
179
179
179
179
179
179
179
179
179
179
179
179
179
179
179
179
179
179
179
179
179
179
179
179
179
179
179
179
179
179
179
179
179
179
179
179
179
179
179
179
179
179
179
179
179
179
179
179
179
179
179
179
179
179
179
179
179
179
179
179
179
179
179
179
179
179
179
179
179
179
179
179
179
179
179
179
179
179
179
179
179
179
179
179
179
179
179
179
179
179
179
179
179
179
179
179
179
179
179
179
179
179
179
179
179
179
179
179
179
179
179
179
179
179
179
179
179
179
179
179
179
179
179
179
179
179
179
179
179
179
179
179
179
179
179
179
179
179
179
179
179
179
179
179
179
179
179
179
179
179
179
179
179
179
179
179
179
179
179
179
179
179
179
234
296
144
4031
3862
3
804
2023
3214
3871
3784
3165
2464
2052
2062
2461
2772
3020
3118
3181
3245
3337
3460
3603
3735
3844
3910
3933
3931
3920
3913
3912
3913
3916
3916
3916
3916
3916
3916
3916
3916
3916
3916
3916
3916
3916
3916
3916
3916
3916
3916
3916
3916
3916
3916
3916
3916
3916
3916
3916
3916
3916
3916
3916
3916
3916
3916
3916
3916
3916
3916
3916
3916
3916
3916
3916
3916
3916
3916
3916
3916
3916
3916
3916
3916
3916
3916
3916
3916
3916
3916
3916
3916
3916
3916
3916
3916
3916
3916
3916
3916
3916
3916
3916
3916
3916
3916
3916
3916
3916
3916
3916
3916
3916
3916
3916
3916
3916
3916
3916
3916
3916
3916
3916
3916
3916
3916
3916
3916
3916
3916
3916
3916
3916
3916
3916
3916
3916
3916
3916
3916
3916
3916
3916
3916
3916
3916
3916
3916
3916
3916
3916
3916
3916
3916
3916
3916
3916
3916
3916
3916
3916
3916
3916
3916
3916
3916
3916
3916
3916
3916
3916
3916
3916
3916
3916
3916
3916
3916
3916
3916
3916
3916
3916
3916
3916
3916
3916
3916
3916
3916
3916
3916
3916
3916
3916
3916
3916
3916
3916
3916
3916
3916
3916
3916
3916
3916
3916
3916
3916
3916
3916
3916
3916
3916
3916
3916
3916
3916
3916
3916
3916
3916
3916
3916
3916
3916
3916
3916
3916
3916
3916
3916
3916
3916
3916
3916
3916
3916
3916
3916
3916
3916
3915
3914
3916
3919
3918
3912
3903
3890
3751
3875
4062
86
4009
3352
2285
1120
246
3948
3968
70
244
320
179
179
179
179
179
179
179
179
179
179
179
179
179
179
179
179
179
179
179
179
179
179
179
179
179
179
179
179
179
179
179
179
179
179
179
179
179
179
179
179
179
179
179
179
179
179
179
179
179
179
179
179
179
179
179
179
179
179
179
179
179
179
179
179
179
179
179
179
179
179
179
179
179
179
179
179
179
179
179
179
179
179
179
179
179
179
179
179
179
179
179
179
179
179
179
179
179
179
179
179
179
179
179
179
179
179
179
179
179
179
179
179
179
179
179
179
179
179
179
179
179
179
179
179
179
179
179
179
179
179
179
179
179
179
179
179
179
179
179
179
179
179
179
179
179
179
179
179
179
179
179
179
179
179
179
179
179
179
179
179
179
179
179
179
179
179
179
179
179
179
179
179
179
179
179
179
179
179
179
179
179
179
179
179
179
179
179
179
179
179
179
179
179
179
179
179
179
179
179
179
179
179
179
179
179
179
179
179
179
179
179
179
179
179
179
179
179
179
179
179
179
179
179
179
179
179
179
179
179
179
179
179
179
179
179
179
179
179
179
179
179
179
179
179
179
243
294
141
4027
3912
37
771
1901
3081
3924
166
103
3986
3816
3773
3914
3918
3919
3918
3914
3916
3916
3916
3916
3916
3916
3916
3916
3916
3916
3916
3916
3916
3916
3916
3916
3916
3916
3916
3916
3916
3916
3916
3916
3916
3916
3916
3916
3916
3916
3916
3916
3916
3916
3916
3916
3916
3916
3916
3916
3916
3916
3916
3916
3916
3916
3916
3916
3916
3916
3916
3916
3916
3916
3916
3916
3916
3916
3916
3916
3916
3916
3916
3916
3916
3916
3916
3916
3916
3916
3916
3916
3916
3916
3916
3916
3916
3916
3916
3916
3916
3916
3916
3916
3916
3916
3916
3916
3916
3916
3916
3916
3916
3916
3916
3916
3916
3916
3916
3916
3916
3916
3916
3916
3916
3916
3916
3916
3916
3916
3916
3916
3916
3916
3916
3916
3916
3916
3916
3916
3916
3916
3916
3916
3916
3916
3916
3916
3916
3916
3916
3916
3916
3916
3916
3916
3916
3916
3916
3916
3916
3916
3916
3916
3916
3916
3916
3916
3916
3916
3916
3916
3916
3916
3916
3916
3916
3916
3916
3916
3916
3916
3916
3916
3916
3916
3916
3916
3916
3916
3916
3916
3916
3916
3916
3916
3916
3916
3916
3916
3916
3916
3916
3916
3916
3916
3916
3916
3916
3916
3916
3916
3916
3916
3916
3916
3916
3916
3916
3916
3916
3916
3916
3916
3916
3916
3916
3916
3916
3916
3916
3916
3916
3916
3916
3916
3916
3916
3916
3916
3916
3916
3916
3916
3916
3916
3916
3916
3916
3916
3916
3787
3930
41
183
20
3450
2355
1153
249
3935
3957
67
247
324
179
179
179
179
179
179
179
179
179
179
179
179
179
179
179
179
179
179
179
179
179
179
179
179
179
179
179
179
179
179
179
179
179
179
179
179
179
179
179
179
179
179
179
179
179
179
179
179
179
179
179
179
179
179
179
179
179
179
179
179
179
179
179
179
179
179
179
179
179
179
179
179
179
179
179
179
179
179
179
179
179
179
179
179
179
179
179
179
179
179
179
179
179
179
179
179
179
179
179
179
179
179
179
179
179
179
179
179
179
179
179
179
179
179
179
179
179
179
179
179
179
179
179
179
179
179
179
179
179
179
179
179
179
179
179
179
179
179
179
179
179
179
179
179
179
179
179
179
179
179
179
179
179
179
179
179
179
179
179
179
179
179
179
179
179
179
179
179
179
179
179
179
179
179
179
179
179
179
179
179
179
179
179
179
179
179
179
179
179
179
179
179
179
179
179
179
179
179
179
179
179
179
179
179
179
179
179
179
179
179
179
179
179
179
179
179
179
179
179
179
179
179
179
179
179
179
179
179
179
179
179
179
179
179
179
179
179
179
179
179
179
179
179
179
179
179
179
179
179
179
179
179
199
208
189
137
81
100
269
629
1132
1707
2269
2769
3192
3526
3778
3924
3971
3955
3920
3900
3900
3912
3916
3916
3916
3916
3916
3916
3916
3916
3916
3916
3916
3916
3916
3916
3916
3916
3916
3916
3916
3916
3916
3916
3916
3916
3916
3916
3916
3916
3916
3916
3916
3916
3916
3916
3916
3916
3916
3916
3916
3916
3916
3916
3916
3916
3916
3916
3916
3916
3916
3916
3916
3916
3916
3916
3916
3916
3916
3916
3916
3916
3916
3916
3916
3916
3916
3916
3916
3916
3916
3916
3916
3916
3916
3916
3916
3916
3916
3916
3916
3916
3916
3916
3916
3916
3916
3916
3916
3916
3916
3916
3916
3916
3916
3916
3916
3916
3916
3916
3916
3916
3916
3916
3916
3916
3916
3916
3916
3916
3916
3916
3916
3916
3916
3916
3916
3916
3916
3916
3916
3916
3916
3916
3916
3916
3916
3916
3916
3916
3916
3916
3916
3916
3916
3916
3916
3916
3916
3916
3916
3916
3916
3916
3916
3916
3916
3916
3916
3916
3916
3916
3916
3916
3916
3916
3916
3916
3916
3916
3916
3916
3916
3916
3916
3916
3916
3916
3916
3916
3916
3916
3916
3916
3916
3916
3916
3916
3916
3916
3916
3916
3916
3916
3916
3916
3916
3916
3916
3916
3916
3916
3916
3916
3916
3916
3916
3916
3916
3916
3916
3916
3916
3916
3916
3916
3916
3916
3916
3916
3916
3916
3916
3916
3916
3916
3916
3916
3916
3916
3916
3916
3916
3916
3916
3916
3916
3916
3916
3916
3916
3916
3916
3916
3916
3916
3916
3916
3916
3916
3916
3916
3916
3916
3916
3916
3916
3916
3916
3916
3916
3916
3916
3916
3916
3916
3916
3916
3916
3916
3916
3916
3916
3916
3916
3916
3916
3916
3916
3916
3916
3916
3916
3916
3916
3916
3916
3916
3916
3916
3916
3916
3916
3916
3916
3916
3916
3916
3916
3916
3916
3916
3916
3916
3916
3916
3916
3916
3916
3916
3916
3916
3916
3916
3916
3916
3916
3916
3916
3916
3916
3916
3916
3916
3916
3916
3916
3916
3916
3916
3916
3916
3916
3916
3916
3916
3916
3916
3916
3916
3916
3916
3916
3916
3916
3916
3916
3916
3916
3916
3916
3916
3916
3916
3916
3916
3916
3916
3916
3916
3916
3916
3916
3916
3916
3916
3916
3916
3916
3916
3916
3916
3916
3916
3916
3916
3916
3916
3916
3916
3916
3916
3916
3916
3916
3916
3914
3915
3918
3920
3918
3913
3905
3893
3878
3863
3850
3835
3819
3805
3790
3776
3762
3745
3730
3716
3701
3687
3673
3663
3645
3626
3606
3591
3584
3579
3576
3566
3551
3533
3513
3501
3491
3482
3467
3453
3441
3430
3421
3406
3394
3381
3368
3362
3355
3351
3342
3327
3315
3305
3292
3282
3267
3247
3230
3220
3218
3222
3222
3213
3198
3182
3168
3158
3149
3144
3135
3124
3115
3109
3103
3096
3088
3082
3071
3061
3050
3042
3037
3032
3026
3021
3009
2992
2974
2963
2961
2966
2970
2971
2962
2949
2934
2921
2914
2912
2906
2898
2890
2886
2875
2867
2857
2848
2843
2837
2834
2831
2824
2821
2810
2808
2802
2834
2814
2753
2681
2649
2739
2984
3345
3703
3941
4028
3994
3926
3880
3888
3942
3941
3903
3817
3689
3539
3393
3265
3157
3062
2975
2890
2813
2742
2676
2615
2560
2511
2463
2419
2379
2342
2307
2273
2243
2215
2189
2164
2142
2122
2103
2084
2065
2049
2035
2020
2007
1996
1986
1974
1964
1955
1947
1938
1929
1922
1916
1910
1904
1899
1895
1890
1884
1878
1874
1870
1866
1862
1859
1857
1853
1849
1846
1843
1839
1836
1834
1833
1830
1828
1827
1826
1824
1821
1819
1819
1818
1817
1816
1816
1816
1814
1812
1812
1811
1810
1809
1810
1811
1811
1810
1810
1811
1810
1809
1810
1811
1811
1812
1813
1815
1815
1815
1815
1815
1816
1816
1816
1818
1820
1820
1819
1820
1821
1820
1821
1823
1825
1826
1826
1827
1828
1828
1828
1828
1829
1830
1830
1831
1833
1834
1834
1833
1834
1835
1835
1835
1837
1839
1840
1839
1841
1842
1841
1841
1843
1845
1846
1846
1847
1849
1849
1848
1848
1849
1850
1850
1850
1853
1855
1856
1856
1858
1859
1859
1859
1861
1864
1865
1866
1867
1869
1869
1869
1869
1870
1870
1871
1871
1873
1874
1874
1873
1874
1874
1874
1873
1874
1875
1874
1873
1873
1872
1871
1870
1870
1871
1872
1873
1875
1877
1879
1879
1880
1882
1884
1885
1887
1889
1892
1892
1892
1893
1893
1892
1891
1892
1893
1893
1893
1893
1894
1893
1892
1891
1891
1892
1891
1891
1892
1893
1892
1892
1893
1894
1883
1836
1904
2003
2067
1985
1668
1159
607
197
18
35
133
214
243
179
179
179
179
179
179
179
179
179
179
179
179
179
179
179
179
179
179
179
179
179
179
179
179
179
179
179
179
179
179
179
179
179
179
179
179
179
179
179
179
179
179
179
179
179
179
179
179
179
179
179
179
179
179
179
179
179
179
179
179
179
179
179
179
179
179
179
179
179
179
179
179
179
179
179
179
179
179
179
179
179
179
179
179
179
179
179
179
179
179
179
179
179
179
179
179
179
179
179
179
179
179
179
179
179
179
179
179
179
179
179
179
179
179
179
179
179
179
179
179
179
179
179
179
179
179
179
179
179
179
179
179
179
179
179
179
179
179
179
179
179
179
179
179
179
179
179
179
179
179
179
179
179
179
179
179
179
179
179
179
179
179
179
179
179
179
179
179
179
179
179
179
179
179
179
179
179
179
179
179
179
179
179
179
179
179
179
179
179
179
179
179
179
179
179
179
179
179
179
179
179
179
179
179
179
179
179
318
248
69
3963
3941
247
1143
2335
3429
6
180
44
3934
3791
3880
3916
3916
3916
3916
3916
3916
3916
3916
3916
3916
3916
3916
3916
3916
3916
3916
3916
3916
3916
3916
3916
3916
3916
3916
3916
3916
3916
3916
3916
3916
3916
3916
3916
3916
3916
3916
3916
3916
3916
3916
3916
3916
3916
3916
3916
3916
3916
3916
3916
3916
3916
3916
3916
3916
3916
3916
3916
3916
3916
3916
3916
3916
3916
3916
3916
3916
3916
3916
3916
3916
3916
3916
3916
3916
3916
3916
3916
3916
3916
3916
3916
3916
3916
3916
3916
3916
3916
3916
3916
3916
3916
3916
3916
3916
3916
3916
3916
3916
3916
3916
3916
3916
3916
3916
3916
3916
3916
3916
3916
3916
3916
3916
3916
3916
3916
3916
3916
3916
3916
3916
3916
3916
3916
3915
3914
3914
3917
3921
3924
3918
3898
3864
3821
3778
3743
3719
3713
3710
3707
3697
3677
3650
3619
3589
3563
3537
3512
3486
3458
3426
3392
3355
3317
3283
3258
3239
3221
3201
3176
3148
3121
3098
3080
3066
3054
3043
3031
3019
3008
2993
2976
2956
2936
2921
2912
2908
2905
2901
2896
2892
2888
2886
2889
2894
2902
2912
2922
2927
2927
2923
2917
2910
2905
2899
2893
2886
2879
2871
2862
2856
2848
2840
2832
2824
2819
2817
2818
2818
2815
2808
2800
2792
2787
2783
2781
2777
2773
2771
2769
2766
2759
2751
2744
2740
2741
2743
2742
2734
2722
2710
2700
2694
2691
2686
2678
2671
2665
2662
2659
2655
2649
2641
2632
2623
2619
2614
2612
2609
2606
2604
2600
2597
2592
2586
2581
2574
2566
2556
2545
2533
2519
2509
2498
2487
2473
2459
2445
2436
2433
2436
2443
2452
2461
2470
2479
2492
2506
2520
2532
2541
2544
2542
2535
2527
2518
2512
2506
2500
2493
2485
2476
2465
2454
2441
2427
2415
2409
2409
2410
2403
2381
2344
2299
2257
2227
2210
2203
2202
2202
2202
2203
2202
2201
2197
2192
2186
2182
2180
2179
2179
2180
2181
2182
2184
2186
2187
2188
2188
2190
2194
2200
2207
2214
2219
2221
2223
2225
2228
2232
2234
2235
2236
2237
2241
2247
2254
2264
2276
2289
2303
2319
2333
2346
2355
2362
2368
2370
2370
2367
2363
2360
2358
2358
2357
2355
2352
2348
2343
2339
2338
2335
2332
2329
2328
2328
2329
2329
2328
2327
2325
2323
2322
2320
2320
2318
2316
2317
2316
2315
2312
2308
2305
2305
2308
2312
2314
2312
2307
2302
2298
2298
2298
2298
2297
2296
2295
2294
2292
2291
2289
2287
2285
2284
2282
2281
2279
2274
2268
2262
2253
2243
2231
2218
2205
2196
2189
2184
2181
2176
2173
2169
2166
2167
2168
2173
2181
2191
2204
2215
2223
2224
2221
2216
2212
2210
2208
2205
2200
2193
2187
2179
2173
2165
2158
2153
2153
2158
2165
2174
2179
2182
2184
2188
2196
2209
2226
2241
2245
2236
2211
2176
2138
2106
2082
2067
2062
2060
2061
2063
2065
2070
2073
2076
2078
2079
2083
2092
2104
2116
2128
2135
2139
2142
2142
2147
2149
2152
2156
2160
2164
2167
2170
2171
2173
2174
2177
2180
2182
2184
2185
2185
2187
2189
2190
2192
2194
2197
2200
2205
2210
2212
2214
2212
2212
2211
2212
2214
2214
2214
2213
2213
2214
2214
2213
2213
2212
2211
2211
2211
2212
2214
2215
2216
2217
2218
2218
2219
2218
2219
2222
2224
2227
2229
2229
2229
2230
2231
2233
2236
2236
2237
2237
2239
2240
2240
2241
2240
2239
2239
2238
2237
2236
2235
2233
2232
2230
2228
2226
2224
2224
2227
2231
2234
2235
2234
2232
2229
2227
2227
2225
2225
2224
2224
2223
2224
2224
2224
2224
2223
2221
2220
2218
2216
2217
2215
2216
2214
2211
2207
2204
2202
2201
2203
2206
2206
2205
2201
2199
2193
2191
2188
2187
2185
2185
2186
2187
2188
2188
2187
2187
2188
2188
2188
2187
2188
2195
2211
2232
2252
2262
2260
2245
2225
2207
2196
2192
2193
2195
2196
2196
2198
2199
2200
2200
2201
2201
2202
2202
2202
2202
2201
2201
2201
2202
2203
2203
2204
2204
2205
2204
2201
2198
2195
2196
2199
2203
2207
2207
2205
2202
2201
2200
2203
2203
2203
2203
2204
2205
2207
2209
2213
2213
2214
2212
2213
2214
2215
2216
2215
2215
2214
2213
2212
2210
2211
2211
2214
2216
2218
2217
2217
2218
2219
2221
2222
2223
2225
2228
2232
2235
2239
2240
2240
2238
2236
2233
2231
2228
2225
2221
2221
2218
2215
2210
2204
2200
2199
2202
2206
2208
2205
2201
2195
2189
2190
2188
2187
2185
2184
2183
2182
2180
2178
2177
2178
2179
2181
2179
2178
2177
2179
2184
2189
2192
2189
2185
2180
2178
2180
2182
2182
2179
2174
2169
2165
2164
2163
2162
2161
2159
2157
2156
2154
2152
2150
2149
2148
2147
2147
2146
2145
2143
2143
2143
2145
2144
2140
2136
2133
2132
2135
2138
2141
2140
2138
2135
2133
2134
2136
2136
2134
2131
2129
2129
2133
2145
2163
2182
2195
2198
2188
2171
2151
2135
2126
2123
2127
2130
2134
2137
2140
2145
2149
2152
2152
2150
2147
2146
2146
2147
2149
2150
2151
2152
2152
2153
2154
2156
2158
2161
2163
2166
2167
2168
2169
2169
2169
2168
2166
2165
2165
2167
2168
2166
2163
2162
2166
2171
2176
2178
2174
2167
2161
2161
2163
2165
2165
2163
2160
2159
2157
2156
2153
2151
2149
2145
2146
2145
2144
2141
2137
2135
2134
2135
2136
2138
2135
2132
2127
2123
2122
2121
2120
2119
2118
2116
2116
2115
2114
2112
2111
2110
2110
2110
2109
2110
2109
2109
2111
2109
2107
2103
2100
2100
2104
2109
2113
2113
2110
2106
2103
2101
2103
2103
2103
2103
2103
2103
2102
2101
2102
2102
2102
2102
2101
2102
2103
2103
2103
2102
2099
2097
2095
2094
2095
2098
2101
2104
2103
2102
2099
2097
2096
2096
2097
2097
2097
2097
2098
2098
2098
2098
2096
2096
2095
2095
2095
2095
2095
2093
2094
2094
2094
2092
2089
2087
2087
2090
2093
2098
2106
2117
2133
2145
2153
2146
2130
2109
2090
2078
2073
2072
2074
2078
2081
2085
2088
2090
2090
2088
2086
2088
2087
2088
2087
2084
2083
2084
2087
2090
2093
2093
2090
2087
2085
2086
2087
2087
2087
2087
2087
2088
2089
2090
2090
2092
2092
2094
2096
2097
2097
2097
2098
2099
2101
2101
2101
2100
2100
2102
2105
2108
2109
2108
2105
2101
2100
2098
2097
2097
2095
2093
2092
2091
2090
2091
2092
2091
2090
2088
2086
2085
2085
2087
2088
2088
2087
2084
2081
2080
2082
2086
2089
2088
2087
2084
2082
2081
2082
2082
2082
2082
2082
2082
2082
2082
2082
2083
2083
2084
2085
2085
2085
2084
2082
2084
2084
2083
2082
2078
2075
2076
2079
2084
2087
2087
2084
2079
2074
2074
2073
2070
2071
2070
2069
2069
2069
2069
2067
2065
2063
2061
2060
2061
2060
2059
2060
2060
2059
2057
2054
2052
2053
2057
2060
2062
2061
2057
2053
2049
2048
2047
2047
2050
2062
2080
2098
2110
2109
2096
2075
2054
2039
2030
2029
2032
2034
2038
2039
2039
2039
2037
2036
2037
2040
2045
2048
2049
2048
2045
2042
2040
2039
2039
2040
2040
2040
2039
2040
2039
2039
2038
2039
2039
2041
2043
2045
2045
2045
2044
2043
2043
2041
2039
2038
2041
2047
2052
2057
2057
2054
2049
2047
2047
2048
2050
2049
2048
2048
2048
2048
2047
2045
2042
2039
2036
2034
2032
2032
2032
2034
2034
2033
2030
2027
2026
2029
2035
2040
2044
2043
2039
2035
2029
2029
2030
2033
2036
2038
2040
2039
2039
2037
2038
2038
2039
2040
2039
2039
2039
2037
2039
2039
2039
2038
2036
2035
2035
2037
2041
2045
2047
2045
2043
2040
2039
2040
2040
2040
2041
2042
2042
2042
2041
2041
2042
2044
2045
2045
2044
2043
2041
2042
2044
2045
2044
2042
2040
2040
2043
2048
2051
2052
2050
2048
2045
2045
2045
2046
2046
2046
2046
2047
2047
2048
2048
2048
2046
2044
2043
2046
2054
2069
2088
2105
2112
2106
2087
2065
2047
2037
2038
2044
2048
2051
2050
2049
2049
2049
2049
2050
2051
2051
2052
2053
2053
2053
2053
2053
2054
2054
2055
2055
2055
2054
2056
2056
2056
2054
2051
2050
2052
2056
2061
2064
2065
2065
2064
2062
2063
2063
2063
2064
2064
2065
2065
2066
2066
2067
2067
2068
2069
2069
2069
2068
2066
2067
2066
2065
2062
2058
2055
2055
2058
2063
2066
2066
2062
2058
2053
2053
2054
2055
2055
2055
2055
2056
2055
2056
2055
2055
2055
2055
2055
2056
2056
2056
2056
2058
2058
2056
2051
2048
2048
2051
2058
2063
2065
2062
2059
2055
2053
2055
2054
2054
2054
2055
2054
2054
2053
2052
2053
2054
2055
2055
2055
2055
2055
2055
2057
2057
2055
2052
2049
2048
2051
2055
2060
2061
2060
2056
2053
2052
2053
2054
2054
2054
2054
2055
2056
2057
2057
2057
2056
2055
2054
2054
2053
2054
2053
2055
2056
2056
2054
2051
2049
2049
2053
2060
2069
2080
2094
2108
2116
2119
2108
2092
2072
2057
2048
2045
2045
2048
2054
2062
2069
2072
2070
2066
2063
2062
2067
2071
2076
2077
2077
2077
2079
2084
2091
2098
2102
2104
2103
2103
2104
2107
2112
2119
2128
2139
2153
2167
2180
2193
2205
2218
2232
2245
2257
2267
2274
2280
2286
2291
2292
2292
2289
2287
2287
2287
2283
2271
2249
2221
2192
2167
2147
2133
2124
2117
2115
2117
2123
2131
2138
2141
2136
2128
2121
2119
2124
2129
2133
2133
2128
2121
2112
2104
2097
2092
2091
2091
2092
2091
2087
2084
2080
2077
2075
2075
2074
2073
2072
2070
2067
2065
2062
2060
2058
2056
2053
2049
2047
2042
2041
2040
2039
2038
2033
2031
2028
2027
2029
2030
2031
2031
2030
2028
2027
2024
2020
2020
2019
2021
2020
2018
2016
2014
2014
2015
2015
2013
2012
2018
2024
2030
2025
2001
1962
1916
1877
1850
1841
1839
1842
1843
1842
1845
1846
1851
1857
1865
1878
1898
1924
1949
1967
1971
1965
1949
1931
1915
1906
1904
1909
1914
1920
1924
1923
1920
1915
1911
1910
1911
1915
1918
1918
1916
1914
1912
1912
1913
1914
1916
1917
1919
1922
1923
1924
1925
1926
1927
1929
1930
1932
1933
1934
1934
1937
1938
1940
1936
1932
1931
1934
1940
1948
1953
1954
1951
1949
1948
1952
1952
1956
1957
1959
1961
1963
1964
1965
1965
1965
1966
1966
1968
1971
1972
1973
1975
1978
1979
1980
1980
1980
1983
1988
1994
1998
1999
1999
1997
1997
1998
2000
2002
2004
2006
2007
2008
2008
2009
2010
2013
2017
2020
2023
2025
2028
2032
2039
2046
2054
2064
2078
2096
2115
2134
2148
2155
2156
2156
2158
2162
2168
2170
2166
2154
2137
2120
2104
2093
2087
2084
2083
2085
2086
2086
2087
2085
2083
2080
2076
2071
2065
2059
2054
2052
2051
2052
2052
2050
2048
2044
2041
2038
2037
2040
2048
2060
2076
2088
2090
2079
2060
2039
2022
2013
2010
2012
2015
2017
2019
2022
2022
2021
2019
2017
2018
2020
2022
2023
2022
2020
2018
2017
2017
2019
2018
2017
2017
2016
2015
2015
2015
2014
2014
2014
2014
2014
2014
2014
2015
2016
2017
2018
2018
2017
2015
2016
2019
2026
2032
2034
2033
2029
2026
2026
2030
2033
2033
2031
2028
2026
2026
2026
2025
2023
2020
2017
2016
2015
2015
2014
2013
2014
2014
2014
2012
2009
2008
2010
2015
2019
2023
2021
2019
2017
2014
2017
2018
2017
2017
2016
2017
2018
2019
2018
2019
2019
2019
2020
2020
2022
2023
2022
2024
2022
2022
2020
2019
2018
2020
2023
2028
2030
2030
2028
2025
2021
2023
2024
2025
2026
2026
2027
2028
2028
2028
2028
2028
2029
2029
2030
2031
2031
2031
2030
2032
2030
2029
2027
2026
2025
2028
2033
2036
2038
2036
2035
2040
2051
2071
2085
2092
2086
2069
2049
2034
2026
2025
2026
2030
2032
2033
2034
2036
2036
2035
2036
2036
2035
2033
2030
2030
2033
2038
2043
2045
2044
2041
2039
2037
2039
2040
2041
2041
2042
2042
2042
2042
2042
2043
2044
2045
2047
2048
2048
2048
2048
2051
2052
2053
2051
2048
2048
2049
2054
2061
2065
2066
2064
2060
2056
2056
2055
2054
2053
2053
2052
2051
2049
2049
2049
2049
2048
2046
2045
2045
2045
2047
2048
2048
2048
2046
2044
2043
2043
2044
2047
2048
2050
2049
2049
2048
2047
2046
2047
2047
2047
2048
2048
2048
2048
2048
2047
2047
2047
2048
2047
2048
2048
2048
2048
2048
2048
2046
2045
2045
2047
2050
2053
2054
2051
2049
2047
2046
2047
2048
2048
2048
2049
2049
2049
2049
2049
2049
2049
2048
2048
2048
2048
2048
2048
2049
2049
2049
2048
2045
2043
2043
2045
2050
2059
2071
2085
2097
2102
2099
2087
2070
2052
2041
2038
2040
2043
2047
2048
2048
2048
2048
2049
2050
2049
2048
2049
2050
2051
2049
2048
2046
2046
2046
2047
2048
2050
2055
2059
2060
2061
2057
2053
2049
2050
2050
2052
2050
2051
2052
2053
2055
2057
2057
2058
2058
2058
2060
2061
2062
2061
2060
2058
2058
2060
2063
2066
2067
2065
2062
2058
2057
2056
2056
2055
2054
2053
2052
2052
2051
2050
2050
2049
2050
2051
2051
2052
2052
2051
2054
2053
2051
2048
2044
2044
2048
2053
2059
2061
2059
2055
2053
2050
2053
2053
2053
2053
2052
2052
2053
2053
2054
2055
2054
2053
2052
2052
2051
2052
2052
2054
2054
2053
2051
2048
2048
2049
2052
2057
2059
2058
2055
2053
2051
2053
2054
2055
2056
2056
2057
2057
2057
2058
2058
2058
2058
2059
2059
2060
2060
2058
2061
2061
2059
2058
2055
2053
2054
2059
2063
2067
2067
2067
2072
2081
2098
2111
2115
2108
2092
2072
2056
2048
2048
2051
2058
2060
2062
2062
2061
2061
2061
2063
2064
2065
2063
2061
2059
2060
2063
2067
2069
2069
2067
2065
2063
2065
2066
2066
2066
2066
2067
2067
2069
2069
2069
2069
2069
2069
2069
2070
2071
2072
2072
2073
2073
2073
2072
2071
2071
2072
2076
2079
2082
2082
2079
2076
2073
2072
2070
2071
2070
2069
2068
2068
2067
2066
2065
2065
2064
2063
2063
2063
2063
2062
2062
2062
2062
2061
2058
2057
2057
2060
2065
2068
2069
2067
2063
2060
2059
2060
2061
2063
2063
2063
2062
2061
2061
2061
2062
2061
2061
2061
2060
2060
2060
2062
2064
2064
2060
2056
2052
2053
2058
2065
2069
2069
2064
2060
2057
2058
2061
2061
2060
2060
2059
2060
2060
2061
2059
2059
2059
2059
2059
2060
2060
2059
2059
2061
2062
2060
2056
2052
2051
2054
2062
2068
2070
2067
2061
2055
2052
2057
2065
2080
2097
2109
2113
2104
2087
2068
2054
2048
2046
2048
2051
2054
2057
2058
2059
2059
2058
2057
2055
2054
2056
2059
2062
2064
2063
2062
2060
2060
2060
2061
2061
2061
2060
2060
2062
2063
2063
2064
2063
2063
2062
2063
2064
2065
2065
2067
2068
2068
2068
2066
2065
2066
2070
2074
2076
2077
2075
2072
2070
2071
2071
2071
2070
2069
2068
2067
2066
2065
2064
2063
2062
2062
2061
2061
2061
2060
2060
2059
2058
2057
2056
2057
2058
2060
2063
2064
2063
2061
2060
2058
2059
2059
2060
2059
2059
2059
2058
2058
2057
2057
2056
2056
2056
2057
2057
2057
2056
2057
2057
2058
2057
2054
2052
2051
2054
2058
2061
2061
2059
2056
2054
2054
2055
2056
2055
2054
2054
2055
2055
2056
2056
2056
2056
2055
2055
2054
2054
2055
2054
2055
2055
2055
2053
2053
2052
2053
2055
2057
2062
2071
2084
2099
2110
2111
2102
2084
2066
2052
2047
2046
2048
2050
2053
2055
2057
2059
2060
2060
2060
2059
2060
2059
2060
2059
2057
2056
2057
2060
2065
2068
2068
2066
2062
2059
2061
2062
2064
2066
2067
2067
2066
2066
2066
2068
2068
2069
2068
2069
2071
2073
2072
2075
2076
2075
2072
2070
2067
2070
2074
2082
2086
2085
2080
2074
2068
2068
2069
2068
2068
2067
2065
2063
2063
2062
2061
2060
2059
2059
2059
2059
2058
2058
2058
2060
2059
2057
2054
2050
2051
2056
2062
2066
2067
2064
2060
2057
2055
2056
2056
2057
2057
2057
2057
2056
2056
2056
2057
2058
2059
2058
2057
2056
2056
2056
2057
2056
2055
2052
2050
2050
2052
2056
2058
2058
2056
2054
2052
2052
2053
2052
2051
2050
2049
2051
2051
2052
2052
2050
2048
2048
2048
2048
2048
2047
2048
2048
2048
2048
2045
2042
2040
2042
2050
2065
2082
2096
2102
2097
2084
2066
2049
2038
2033
2033
2037
2040
2043
2044
2045
2045
2046
2046
2046
2046
2045
2044
2044
2044
2044
2043
2042
2042
2044
2046
2048
2050
2050
2048
2046
2043
2044
2045
2047
2047
2045
2042
2038
2036
2039
2045
2049
2053
2051
2048
2045
2042
2041
2041
2043
2044
2043
2041
2039
2038
2039
2041
2042
2041
2037
2033
2030
2029
2029
2029
2028
2025
2024
2023
2023
2022
2022
2021
2020
2019
2018
2018
2018
2019
2019
2020
2020
2018
2016
2015
2016
2019
2022
2024
2024
2022
2020
2020
2019
2021
2021
2022
2022
2022
2023
2022
2022
2022
2022
2022
2023
2023
2023
2022
2022
2021
2022
2022
2022
2020
2019
2017
2017
2019
2022
2024
2024
2025
2023
2020
2020
2018
2018
2018
2022
2022
2023
2022
2022
2021
2019
2020
2018
2017
2017
2017
2016
2019
2020
2019
2016
2011
2008
2008
2016
2031
2049
2065
2073
2071
2056
2041
2023
2010
2005
2005
2009
2012
2014
2015
2014
2015
2016
2018
2017
2018
2017
2015
2015
2015
2016
2015
2013
2012
2012
2014
2017
2021
2022
2021
2018
2015
2015
2015
2017
2017
2018
2018
2019
2018
2018
2018
2018
2019
2020
2022
2024
2025
2025
2024
2027
2026
2025
2022
2019
2019
2022
2027
2030
2030
2027
2023
2020
2016
2019
2019
2018
2017
2015
2015
2014
2015
2015
2015
2014
2012
2011
2011
2011
2012
2011
2012
2011
2011
2009
2006
2005
2006
2010
2014
2017
2017
2014
2012
2010
2011
2012
2012
2012
2011
2011
2011
2011
2011
2011
2011
2011
2012
2011
2012
2011
2009
2012
2012
2011
2008
2004
2004
2005
2011
2017
2020
2019
2016
2013
2011
2012
2012
2011
2012
2012
2013
2013
2014
2014
2014
2015
2013
2012
2011
2011
2011
2011
2011
2010
2011
2011
2011
2012
2011
2012
2013
2014
2015
2020
2029
2043
2057
2065
2065
2053
2036
2018
2006
2001
2001
2004
2008
2010
2012
2013
2013
2013
2012
2013
2014
2013
2012
2010
2009
2010
2013
2017
2020
2020
2017
2014
2011
2012
2014
2014
2015
2014
2014
2014
2014
2014
2014
2015
2016
2016
2017
2018
2019
2019
2021
2022
2022
2021
2020
2018
2018
2021
2025
2029
2031
2029
2025
2020
2016
2017
2017
2017
2016
2014
2015
2015
2015
2013
2011
2010
2009
2011
2012
2013
2013
2010
2011
2010
2011
2010
2008
2007
2008
2011
2015
2019
2018
2015
2011
2007
2008
2009
2009
2010
2009
2010
2008
2008
2007
2008
2008
2009
2009
2009
2009
2009
2010
2011
2011
2011
2009
2005
2002
2002
2003
2007
2011
2012
2010
2007
2004
2003
2003
2004
2004
2003
2003
2003
2004
2003
2002
2002
2002
2002
2004
2006
2007
2006
2003
2004
2004
2003
2001
1998
1997
1998
2003
2007
2009
2009
2007
2004
2000
2001
2002
2007
2016
2030
2046
2056
2059
2051
2035
2017
2003
1995
1994
1997
2001
2004
2007
2009
2010
2008
2005
2003
2004
2008
2013
2016
2016
2014
2011
2009
2010
2011
2012
2012
2012
2012
2011
2011
2011
2012
2013
2014
2015
2015
2015
2015
2013
2015
2014
2015
2013
2011
2010
2012
2017
2024
2029
2029
2027
2025
2022
2024
2024
2025
2024
2023
2023
2023
2022
2021
2021
2018
2018
2019
2018
2016
2015
2013
2013
2014
2015
2014
2012
2010
2008
2007
2008
2010
2010
2008
2007
2005
2004
2003
2004
2003
2005
2006
2007
2007
2007
2005
2005
2004
2004
2003
2002
2002
2002
2001
2001
2000
1999
1998
1997
1996
1997
1999
2001
2002
2000
1998
1996
1994
1994
1994
1994
1994
1993
1993
1992
1992
1991
1991
1990
1989
1989
1988
1988
1989
1989
1989
1988
1986
1983
1981
1980
1982
1986
1990
1991
1990
1987
1985
1982
1985
1985
1983
1981
1980
1984
1996
2014
2033
2043
2044
2032
2014
1996
1984
1978
1976
1981
1984
1985
1984
1983
1983
1986
1991
1997
1999
1998
1994
1992
1989
1992
1994
1995
1997
1997
1996
1997
1998
1999
1997
1997
1998
1999
2001
2003
2003
2003
2003
2003
2003
2004
2003
2003
2005
2010
2015
2019
2020
2019
2016
2014
2014
2014
2016
2017
2018
2018
2019
2018
2017
2015
2013
2012
2011
2011
2011
2009
2008
2007
2010
2011
2010
2006
2001
1999
2002
2010
2017
2019
2016
2010
2005
2003
2007
2007
2008
2007
2008
2009
2011
2012
2011
2010
2008
2007
2008
2009
2009
2009
2010
2011
2011
2011
2009
2006
2006
2007
2011
2015
2017
2016
2013
2010
2008
2009
2009
2010
2010
2009
2009
2008
2008
2007
2007
2007
2008
2008
2009
2010
2011
2010
2013
2012
2011
2008
2005
2002
2003
2008
2013
2017
2017
2015
2012
2009
2009
2008
2007
2007
2010
2017
2031
2048
2061
2068
2062
2048
2030
2015
2004
2000
2000
2003
2007
2010
2011
2011
2010
2011
2013
2015
2016
2016
2014
2011
2011
2013
2014
2016
2016
2015
2014
2013
2014
2015
2016
2017
2018
2018
2017
2018
2018
2018
2018
2019
2020
2020
2020
2019
2018
2020
2024
2028
2031
2030
2029
2027
2026
2027
2028
2028
2028
2027
2026
2025
2024
2023
2021
2020
2018
2017
2016
2014
2014
2013
2013
2011
2010
2009
2006
2006
2008
2011
2014
2016
2014
2011
2008
2005
2007
2008
2009
2009
2007
2006
2006
2007
2009
2012
2012
2012
2011
2009
2009
2010
2011
2013
2012
2011
2009
2006
2004
2006
2009
2015
2018
2017
2013
2011
2007
2009
2010
2011
2012
2012
2012
2010
2011
2012
2011
2009
2007
2005
2004
2006
2008
2011
2013
2014
2014
2010
2007
2005
2004
2007
2012
2017
2018
2017
2014
2011
2011
2012
2013
2013
2014
2014
2014
2014
2013
2012
2012
2012
2014
2015
2017
2018
2018
2015
2016
2013
2014
2017
2024
2038
2055
2071
2077
2070
2052
2030
2013
2002
2004
2006
2011
2013
2014
2015
2016
2016
2017
2018
2018
2018
2017
2017
2017
2017
2016
2017
2018
2019
2017
2015
2014
2016
2021
2026
2030
2030
2027
2024
2021
2022
2023
2024
2024
2025
2025
2025
2026
2026
2026
2026
2026
2027
2027
2027
2028
2026
2028
2028
2027
2024
2021
2019
2020
2023
2026
2028
2027
2023
2019
2016
2015
2014
2014
2013
2014
2014
2014
2013
2013
2012
2012
2013
2013
2013
2012
2012
2011
2013
2014
2014
2012
2009
2006
2006
2010
2016
2020
2021
2019
2016
2013
2013
2013
2014
2014
2014
2015
2016
2016
2017
2016
2017
2016
2017
2017
2016
2017
2017
2018
2020
2020
2019
2015
2013
2012
2015
2021
2026
2028
2026
2022
2019
2016
2018
2018
2019
2019
2019
2018
2018
2017
2018
2017
2018
2018
2018
2018
2018
2017
2017
2017
2018
2017
2015
2013
2013
2015
2019
2022
2022
2020
2016
2012
2011
2010
2011
2012
2010
2012
2012
2011
2010
2007
2004
2004
2007
2015
2027
2041
2054
2059
2059
2049
2033
2013
1998
1991
1991
1998
2007
2014
2016
2014
2010
2006
2007
2008
2010
2010
2010
2010
2009
2009
2010
2010
2010
2011
2010
2011
2011
2011
2011
2012
2014
2015
2014
2011
2008
2008
2011
2017
2022
2024
2022
2020
2018
2018
2020
2021
2020
2021
2021
2021
2021
2020
2020
2022
2024
2025
2025
2024
2023
2021
2019
2020
2019
2017
2013
2009
2008
2009
2014
2019
2021
2020
2017
2014
2013
2014
2015
2015
2015
2015
2015
2016
2016
2017
2016
2015
2015
2015
2015
2015
2016
2015
2018
2018
2018
2015
2010
2009
2011
2017
2025
2029
2029
2025
2022
2019
2021
2022
2023
2022
2021
2022
2023
2022
2022
2022
2022
2022
2022
2022
2023
2023
2022
2024
2025
2024
2021
2017
2014
2015
2020
2028
2033
2033
2030
2025
2020
2020
2022
2024
2028
2029
2028
2025
2021
2020
2020
2022
2024
2023
2021
2018
2018
2019
2022
2025
2026
2026
2022
2019
2017
2018
2023
2028
2029
2028
2024
2021
2021
2023
2026
2026
2021
2015
2011
2013
2025
2044
2062
2077
2080
2073
2059
2043
2026
2016
2011
2011
2014
2015
2015
2015
2018
2022
2026
2028
2027
2025
2023
2022
2023
2022
2023
2023
2023
2024
2024
2025
2025
2026
2026
2026
2026
2026
2027
2027
2028
2029
2030
2030
2029
2028
2028
2029
2032
2036
2039
2039
2038
2036
2035
2036
2038
2039
2039
2040
2041
2042
2042
2041
2039
2038
2036
2037
2038
2039
2038
2034
2033
2031
2028
2026
2023
2023
2025
2029
2033
2034
2032
2029
2026
2024
2026
2027
2029
2028
2028
2026
2025
2026
2027
2028
2030
2030
2030
2029
2028
2028
2029
2031
2033
2033
2031
2026
2023
2023
2028
2034
2039
2038
2035
2031
2029
2029
2030
2030
2031
2030
2030
2029
2030
2030
2031
2031
2031
2029
2028
2028
2027
2027
2027
2029
2029
2027
2023
2021
2019
2022
2026
2029
2031
2029
2026
2024
2024
2025
2025
2025
2024
2025
2024
2025
2024
2024
2023
2022
2021
2022
2021
2021
2020
2019
2020
2017
2015
2014
2019
2032
2051
2071
2080
2075
2057
2035
2016
2004
2004
2005
2009
2013
2016
2016
2017
2015
2014
2015
2017
2019
2020
2019
2017
2017
2016
2019
2021
2021
2020
2017
2015
2015
2019
2023
2027
2028
2026
2024
2021
2021
2022
2023
2025
2025
2025
2026
2027
2027
2027
2028
2029
2030
2032
2032
2033
2034
2035
2038
2038
2036
2033
2029
2027
2030
2034
2037
2036
2031
2028
2025
2024
2025
2024
2023
2023
2023
2023
2023
2022
2022
2022
2023
2024
2024
2024
2023
2022
2023
2025
2026
2026
2024
2022
2022
2022
2025
2028
2030
2030
2028
2026
2025
2026
2027
2027
2027
2027
2026
2026
2025
2025
2026
2026
2026
2026
2026
2027
2027
2027
2026
2026
2025
2023
2021
2020
2021
2024
2027
2029
2029
2027
2024
2023
2023
2023
2024
2024
2024
2024
2023
2024
2023
2025
2025
2024
2024
2024
2026
2027
2028
2030
2029
2028
2025
2024
2022
2025
2028
2032
2034
2033
2030
2026
2023
2024
2024
2025
2025
2025
2026
2026
2027
2026
2025
2022
2020
2019
2022
2031
2044
2058
2071
2076
2069
2053
2033
2014
2005
2004
2010
2017
2021
2022
2019
2017
2016
2017
2019
2018
2018
2017
2018
2018
2018
2018
2017
2017
2017
2017
2018
2018
2019
2020
2022
2023
2022
2018
2015
2014
2016
2020
2024
2026
2024
2022
2021
2021
2023
2023
2024
2024
2024
2025
2025
2026
2027
2027
2026
2027
2027
2027
2026
2025
2023
2026
2025
2023
2018
2013
2010
2011
2015
2020
2023
2021
2018
2014
2010
2012
2011
2012
2012
2012
2012
2012
2011
2011
2011
2010
2010
2010
2012
2014
2014
2014
2015
2015
2015
2013
2010
2009
2010
2014
2019
2023
2023
2020
2017
2014
2015
2015
2016
2016
2016
2016
2017
2017
2017
2017
2016
2017
2017
2017
2019
2019
2019
2020
2020
2019
2017
2014
2012
2013
2016
2021
2026
2028
2026
2024
2020
2017
2017
2018
2018
2020
2021
2022
2022
2021
2020
2020
2021
2023
2024
2024
2023
2021
2021
2022
2023
2024
2022
2020
2019
2021
2025
2029
2031
2029
2025
2019
2020
2025
2035
2049
2064
2074
2075
2065
2048
2032
2020
2013
2013
2015
2018
2021
2021
2023
2023
2023
2022
2021
2020
2021
2023
2026
2030
2030
2029
2028
2025
2025
2025
2026
2029
2030
2031
2032
2032
2031
2031
2031
2031
2033
2034
2035
2035
2034
2034
2037
2039
2041
2039
2037
2035
2035
2040
2045
2048
2048
2047
2043
2040
2040
2041
2043
2044
2044
2043
2041
2039
2036
2036
2035
2036
2036
2035
2033
2032
2033
2035
2037
2037
2034
2030
2026
2027
2029
2035
2040
2040
2039
2036
2032
2031
2032
2033
2035
2036
2037
2037
2036
2036
2036
2037
2035
2035
2036
2037
2035
2033
2030
2031
2034
2039
2042
2042
2039
2038
2037
2038
2040
2040
2039
2038
2038
2039
2038
2036
2035
2035
2036
2038
2039
2039
2038
2037
2036
2036
2037
2037
2037
2036
2039
2038
2038
2034
2029
2026
2027
2032
2039
2044
2044
2040
2036
2032
2034
2033
2032
2029
2029
2030
2038
2049
2065
2077
2080
2074
2058
2042
2028
2019
2014
2017
2020
2022
2023
2021
2021
2022
2025
2030
2033
2034
2031
2027
2024
2025
2025
2026
2026
2026
2026
2026
2027
2027
2026
2026
2027
2028
2029
2031
2032
2032
2033
2034
2035
2036
2033
2031
2032
2035
2042
2048
2050
2049
2047
2044
2042
2043
2044
2046
2045
2047
2048
2048
2047
2045
2043
2041
2041
2039
2039
2039
2038
2037
2036
2037
2035
2033
2031
2030
2031
2034
2039
2040
2039
2036
2034
2032
2033
2033
2033
2033
2032
2033
2033
2033
2033
2033
2033
2034
2034
2033
2033
2034
2034
2036
2036
2036
2034
2031
2030
2031
2034
2038
2041
2041
2038
2035
2033
2033
2033
2035
2035
2035
2035
2034
2034
2033
2033
2032
2034
2033
2032
2031
2030
2029
2033
2033
2034
2030
2026
2025
2026
2030
2035
2037
2035
2032
2029
2026
2027
2025
2025
2023
2023
2023
2023
2023
2022
2022
2021
2022
2023
2022
2020
2016
2015
2021
2033
2048
2060
2065
2061
2049
2037
2027
2018
2012
2008
2009
2010
2013
2014
2014
2014
2014
2015
2016
2014
2012
2010
2009
2010
2012
2012
2012
2012
2011
2012
2012
2011
2010
2007
2005
2007
2010
2014
2017
2015
2013
2010
2005
2005
