1972
1972
1973
1973
1974
1974
1975
1976
1977
1978
1980
1981
1982
1983
1984
1986
1987
1990
1993
1995
1998
2000
2001
2002
2002
2002
2002
2002
2001
1999
1996
1993
1989
1985
1981
1978
1975
1973
1971
1970
1969
1967
1966
1964
1963
1963
1964
1964
1965
1965
1964
1964
1964
1964
1963
1963
1964
1964
1965
1965
1965
1965
1965
1964
1964
1964
1964
1965
1965
1966
1966
1966
1966
1966
1965
1965
1965
1966
1967
1968
1968
1969
1968
1968
1967
1966
1967
1967
1968
1969
1969
1969
1968
1968
1967
1967
1967
1968
1969
1969
1970
1970
1969
1969
1968
1968
1968
1968
1969
1969
1969
1969
1969
1969
1969
1969
1969
1969
1969
1970
1970
1970
1970
1970
1970
1970
1970
1970
1970
1970
1970
1970
1969
1968
1967
1967
1969
1972
1975
1977
1978
1978
1978
1977
1977
1976
1975
1975
1974
1974
1973
1973
1973
1973
1972
1972
1972
1972
1973
1974
1975
1974
1973
1971
1968
1968
1977
1998
2026
2049
2055
2039
2004
1967
1943
1938
1948
1963
1973
1977
1977
1976
1976
1975
1975
1975
1975
1976
1977
1979
1979
1979
1979
1979
1979
1980
1982
1983
1985
1986
1987
1987
1987
1987
1988
1989
1991
1993
1995
1997
1999
2002
2004
2006
2008
2010
2012
2014
2016
2017
2017
2016
2014
2012
2009
2007
2003
2000
1997
1993
1990
1986
1983
1980
1978
1977
1976
1976
1976
1975
1975
1975
1975
1974
1974
1974
1974
1974
1975
1976
1976
1976
1976
1976
1975
1975
1975
1975
1976
1977
1978
1979
1979
1978
1978
1978
1978
1979
1980
1981
1981
1981
1981
1981
1981
1981
1982
1983
1984
1984
1985
1985
1984
1983
1983
1983
1984
1985
1985
1985
1985
1986
1986
1986
1985
1985
1985
1985
1986
1986
1986
1986
1986
1986
1986
1985
1985
1984
1984
1984
1985
1986
1989
1991
1992
1993
1993
1993
1993
1993
1993
1992
1990
1988
1987
1986
1987
1987
1988
1988
1988
1988
1988
1987
1987
1987
1987
1987
1985
1983
1983
1991
2010
2039
2064
2074
2058
2023
1983
1955
1948
1957
1973
1985
1989
1989
1989
1989
1990
1991
1992
1993
1993
1993
1993
1993
1993
1994
1995
1997
1997
1998
1998
1998
1998
1999
2000
2001
2003
2004
2006
2008
2009
2010
2011
2012
2014
2017
2021
2024
2027
2029
2030
2030
2030
2030
2029
2029
2028
2025
2022
2018
2013
2008
2004
2000
1997
1995
1993
1991
1990
1989
1988
1988
1987
1986
1986
1985
1986
1987
1987
1988
1988
1987
1985
1985
1985
1985
1986
1986
1986
1985
1985
1984
1983
1983
1984
1985
1987
1987
1988
1987
1986
1986
1986
1986
1986
1987
1987
1988
1989
1989
1988
1987
1986
1986
1986
1987
1987
1988
1988
1988
1987
1987
1986
1985
1985
1986
1986
1986
1986
1986
1985
1985
1985
1985
1985
1986
1986
1986
1986
1986
1985
1985
1985
1985
1985
1985
1985
1985
1985
1985
1985
1984
1984
1983
1982
1981
1980
1981
1982
1985
1987
1988
1988
1988
1987
1987
1987
1987
1986
1985
1984
1982
1981
1981
1981
1981
1982
1982
1982
1982
1981
1981
1981
1980
1980
1978
1975
1974
1979
1995
2020
2047
2061
2055
2030
1994
1965
1951
1955
1966
1976
1980
1979
1977
1977
1977
1978
1980
1980
1981
1981
1980
1980
1979
1979
1979
1980
1982
1983
1983
1983
1983
1983
1984
1985
1986
1987
1989
1989
1990
1991
1992
1993
1995
1998
2000
2003
2006
2007
2008
2009
2009
2009
2009
2008
2007
2006
2004
2001
1997
1993
1988
1984
1980
1977
1975
1974
1973
1972
1971
1970
1969
1968
1968
1968
1968
1968
1968
1968
1969
1969
1968
1968
1968
1968
1968
1969
1970
1970
1970
1970
1970
1969
1969
1969
1969
1970
1970
1971
1971
1971
1970
1969
1969
1969
1970
1971
1972
1972
1972
1971
1971
1970
1970
1970
1971
1972
1972
1973
1973
1972
1972
1971
1971
1971
1972
1973
1973
1974
1973
1973
1972
1971
1971
1971
1972
1973
1974
1974
1974
1973
1973
1972
1972
1973
1974
1974
1975
1976
1976
1976
1975
1974
1973
1972
1971
1971
1973
1975
1977
1980
1981
1981
1981
1980
1981
1982
1982
1982
1982
1980
1979
1977
1977
1977
1978
1979
1979
1979
1978
1978
1978
1978
1978
1977
1975
1973
1974
1982
2002
2029
2052
2060
2045
2013
1976
1952
1946
1955
1968
1978
1981
1979
1978
1979
1979
1980
1981
1981
1981
1982
1982
1982
1982
1982
1984
1985
1987
1988
1988
1988
1987
1986
1987
1988
1989
1991
1993
1994
1996
1997
1999
2000
2003
2005
2008
2011
2014
2016
2017
2018
2018
2017
2017
2016
2015
2014
2012
2008
2004
2000
1995
1991
1988
1985
1984
1982
1981
1981
1980
1979
1978
1977
1977
1977
1977
1978
1979
1979
1979
1978
1978
1978
1977
1977
1978
1978
1979
1980
1980
1980
1979
1978
1977
1978
1978
1980
1981
1981
1981
1981
1980
1980
1979
1980
1980
1981
1982
1983
1983
1983
1983
1983
1982
1983
1983
1983
1984
1984
1983
1983
1983
1982
1982
1981
1982
1982
1983
1983
1983
1982
1982
1981
1980
1980
1980
1980
1981
1983
1985
1987
1988
1988
1988
1987
1987
1986
1986
1985
1985
1985
1984
1983
1983
1983
1983
1984
1984
1985
1985
1985
1985
1984
1982
1979
1976
1976
1982
1999
2027
2054
2069
2060
2028
1985
1951
1938
1945
1962
1977
1984
1985
1983
1983
1984
1985
1986
1987
1988
1989
1989
1988
1988
1987
1988
1989
1991
1993
1994
1995
1996
1995
1995
1995
1996
1998
2000
2002
2004
2005
2007
2009
2011
2014
2017
2020
2023
2026
2028
2029
2029
2029
2028
2027
2025
2023
2020
2017
2012
2007
2002
1998
1994
1991
1988
1986
1985
1984
1983
1982
1981
1981
1980
1980
1980
1980
1980
1980
1980
1980
1980
1980
1980
1979
1979
1979
1980
1980
1979
1979
1979
1979
1979
1978
1978
1979
1979
1980
1981
1981
1981
1981
1980
1980
1981
1981
1982
1982
1983
1983
1983
1982
1982
1982
1981
1981
1981
1982
1982
1982
1982
1982
1982
1982
1981
1981
1980
1980
1979
1980
1981
1982
1984
1985
1986
1986
1987
1988
1988
1986
1985
1984
1983
1983
1983
1983
1983
1984
1984
1984
1984
1984
1984
1985
1986
1986
1984
1981
1979
1985
2004
2033
2062
2076
2063
2027
1980
1946
1935
1945
1965
1980
1988
1989
1989
1990
1992
1993
1993
1993
1993
1993
1993
1994
1995
1997
1998
1999
1999
2000
2000
2001
2001
2002
2003
2004
2006
2008
2010
2012
2013
2015
2017
2019
2021
2024
2028
2031
2035
2038
2040
2040
2040
2039
2038
2037
2037
2035
2032
2027
2020
2014
2009
2005
2002
2000
1998
1996
1994
1992
1991
1989
1987
1987
1987
1988
1990
1991
1991
1991
1989
1988
1988
1988
1988
1989
1989
1989
1989
1989
1989
1990
1990
1990
1991
1991
1991
1991
1991
1992
1993
1994
1995
1996
1996
1995
1996
1996
1997
1998
1999
1998
1998
1998
1998
1998
1998
1999
2000
1999
1999
1997
1996
1995
1996
1998
2002
2004
2006
2006
2005
2004
2003
2002
2002
2002
2002
2002
2001
2001
2000
1999
1999
1999
1999
2001
2002
2003
2002
1999
1996
1993
1997
2013
2043
2077
2099
2094
2060
2010
1965
1942
1946
1966
1986
1998
2002
2001
2001
2002
2003
2004
2005
2004
2004
2003
2002
2002
2003
2005
2006
2006
2005
2005
2006
2006
2007
2008
2009
2010
2011
2012
2012
2013
2015
2018
2022
2026
2029
2031
2032
2033
2035
2037
2039
2040
2040
2039
2038
2034
2030
2025
2020
2015
2010
2005
2000
1995
1992
1990
1987
1985
1983
1982
1981
1982
1982
1982
1982
1982
1981
1981
1980
1980
1979
1979
1979
1979
1979
1979
1979
1978
1977
1977
1977
1978
1979
1979
1979
1978
1978
1978
1978
1978
1979
1979
1980
1980
1980
1980
1980
1979
1979
1979
1980
1980
1980
1980
1980
1980
1979
1979
1978
1978
1978
1977
1978
1978
1977
1976
1975
1973
1973
1973
1974
1976
1978
1980
1981
1981
1981
1980
1979
1978
1977
1976
1975
1975
1974
1974
1974
1973
1972
1972
1971
1971
1972
1973
1973
1972
1970
1967
1968
1978
2001
2031
2054
2058
2035
1992
1949
1922
1920
1935
1955
1968
1973
1972
1971
1971
1971
1971
1970
1969
1969
1970
1972
1974
1975
1975
1974
1973
1972
1972
1973
1974
1976
1977
1977
1977
1977
1977
1978
1980
1982
1984
1986
1989
1991
1993
1996
1998
2000
2001
2002
2002
2003
2003
2003
2001
1997
1993
1987
1982
1977
1973
1970
1967
1965
1962
1959
1956
1954
1953
1953
1953
1954
1954
1953
1952
1951
1951
1951
1951
1951
1951
1951
1951
1952
1952
1952
1951
1950
1950
1950
1950
1951
1951
1952
1952
1951
1951
1951
1951
1951
1952
1952
1953
1953
1953
1953
1953
1953
1953
1953
1953
1953
1953
1953
1953
1953
1953
1953
1952
1952
1953
1953
1954
1954
1954
1954
1954
1953
1953
1953
1953
1954
1954
1955
1955
1955
1954
1954
1953
1953
1953
1954
1955
1955
1955
1955
1955
1955
1955
1955
1956
1956
1955
1954
1954
1954
1955
1957
1959
1960
1961
1961
1961
1961
1962
1961
1960
1959
1958
1957
1957
1957
1957
1957
1957
1957
1956
1956
1955
1956
1957
1958
1958
1957
1954
1950
1951
1962
1987
2020
2046
2051
2032
1994
1957
1934
1931
1941
1954
1960
1961
1958
1957
1957
1957
1957
1957
1957
1958
1958
1959
1960
1961
1962
1962
1962
1961
1961
1961
1962
1964
1966
1967
1968
1968
1969
1969
1970
1971
1973
1975
1977
1980
1983
1986
1988
1989
1991
1992
1994
1995
1996
1996
1995
1993
1990
1986
1982
1978
1974
1971
1968
1966
1963
1961
1959
1958
1957
1956
1956
1956
1956
1956
1957
1957
1956
1956
1955
1954
1954
1955
1956
1957
1958
1958
1958
1957
1957
1957
1957
1958
1958
1959
1959
1959
1959
1959
1959
1959
1959
1959
1960
1960
1960
1960
1959
1959
1958
1959
1959
1960
1961
1961
1961
1961
1961
1960
1960
1960
1960
1961
1961
1962
1962
1961
1960
1960
1959
1959
1960
1961
1961
1962
1962
1961
1961
1961
1961
1961
1961
1961
1960
1960
1959
1959
1960
1961
1963
1964
1966
1967
1967
1968
1968
1967
1966
1965
1963
1962
1962
1963
1963
1964
1964
1964
1964
1963
1962
1962
1962
1963
1964
1964
1962
1958
1956
1960
1977
2005
2034
2049
2044
2016
1979
1951
1939
1943
1954
1963
1965
1964
1963
1963
1963
1964
1963
1963
1963
1963
1964
1965
1966
1966
1967
1966
1966
1967
1967
1967
1968
1969
1970
1971
1972
1973
1974
1974
1975
1976
1978
1980
1983
1987
1990
1992
1994
1995
1996
1997
1998
1999
1999
1999
1997
1995
1992
1988
1983
1979
1976
1972
1970
1967
1965
1963
1962
1960
1959
1958
1958
1958
1959
1959
1960
1960
1960
1959
1959
1959
1959
1960
1961
1962
1961
1961
1960
1959
1959
1959
1960
1960
1961
1961
1962
1962
1961
1961
1961
1960
1961
1961
1962
1962
1962
1962
1962
1961
1962
1962
1962
1963
1964
1964
1964
1964
1964
1964
1964
1964
1964
1964
1965
1965
1966
1966
1966
1965
1965
1965
1965
1966
1967
1967
1967
1966
1966
1965
1965
1966
1966
1967
1968
1968
1969
1969
1968
1967
1965
1964
1964
1966
1969
1972
1974
1975
1975
1975
1975
1975
1974
1974
1974
1974
1974
1973
1973
1972
1971
1971
1971
1972
1973
1974
1974
1974
1974
1974
1973
1971
1969
1967
1969
1981
2004
2033
2054
2056
2036
2001
1966
1947
1946
1957
1970
1976
1977
1974
1973
1973
1974
1975
1976
1977
1977
1978
1977
1977
1977
1977
1978
1978
1979
1980
1981
1982
1982
1983
1984
1985
1986
1987
1988
1990
1991
1993
1994
1996
1999
2001
2004
2007
2009
2012
2013
2014
2015
2014
2013
2012
2010
2008
2005
2002
1998
1994
1990
1987
1983
1980
1978
1976
1976
1975
1975
1974
1973
1972
1971
1971
1971
1972
1972
1973
1973
1973
1973
1973
1972
1972
1971
1971
1972
1973
1974
1974
1974
1973
1972
1972
1972
1973
1973
1974
1974
1974
1973
1973
1972
1971
1971
1972
1973
1973
1974
1974
1973
1973
1972
1972
1972
1972
1973
1973
1974
1973
1973
1973
1972
1972
1972
1972
1972
1973
1973
1973
1973
1973
1973
1972
1972
1973
1973
1974
1975
1975
1974
1974
1973
1972
1971
1971
1973
1974
1976
1978
1979
1979
1979
1978
1978
1977
1977
1976
1975
1974
1974
1973
1972
1971
1971
1972
1972
1972
1972
1972
1972
1972
1971
1969
1966
1964
1967
1981
2006
2033
2051
2048
2024
1989
1957
1942
1944
1956
1968
1974
1974
1973
1971
1971
1971
1973
1974
1975
1976
1975
1975
1974
1974
1974
1974
1975
1975
1976
1977
1978
1978
1978
1978
1978
1979
1981
1983
1985
1987
1989
1990
1992
1994
1997
2000
2002
2004
2006
2007
2008
2009
2008
2008
2007
2006
2004
2002
1998
1995
1991
1987
1983
1980
1976
1974
1972
1972
1972
1972
1972
1972
1972
1971
1971
1971
1972
1974
1975
1976
1977
1976
1976
1975
1975
1976
1976
1977
1978
1980
1981
1981
1981
1980
1979
1980
1981
1982
1983
1984
1984
1984
1984
1984
1984
1985
1986
1987
1987
1987
1987
1987
1986
1985
1985
1985
1985
1985
1985
1986
1986
1986
1985
1984
1984
1984
1984
1984
1985
1986
1986
1985
1984
1982
1982
1982
1982
1983
1984
1984
1984
1983
1982
1981
1980
1979
1979
1980
1982
1984
1986
1987
1986
1986
1985
1984
1984
1983
1983
1982
1982
1982
1981
1980
1979
1978
1978
1979
1979
1980
1980
1980
1980
1980
1979
1976
1974
1976
1988
2011
2039
2057
2056
2034
1998
1965
1948
1948
1960
1972
1979
1980
1978
1978
1978
1978
1980
1981
1983
1983
1983
1982
1981
1981
1981
1982
1983
1985
1986
1987
1989
1990
1991
1991
1990
1990
1991
1992
1994
1996
1998
2000
2001
2003
2005
2007
2009
2012
2014
2016
2017
2018
2017
2016
2015
2013
2010
2008
2005
2001
1997
1993
1989
1984
1981
1979
1977
1977
1976
1975
1974
1973
1973
1972
1972
1972
1972
1972
1973
1973
1974
1974
1973
1972
1971
1971
1971
1972
1972
1972
1972
1972
1971
1971
1971
1972
1972
1973
1973
1974
1974
1973
1973
1972
1972
1972
1973
1974
1975
1975
1975
1975
1974
1974
1973
1973
1974
1975
1976
1976
1976
1976
1975
1974
1974
1974
1974
1975
1975
1976
1976
1975
1974
1973
1972
1971
1972
1975
1978
1980
1981
1981
1981
1980
1980
1980
1979
1979
1978
1978
1977
1977
1976
1976
1975
1975
1975
1976
1976
1977
1977
1977
1976
1974
1971
1968
1969
1980
2003
2033
2054
2057
2036
1998
1961
1939
1938
1951
1966
1976
1979
1978
1977
1977
1977
1977
1978
1979
1980
1981
1981
1981
1981
1981
1981
1982
1983
1984
1985
1986
1986
1986
1986
1986
1987
1987
1989
1991
1993
1995
1997
1998
2000
2002
2005
2008
2010
2013
2015
2017
2017
2016
2015
2013
2010
2007
2004
2001
1997
1994
1990
1985
1982
1978
1975
1973
1972
1972
1971
1971
1971
1970
1969
1968
1967
1967
1968
1969
1969
1970
1970
1969
1968
1968
1968
1968
1968
1968
1968
1969
1970
1970
1969
1968
1968
1968
1969
1970
1971
1971
1972
1971
1971
1971
1970
1970
1971
1972
1973
1974
1973
1973
1972
1971
1971
1971
1972
1973
1973
1973
1973
1972
1972
1972
1972
1972
1972
1972
1973
1973
1974
1974
1973
1972
1971
1970
1970
1971
1973
1975
1977
1978
1979
1979
1978
1978
1977
1977
1977
1976
1975
1974
1974
1973
1972
1972
1972
1973
1973
1974
1974
1974
1974
1973
1971
1969
1967
1967
1973
1989
2016
2043
2056
2048
2019
1981
1951
1940
1945
1959
1971
1976
1975
1973
1972
1973
1974
1975
1977
1977
1977
1977
1976
1976
1975
1976
1977
1978
1979
1980
1981
1981
1981
1981
1982
1982
1984
1985
1987
1989
1990
1991
1993
1995
1997
1999
2002
2004
2007
2009
2011
2011
2011
2010
2008
2007
2006
2004
2001
1997
1993
1989
1984
1981
1977
1975
1973
1972
1971
1970
1969
1967
1966
1966
1966
1966
1966
1967
1968
1968
1968
1967
1967
1966
1966
1967
1967
1968
1968
1968
1968
1967
1967
1967
1967
1968
1968
1969
1969
1970
1970
1969
1969
1969
1968
1969
1970
1971
1971
1972
1972
1971
1971
1970
1970
1970
1971
1972
1972
1972
1972
1972
1971
1971
1971
1971
1972
1972
1973
1973
1973
1973
1972
1971
1971
1971
1971
1971
1971
1971
1971
1972
1973
1975
1976
1977
1978
1978
1979
1978
1978
1976
1975
1973
1972
1971
1972
1973
1974
1974
1974
1973
1972
1972
1972
1973
1973
1972
1969
1966
1965
1970
1987
2013
2039
2051
2042
2012
1976
1948
1937
1943
1957
1967
1972
1972
1971
1971
1971
1971
1971
1971
1971
1972
1972
1972
1973
1974
1975
1975
1976
1976
1976
1976
1976
1977
1979
1980
1982
1983
1984
1985
1985
1986
1988
1990
1992
1995
1998
2001
2004
2006
2006
2007
2007
2007
2007
2007
2006
2004
2001
1997
1993
1988
1984
1980
1977
1975
1973
1971
1969
1968
1966
1966
1965
1965
1965
1966
1966
1966
1966
1966
1965
1965
1965
1966
1967
1968
1968
1968
1968
1967
1967
1966
1966
1966
1967
1969
1970
1971
1971
1970
1969
1969
1969
1970
1971
1972
1973
1973
1972
1972
1971
1971
1971
1971
1972
1973
1974
1974
1974
1973
1972
1971
1971
1971
1972
1972
1973
1973
1973
1973
1972
1972
1972
1973
1974
1974
1974
1974
1973
1971
1971
1971
1973
1975
1977
1979
1980
1980
1980
1979
1978
1977
1976
1975
1975
1976
1976
1976
1976
1975
1974
1974
1973
1973
1974
1975
1976
1977
1975
1972
1969
1969
1979
2001
2029
2050
2054
2036
2002
1967
1946
1942
1952
1965
1974
1977
1977
1977
1977
1976
1976
1975
1975
1976
1977
1978
1979
1979
1979
1979
1980
1980
1980
1981
1981
1982
1983
1985
1986
1986
1987
1988
1989
1990
1992
1995
1997
1999
2001
2003
2005
2007
2009
2010
2011
2012
2013
2012
2011
2009
2006
2003
2000
1996
1993
1989
1986
1984
1981
1978
1975
1973
1972
1971
1971
1970
1971
1971
1971
1971
1970
1970
1970
1970
1970
1971
1971
1971
1971
1971
1971
1971
1971
1971
1972
1973
1973
1974
1974
1974
1973
1973
1973
1973
1974
1975
1975
1975
1975
1975
1975
1975
1975
1976
1977
1977
1978
1978
1978
1977
1977
1977
1977
1977
1978
1978
1979
1979
1979
1978
1978
1979
1979
1979
1980
1980
1980
1980
1979
1979
1978
1977
1977
1976
1977
1980
1982
1984
1986
1986
1986
1986
1986
1985
1985
1985
1984
1984
1984
1983
1982
1981
1981
1981
1981
1982
1982
1982
1982
1983
1982
1981
1979
1976
1976
1982
2000
2027
2052
2064
2052
2022
1983
1955
1946
1954
1969
1980
1985
1984
1982
1982
1983
1984
1985
1986
1987
1987
1987
1987
1987
1987
1986
1986
1987
1988
1990
1991
1992
1991
1991
1991
1992
1993
1994
1996
1998
2000
2001
2002
2004
2005
2007
2010
2012
2015
2017
2018
2018
2018
2017
2015
2013
2010
2008
2005
2003
1999
1995
1990
1985
1981
1979
1977
1975
1974
1973
1972
1971
1970
1969
1969
1968
1968
1968
1969
1969
1968
1968
1967
1966
1966
1965
1965
1965
1965
1965
1966
1966
1966
1965
1964
1963
1963
1963
1964
1965
1965
1964
1964
1963
1962
1962
1961
1962
1962
1963
1963
1963
1962
1961
1961
1960
1959
1959
1959
1959
1959
1959
1959
1958
1956
1956
1955
1956
1956
1956
1956
1956
1956
1955
1953
1952
1951
1950
1951
1952
1954
1956
1957
1957
1957
1957
1956
1956
1955
1954
1953
1952
1952
1951
1950
1949
1949
1948
1948
1949
1948
1948
1948
1948
1948
1947
1946
1944
1941
1941
1950
1970
1998
2022
2029
2012
1976
1938
1913
1908
1918
1933
1943
1946
1945
1944
1944
1945
1946
1947
1947
1947
1947
1947
1947
1948
1948
1948
1949
1950
1951
1952
1952
1951
1951
1951
1953
1955
1956
1958
1959
1960
1961
1962
1964
1966
1969
1972
1975
1978
1980
1982
1983
1982
1982
1981
1980
1979
1978
1976
1973
1969
1965
1960
1956
1953
1950
1948
1947
1946
1945
1944
1943
1942
1941
1941
1941
1942
1943
1944
1944
1944
1944
1943
1943
1943
1944
1945
1946
1947
1947
1947
1947
1946
1946
1946
1947
1948
1950
1950
1951
1951
1951
1951
1951
1951
1951
1952
1952
1954
1955
1955
1956
1955
1955
1955
1955
1956
1956
1957
1958
1958
1958
1957
1957
1957
1958
1959
1960
1961
1961
1961
1961
1961
1961
1961
1961
1961
1962
1963
1964
1964
1964
1964
1964
1965
1965
1966
1966
1967
1967
1967
1966
1966
1965
1966
1968
1970
1972
1975
1976
1976
1976
1976
1975
1975
1974
1973
1973
1973
1974
1974
1974
1974
1974
1973
1973
1974
1975
1976
1977
1977
1976
1974
1971
1970
1976
1994
2022
2048
2062
2053
2024
1986
1957
1946
1953
1966
1977
1982
1982
1981
1981
1981
1981
1981
1982
1982
1983
1984
1985
1986
1986
1986
1986
1987
1988
1989
1990
1992
1994
1994
1995
1995
1995
1996
1998
1999
2002
2004
2007
2009
2011
2013
2014
2016
2018
2021
2023
2024
2024
2024
2023
2022
2020
2018
2015
2012
2009
2006
2003
2000
1997
1995
1992
1990
1988
1988
1988
1988
1988
1988
1988
1987
1987
1987
1987
1987
1988
1988
1989
1989
1989
1989
1989
1989
1989
1989
1990
1990
1991
1992
1992
1992
1992
1992
1991
1992
1993
1994
1994
1994
1994
1994
1994
1994
1994
1994
1995
1996
1997
1998
1997
1997
1996
1995
1995
1996
1997
1998
1998
1999
1998
1998
1997
1997
1997
1997
1998
1999
1999
1999
1999
1999
1998
1997
1997
1998
1999
2000
2001
2001
1999
1998
1997
1997
1998
2001
2004
2006
2007
2007
2006
2006
2005
2004
2003
2003
2003
2003
2003
2003
2002
2001
2001
2000
2000
2001
2002
2003
2004
2004
2003
2000
1996
1995
2001
2019
2047
2073
2086
2076
2045
2007
1979
1969
1975
1989
2001
2005
2005
2003
2003
2003
2003
2003
2002
2003
2003
2005
2006
2007
2007
2006
2006
2006
2007
2008
2009
2010
2011
2012
2012
2013
2013
2015
2016
2018
2019
2021
2023
2025
2027
2029
2031
2032
2034
2035
2036
2038
2038
2038
2037
2035
2033
2030
2027
2025
2021
2018
2015
2011
2008
2005
2003
2001
2000
1999
1998
1997
1997
1996
1996
1996
1995
1995
1995
1995
1996
1997
1998
1998
1998
1996
1994
1993
1993
1994
1995
1996
1996
1995
1994
1993
1992
1992
1992
1991
1991
1990
1990
1990
1990
1990
1990
1989
1989
1989
1990
1991
1991
1991
1991
1990
1990
1990
1991
1992
1993
1993
1992
1991
1990
1989
1989
1989
1990
1991
1992
1993
1993
1993
1993
1992
1992
1992
1992
1993
1993
1993
1993
1991
1991
1991
1993
1995
1998
2000
2001
2002
2002
2002
2002
2001
2000
1999
1998
1998
1998
1999
1998
1998
1997
1996
1995
1995
1995
1996
1997
1997
1995
1992
1989
1990
2000
2022
2050
2071
2074
2053
2018
1984
1963
1961
1971
1983
1990
1992
1992
1992
1992
1992
1992
1992
1991
1991
1991
1992
1992
1993
1993
1993
1993
1993
1993
1993
1994
1995
1996
1997
1998
1999
2000
2000
2000
2001
2003
2006
2009
2011
2014
2017
2019
2021
2022
2024
2024
2025
2026
2027
2027
2026
2024
2020
2015
2011
2006
2002
1999
1996
1994
1992
1990
1988
1987
1986
1985
1985
1985
1985
1985
1985
1984
1983
1983
1983
1983
1983
1984
1985
1985
1985
1985
1985
1984
1984
1983
1983
1983
1983
1984
1984
1984
1985
1985
1985
1986
1987
1988
1988
1988
1989
1989
1990
1990
1990
1990
1990
1990
1990
1990
1990
1989
1989
1989
1989
1988
1988
1988
1988
1989
1989
1989
1989
1988
1987
1986
1986
1986
1987
1989
1990
1991
1992
1992
1992
1993
1993
1993
1992
1991
1990
1989
1988
1987
1987
1986
1985
1985
1985
1985
1985
1986
1987
1986
1986
1984
1981
1979
1983
1998
2024
2052
2068
2060
2031
1990
1956
1941
1946
1962
1977
1984
1985
1984
1984
1984
1985
1986
1987
1988
1988
1988
1988
1988
1988
1988
1989
1991
1992
1993
1993
1993
1993
1992
1993
1994
1996
1998
2001
2002
2004
2005
2006
2008
2010
2013
2016
2019
2022
2024
2025
2025
2025
2024
2023
2022
2020
2018
2015
2011
2007
2002
1997
1992
1988
1984
1982
1980
1979
1978
1977
1976
1974
1973
1972
1972
1973
1974
1974
1975
1975
1974
1973
1972
1972
1972
1973
1974
1975
1975
1975
1975
1974
1974
1974
1975
1975
1976
1977
1977
1977
1977
1977
1976
1976
1976
1977
1978
1978
1979
1979
1978
1977
1976
1976
1977
1977
1978
1978
1979
1978
1978
1977
1975
1974
1974
1975
1977
1979
1981
1982
1983
1983
1982
1982
1981
1980
1979
1979
1979
1979
1978
1977
1977
1976
1976
1977
1977
1978
1978
1978
1978
1977
1975
1972
1970
1974
1991
2018
2047
2063
2055
2024
1981
1946
1931
1937
1954
1970
1979
1980
1979
1978
1978
1978
1978
1978
1979
1980
1981
1982
1981
1981
1981
1981
1981
1982
1983
1984
1985
1986
1986
1986
1986
1987
1988
1990
1992
1994
1996
1998
2000
2002
2004
2006
2009
2011
2013
2015
2016
2016
2015
2013
2011
2009
2006
2003
1999
1995
1990
1986
1982
1978
1975
1972
1971
1970
1969
1969
1969
1969
1969
1969
1968
1968
1968
1969
1969
1970
1970
1970
1970
1970
1970
1970
1970
1970
1971
1972
1972
1973
1973
1973
1973
1973
1974
1974
1975
1976
1976
1977
1977
1976
1976
1976
1977
1978
1979
1979
1979
1979
1979
1979
1978
1978
1979
1979
1980
1980
1980
1980
1979
1978
1977
1977
1977
1979
1982
1984
1986
1986
1986
1986
1985
1985
1984
1983
1983
1983
1983
1983
1982
1981
1981
1981
1981
1982
1982
1983
1984
1985
1984
1982
1978
1974
1975
1986
2011
2042
2065
2069
2049
2014
1979
1959
1957
1967
1979
1986
1987
1985
1984
1983
1983
1983
1983
1984
1985
1986
1986
1987
1987
1986
1986
1986
1987
1988
1989
1990
1991
1992
1992
1992
1993
1994
1995
1996
1998
2000
2002
2004
2006
2008
2010
2012
2014
2015
2017
2018
2019
2019
2018
2016
2014
2011
2008
2005
2002
1999
1995
1992
1988
1985
1982
1979
1978
1977
1977
1978
1978
1978
1977
1976
1975
1975
1975
1976
1977
1977
1978
1978
1978
1977
1977
1977
1977
1978
1978
1979
1979
1979
1979
1979
1978
1978
1978
1978
1979
1979
1979
1979
1979
1979
1978
1978
1978
1978
1978
1979
1979
1980
1979
1979
1979
1978
1978
1977
1977
1976
1977
1977
1978
1979
1981
1982
1982
1983
1984
1984
1984
1983
1981
1980
1979
1978
1978
1979
1979
1979
1979
1979
1978
1977
1977
1977
1978
1978
1977
1976
1973
1973
1980
2000
2026
2049
2056
2042
2010
1977
1955
1950
1959
1971
1979
1981
1979
1978
1978
1979
1979
1979
1979
1980
1980
1980
1980
1981
1982
1983
1983
1984
1984
1984
1984
1984
1985
1986
1987
1989
1990
1991
1991
1992
1993
1995
1997
2000
2003
2006
2008
2010
2011
2012
2012
2012
2012
2012
2011
2010
2008
2005
2001
1996
1991
1987
1984
1981
1979
1978
1977
1976
1974
1973
1971
1970
1970
1970
1971
1971
1971
1971
1970
1970
1969
1969
1970
1971
1971
1972
1972
1972
1971
1971
1971
1971
1971
1972
1973
1973
1974
1974
1973
1972
1971
1971
1971
1972
1973
1973
1973
1973
1973
1973
1973
1973
1973
1973
1973
1973
1973
1972
1972
1971
1972
1973
1975
1976
1978
1979
1980
1980
1979
1977
1975
1974
1973
1973
1974
1974
1974
1974
1973
1972
1972
1971
1971
1972
1974
1975
1975
1973
1970
1967
1968
1978
2000
2027
2047
2048
2029
1994
1961
1943
1942
1954
1966
1974
1976
1975
1975
1975
1975
1975
1974
1974
1975
1975
1977
1977
1978
1979
1979
1979
1979
1979
1980
1981
1982
1984
1985
1985
1986
1986
1987
1988
1989
1991
1994
1996
1999
2001
2003
2005
2006
2007
2007
2008
2009
2009
2009
2008
2005
2002
1999
1995
1991
1988
1984
1982
1979
1976
1974
1971
1969
1968
1967
1967
1967
1968
1968
1968
1967
1967
1966
1966
1966
1966
1967
1968
1968
1969
1969
1968
1967
1967
1967
1968
1968
1969
1970
1970
1970
1970
1969
1969
1970
1970
1971
1971
1971
1971
1971
1971
1970
1970
1970
1970
1969
1968
1968
1969
1970
1971
1973
1974
1975
1976
1977
1977
1977
1977
1975
1973
1972
1971
1970
1970
1970
1970
1970
1970
1970
1970
1969
1969
1969
1970
1969
1968
1965
1965
1971
1988
2012
2035
2044
2032
2002
1968
1944
1938
1946
1959
1969
1972
1972
1971
1971
1971
1972
1973
1973
1973
1973
1973
1973
1973
1974
1975
1976
1976
1976
1976
1976
1977
1977
1978
1980
1981
1982
1983
1984
1985
1986
1988
1990
1992
1995
1998
2000
2002
2003
2004
2004
2004
2003
2003
2002
2001
1999
1996
1992
1988
1984
1980
1976
1974
1972
1970
1969
1967
1966
1965
1964
1963
1963
1963
1964
1964
1965
1965
1964
1964
1964
1964
1964
1964
1965
1966
1966
1966
1966
1965
1965
1965
1965
1966
1967
1967
1968
1968
1968
1967
1967
1966
1966
1966
1967
1967
1966
1966
1965
1965
1966
1967
1968
1970
1972
1974
1975
1975
1975
1974
1972
1970
1968
1968
1968
1969
1969
1969
1968
1967
1967
1966
1967
1968
1969
1969
1968
1966
1962
1962
1970
1989
2015
2038
2044
2028
1996
1963
1941
1937
1947
1960
1968
1971
1971
1970
1971
1971
1971
1971
1970
1971
1971
1972
1973
1974
1975
1975
1975
1975
1976
1976
1977
1977
1979
1980
1981
1982
1983
1984
1985
1986
1987
1989
1992
1995
1997
1999
2001
2002
2003
2003
2004
2004
2004
2004
2003
2001
1998
1995
1991
1987
1984
1981
1978
1976
1974
1971
1970
1968
1967
1966
1965
1965
1966
1966
1966
1966
1966
1966
1965
1965
1965
1966
1966
1967
1968
1968
1968
1968
1967
1967
1967
1968
1969
1970
1970
1971
1971
1970
1970
1970
1970
1970
1970
1970
1969
1968
1968
1968
1968
1969
1971
1973
1974
1976
1977
1978
1978
1978
1976
1975
1973
1972
1972
1972
1973
1973
1972
1972
1971
1971
1971
1972
1973
1974
1974
1972
1970
1966
1966
1974
1994
2020
2042
2047
2031
1999
1966
1945
1942
1952
1965
1974
1977
1977
1976
1976
1975
1975
1975
1975
1975
1976
1977
1978
1979
1979
1979
1979
1979
1979
1980
1981
1982
1983
1984
1984
1985
1986
1986
1987
1989
1991
1994
1996
1999
2001
2003
2004
2005
2006
2007
2008
2008
2009
2008
2007
2005
2001
1998
1994
1990
1986
1982
1980
1978
1976
1974
1972
1970
1969
1969
1969
1970
1970
1970
1970
1970
1969
1968
1967
1966
1966
1967
1969
1970
1971
1971
1970
1969
1969
1969
1970
1970
1971
1971
1971
1971
1971
1971
1970
1969
1969
1970
1971
1972
1972
1972
1971
1971
1970
1970
1971
1973
1975
1977
1979
1980
1982
1982
1982
1980
1979
1978
1977
1977
1977
1977
1977
1977
1977
1977
1977
1977
1976
1976
1976
1976
1976
1975
1973
1973
1977
1992
2017
2042
2054
2045
2014
1975
1946
1935
1943
1960
1974
1981
1981
1980
1978
1977
1977
1978
1978
1980
1982
1983
1984
1984
1984
1983
1982
1983
1984
1986
1988
1990
1990
1988
1987
1986
1987
1990
1994
1997
1999
2000
2000
2002
2005
2008
2011
2013
2013
2014
2015
2014
2013
2012
2010
2009
2008
2007
2005
2001
1996
1991
1988
1985
1982
1979
1977
1975
1975
1976
1976
1975
1973
1972
1971
1971
1972
1972
1973
1974
1975
1975
1974
1974
1974
1973
1974
1974
1976
1976
1976
1976
1975
1974
1975
1976
1977
1977
1977
1976
1976
1976
1976
1976
1976
1974
1973
1972
1973
1974
1977
1979
1981
1983
1983
1983
1983
1982
1982
1981
1980
1979
1978
1977
1976
1975
1975
1975
1975
1975
1974
1975
1976
1977
1977
1975
1973
1969
1969
1977
1997
2027
2053
2062
2046
2009
1966
1936
1928
1940
1958
1973
1979
1979
1977
1977
1978
1978
1979
1979
1980
1980
1981
1982
1983
1983
1983
1983
1983
1985
1987
1989
1989
1989
1989
1989
1989
1990
1992
1995
1998
2001
2004
2006
2007
2008
2010
2012
2015
2017
2020
2021
2021
2019
2017
2014
2011
2009
2007
2004
2000
1995
1989
1985
1982
1980
1978
1976
1974
1973
1972
1973
1973
1973
1972
1970
1969
1970
1971
1973
1974
1975
1973
1971
1969
1968
1967
1968
1971
1973
1974
1975
1975
1974
1974
1974
1974
1973
1972
1973
1974
1975
1975
1973
1970
1969
1970
1972
1975
1977
1978
1978
1977
1977
1977
1978
1979
1980
1979
1979
1978
1978
1978
1979
1979
1978
1977
1976
1974
1974
1974
1975
1977
1979
1980
1978
1974
1970
1971
1984
2011
2044
2066
2065
2038
1994
1953
1932
1934
1951
1969
1980
1983
1980
1979
1979
1979
1979
1980
1981
1982
1983
1983
1984
1984
1984
1985
1986
1987
1987
1988
1989
1989
1989
1990
1990
1992
1993
1995
1997
1999
2001
2003
2005
2008
2010
2012
2014
2016
2017
2019
2020
2020
2019
2017
2014
2011
2007
2003
1999
1995
1991
1987
1984
1981
1978
1975
1973
1972
1972
1972
1972
1972
1972
1971
1971
1970
1971
1971
1972
1972
1973
1973
1973
1972
1972
1972
1972
1973
1974
1975
1975
1975
1975
1975
1975
1975
1976
1977
1977
1978
1979
1979
1979
1979
1978
1978
1978
1977
1977
1977
1978
1978
1979
1980
1981
1982
1983
1984
1986
1987
1987
1986
1984
1983
1981
1980
1980
1980
1981
1982
1982
1981
1981
1980
1980
1980
1981
1981
1979
1976
1973
1974
1987
2012
2043
2064
2065
2042
2005
1970
1952
1953
1964
1975
1980
1979
1977
1977
1977
1978
1978
1978
1978
1977
1977
1977
1977
1978
1979
1980
1981
1982
1982
1982
1982
1983
1984
1985
1987
1988
1990
1992
1993
1995
1997
1999
2002
2006
2009
2012
2015
2016
2017
2017
2017
2017
2016
2015
2013
2011
2007
2004
1999
1995
1990
1985
1982
1979
1977
1975
1974
1973
1972
1970
1969
1969
1968
1969
1970
1971
1972
1973
1974
1974
1973
1973
1973
1973
1973
1974
1974
1974
1974
1974
1974
1974
1974
1975
1976
1976
1977
1977
1977
1976
1976
1976
1976
1977
1978
1979
1979
1979
1979
1979
1978
1977
1977
1976
1977
1978
1979
1981
1982
1983
1984
1985
1985
1986
1986
1986
1985
1983
1982
1980
1980
1979
1979
1979
1979
1979
1979
1979
1979
1979
1979
1979
1978
1976
1973
1972
1978
1995
2023
2049
2062
2052
2023
1987
1961
1952
1959
1972
1981
1984
1982
1980
1979
1980
1982
1983
1983
1984
1983
1983
1983
1983
1984
1985
1986
1987
1987
1988
1988
1988
1988
1988
1989
1990
1992
1993
1995
1996
1997
1999
2000
2002
2004
2006
2009
2011
2012
2013
2014
2014
2013
2012
2010
2009
2006
2003
2000
1996
1991
1987
1983
1980
1977
1976
1974
1973
1973
1972
1971
1970
1969
1969
1969
1969
1969
1970
1970
1970
1970
1970
1969
1969
1969
1970
1970
1971
1971
1971
1970
1970
1969
1969
1969
1970
1971
1972
1972
1972
1971
1970
1970
1969
1970
1970
1971
1971
1971
1971
1971
1971
1971
1970
1970
1971
1971
1971
1972
1971
1971
1969
1968
1967
1968
1969
1972
1974
1976
1977
1978
1978
1978
1978
1977
1976
1976
1975
1975
1975
1975
1975
1975
1974
1975
1975
1976
1976
1977
1978
1978
1976
1973
1969
1967
1973
1992
2020
2047
2057
2046
2015
1979
1954
1947
1955
1968
1978
1981
1979
1978
1978
1977
1977
1977
1977
1978
1980
1981
1982
1982
1982
1981
1981
1981
1982
1983
1984
1985
1986
1986
1986
1987
1987
1989
1990
1992
1994
1996
1998
2000
2002
2004
2006
2008
2010
2011
2012
2013
2013
2012
2010
2008
2006
2002
1999
1996
1992
1989
1985
1982
1979
1976
1974
1973
1972
1972
1972
1972
1972
1972
1971
1971
1970
1970
1971
1972
1972
1973
1973
1973
1972
1972
1972
1972
1972
1973
1973
1974
1974
1974
1974
1973
1973
1973
1973
1974
1975
1975
1975
1975
1974
1974
1974
1974
1975
1975
1976
1976
1976
1975
1975
1975
1975
1975
1976
1976
1977
1977
1976
1975
1973
1972
1972
1972
1974
1976
1978
1980
1981
1982
1983
1983
1983
1983
1982
1982
1981
1980
1980
1979
1979
1979
1978
1978
1979
1979
1979
1980
1980
1980
1980
1978
1975
1972
1973
1983
2005
2033
2053
2056
2038
2003
1970
1952
1951
1963
1976
1984
1985
1983
1982
1981
1981
1982
1983
1984
1985
1986
1986
1986
1986
1986
1986
1987
1988
1989
1990
1991
1992
1992
1993
1993
1994
1995
1997
1998
2000
2002
2004
2006
2008
2009
2011
2013
2015
2017
2018
2019
2020
2020
2019
2017
2014
2012
2009
2006
2003
2000
1996
1993
1989
1986
1983
1982
1981
1980
1980
1980
1979
1979
1978
1978
1977
1977
1978
1979
1979
1980
1979
1979
1978
1978
1978
1978
1979
1979
1980
1980
1980
1981
1980
1980
1980
1980
1981
1981
1982
1982
1982
1982
1981
1981
1981
1981
1981
1982
1982
1983
1983
1983
1983
1982
1981
1981
1981
1981
1981
1981
1981
1980
1980
1981
1982
1983
1985
1986
1988
1989
1989
1989
1988
1986
1984
1983
1983
1983
1983
1983
1984
1984
1984
1983
1983
1983
1983
1984
1985
1984
1981
1978
1980
1993
2017
2047
2066
2064
2037
1995
1958
1939
1942
1958
1975
1984
1987
1986
1986
1987
1987
1987
1987
1988
1988
1989
1990
1990
1991
1992
1992
1993
1993
1993
1994
1995
1996
1997
1998
1999
2000
2001
2002
2004
2006
2008
2010
2013
2016
2019
2021
2023
2024
2025
2026
2026
2026
2026
2026
2024
2022
2018
2014
2009
2005
2001
1997
1994
1991
1988
1985
1983
1981
1979
1978
1978
1978
1978
1979
1979
1979
1978
1978
1977
1976
1976
1976
1976
1976
1977
1977
1976
1975
1975
1975
1975
1976
1977
1977
1978
1978
1978
1978
1978
1978
1978
1978
1979
1979
1979
1979
1979
1979
1979
1978
1978
1978
1978
1979
1979
1979
1978
1978
1976
1975
1975
1975
1975
1976
1977
1979
1979
1980
1981
1981
1982
1983
1983
1982
1981
1980
1979
1978
1977
1977
1976
1977
1977
1978
1978
1979
1979
1978
1977
1975
1972
1970
1974
1989
2016
2045
2062
2056
2026
1983
1946
1930
1936
1953
1970
1979
1980
1978
1976
1976
1976
1977
1978
1979
1980
1981
1981
1981
1981
1981
1981
1981
1982
1983
1984
1984
1985
1985
1985
1986
1987
1988
1990
1992
1994
1996
1997
1999
2002
2004
2006
2009
2011
2013
2014
2014
2014
2012
2010
2008
2005
2002
1998
1994
1990
1986
1982
1978
1974
1971
1969
1968
1967
1967
1966
1966
1965
1964
1964
1963
1963
1963
1964
1964
1964
1964
1964
1963
1963
1962
1963
1963
1964
1965
1965
1966
1967
1968
1967
1967
1966
1967
1967
1969
1969
1969
1968
1967
1967
1967
1969
1970
1972
1972
1972
1972
1971
1971
1971
1971
1971
1971
1970
1970
1970
1970
1970
1971
1970
1969
1967
1965
1964
1965
1966
1968
1969
1970
1971
1972
1973
1975
1976
1977
1977
1977
1976
1976
1975
1973
1970
1968
1967
1968
1969
1971
1972
1972
1972
1971
1971
1971
1970
1970
1967
1966
1970
1986
2014
2046
2064
2060
2032
1992
1958
1945
1951
1966
1978
1982
1979
1975
1973
1972
1973
1973
1973
1973
1974
1975
1976
1976
1975
1973
1973
1974
1977
1980
1981
1980
1977
1976
1977
1979
1982
1984
1984
1984
1985
1987
1990
1993
1996
1999
2001
2003
2003
2004
2004
2004
2004
2004
2003
2002
2000
1999
1996
1991
1985
1979
1975
1972
1971
1970
1969
1967
1964
1962
1960
1959
1959
1959
1960
1960
1958
1956
1953
1953
1954
1955
1956
1955
1953
1950
1948
1947
1946
1947
1948
1950
1952
1954
1954
1954
1952
1951
1952
1955
1960
1966
1971
1974
1975
1976
1977
1978
1978
1978
1975
1973
1971
1970
1972
1974
1976
1977
1976
1975
1972
1971
1971
1973
1975
1977
1978
1976
1972
1969
1967
1967
1968
1971
1974
1977
1978
1978
1977
1977
1977
1978
1978
1978
1977
1975
1974
1974
1974
1973
1972
1971
1971
1972
1973
1974
1975
1976
1976
1973
1968
1962
1960
1966
1985
2014
2043
2056
2048
2017
1978
1948
1937
1943
1957
1968
1974
1973
1971
1969
1967
1965
1964
1964
1967
1970
1973
1973
1972
1970
1969
1970
1972
1974
1976
1977
1978
1978
1978
1978
1979
1980
1982
1983
1986
1989
1991
1993
1994
1995
1996
1999
2004
2007
2009
2009
2007
2005
2003
2003
2002
2001
2000
1997
1993
1988
1983
1978
1974
1972
1970
1968
1966
1965
1964
1964
1965
1965
1965
1965
1964
1962
1960
1959
1960
1962
1965
1966
1966
1965
1962
1961
1961
1963
1965
1967
1968
1968
1966
1965
1964
1965
1966
1967
1967
1966
1965
1965
1966
1968
1969
1969
1969
1968
1968
1969
1970
1971
1972
1972
1972
1972
1972
1972
1973
1973
1974
1975
1975
1975
1974
1973
1973
1973
1974
1976
1977
1979
1981
1983
1985
1987
1988
1990
1990
1988
1985
1981
1979
1977
1978
1979
1979
1979
1979
1978
1978
1977
1975
1974
1971
1969
1966
1964
1967
1980
2006
2035
2054
2051
2025
1984
1947
1927
1929
1944
1960
1970
1971
1969
1967
1966
1967
1969
1969
1967
1964
1961
1960
1962
1964
1966
1967
1967
1968
1969
1970
1970
1969
1968
1968
1969
1972
1975
1977
1979
1980
1981
1983
1986
1990
1994
1998
2001
2003
2003
2004
2004
2004
2005
2006
2007
2005
2002
1998
1993
1988
1985
1984
1982
1981
1979
1978
1976
1975
1973
1972
1971
1970
1970
1970
1970
1970
1970
1970
1970
1970
1971
1972
1971
1971
1970
1969
1968
1968
1966
1962
1958
1955
1954
1955
1955
1955
1954
1953
1953
1955
1956
1957
1956
1956
1956
1957
1958
1957
1956
1955
1955
1956
1958
1959
1958
1957
1957
1958
1959
1961
1961
1960
1960
1960
1961
1964
1966
1968
1970
1969
1969
1968
1967
1966
1966
1966
1965
1965
1966
1966
1966
1966
1965
1963
1963
1963
1963
1962
1961
1962
1970
1990
2019
2044
2051
2034
1997
1956
1929
1926
1940
1960
1974
1980
1979
1978
1977
1978
1978
1979
1980
1982
1983
1985
1985
1985
1984
1984
1984
1985
1986
1986
1986
1986
1986
1988
1991
1993
1993
1992
1991
1992
1995
1999
2002
2003
2003
2004
2006
2009
2012
2012
2010
2006
2003
2001
2000
1998
1996
1992
1986
1980
1974
1969
1964
1958
1954
1951
1950
1949
1947
1943
1940
1938
1937
1938
1937
1937
1936
1936
1937
1937
1935
1932
1931
1931
1931
1931
1930
1929
1929
1929
1930
1930
1930
1929
1929
1928
1928
1929
1930
1931
1931
1931
1932
1932
1933
1934
1933
1932
1930
1929
1928
1929
1930
1932
1933
1932
1931
1929
1928
1928
1928
1927
1925
1922
1921
1921
1922
1923
1924
1925
1926
1926
1927
1928
1927
1926
1924
1924
1925
1926
1928
1929
1930
1930
1930
1930
1930
1931
1933
1935
1937
1939
1939
1939
1942
1953
1976
2008
2035
2046
2031
1998
1959
1932
1924
1932
1945
1955
1957
1955
1953
1952
1951
1951
1951
1950
1949
1950
1952
1953
1954
1954
1953
1951
1949
1947
1945
1944
1944
1944
1945
1945
1944
1944
1944
1946
1949
1952
1956
1959
1961
1963
1965
1967
1970
1972
1974
1975
1975
1975
1974
1972
1970
1967
1962
1956
1951
1946
1943
1940
1938
1934
1930
1927
1926
1926
1926
1925
1921
1917
1912
1909
1908
1909
1909
1908
1906
1903
1899
1895
1890
1885
1880
1876
1875
1876
1877
1877
1876
1874
1873
1874
1875
1877
1877
1877
1877
1879
1880
1880
1879
1877
1877
1877
1879
1881
1883
1884
1885
1886
1887
1887
1887
1887
1887
1888
1888
1888
1888
1886
1884
1883
1883
1884
1888
1891
1893
1893
1892
1892
1893
1896
1898
1898
1896
1894
1893
1893
1893
1894
1894
1894
1894
1895
1896
1896
1896
1894
1892
1891
1889
1885
1883
1886
1901
1928
1960
1982
1982
1958
1921
1888
1873
1877
1890
1902
1908
1907
1906
1906
1908
1910
1912
1913
1913
1914
1916
1918
1920
1921
1921
1920
1921
1922
1925
1928
1930
1932
1933
1934
1935
1937
1938
1940
1941
1943
1946
1950
1954
1957
1960
1963
1965
1967
1969
1971
1973
1975
1976
1976
1974
1970
1966
1963
1960
1957
1954
1951
1947
1944
1940
1938
1937
1937
1938
1939
1939
1939
1940
1940
1940
1939
1939
1940
1942
1945
1948
1949
1949
1948
1947
1948
1949
1951
1953
1954
1955
1956
1957
1958
1959
1959
1959
1960
1961
1962
1964
1965
1967
1967
1968
1968
1968
1969
1970
1972
1973
1974
1975
1974
1973
1973
1974
1976
1977
1979
1980
1981
1981
1980
1979
1978
1979
1980
1982
1984
1985
1986
1988
1989
1991
1993
1995
1996
1996
1995
1994
1994
1993
1993
1993
1993
1993
1994
1995
1995
1995
1995
1995
1996
1996
1995
1992
1988
1988
1998
2021
2050
2077
2085
2069
2035
1997
1973
1968
1979
1993
2001
2002
1999
1996
1996
1997
1999
1999
1999
1999
1999
1999
2000
2000
2000
2000
2001
2003
2005
2006
2007
2007
2006
2005
2005
2006
2008
2010
2014
2017
2019
2020
2021
2022
2023
2025
2028
2032
2035
2039
2041
2041
2040
2038
2035
2033
2030
2027
2023
2019
2014
2010
2007
2004
2001
1999
1998
1998
1998
1998
1998
1997
1995
1993
1991
1990
1991
1993
1996
1997
1997
1995
1994
1994
1995
1996
1997
1997
1997
1997
1998
1999
1999
1999
1998
1998
1998
1998
1999
1999
2000
2001
2001
2002
2002
2002
2003
2004
2004
2005
2005
2005
2005
2005
2006
2007
2008
2008
2007
2007
2006
2005
2004
2003
2003
2004
2006
2009
2012
2013
2014
2015
2015
2014
2013
2011
2010
2009
2009
2009
2009
2008
2008
2007
2006
2006
2006
2006
2006
2006
2006
2003
2001
2002
2013
2037
2066
2089
2090
2065
2025
1986
1965
1966
1981
1997
2006
2007
2005
2004
2003
2003
2004
2004
2004
2004
2003
2003
2004
2005
2006
2007
2007
2006
2005
2004
2004
2006
2008
2010
2011
2011
2011
2011
2013
2015
2017
2019
2022
2024
2027
2029
2031
2033
2034
2034
2035
2035
2035
2034
2032
2029
2025
2020
2015
2011
2007
2003
1999
1995
1991
1988
1986
1985
1984
1983
1982
1981
1981
1982
1984
1985
1985
1984
1982
1981
1981
1981
1982
1983
1983
1983
1983
1983
1984
1984
1984
1984
1984
1984
1985
1986
1987
1987
1986
1985
1985
1986
1987
1988
1989
1990
1990
1989
1988
1988
1988
1989
1990
1991
1991
1991
1991
1990
1989
1989
1989
1989
1989
1989
1988
1987
1987
1986
1987
1989
1990
1992
1994
1996
1998
1998
1998
1996
1994
1992
1990
1990
1990
1991
1992
1993
1992
1991
1991
1991
1991
1992
1993
1992
1989
1985
1982
1987
2005
2035
2065
2083
2075
2046
2008
1977
1965
1970
1982
1991
1993
1991
1988
1987
1988
1989
1989
1989
1989
1988
1989
1989
1990
1991
1991
1991
1991
1991
1990
1989
1989
1989
1991
1992
1993
1994
1994
1993
1994
1995
1997
1999
2002
2005
2007
2009
2011
2011
2012
2013
2014
2014
2014
2013
2011
2008
2005
2000
1995
1990
1986
1982
1979
1977
1974
1972
1970
1968
1966
1965
1965
1965
1965
1965
1965
1965
1963
1962
1962
1962
1963
1963
1964
1963
1963
1963
1962
1962
1962
1961
1960
1960
1960
1961
1962
1963
1964
1964
1963
1963
1962
1963
1964
1965
1965
1965
1965
1965
1965
1965
1965
1965
1965
1966
1967
1967
1966
1966
1965
1965
1965
1964
1964
1963
1963
1963
1963
1964
1964
1966
1967
1969
1971
1973
1974
1974
1973
1971
1970
1969
1968
1967
1967
1967
1967
1967
1967
1967
1967
1968
1969
1970
1970
1968
1964
1961
1964
1979
2006
2035
2053
2050
2025
1988
1958
1944
1948
1960
1970
1973
1972
1969
1969
1969
1970
1970
1970
1970
1969
1968
1969
1970
1972
1974
1974
1974
1974
1973
1974
1974
1975
1976
1977
1979
1980
1982
1983
1983
1984
1985
1987
1989
1993
1997
2001
2003
2004
2005
2004
2003
2003
2002
2002
2002
2001
1999
1995
1990
1985
1980
1976
1974
1971
1970
1968
1967
1966
1965
1964
1964
1963
1963
1963
1963
1963
1964
1964
1964
1964
1964
1964
1964
1964
1965
1965
1966
1965
1965
1965
1965
1966
1967
1967
1968
1968
1968
1968
1967
1967
1966
1967
1969
1971
1972
1972
1971
1971
1970
1971
1971
1971
1971
1971
1972
1973
1974
1974
1974
1973
1971
1970
1969
1970
1971
1973
1975
1977
1978
1979
1980
1981
1983
1983
1983
1982
1981
1980
1979
1979
1978
1978
1978
1979
1980
1981
1981
1981
1981
1981
1980
1978
1976
1976
1986
2009
2039
2063
2067
2046
2007
1968
1945
1945
1959
1976
1985
1987
1983
1981
1980
1980
1981
1983
1984
1985
1985
1985
1985
1985
1985
1985
1985
1986
1986
1987
1987
1987
1988
1988
1990
1991
1993
1995
1997
1998
2000
2001
2003
2006
2009
2011
2013
2014
2014
2015
2017
2018
2017
2016
2014
2012
2010
2008
2004
1999
1994
1989
1985
1982
1979
1977
1976
1975
1974
1972
1971
1970
1969
1969
1970
1970
1971
1971
1971
1970
1970
1970
1970
1970
1970
1969
1968
1968
1970
1972
1973
1973
1971
1970
1970
1971
1972
1973
1973
1973
1973
1973
1973
1973
1973
1973
1973
1974
1974
1974
1974
1974
1974
1973
1972
1971
1971
1972
1972
1973
1973
1973
1973
1974
1976
1978
1979
1980
1980
1978
1977
1975
1973
1973
1972
1973
1974
1975
1975
1975
1974
1974
1974
1974
1973
1971
1969
1969
1977
1998
2028
2054
2064
2048
2008
1963
1931
1923
1936
1957
1973
1978
1977
1975
1974
1975
1976
1978
1978
1978
1978
1977
1978
1978
1979
1980
1981
1981
1982
1982
1982
1982
1982
1983
1985
1986
1988
1990
1992
1993
1995
1997
1999
2001
2004
2007
2010
2013
2015
2015
2015
2014
2013
2012
2011
2009
2007
2004
2002
1998
1995
1990
1986
1982
1978
1976
1974
1973
1971
1970
1970
1969
1969
1970
1970
1970
1969
1968
1967
1966
1967
1967
1967
1966
1966
1966
1967
1968
1969
1970
1970
1970
1970
1971
1971
1971
1972
1973
1974
1975
1976
1977
1978
1978
1978
1977
1977
1978
1980
1982
1983
1982
1980
1978
1977
1977
1978
1980
1981
1982
1982
1982
1982
1983
1984
1986
1988
1991
1991
1991
1988
1986
1984
1983
1984
1986
1987
1987
1987
1985
1985
1985
1987
1988
1989
1987
1983
1979
1981
1992
2019
2051
2077
2083
2062
2025
1988
1966
1964
1975
1987
1994
1994
1990
1989
1988
1989
1990
1991
1991
1992
1992
1992
1991
1991
1991
1992
1993
1994
1994
1995
1995
1995
1996
1996
1996
1997
1998
1999
2000
2001
2002
2004
2006
2009
2013
2016
2018
2019
2020
2020
2020
2020
2019
2017
2015
2012
2009
2006
2002
1997
1992
1987
1983
1979
1976
1974
1972
1971
1970
1970
1969
1968
1968
1967
1967
1967
1967
1967
1966
1965
1964
1963
1963
1963
1964
1964
1964
1964
1963
1963
1963
1963
1963
1963
1963
1964
1964
1964
1964
1964
1964
1963
1963
1963
1964
1965
1965
1966
1966
1966
1966
1965
1965
1963
1962
1961
1961
1961
1962
1962
1961
1961
1962
1963
1965
1967
1969
1970
1969
1968
1965
1962
1960
1959
1959
1960
1961
1961
1960
1959
1958
1956
1955
1954
1953
1952
1949
1946
1945
1951
1969
1997
2025
2038
2029
1999
1962
1934
1924
1930
1941
1948
1949
1947
1946
1948
1951
1952
1952
1952
1951
1950
1950
1950
1951
1953
1954
1955
1956
1956
1957
1960
1963
1968
1973
1977
1981
1984
1987
1990
1993
1996
1999
2003
2006
2010
2014
2018
2019
2020
2021
2022
2022
2023
2022
2021
2018
2015
2011
2006
2001
1996
1993
1989
1986
1983
1981
1980
1981
1982
1982
1982
1981
1980
1980
1980
1981
1982
1984
1985
1987
1989
1992
1994
1994
1994
1994
1995
1999
2003
2006
2009
2009
2008
2007
2007
2007
2009
2010
2011
2012
2011
2010
2010
2010
2010
2011
2013
2014
2014
2014
2013
2013
2013
2013
2014
2014
2013
2013
2013
2014
2014
2015
2016
2018
2020
2024
2028
2031
2032
2031
2028
2027
2027
2028
2029
2029
2028
2027
2028
2030
2032
2033
2033
2034
2034
2034
2034
2033
2033
2039
2053
2080
2109
2127
2121
2091
2049
2015
1998
2003
2020
2035
2043
2044
2042
2040
2040
2041
2042
2044
2045
2044
2043
2043
2043
2044
2043
2043
2043
2043
2044
2044
2045
2045
2045
2046
2047
2048
2048
2048
2048
2048
2048
2050
2053
2056
2058
2059
2060
2059
2060
2060
2059
2057
2055
2053
2052
2051
2049
2046
2041
2035
2029
2025
2022
2020
2019
2017
2014
2012
2009
2007
2005
2005
2005
2005
2005
2004
2003
2002
2002
2001
2001
2001
2001
2000
2000
1999
1999
1999
1998
1998
1997
1996
1995
1994
1995
1996
1998
1999
1999
1998
1997
1995
1994
1994
1995
1995
1994
1993
1991
1990
1988
1988
1989
1990
1990
1990
1988
1987
1986
1985
1985
1985
1985
1986
1988
1989
1990
1991
1991
1990
1988
1985
1983
1983
1983
1984
1985
1984
1982
1980
1979
1980
1981
1983
1984
1983
1981
1978
1975
1977
1987
2010
2039
2059
2061
2040
2001
1963
1941
1940
1953
1969
1979
1982
1980
1980
1980
1980
1980
1980
1979
1978
1978
1978
1980
1982
1984
1985
1986
1986
1985
1984
1984
1984
1985
1988
1990
1992
1992
1991
1991
1992
1995
1998
2000
2002
2004
2006
2009
2011
2012
2012
2011
2011
2011
2011
2009
2005
2000
1994
1990
1988
1986
1984
1982
1978
1975
1973
1970
1968
1966
1965
1965
1966
1967
1967
1967
1966
1966
1965
1964
1964
1963
1963
1964
1964
1965
1965
1965
1966
1966
1966
1967
1969
1971
1971
1971
1969
1968
1967
1968
1969
1971
1973
1974
1975
1975
1974
1972
1970
1970
1970
1971
1973
1973
1973
1972
1971
1970
1969
1968
1968
1968
1968
1969
1969
1969
1969
1970
1970
1971
1970
1970
1969
1969
1969
1970
1971
1972
1972
1971
1970
1969
1969
1970
1972
1973
1974
1975
1977
1979
1981
1982
1982
1980
1977
1975
1973
1973
1973
1973
1974
1974
1975
1974
1974
1974
1974
1974
1974
1973
1970
1966
1963
1966
1982
2010
2041
2060
2056
2029
1989
1956
1942
1948
1963
1975
1978
1974
1969
1968
1968
1971
1974
1975
1975
1973
1971
1970
1970
1971
1972
1973
1974
1976
1977
1977
1976
1975
1974
1975
1976
1979
1981
1984
1985
1984
1983
1983
1985
1990
1995
1998
1998
1997
1998
2001
2003
2004
2003
2000
1996
1993
1990
1989
1987
1984
1980
1975
1972
1969
1967
1966
1964
1962
1960
1958
1958
1959
1959
1959
1957
1956
1957
1959
1962
1964
1964
1962
1960
1958
1959
1960
1961
1962
1962
1963
1963
1963
1964
1963
1963
1964
1966
1970
1974
1976
1976
1975
1972
1971
1970
1971
1972
1974
1976
1977
1977
1976
1974
1973
1972
1974
1976
1977
1978
1977
1975
1973
1971
1972
1974
1975
1975
1974
1972
1971
1972
1974
1975
1975
1973
1972
1973
1974
1976
1976
1975
1974
1972
1971
1970
1970
1972
1975
1977
1980
1981
1981
1981
1981
1982
1982
1982
1981
1979
1977
1975
1974
1975
1976
1978
1978
1978
1977
1978
1978
1978
1977
1974
1971
1971
1979
2000
2030
2056
2066
2050
2016
1977
1951
1946
1957
1973
1983
1986
1983
1980
1978
1978
1979
1981
1982
1983
1981
1979
1979
1980
1983
1985
1986
1986
1986
1986
1987
1988
1988
1988
1988
1988
1989
1991
1993
1996
1999
2001
2003
2005
2007
2009
2011
2014
2017
2019
2020
2021
2021
2019
2017
2014
2011
2009
2006
2004
2001
1998
1995
1991
1988
1985
1982
1980
1979
1979
1980
1980
1979
1978
1978
1978
1978
1977
1977
1978
1979
1980
1980
1979
1979
1978
1979
1980
1981
1981
1980
1980
1980
1981
1981
1981
1981
1981
1982
1983
1983
1984
1983
1983
1982
1983
1983
1983
1984
1984
1984
1985
1985
1985
1984
1983
1983
1983
1983
1984
1985
1985
1986
1985
1984
1983
1982
1982
1983
1984
1985
1984
1983
1981
1979
1978
1977
1977
1978
1980
1982
1984
1986
1987
1987
1987
1986
1985
1983
1982
1982
1982
1982
1982
1981
1981
1980
1980
1980
1980
1982
1983
1983
1983
1981
1977
1975
1979
1996
2024
2053
2070
2063
2033
1989
1953
1936
1941
1958
1975
1984
1986
1985
1984
1984
1983
1983
1983
1983
1984
1985
1986
1987
1988
1988
1987
1986
1986
1987
1989
1990
1992
1992
1992
1993
1993
1994
1995
1996
1999
2002
2005
2007
2008
2010
2012
2014
2017
2019
2021
2021
2021
2020
2018
2016
2014
2012
2009
2005
2001
1995
1990
1986
1983
1980
1977
1975
1974
1973
1973
1973
1972
1972
1971
1971
1970
1970
1970
1970
1970
1971
1971
1970
1969
1968
1968
1969
1970
1971
1971
1970
1970
1969
1969
1970
1970
1970
1970
1970
1971
1972
1973
1973
1972
1971
1970
1969
1969
1970
1971
1972
1972
1972
1972
1972
1971
1970
1970
1970
1970
1970
1971
1971
1970
1970
1970
1970
1970
1970
1971
1972
1972
1972
1971
1971
1970
1971
1971
1972
1973
1973
1973
1973
1972
1971
1970
1970
1971
1971
1971
1970
1970
1970
1972
1974
1976
1977
1977
1978
1978
1978
1978
1977
1975
1973
1972
1972
1972
1973
1973
1973
1973
1973
1973
1974
1974
1973
1971
1968
1966
1969
1984
2011
2042
2061
2059
2034
1995
1960
1943
1945
1958
1971
1978
1977
1975
1973
1973
1974
1976
1977
1978
1977
1976
1975
1975
1975
1976
1978
1980
1981
1982
1982
1982
1982
1982
1983
1984
1985
1986
1987
1989
1991
1993
1996
1998
2000
2002
2003
2005
2008
2010
2011
2012
2012
2011
2010
2010
2009
2007
2005
2001
1996
1992
1987
1983
1979
1976
1974
1973
1973
1972
1972
1970
1969
1968
1968
1968
1968
1968
1968
1969
1969
1969
1969
1969
1969
1969
1969
1970
1970
1970
1970
1970
1970
1970
1970
1971
1971
1971
1971
1971
1971
1971
1972
1972
1973
1974
1974
1974
1974
1974
1974
1975
1975
1974
1973
1972
1972
1973
1975
1976
1977
1977
1976
1974
1974
1974
1974
1975
1976
1976
1976
1975
1975
1976
1976
1975
1975
1975
1976
1976
1977
1977
1977
1977
1976
1976
1975
1976
1977
1978
1978
1978
1977
1976
1976
1976
1976
1977
1976
1975
1974
1974
1974
1975
1977
1980
1983
1985
1985
1984
1981
1980
1979
1980
1980
1980
1979
1979
1978
1978
1978
1978
1978
1978
1978
1978
1979
1979
1977
1974
1971
1974
1989
2015
2046
2065
2063
2038
2001
1968
1951
1953
1964
1975
1980
1980
1979
1978
1979
1979
1980
1980
1979
1979
1980
1981
1983
1984
1984
1984
1983
1983
1983
1984
1985
1985
1985
1986
1988
1991
1993
1994
1994
1994
1995
1997
1999
2003
2007
2011
2014
2015
2014
2014
2014
2015
2015
2016
2016
2015
2013
2010
2005
1999
1994
1990
1988
1986
1984
1981
1979
1977
1976
1975
1974
1973
1973
1974
1974
1975
1974
1974
1973
1972
1972
1973
1974
1975
1975
1975
1974
1973
1973
1974
1974
1974
1974
1973
1973
1974
1976
1978
1978
1977
1976
1975
1975
1976
1978
1979
1979
1979
1979
1978
1978
1978
1978
1978
1978
1978
1979
1979
1978
1977
1977
1977
1979
1981
1982
1982
1982
1980
1980
1979
1979
1979
1979
1979
1980
1981
1982
1982
1982
1982
1982
1982
1981
1981
1982
1983
1983
1984
1983
1982
1981
1981
1982
1983
1985
1985
1985
1983
1982
1982
1981
1981
1981
1982
1984
1987
1989
1989
1989
1989
1988
1989
1988
1987
1986
1985
1985
1985
1984
1984
1984
1984
1984
1984
1984
1984
1984
1983
1983
1981
1978
1978
1987
2010
2040
2066
2074
2056
2019
1978
1951
1945
1956
1973
1984
1988
1986
1984
1984
1983
1984
1984
1985
1986
1987
1987
1988
1988
1988
1988
1989
1989
1990
1991
1991
1991
1992
1992
1993
1994
1995
1997
1998
2000
2001
2002
2005
2007
2010
2012
2014
2016
2018
2020
2022
2023
2023
2022
2020
2019
2017
2015
2012
2008
2003
1998
1994
1991
1987
1984
1981
1979
1977
1977
1976
1976
1976
1976
1975
1975
1975
1974
1975
1975
1976
1976
1976
1976
1976
1976
1976
1976
1976
1976
1976
1976
1976
1976
1977
1977
1977
1977
1976
1976
1977
1979
1981
1981
1980
1979
1978
1977
1977
1978
1980
1981
1982
1981
1980
1978
1977
1977
1978
1979
1980
1981
1980
1980
1979
1979
1979
1979
1979
1979
1979
1980
1980
1979
1978
1977
1977
1977
1978
1978
1979
1979
1980
1979
1979
1978
1977
1976
1975
1975
1975
1975
1976
1978
1980
1981
1981
1982
1982
1983
1983
1982
1980
1978
1976
1976
1976
1976
1976
1976
1975
1975
1975
1975
1975
1975
1975
1974
1972
1970
1971
1980
2004
2034
2058
2063
2044
2005
1965
1940
1936
1948
1963
1973
1977
1975
1974
1974
1974
1974
1975
1976
1976
1977
1977
1976
1976
1977
1978
1980
1982
1983
1983
1983
1982
1982
1982
1984
1986
1988
1990
1991
1992
1993
1994
1996
1998
2001
2004
2007
2010
2013
2014
2015
2015
2014
2013
2012
2010
2008
2006
2002
1997
1993
1988
1984
1980
1977
1974
1973
1972
1971
1970
1969
1967
1966
1966
1967
1967
1968
1968
1967
1967
1967
1966
1966
1967
1968
1968
1969
1968
1968
1967
1966
1967
1967
1967
1968
1968
1969
1969
1969
1969
1969
1969
1970
1971
1971
1972
1972
1973
1973
1973
1972
1970
1970
1970
1971
1973
1974
1974
1974
1973
1972
1971
1970
1970
1970
1970
1970
1971
1973
1973
1973
1973
1972
1972
1972
1973
1973
1974
1973
1973
1972
1972
1972
1973
1974
1974
1975
1975
1975
1973
1972
1971
1971
1972
1973
1975
1975
1975
1974
1972
1972
1972
1973
1975
1977
1978
1980
1981
1982
1982
1982
1981
1979
1978
1977
1977
1977
1978
1978
1978
1978
1978
1977
1976
1976
1976
1977
1977
1977
1974
1971
1975
1991
2019
2049
2068
2063
2035
1995
1962
1948
1952
1965
1977
1981
1979
1976
1976
1977
1978
1979
1979
1978
1978
1978
1978
1979
1980
1981
1982
1982
1982
1981
1981
1981
1983
1985
1987
1987
1988
1988
1989
1991
1993
1994
1996
1998
2000
2003
2006
2009
2010
2011
2012
2013
2013
2014
2014
2013
2011
2009
2006
2002
1997
1993
1989
1986
1984
1983
1981
1978
1975
1973
1972
1972
1972
1972
1972
1972
1973
1973
1972
1971
1971
1971
1972
1973
1973
1973
1972
1972
1972
1973
1973
1973
1972
1973
1974
1975
1976
1976
1975
1973
1972
1973
1975
1976
1977
1976
1976
1976
1975
1975
1975
1975
1975
1976
1977
1978
1978
1977
1976
1976
1976
1977
1978
1978
1978
1978
1977
1976
1976
1977
1977
1977
1977
1977
1978
1978
1978
1977
1976
1975
1975
1976
1976
1977
1977
1976
1976
1975
1975
1976
1977
1978
1979
1980
1979
1978
1977
1976
1975
1975
1976
1977
1980
1982
1985
1986
1986
1985
1984
1982
1981
1979
1979
1980
1981
1980
1980
1978
1977
1977
1977
1979
1980
1981
1982
1982
1980
1977
1974
1975
1985
2008
2039
2063
2069
2050
2014
1976
1951
1946
1956
1970
1979
1982
1981
1981
1980
1980
1979
1979
1980
1980
1981
1982
1983
1984
1985
1986
1985
1984
1983
1983
1984
1986
1989
1990
1991
1991
1991
1992
1994
1996
1999
2001
2003
2005
2008
2010
2012
2013
2015
2017
2020
2022
2023
2022
2020
2018
2015
2013
2010
2006
2002
1998
1994
1991
1987
1984
1980
1978
1976
1975
1975
1975
1976
1976
1975
1974
1974
1973
1972
1972
1973
1973
1975
1976
1977
1976
1975
1974
1973
1973
1975
1976
1978
1978
1978
1977
1977
1977
1977
1977
1978
1978
1979
1981
1982
1981
1980
1979
1978
1979
1980
1982
1983
1983
1982
1981
1981
1981
1981
1982
1982
1983
1983
1983
1983
1982
1981
1980
1980
1980
1981
1983
1984
1985
1985
1985
1984
1983
1982
1981
1981
1982
1983
1985
1987
1989
1989
1989
1988
1987
1986
1986
1987
1987
1987
1986
1985
1985
1984
1984
1984
1984
1984
1984
1985
1985
1986
1985
1983
1980
1980
1987
2008
2039
2067
2078
2062
2024
1977
1944
1935
1947
1966
1981
1987
1986
1984
1984
1984
1985
1985
1985
1986
1988
1989
1989
1989
1989
1988
1989
1989
1990
1990
1991
1992
1993
1994
1996
1996
1997
1997
1999
2001
2003
2006
2007
2009
2010
2012
2015
2018
2021
2024
2025
2025
2024
2023
2022
2021
2019
2017
2013
2009
2004
2000
1995
1990
1985
1981
1979
1978
1977
1976
1975
1974
1974
1973
1972
1972
1972
1973
1974
1975
1975
1975
1973
1972
1970
1970
1970
1972
1973
1974
1973
1971
1970
1969
1969
1969
1970
1970
1969
1970
1970
1970
1970
1970
1971
1971
1972
1972
1972
1972
1973
1973
1973
1973
1972
1971
1971
1972
1973
1974
1974
1975
1974
1973
1971
1970
1970
1971
1973
1974
1974
1974
1973
1973
1973
1973
1973
1973
1974
1974
1975
1975
1974
1973
1972
1971
1971
1971
1971
1973
1975
1978
1979
1980
1979
1978
1978
1978
1978
1977
1976
1975
1975
1975
1976
1976
1975
1974
1974
1975
1976
1977
1977
1976
1974
1971
1968
1969
1978
2000
2032
2058
2068
2051
2015
1975
1949
1943
1953
1968
1977
1979
1976
1974
1973
1974
1974
1974
1975
1975
1976
1977
1977
1976
1976
1976
1976
1977
1979
1980
1981
1982
1983
1982
1982
1982
1983
1985
1987
1989
1991
1992
1994
1997
2000
2003
2007
2009
2011
2012
2013
2013
2014
2013
2013
2011
2009
2006
2003
1999
1995
1991
1987
1984
1981
1978
1976
1974
1973
1973
1973
1973
1972
1972
1971
1971
1972
1972
1972
1972
1972
1972
1973
1973
1973
1973
1973
1973
1973
1973
1974
1975
1975
1975
1974
1974
1975
1975
1975
1975
1975
1975
1975
1974
1974
1973
1973
1974
1975
1975
1976
1975
1973
1972
1971
1971
1972
1973
1974
1974
1974
1974
1974
1974
1973
1972
1972
1971
1972
1973
1974
1976
1976
1977
1976
1976
1975
1975
1976
1977
1977
1976
1976
1975
1974
1975
1975
1975
1974
1973
1972
1972
1973
1975
1977
1979
1981
1982
1983
1983
1983
1982
1981
1979
1977
1976
1976
1977
1977
1977
1977
1976
1975
1973
1972
1972
1973
1973
1973
1972
1970
1968
1971
1985
2009
2036
2053
2049
2025
1988
1956
1940
1942
1955
1967
1973
1974
1973
1973
1974
1975
1976
1976
1976
1975
1976
1977
1978
1979
1981
1981
1982
1982
1982
1982
1982
1983
1984
1985
1986
1987
1989
1991
1992
1993
1993
1994
1996
1998
2001
2004
2006
2008
2010
2011
2013
2014
2015
2015
2014
2013
2011
2008
2005
2001
1997
1993
1989
1987
1984
1982
1980
1978
1976
1974
1974
1974
1975
1976
1976
1975
1974
1974
1974
1975
1976
1976
1976
1976
1975
1976
1976
1977
1977
1977
1977
1976
1977
1978
1980
1980
1981
1980
1980
1980
1980
1981
1982
1983
1983
1983
1983
1983
1984
1985
1985
1985
1985
1985
1986
1987
1988
1988
1988
1987
1986
1986
1988
1989
1990
1990
1990
1988
1987
1986
1987
1988
1988
1988
1988
1987
1988
1988
1990
1991
1993
1995
1996
1998
1999
1999
1999
1997
1995
1993
1992
1991
1991
1991
1991
1992
1992
1991
1991
1990
1990
1991
1991
1991
1991
1989
1987
1989
2001
2024
2052
2072
2071
2046
2006
1969
1949
1949
1964
1979
1988
1991
1990
1991
1992
1993
1994
1994
1993
1992
1992
1993
1994
1995
1995
1995
1994
1994
1994
1994
1995
1996
1997
1998
1999
2000
2000
2001
2002
2003
2005
2007
2010
2013
2016
2019
2021
2022
2023
2025
2026
2028
2029
2029
2028
2026
2022
2018
2013
2009
2005
2001
1997
1994
1991
1988
1985
1983
1980
1979
1977
1977
1977
1977
1977
1977
1977
1976
1975
1975
1974
1974
1974
1975
1975
1976
1975
1974
1973
1971
1970
1970
1970
1971
1972
1972
1972
1972
1971
1970
1970
1970
1971
1972
1973
1974
1974
1974
1973
1972
1972
1972
1973
1973
1973
1973
1973
1972
1972
1972
1972
1972
1973
1973
1974
1974
1974
1973
1972
1971
1971
1971
1971
1971
1970
1969
1968
1969
1970
1971
1973
1974
1975
1976
1977
1977
1977
1976
1974
1972
1972
1971
1972
1972
1972
1972
1972
1972
1972
1972
1972
1973
1974
1974
1973
1970
1967
1968
1979
2003
2034
2056
2060
2040
2003
1967
1947
1946
1958
1972
1980
1982
1981
1980
1981
1981
1982
1983
1983
1984
1984
1985
1986
1987
1987
1988
1988
1987
1987
1987
1987
1988
1989
1990
1991
1992
1992
1992
1992
1993
1994
1996
1999
2002
2004
2007
2009
2011
2012
2012
2013
2013
2013
2013
2012
2011
2008
2003
1998
1992
1987
1983
1979
1976
1973
1971
1968
1966
1963
1961
1960
1960
1960
1961
1961
1960
1960
1959
1958
1957
1957
1957
1957
1957
1957
1957
1957
1957
1956
1955
1955
1955
1956
1956
1957
1957
1956
1956
1956
1956
1956
1956
1957
1957
1958
1958
1958
1957
1957
1957
1957
1958
1958
1958
1958
1959
1959
1958
1958
1957
1956
1956
1956
1957
1956
1956
1956
1956
1956
1956
1955
1955
1954
1952
1952
1952
1952
1953
1955
1956
1957
1958
1959
1959
1959
1958
1957
1956
1955
1954
1953
1952
1952
1952
1952
1953
1953
1952
1952
1951
1952
1952
1952
1950
1946
1944
1947
1960
1986
2016
2036
2035
2012
1975
1943
1927
1928
1939
1950
1955
1954
1953
1953
1954
1956
1957
1957
1957
1957
1957
1958
1958
1959
1959
1959
1960
1960
1962
1963
1963
1964
1965
1966
1967
1969
1971
1973
1975
1977
1979
1981
1984
1988
1992
1995
1999
2001
2003
2004
2005
2005
2006
2006
2006
2006
2004
2002
1998
1994
1989
1984
1980
1978
1976
1975
1974
1973
1972
1971
1970
1968
1967
1967
1967
1969
1970
1971
1971
1970
1970
1969
1967
1967
1967
1968
1970
1971
1972
1971
1969
1969
1969
1971
1973
1975
1976
1977
1977
1977
1977
1976
1976
1976
1977
1978
1978
1978
1978
1978
1979
1981
1983
1985
1986
1986
1986
1984
1983
1983
1983
1984
1985
1985
1987
1988
1988
1989
1990
1992
1993
1992
1991
1989
1988
1990
1994
1998
2001
2005
2007
2009
2011
2011
2011
2010
2010
2011
2013
2015
2017
2019
2021
2022
2024
2025
2026
2027
2027
2027
2028
2028
2028
2027
2025
2022
2023
2031
2050
2076
2097
2102
2084
2051
2017
1995
1990
1998
2009
2014
2014
2010
2007
2004
2001
1999
1996
1992
1990
1989
1988
1986
1984
1980
1977
1974
1974
1976
1978
1981
1981
1982
1981
1981
1982
1985
1988
1990
1993
1994
1996
1998
2002
2007
2012
2016
2018
2019
2019
2019
2020
2022
2023
2023
2022
2020
2017
2013
2010
2007
2003
2000
1998
1995
1993
1992
1992
1992
1992
1992
1991
1990
1989
1988
1989
1991
1992
1994
1994
1993
1992
1992
1994
1997
2000
2002
2002
2002
2003
2004
2005
2006
2006
2006
2008
2010
2013
2015
2015
2014
2012
2012
2014
2017
2021
2024
2025
2024
2023
2021
2020
2021
2022
2023
2024
2024
2024
2024
2024
2025
2025
2025
2022
2020
2019
2020
2021
2022
2021
2019
2017
2015
2016
2019
2024
2027
2029
2029
2027
2024
2022
2020
2020
2019
2019
2020
2021
2021
2020
2019
2018
2016
2016
2016
2017
2018
2019
2019
2017
2014
2010
2010
2021
2046
2079
2107
2113
2090
2046
1999
1969
1963
1976
1995
2010
2016
2016
2015
2014
2013
2013
2013
2013
2013
2014
2015
2015
2016
2015
2014
2012
2012
2013
2015
2017
2018
2019
2020
2020
2020
2020
2020
2021
2022
2024
2025
2028
2030
2032
2033
2034
2036
2038
2040
2042
2043
2043
2041
2039
2036
2032
2028
2023
2018
2013
2009
2004
2000
1995
1991
1988
1986
1984
1983
1982
1981
1980
1980
1980
1980
1980
1980
1980
1981
1981
1981
1981
1981
1980
1979
1979
1979
1979
1980
1980
1981
1982
1982
1983
1982
1981
1981
1981
1982
1984
1985
1984
1983
1982
1981
1981
1981
1982
1983
1983
1983
1982
1981
1980
1980
1980
1980
1979
1979
1980
1980
1981
1980
1978
1977
1975
1974
1974
1974
1976
1977
1979
1980
1981
1980
1979
1978
1977
1977
1976
1975
1974
1973
1973
1973
1972
1972
1972
1972
1972
1972
1972
1972
1972
1972
1970
1966
1963
1964
1976
2003
2037
2062
2067
2045
2005
1965
1942
1940
1953
1969
1978
1979
1976
1974
1973
1973
1974
1974
1976
1977
1978
1979
1979
1979
1979
1978
1978
1978
1978
1979
1979
1980
1981
1981
1981
1981
1982
1983
1986
1988
1991
1992
1993
1994
1995
1996
1999
2002
2005
2006
2007
2007
2005
2003
2001
1999
1997
1994
1991
1986
1981
1975
1970
1964
1960
1957
1956
1957
1957
1957
1956
1954
1953
1954
1955
1956
1956
1956
1956
1957
1958
1959
1959
1959
1958
1957
1958
1960
1962
1964
1965
1965
1964
1964
1964
1964
1964
1964
1965
1966
1968
1969
1968
1967
1966
1965
1965
1967
1969
1970
1970
1970
1970
1969
1968
1968
1967
1968
1970
1972
1974
1974
1973
1972
1971
1970
1970
1970
1970
1971
1972
1972
1972
1971
1969
1967
1966
1965
1966
1968
1970
1973
1975
1976
1975
1974
1972
1972
1971
1971
1970
1969
1969
1968
1967
1967
1967
1969
1970
1971
1972
1972
1971
1970
1970
1968
1965
1961
1963
1976
2003
2035
2058
2060
2039
2003
1970
1952
1952
1961
1969
1972
1970
1967
1967
1968
1969
1969
1970
1970
1970
1970
1970
1970
1970
1971
1972
1974
1975
1974
1973
1973
1974
1975
1977
1979
1979
1980
1981
1983
1985
1986
1988
1989
1990
1992
1994
1997
2000
2003
2006
2008
2008
2007
2005
2002
2000
1998
1996
1995
1992
1988
1983
1978
1974
1970
1968
1967
1966
1966
1965
1965
1965
1965
1964
1964
1964
1964
1965
1966
1966
1966
1965
1964
1963
1964
1964
1965
1966
1967
1967
1967
1968
1968
1967
1967
1967
1967
1968
1969
1970
1970
1970
1968
1968
1968
1968
1969
1971
1971
1971
1970
1969
1968
1968
1970
1971
1973
1973
1972
1971
1971
1971
1971
1971
1971
1970
1970
1971
1971
1970
1969
1969
1970
1972
1974
1976
1977
1977
1977
1976
1977
1977
1977
1977
1975
1973
1972
1971
1972
1974
1975
1975
1974
1972
1971
1972
1973
1974
1973
1970
1968
1973
1989
2016
2043
2057
2050
2023
1985
1956
1944
1949
1962
1973
1978
1977
1974
1973
1973
1974
1976
1978
1978
1977
1975
1975
1976
1978
1980
1982
1981
1981
1980
1980
1981
1982
1983
1985
1986
1987
1988
1989
1991
1992
1994
1997
1999
2001
2003
2005
2007
2010
2012
2014
2014
2014
2014
2014
2014
2013
2010
2005
2000
1996
1992
1990
1988
1985
1982
1979
1976
1974
1973
1973
1972
1972
1971
1971
1970
1970
1970
1969
1969
1969
1969
1969
1969
1970
1971
1972
1973
1972
1970
1969
1968
1968
1969
1970
1970
1970
1969
1969
1970
1970
1970
1971
1971
1972
1972
1971
1971
1971
1971
1971
1971
1971
1971
1972
1973
1973
1973
1971
1970
1970
1971
1972
1972
1972
1972
1972
1972
1972
1970
1968
1967
1967
1970
1973
1976
1978
1978
1978
1977
1976
1975
1974
1974
1973
1974
1974
1974
1974
1974
1973
1972
1972
1971
1971
1973
1974
1975
1974
1972
1968
1967
1972
1989
2017
2046
2059
2050
2018
1978
1946
1935
1942
1958
1971
1978
1978
1977
1976
1975
1975
1975
1976
1976
1977
1978
1980
1980
1980
1980
1979
1979
1981
1982
1984
1985
1985
1986
1987
1987
1987
1987
1987
1989
1992
1995
1997
2000
2001
2002
2004
2006
2009
2011
2013
2014
2014
2013
2012
2010
2008
2006
2002
1999
1995
1991
1988
1985
1981
1978
1974
1972
1970
1970
1970
1970
1971
1972
1972
1971
1970
1969
1969
1970
1970
1971
1971
1972
1972
1972
1972
1972
1972
1972
1972
1973
1974
1975
1975
1975
1974
1974
1974
1975
1975
1975
1976
1976
1977
1976
1976
1975
1975
1976
1977
1977
1977
1976
1975
1975
1975
1976
1976
1976
1976
1975
1974
1973
1974
1975
1976
1977
1978
1979
1980
1981
1981
1981
1980
1980
1978
1977
1975
1974
1975
1976
1978
1979
1978
1976
1974
1973
1973
1974
1976
1976
1974
1972
1975
1989
2015
2044
2061
2056
2027
1984
1946
1929
1932
1948
1964
1973
1975
1974
1974
1975
1976
1976
1976
1976
1976
1976
1976
1977
1979
1980
1981
1981
1981
1980
1980
1979
1980
1981
1984
1986
1988
1989
1989
1989
1991
1992
1994
1996
1999
2001
2005
2008
2010
2012
2012
2011
2011
2011
2011
2010
2007
2004
2000
1996
1991
1986
1982
1978
1976
1974
1971
1968
1965
1962
1960
1959
1960
1961
1962
1962
1961
1960
1959
1959
1959
1960
1960
1961
1962
1962
1962
1961
1960
1959
1958
1959
1961
1962
1963
1964
1964
1965
1965
1964
1964
1962
1961
1961
1963
1965
1967
1967
1967
1965
1963
1962
1962
1964
1965
1966
1966
1965
1964
1964
1963
1963
1962
1962
1961
1960
1961
1963
1965
1968
1969
1970
1970
1969
1969
1969
1970
1969
1967
1966
1965
1965
1966
1966
1966
1966
1966
1966
1966
1966
1966
1966
1967
1966
1964
1961
1961
1970
1991
2020
2045
2050
2034
2001
1966
1945
1942
1952
1963
1969
1970
1967
1966
1966
1967
1967
1968
1968
1968
1968
1968
1968
1969
1969
1971
1972
1973
1973
1973
1972
1972
1973
1974
1976
1978
1979
1980
1981
1982
1984
1986
1987
1989
1991
1993
1996
1999
2001
2002
2002
2001
2001
2001
2001
2001
1998
1995
1991
1987
1983
1980
1976
1973
1970
1968
1967
1966
1965
1964
1963
1962
1961
1962
1962
1962
1963
1962
1963
1963
1962
1962
1961
1961
1962
1963
1965
1966
1966
1965
1964
1963
1963
1964
1965
1967
1967
1968
1967
1966
1965
1965
1965
1965
1966
1966
1967
1968
1969
1969
1969
1969
1968
1967
1967
1966
1966
1966
1966
1966
1965
1965
1967
1969
1971
1973
1974
1974
1974
1974
1973
1972
1971
1970
1970
1970
1970
1970
1971
1971
1972
1971
1970
1969
1970
1970
1971
1971
1968
1965
1966
1976
1998
2026
2048
2050
2031
1996
1962
1942
1940
1951
1965
1973
1975
1973
1972
1973
1973
1974
1974
1974
1974
1974
1974
1974
1975
1976
1977
1977
1977
1977
1977
1978
1979
1980
1981
1982
1982
1983
1984
1984
1986
1987
1990
1993
1996
1998
2000
2001
2003
2004
2006
2008
2009
2010
2010
2009
2006
2002
1998
1993
1988
1984
1982
1980
1979
1977
1974
1971
1969
1968
1967
1967
1967
1967
1967
1968
1969
1969
1969
1968
1968
1967
1968
1969
1971
1973
1974
1974
1973
1972
1972
1973
1974
1975
1976
1977
1977
1977
1977
1976
1975
1975
1976
1977
1977
1977
1976
1976
1976
1977
1979
1981
1983
1984
1985
1984
1983
1982
1980
1977
1976
1975
1976
1978
1980
1982
1984
1985
1985
1984
1982
1981
1981
1981
1981
1981
1979
1977
1975
1974
1974
1974
1974
1974
1974
1974
1974
1974
1973
1972
1970
1970
1979
1998
2024
2045
2049
2033
2000
1968
1949
1947
1957
1970
1978
1981
1981
1980
1979
1977
1977
1978
1980
1983
1986
1986
1985
1984
1983
1982
1982
1983
1984
1985
1985
1986
1987
1988
1988
1988
1989
1989
1990
1992
1994
1996
1998
2001
2003
2005
2007
2008
2009
2010
2010
2011
2011
2012
2011
2010
2007
2004
2001
1997
1993
1989
1985
1981
1978
1976
1974
1973
1971
1971
1970
1970
1970
1971
1972
1972
1971
1970
1968
1967
1966
1965
1966
1967
1968
1969
1969
1969
1968
1968
1968
1969
1969
1969
1968
1968
1967
1967
1968
1968
1967
1967
1967
1967
1968
1968
1968
1967
1967
1968
1970
1971
1971
1970
1968
1967
1967
1968
1968
1968
1968
1968
1970
1972
1973
1974
1974
1975
1976
1977
1977
1975
1973
1971
1970
1970
1971
1972
1972
1972
1972
1972
1971
1971
1971
1972
1972
1972
1971
1969
1969
1973
1988
2011
2035
2048
2043
2018
1984
1956
1943
1946
1958
1969
1976
1978
1978
1979
1980
1981
1982
1983
1983
1983
1983
1983
1983
1984
1985
1986
1987
1988
1989
1989
1990
1991
1993
1994
1995
1997
1999
2002
2003
2004
2005
2006
2008
2010
2014
2017
2020
2022
2023
2024
2023
2023
2022
2021
2021
2020
2018
2016
2012
2008
2004
2001
1998
1996
1995
1993
1991
1990
1989
1988
1988
1987
1987
1987
1987
1987
1989
1989
1989
1989
1988
1987
1987
1987
1986
1986
1986
1986
1987
1987
1987
1985
1983
1982
1983
1986
1988
1989
1989
1989
1988
1987
1987
1986
1987
1988
1990
1991
1991
1990
1988
1986
1985
1984
1984
1985
1986
1988
1989
1990
1990
1990
1989
1989
1989
1989
1988
1987
1985
1983
1981
1980
1979
1979
1979
1980
1981
1983
1983
1983
1981
1978
1974
1971
1973
1986
2010
2040
2059
2058
2034
1994
1956
1935
1934
1948
1964
1974
1978
1977
1975
1974
1972
1972
1972
1973
1974
1975
1976
1976
1977
1976
1976
1976
1975
1975
1975
1976
1977
1978
1979
1979
1980
1982
1983
1985
1987
1988
1990
1991
1993
1995
1998
2001
2003
2006
2007
2008
2008
2007
2005
2003
2000
1997
1994
1990
1986
1981
1977
1973
1970
1968
1967
1965
1963
1962
1961
1961
1962
1962
1962
1961
1960
1959
1959
1960
1961
1962
1962
1962
1961
1961
1961
1961
1962
1963
1963
1963
1964
1964
1965
1965
1966
1965
1964
1964
1964
1965
1967
1967
1967
1967
1967
1967
1967
1967
1966
1965
1965
1965
1966
1967
1968
1970
1971
1973
1974
1975
1975
1975
1973
1971
1970
1969
1969
1971
1972
1972
1971
1969
1968
1968
1969
1970
1970
1971
1970
1967
1965
1965
1973
1995
2025
2050
2059
2045
2011
1974
1949
1945
1955
1968
1976
1978
1976
1975
1975
1975
1976
1976
1976
1976
1976
1977
1978
1980
1981
1982
1982
1982
1982
1982
1983
1984
1985
1986
1988
1989
1990
1991
1992
1993
1994
1997
2000
2004
2007
2009
2010
2011
2013
2015
2016
2016
2016
2014
2013
2011
2010
2008
2004
2000
1995
1990
1987
1984
1982
1980
1979
1978
1977
1976
1976
1976
1977
1977
1978
1978
1978
1977
1976
1976
1976
1976
1978
1980
1982
1982
1981
1980
1978
1978
1978
1980
1981
1982
1982
1982
1982
1982
1982
1983
1983
1984
1984
1985
1985
1986
1986
1986
1985
1985
1984
1984
1983
1983
1983
1982
1982
1981
1981
1982
1983
1985
1986
1987
1989
1990
1992
1993
1993
1992
1990
1989
1987
1986
1986
1985
1985
1985
1985
1985
1984
1984
1984
1985
1986
1985
1984
1980
1977
1978
1990
2016
2046
2066
2066
2043
2006
1973
1956
1957
1970
1982
1987
1986
1983
1982
1982
1983
1983
1983
1983
1984
1984
1985
1985
1985
1986
1986
1986
1986
1987
1988
1988
1989
1991
1992
1994
1994
1994
1995
1996
1998
2000
2003
2006
2008
2010
2011
2013
2014
2016
2017
2018
2019
2019
2019
2017
2015
2011
2008
2004
2001
1998
1996
1993
1991
1988
1985
1983
1981
1981
1982
1983
1985
1986
1987
1988
1987
1987
1987
1987
1987
1988
1990
1992
1993
1995
1995
1994
1994
1994
1995
1996
1998
1999
2000
2000
2000
2000
2000
2001
2003
2004
2005
2006
2006
2006
2006
2006
2006
2005
2005
2005
2006
2006
2006
2004
2003
2003
2003
2004
2005
2006
2006
2006
2006
2007
2009
2010
2010
2010
2010
2010
2010
2009
2007
2006
2004
2003
2002
2002
2002
2001
2000
2000
2000
2001
2002
2003
2002
1999
1995
1993
1997
2011
2036
2062
2079
2075
2050
2015
1985
1972
1975
1988
1999
2003
2002
1999
1997
1996
1996
1996
1997
1998
1999
1999
1999
1999
1998
1998
1998
1998
1998
1998
1998
1999
1999
2000
2000
2001
2001
2003
2005
2008
2010
2012
2013
2014
2016
2018
2020
2022
2024
2025
2026
2026
2026
2025
2024
2021
2018
2015
2013
2010
2008
2004
1999
1995
1991
1988
1986
1985
1983
1982
1981
1982
1982
1982
1982
1981
1981
1982
1982
1983
1983
1982
1982
1982
1983
1984
1984
1984
1985
1986
1987
1988
1988
1988
1987
1987
1987
1988
1989
1990
1990
1990
1990
1990
1990
1990
1990
1990
1990
1990
1990
1990
1990
1990
1989
1989
1988
1988
1988
1989
1988
1988
1987
1987
1986
1985
1986
1987
1989
1991
1992
1994
1994
1995
1994
1992
1991
1990
1989
1989
1989
1989
1989
1988
1988
1987
1986
1987
1987
1989
1990
1990
1988
1984
1980
1980
1990
2012
2039
2058
2060
2041
2008
1976
1959
1959
1970
1981
1987
1987
1985
1983
1982
1982
1982
1982
1982
1983
1984
1984
1985
1986
1986
1985
1984
1984
1984
1985
1986
1987
1988
1988
1989
1991
1992
1993
1994
1996
1997
2000
2002
2005
2007
2008
2009
2009
2009
2010
2012
2013
2014
2013
2011
2008
2005
2002
1999
1996
1994
1990
1987
1983
1978
1975
1973
1971
1970
1969
1968
1968
1968
1969
1970
1970
1968
1966
1965
1965
1967
1970
1971
1971
1970
1968
1967
1967
1967
1968
1970
1971
1972
1973
1973
1972
1971
1970
1971
1972
1973
1974
1974
1974
1973
1972
1971
1971
1972
1972
1973
1974
1975
1975
1975
1975
1975
1975
1974
1973
1973
1975
1977
1980
1983
1984
1984
1984
1984
1984
1984
1984
1983
1982
1981
1979
1978
1977
1978
1979
1981
1982
1982
1982
1981
1980
1978
1975
1972
1971
1976
1989
2013
2040
2057
2054
2029
1990
1955
1938
1942
1958
1975
1984
1986
1985
1984
1985
1986
1987
1987
1987
1988
1989
1990
1990
1990
1990
1990
1992
1994
1996
1998
1999
2000
2001
2001
2002
2003
2004
2005
2007
2009
2011
2013
2016
2018
2021
2023
2024
2025
2025
2026
2026
2027
2026
2024
2022
2019
2016
2014
2010
2006
2000
1994
1990
1986
1984
1982
1981
1979
1978
1976
1975
1974
1974
1975
1976
1976
1975
1974
1974
1974
1974
1974
1974
1973
1972
1973
1973
1974
1975
1975
1975
1975
1975
1975
1975
1975
1975
1976
1977
1977
1977
1976
1975
1975
1976
1976
1977
1977
1977
1977
1977
1977
1975
1974
1972
1972
1973
1975
1978
1980
1981
1981
1981
1981
1980
1980
1979
1979
1978
1977
1976
1976
1975
1976
1976
1976
1976
1976
1976
1976
1977
1977
1976
1973
1971
1974
1987
2011
2040
2058
2056
2029
1987
1950
1932
1935
1952
1968
1977
1978
1975
1974
1974
1975
1976
1977
1977
1978
1979
1979
1980
1980
1979
1979
1979
1979
1981
1983
1983
1984
1984
1984
1985
1986
1987
1989
1990
1992
1995
1999
2002
2004
2005
2006
2007
2010
2012
2014
2015
2015
2013
2012
2010
2007
2004
2001
1997
1994
1990
1987
1983
1979
1976
1974
1972
1971
1971
1971
1971
1970
1969
1969
1969
1969
1970
1971
1972
1972
1972
1972
1972
1971
1971
1970
1970
1970
1970
1971
1972
1972
1973
1972
1972
1971
1971
1971
1972
1973
1974
1974
1974
1974
1974
1973
1973
1972
1972
1972
1972
1972
1971
1971
1971
1971
1972
1973
1975
1977
1979
1980
1981
1982
1982
1981
1980
1979
1978
1977
1977
1977
1978
1977
1977
1976
1976
1976
1977
1978
1979
1979
1977
1974
1970
1968
1975
1994
2022
2049
2061
2050
2020
1984
1958
1950
1957
1971
1980
1985
1984
1983
1983
1984
1984
1985
1985
1986
1987
1989
1990
1991
1991
1991
1990
1990
1990
1991
1993
1995
1997
1999
2000
2001
2000
2001
2002
2004
2006
2009
2012
2015
2018
2020
2021
2021
2022
2023
2026
2028
2030
2030
2029
2026
2022
2018
2014
2010
2008
2005
2002
1999
1997
1994
1992
1990
1989
1988
1987
1986
1985
1986
1987
1988
1989
1989
1989
1989
1989
1989
1989
1989
1990
1990
1990
1991
1991
1991
1991
1991
1991
1991
1990
1990
1989
1988
1988
1988
1988
1989
1990
1991
1991
1990
1990
1989
1989
1990
1990
1991
1991
1991
1991
1990
1989
1988
1986
1985
1985
1985
1987
1989
1992
1994
1995
1995
1995
1995
1995
1994
1992
1991
1989
1988
1987
1986
1986
1985
1985
1986
1987
1987
1988
1987
1986
1984
1982
1979
1977
1982
1997
2022
2048
2064
2059
2033
1998
1968
1956
1960
1973
1984
1989
1988
1986
1985
1984
1985
1986
1987
1988
1989
1989
1989
1989
1989
1989
1990
1992
1993
1994
1994
1994
1994
1994
1994
1996
1998
2000
2002
2004
2006
2008
2010
2012
2013
2015
2018
2020
2022
2024
2025
2026
2026
2026
2024
2022
2019
2017
2014
2012
2008
2004
2000
1995
1992
1989
1988
1988
1987
1986
1985
1984
1984
1984
1984
1984
1984
1983
1982
1982
1983
1984
1984
1984
1983
1982
1982
1982
1983
1984
1984
1984
1983
1982
1982
1983
1983
1984
1984
1984
1985
1985
1985
1985
1984
1983
1983
1984
1985
1986
1987
1987
1986
1986
1985
1985
1985
1985
1985
1985
1984
1983
1983
1983
1985
1987
1990
1993
1995
1996
1995
1994
1992
1990
1988
1987
1986
1986
1987
1987
1988
1989
1989
1989
1988
1988
1988
1988
1989
1988
1985
1983
1985
1997
2020
2048
2065
2064
2041
2004
1972
1956
1958
1971
1984
1990
1991
1990
1989
1989
1990
1990
1991
1992
1993
1993
1994
1995
1996
1997
1999
1999
1999
1998
1998
1999
2000
2002
2003
2005
2006
2008
2009
2011
2012
2014
2015
2018
2021
2024
2027
2029
2031
2032
2032
2032
2032
2032
2031
2030
2028
2026
2023
2020
2016
2012
2008
2004
2000
1997
1995
1994
1993
1991
1990
1989
1989
1989
1990
1990
1990
1989
1989
1988
1988
1988
1989
1990
1992
1993
1993
1993
1992
1991
1991
1991
1991
1991
1992
1993
1994
1995
1994
1993
1992
1992
1993
1995
1997
1997
1996
1995
1994
1994
1994
1994
1995
1995
1995
1994
1992
1990
1988
1987
1988
1989
1991
1994
1995
1996
1997
1997
1997
1996
1995
1993
1992
1992
1993
1993
1994
1994
1994
1993
1993
1992
1992
1993
1995
1996
1996
1993
1990
1991
2001
2023
2051
2075
2080
2061
2026
1988
1965
1962
1974
1989
2000
2004
2004
2003
2004
2004
2004
2003
2003
2003
2003
2004
2004
2005
2005
2005
2005
2005
2006
2007
2009
2010
2010
2011
2012
2012
2013
2014
2015
2017
2018
2021
2024
2029
2033
2036
2039
2039
2039
2039
2039
2040
2040
2038
2036
2032
2028
2024
2021
2018
2014
2011
2006
2002
1999
1996
1994
1993
1991
1990
1990
1990
1990
1990
1989
1988
1987
1986
1986
1985
1986
1987
1988
1989
1990
1990
1988
1987
1986
1986
1987
1988
1989
1989
1989
1989
1989
1990
1991
1990
1989
1987
1986
1986
1987
1987
1987
1986
1985
1984
1985
1986
1986
1985
1983
1982
1982
1983
1983
1982
1980
1980
1982
1984
1987
1988
1988
1988
1988
1989
1989
1988
1985
1983
1981
1981
1982
1983
1984
1984
1984
1984
1984
1985
1985
1986
1987
1987
1986
1984
1982
1980
1984
1997
2022
2049
2067
2065
2042
2006
1973
1957
1958
1971
1983
1989
1990
1987
1985
1984
1984
1985
1986
1987
1988
1988
1989
1988
1988
1988
1989
1990
1991
1992
1992
1993
1993
1993
1994
1995
1997
1998
2000
2001
2004
2006
2008
2010
2011
2011
2013
2015
2018
2021
2022
2023
2021
2019
2017
2016
2016
2016
2015
2013
2010
2006
2001
1997
1994
1993
1992
1992
1992
1992
1992
1991
1990
1988
1987
1986
1985
1984
1985
1985
1986
1987
1987
1987
1987
1986
1986
1986
1987
1988
1989
1989
1989
1989
1988
1988
1987
1987
1987
1987
1988
1989
1989
1989
1989
1988
1987
1987
1987
1988
1988
1988
1987
1986
1985
1984
1985
1986
1986
1987
1986
1986
1985
1985
1986
1987
1988
1990
1992
1993
1993
1992
1990
1987
1985
1984
1984
1985
1986
1986
1986
1987
1987
1986
1986
1986
1986
1986
1985
1983
1980
1980
1986
2005
2033
2058
2068
2054
2021
1981
1953
1945
1954
1970
1982
1986
1986
1985
1986
1986
1987
1988
1988
1989
1989
1989
1990
1990
1991
1991
1992
1993
1993
1994
1994
1995
1996
1997
1999
2001
2002
2004
2005
2006
2007
2010
2012
2015
2019
2022
2024
2027
2029
2030
2031
2031
2030
2030
2030
2029
2027
2023
2019
2015
2010
2006
2002
1999
1997
1996
1994
1993
1992
1990
1989
1988
1987
1987
1987
1988
1989
1990
1990
1990
1990
1989
1989
1989
1990
1990
1991
1992
1992
1992
1992
1992
1992
1993
1994
1996
1996
1996
1996
1995
1995
1995
1996
1997
1998
1999
1999
1999
1999
1998
1997
1997
1996
1996
1996
1997
1997
1998
1999
2000
2000
2001
2002
2003
2005
2007
2007
2006
2004
2002
2000
2000
2000
2001
2001
2002
2002
2002
2002
2002
2002
2003
2004
2003
2002
1999
2000
2008
2029
2057
2083
2091
2074
2035
1991
1961
1954
1967
1987
2001
2007
2007
2007
2008
2011
2012
2012
2012
2011
2012
2012
2013
2013
2013
2013
2014
2015
2016
2017
2017
2018
2018
2018
2018
2020
2021
2023
2025
2027
2028
2029
2031
2033
2036
2039
2041
2043
2045
2045
2046
2045
2045
2044
2043
2042
2040
2036
2031
2026
2020
2015
2011
2007
2004
2002
2000
1999
1997
1996
1995
1994
1993
1993
1994
1994
1994
1994
1993
1993
1992
1992
1991
1992
1992
1993
1993
1993
1992
1991
1991
1991
1991
1992
1993
1993
1993
1994
1995
1995
1995
1994
1994
1994
1995
1995
1996
1995
1995
1994
1993
1993
1992
1992
1992
1992
1992
1993
1994
1995
1996
1997
1998
1998
1998
1998
1998
1997
1996
1996
1995
1994
1993
1992
1992
1992
1992
1993
1994
1995
1995
1994
1993
1992
1990
1994
2005
2030
2059
2080
2080
2052
2007
1964
1939
1941
1958
1979
1992
1996
1995
1994
1995
1995
1997
1998
1999
2000
2001
2001
2001
2001
2001
2002
2003
2003
2004
2005
2006
2007
2008
2008
2009
2011
2012
2014
2016
2018
2020
2023
2025
2026
2028
2029
2032
2036
2039
2041
2041
2040
2038
2036
2034
2032
2029
2026
2022
2018
2013
2009
2004
2000
1997
1996
1994
1993
1992
1992
1990
1989
1989
1988
1988
1989
1990
1991
1991
1990
1990
1989
1987
1987
1987
1988
1989
1990
1990
1989
1989
1989
1990
1991
1991
1990
1989
1990
1992
1993
1994
1993
1992
1991
1992
1993
1994
1995
1994
1992
1991
1991
1991
1992
1992
1992
1992
1991
1991
1992
1993
1994
1995
1996
1997
1998
1998
1998
1997
1996
1995
1994
1993
1992
1991
1990
1990
1990
1992
1993
1993
1993
1992
1989
1986
1985
1989
2003
2029
2059
2080
2077
2047
1999
1956
1934
1937
1957
1978
1990
1993
1990
1989
1989
1990
1991
1992
1994
1995
1996
1996
1996
1996
1995
1995
1995
1996
1997
1998
1999
1999
2000
2001
2002
2003
2003
2004
2006
2008
2011
2014
2016
2018
2020
2021
2023
2025
2026
2028
2029
2029
2028
2025
2022
2019
2015
2011
2007
2003
1999
1995
1991
1986
1982
1980
1979
1979
1979
1979
1978
1976
1975
1974
1974
1974
1975
1975
1975
1975
1975
1975
1975
1974
1974
1973
1974
1974
1974
1975
1975
1975
1975
1974
1974
1974
1974
1975
1976
1977
1977
1977
1977
1976
1975
1975
1974
1974
1975
1975
1976
1976
1975
1975
1974
1973
1972
1972
1972
1971
1970
1969
1969
1969
1970
1971
1971
1972
1973
1974
1975
1975
1975
1973
1972
1971
1970
1969
1968
1968
1968
1968
1968
1967
1967
1966
1966
1967
1968
1968
1966
1965
1968
1981
2006
2035
2051
2044
2011
1965
1925
1908
1914
1934
1953
1964
1966
1965
1965
1965
1966
1966
1966
1965
1964
1963
1963
1964
1965
1967
1968
1968
1968
1967
1967
1967
1967
1969
1970
1971
1971
1972
1972
1972
1973
1974
1976
1978
1980
1982
1982
1983
1984
1985
1986
1986
1986
1984
1982
1980
1977
1974
1972
1969
1965
1962
1958
1955
1953
1951
1950
1948
1946
1944
1942
1941
1940
1940
1940
1940
1940
1939
1939
1938
1937
1937
1937
1938
1938
1938
1937
1937
1936
1936
1936
1937
1938
1939
1940
1940
1940
1940
1939
1939
1939
1940
1940
1940
1941
1941
1942
1942
1942
1941
1941
1940
1940
1940
1941
1942
1942
1942
1940
1939
1939
1939
1939
1940
1941
1941
1941
1940
1940
1939
1939
1939
1939
1940
1942
1943
1943
1942
1942
1941
1940
1940
1940
1941
1941
1941
1942
1941
1940
1939
1939
1940
1942
1944
1945
1946
1946
1946
1947
1947
1947
1946
1946
1946
1947
1948
1949
1950
1950
1950
1949
1949
1949
1949
1950
1951
1951
1951
1949
1945
1945
1955
1979
2013
2042
2048
2029
1988
1945
1919
1916
1928
1943
1952
1953
1949
1947
1947
1948
1949
1949
1950
1950
1951
1952
1953
1953
1954
1954
1954
1955
1956
1958
1960
1963
1964
1964
1963
1962
1962
1964
1966
1969
1971
1973
1974
1976
1979
1982
1984
1986
1987
1988
1988
1989
1989
1990
1990
1988
1986
1983
1980
1978
1976
1972
1969
1965
1963
1961
1960
1958
1957
1956
1956
1956
1956
1956
1956
1956
1955
1955
1954
1954
1954
1956
1957
1958
1958
1957
1956
1955
1955
1956
1957
1958
1958
1958
1959
1959
1959
1959
1958
1957
1958
1959
1960
1961
1961
1961
1961
1962
1962
1962
1962
1962
1962
1962
1962
1963
1963
1964
1963
1963
1962
1962
1962
1962
1963
1963
1964
1965
1964
1963
1962
1962
1963
1964
1965
1965
1964
1964
1963
1964
1964
1964
1965
1965
1965
1964
1963
1962
1963
1964
1966
1967
1969
1970
1970
1971
1970
1969
1969
1968
1968
1968
1968
1968
1967
1966
1966
1966
1966
1966
1967
1968
1969
1968
1965
1962
1962
1972
1996
2030
2058
2069
2053
2017
1977
1951
1944
1952
1964
1971
1972
1970
1970
1971
1971
1971
1971
1971
1971
1970
1971
1971
1973
1975
1976
1977
1976
1974
1974
1974
1976
1978
1980
1980
1980
1980
1980
1982
1984
1986
1988
1990
1992
1994
1996
1998
2000
2001
2002
2002
2003
2003
2003
2002
2000
1998
1996
1993
1989
1984
1981
1978
1976
1974
1971
1968
1966
1964
1963
1963
1964
1964
1964
1965
1966
1966
1965
1964
1963
1962
1963
1965
1966
1967
1966
1966
1965
1965
1966
1966
1966
1966
1966
1967
1967
1968
1968
1967
1966
1967
1968
1969
1970
1971
1970
1970
1969
1968
1967
1967
1968
1968
1969
1970
1970
1970
1970
1969
1969
1969
1969
1969
1970
1970
1970
1970
1969
1969
1970
1970
1971
1971
1972
1972
1971
1971
1971
1972
1972
1973
1973
1972
1971
1970
1970
1970
1970
1971
1972
1974
1976
1978
1980
1980
1979
1978
1977
1976
1975
1974
1972
1972
1972
1972
1974
1975
1975
1974
1974
1974
1974
1973
1972
1969
1967
1971
1986
2013
2044
2061
2057
2030
1991
1958
1943
1947
1960
1972
1977
1976
1974
1974
1975
1976
1976
1976
1976
1976
1976
1976
1977
1978
1979
1980
1981
1981
1980
1979
1979
1980
1982
1984
1986
1987
1988
1988
1989
1990
1991
1993
1996
1999
2002
2005
2007
2008
2009
2009
2009
2009
2009
2009
2009
2008
2005
2002
1998
1994
1990
1987
1984
1982
1980
1979
1977
1974
1972
1971
1970
1970
1971
1972
1972
1972
1972
1971
1971
1971
1970
1971
1971
1973
1974
1974
1975
1974
1973
1973
1972
1972
1973
1974
1975
1975
1976
1976
1976
1976
1976
1976
1976
1976
1977
1978
1978
1978
1978
1978
1977
1977
1978
1978
1979
1980
1980
1980
1980
1979
1978
1979
1979
1981
1982
1982
1982
1982
1981
1981
1981
1981
1983
1984
1984
1984
1984
1983
1983
1983
1982
1982
1981
1981
1982
1983
1985
1987
1988
1988
1989
1990
1991
1992
1991
1989
1987
1985
1985
1985
1985
1986
1987
1987
1987
1987
1987
1988
1988
1988
1987
1984
1982
1983
1993
2015
2044
2068
2075
2057
2021
1983
1959
1954
1966
1982
1992
1995
1993
1990
1989
1989
1990
1991
1992
1992
1992
1991
1991
1991
1991
1992
1993
1994
1995
1996
1997
1998
1998
1998
1998
1999
2000
2001
2003
2006
2008
2010
2011
2012
2014
2015
2018
2020
2022
2023
2024
2024
2023
2023
2022
2020
2019
2016
2013
2010
2006
2002
1998
1995
1992
1990
1988
1987
1986
1984
1984
1984
1985
1985
1985
1984
1982
1982
1982
1984
1984
1984
1983
1982
1982
1983
1984
1984
1985
1984
1984
1984
1984
1983
1983
1983
1984
1985
1985
1985
1984
1983
1982
1982
1982
1982
1982
1983
1984
1986
1986
1986
1986
1985
1984
1983
1984
1984
1985
1986
1987
1987
1986
1985
1984
1983
1983
1983
1984
1985
1985
1985
1984
1983
1982
1981
1980
1982
1984
1987
1990
1991
1991
1989
1988
1987
1987
1987
1987
1986
1985
1984
1983
1983
1983
1983
1984
1984
1984
1984
1983
1983
1982
1981
1979
1977
1976
1981
1998
2024
2049
2061
2049
2019
1979
1949
1938
1945
1959
1971
1975
1975
1972
1971
1970
1970
1971
1971
1972
1972
1973
1972
1971
1971
1971
1971
1972
1973
1974
1975
1975
1974
1974
1974
1974
1975
1976
1977
1979
1981
1983
1984
1984
1985
1987
1990
1992
1995
1997
1998
1998
1998
1997
1996
1994
1992
1991
1989
1987
1984
1981
1977
1974
1972
1970
1968
1967
1966
1965
1965
1964
1964
1963
1962
1962
1962
1962
1963
1963
1964
1964
1963
1962
1962
1961
1960
1961
1961
1962
1962
1963
1963
1962
1962
1962
1962
1962
1962
1963
1963
1963
1964
1964
1964
1965
1965
1965
1966
1966
1967
1968
1968
1968
1967
1967
1967
1967
1967
1968
1968
1968
1969
1968
1968
1968
1967
1967
1967
1968
1969
1970
1971
1972
1973
1974
1975
1976
1976
1977
1976
1975
1973
1972
1971
1971
1971
1972
1972
1972
1971
1971
1971
1971
1972
1972
1972
1972
1970
1968
1969
1978
1999
2027
2048
2051
2031
1993
1954
1931
1929
1943
1960
1972
1976
1975
1974
1974
1975
1976
1977
1978
1978
1978
1978
1978
1979
1980
1981
1982
1983
1983
1984
1985
1985
1986
1987
1988
1989
1991
1993
1995
1996
1998
2000
2002
2005
2008
2011
2014
2017
2019
2020
2021
2021
2021
2020
2019
2018
2016
2014
2010
2006
2001
1997
1992
1989
1986
1984
1982
1981
1980
1978
1977
1976
1975
1975
1975
1976
1977
1977
1977
1976
1975
1975
1975
1975
1975
1976
1977
1977
1977
1977
1977
1977
1977
1977
1978
1979
1980
1980
1980
1980
1980
1980
1980
1980
1981
1981
1982
1982
1983
1982
1981
1981
1980
1980
1981
1982
1982
1982
1982
1980
1979
1978
1978
1979
1981
1984
1986
1988
1989
1989
1988
1987
1986
1985
1985
1984
1984
1984
1984
1983
1982
1982
1981
1982
1983
1984
1985
1985
1983
1981
1977
1976
1982
1999
2028
2054
2067
2055
2023
1983
1953
1943
1951
1967
1980
1985
1985
1983
1982
1982
1982
1981
1981
1981
1982
1982
1983
1984
1984
1984
1984
1984
1984
1985
1986
1987
1988
1989
1990
1990
1990
1991
1992
1994
1996
1998
2001
2003
2006
2008
2009
2011
2012
2014
2015
2015
2016
2015
2014
2012
2010
2006
2002
1998
1994
1990
1986
1983
1980
1978
1976
1974
1973
1972
1972
1972
1972
1972
1972
1972
1971
1971
1971
1971
1971
1972
1972
1972
1972
1972
1972
1972
1972
1972
1973
1974
1974
1975
1975
1975
1975
1975
1975
1975
1976
1976
1977
1978
1978
1978
1978
1978
1978
1978
1978
1979
1980
1980
1981
1981
1980
1980
1979
1979
1979
1979
1979
1979
1979
1980
1981
1982
1983
1985
1986
1988
1990
1991
1990
1989
1987
1986
1985
1985
1986
1986
1987
1987
1987
1987
1986
1986
1987
1988
1988
1987
1985
1983
1985
1996
2020
2048
2068
2069
2048
2013
1980
1963
1964
1976
1989
1995
1996
1994
1994
1995
1996
1996
1997
1997
1997
1997
1998
1998
1999
2000
2001
2002
2003
2004
2004
2005
2006
2007
2008
2009
2011
2012
2012
2013
2015
2017
2019
2022
2026
2029
2033
2036
2038
2038
2038
2037
2036
2036
2037
2038
2038
2036
2034
2031
2028
2024
2020
2016
2012
2009
2007
2007
2007
2007
2006
2006
2006
2008
2010
2010
2010
2009
2008
2009
2012
2014
2016
2016
2016
2015
2016
2017
2018
2019
2020
2019
2018
2017
2016
2017
2019
2022
2022
2022
2020
2019
2018
2019
2020
2021
2020
2018
2016
2015
2015
2016
2017
2016
2015
2014
2015
2018
2021
2022
2021
2019
2017
2016
2017
2020
2023
2025
2026
2027
2028
2029
2030
2030
2029
2029
2029
2029
2029
2029
2027
2026
2025
2025
2025
2025
2024
2024
2024
2025
2025
2025
2026
2026
2025
2025
2022
2019
2020
2031
2052
2080
2100
2100
2078
2043
2010
1992
1992
2004
2016
2021
2022
2020
2020
2021
2021
2021
2021
2021
2022
2022
2022
2021
2020
2020
2021
2023
2024
2024
2023
2022
2021
2022
2024
2026
2028
2029
2030
2030
2030
2031
2032
2035
2038
2042
2045
2046
2047
2046
2047
2048
2049
2052
2052
2050
2047
2042
2037
2033
2030
2027
2025
2022
2020
2018
2016
2013
2010
2007
2005
2003
2002
2001
2001
2001
2003
2003
2004
2004
2003
2000
1998
1997
1998
1999
2001
2002
2000
1997
1995
1993
1994
1996
1997
1998
1997
1996
1995
1994
1994
1993
1993
1993
1993
1994
1994
1994
1994
1994
1994
1994
1994
1994
1993
1993
1993
1994
1995
1996
1996
1995
1994
1992
1990
1990
1990
1991
1993
1995
1997
1998
1998
1998
1998
1999
2000
2000
1999
1997
1994
1991
1989
1989
1990
1992
1993
1993
1993
1992
1991
1991
1992
1992
1990
1988
1986
1988
2001
2026
2054
2073
2072
2048
2013
1980
1961
1961
1972
1985
1993
1994
1993
1993
1995
1996
1997
1997
1996
1995
1996
1997
1999
2001
2001
2000
2000
2000
2001
2003
2005
2005
2006
2005
2005
2006
2009
2012
2015
2017
2018
2019
2019
2021
2024
2027
2030
2032
2034
2035
2036
2035
2034
2032
2031
2029
2027
2024
2020
2015
2009
2005
2001
1998
1995
1992
1991
1990
1989
1988
1987
1986
1985
1984
1985
1986
1986
1987
1986
1986
1985
1985
1984
1984
1984
1984
1985
1987
1988
1988
1987
1985
1985
1985
1986
1988
1988
1988
1986
1985
1985
1986
1987
1987
1987
1985
1985
1986
1987
1988
1988
1986
1985
1984
1985
1986
1987
1987
1987
1986
1984
1983
1982
1983
1983
1984
1985
1985
1986
1987
1988
1989
1991
1993
1995
1997
1997
1996
1994
1992
1991
1990
1990
1991
1990
1990
1990
1990
1991
1992
1993
1993
1993
1990
1987
1984
1988
2002
2028
2055
2073
2070
2044
2006
1972
1956
1960
1974
1988
1995
1995
1992
1990
1989
1989
1991
1993
1995
1997
1997
1997
1998
1998
1999
1998
1997
1997
1997
1998
1999
2000
2000
2000
2001
2002
2004
2006
2007
2008
2010
2011
2013
2016
2019
2023
2026
2028
2030
2031
2031
2031
2030
2028
2025
2023
2021
2018
2014
2010
2004
2000
1996
1993
1991
1988
1986
1985
1984
1983
1982
1981
1980
1979
1979
1980
1980
1980
1980
1979
1978
1979
1980
1980
1980
1979
1978
1978
1978
1979
1980
1980
1979
1979
1979
1979
1979
1980
1980
1980
1979
1977
1976
1976
1978
1980
1981
1981
1980
1979
1978
1977
1977
1976
1975
1976
1978
1979
1979
1977
1975
1973
1972
1973
1973
1973
1973
1972
1971
1972
1972
1973
1974
1975
1975
1975
1976
1978
1980
1980
1980
1979
1977
1975
1973
1971
1971
1973
1974
1975
1976
1975
1975
1975
1974
1974
1973
1970
1970
1975
1990
2016
2043
2058
2051
2023
1986
1955
1942
1948
1961
1973
1979
1979
1977
1977
1978
1978
1979
1979
1980
1980
1980
1980
1980
1981
1983
1984
1984
1984
1984
1984
1984
1985
1987
1988
1991
1993
1995
1996
1996
1996
1996
1998
2000
2003
2006
2010
2013
2014
2015
2015
2014
2014
2014
2014
2014
2013
2010
2007
2003
1998
1993
1988
1984
1981
1978
1976
1974
1973
1972
1971
1971
1971
1971
1971
1971
1971
1971
1971
1971
1970
1970
1969
1969
1970
1970
1971
1971
1971
1971
1971
1971
1971
1971
1972
1973
1973
1973
1972
1971
1970
1971
1972
1973
1974
1974
1974
1973
1972
1971
1971
1970
1969
1969
1970
1972
1973
1974
1973
1972
1971
1970
1969
1969
1971
1973
1976
1979
1981
1982
1981
1980
1979
1978
1978
1979
1978
1978
1976
1975
1974
1975
1976
1978
1979
1979
1979
1979
1978
1976
1974
1971
1969
1974
1991
2019
2048
2065
2057
2026
1984
1948
1934
1939
1956
1971
1979
1981
1979
1978
1977
1977
1978
1979
1981
1983
1983
1982
1982
1982
1983
1984
1985
1985
1984
1984
1985
1987
1989
1990
1990
1989
1989
1990
1992
1995
1998
2001
2003
2006
2008
2010
2012
2013
2014
2016
2017
2018
2018
2016
2014
2011
2007
2003
1999
1994
1991
1987
1984
1981
1978
1974
1972
1970
1970
1970
1970
1970
1970
1969
1969
1968
1968
1967
1967
1967
1968
1968
1969
1968
1967
1965
1964
1965
1967
1969
1970
1969
1968
1967
1966
1966
1966
1966
1965
1965
1965
1964
1964
1964
1964
1964
1965
1965
1966
1966
1965
1963
1962
1961
1960
1959
1959
1959
1960
1962
1962
1962
1961
1960
1959
1959
1959
1958
1957
1957
1957
1959
1959
1959
1956
1953
1951
1951
1954
1957
1959
1960
1960
1960
1960
1960
1960
1959
1959
1958
1957
1956
1954
1953
1953
1954
1956
1957
1958
1958
1958
1958
1959
1958
1955
1950
1948
1955
1975
2005
2032
2043
2030
1998
1962
1936
1929
1938
1952
1962
1966
1965
1963
1962
1961
1960
1960
1961
1963
1965
1967
1969
1969
1969
1967
1965
1964
1964
1964
1965
1966
1967
1967
1967
1968
1969
1972
1975
1978
1979
1981
1982
1985
1989
1991
1992
1993
1994
1997
2000
2002
2002
1999
1996
1994
1995
1997
1997
1996
1993
1989
1985
1980
1976
1973
1971
1970
1969
1970
1970
1970
1970
1970
1969
1967
1966
1965
1965
1966
1967
1969
1970
1971
1971
1969
1966
1964
1962
1963
1965
1968
1969
1968
1966
1965
1964
1965
1966
1965
1965
1965
1966
1968
1968
1967
1965
1963
1963
1964
1965
1967
1968
1968
1967
1967
1966
1965
1963
1962
1963
1964
1966
1967
1966
1964
1962
1960
1959
1961
1963
1967
1970
1972
1972
1971
1971
1971
1972
1972
1970
1967
1965
1965
1966
1967
1967
1966
1965
1965
1966
1968
1970
1971
1970
1967
1963
1960
1965
1983
2011
2039
2052
2043
2011
1972
1943
1932
1940
1954
1966
1971
1972
1971
1970
1969
1968
1968
1968
1970
1972
1973
1974
1975
1974
1973
1971
1970
1971
1974
1976
1978
1979
1978
1978
1979
1980
1982
1984
1984
1984
1985
1987
1990
1995
1999
2001
2002
2002
2003
2003
2005
2005
2005
2003
1999
1996
1993
1991
1987
1984
1980
1975
1971
1968
1964
1962
1960
1959
1959
1959
1958
1958
1958
1958
1959
1959
1959
1958
1958
1958
1958
1959
1960
1960
1960
1960
1959
1959
1959
1960
1960
1960
1961
1961
1961
1961
1960
1959
1959
1960
1962
1963
1964
1964
1963
1962
1961
1961
1960
1960
1961
1961
1961
1960
1959
1958
1958
1958
1959
1959
1959
1959
1957
1955
1954
1952
1953
1955
1958
1961
1962
1962
1962
1963
1964
1964
1964
1963
1962
1961
1960
1958
1957
1957
1957
1958
1960
1961
1961
1961
1960
1959
1957
1955
1952
1952
1961
1981
2010
2035
2044
2028
1994
1956
1930
1923
1933
1947
1958
1962
1962
1961
1961
1961
1961
1960
1958
1957
1957
1960
1961
1961
1959
1955
1951
1949
1949
1948
1948
1948
1949
1949
1949
1946
1942
1938
1933
1930
1930
1931
1932
1932
1930
1928
1926
1924
1924
1923
1922
1920
1918
1917
1916
1915
1912
1906
1900
1895
1892
1889
1885
1881
1877
1873
1870
1869
1868
1868
1868
1868
1867
1866
1863
1859
1855
1852
1850
1850
1851
1852
1855
1856
1857
1857
1856
1856
1857
1859
1862
1864
1866
1868
1868
1868
1868
1868
1869
1871
1872
1874
1876
1878
1879
1879
1879
1879
1879
1880
1881
1882
1883
1884
1886
1887
1887
1887
1887
1886
1886
1886
1887
1888
1889
1891
1892
1893
1896
1899
1902
1906
1908
1908
1908
1906
1904
1901
1899
1899
1900
1903
1906
1908
1909
1908
1907
1906
1907
1907
1908
1907
1905
1904
1911
1930
1959
1987
1999
1987
1954
1916
1890
1883
1893
1907
1916
1919
1918
1917
1919
1920
1920
1920
1920
1921
1923
1924
1924
1924
1924
1927
1931
1935
1938
1939
1940
1942
1944
1948
1951
1953
1954
1956
1958
1961
1964
1967
1969
1972
1976
1979
1982
1984
1985
1986
1987
1987
1987
1985
1982
1977
1971
1965
1959
1954
1949
1945
1942
1938
1935
1933
1930
1929
1927
1926
1925
1925
1925
1926
1928
1929
1930
1929
1929
1929
1929
1929
1929
1929
1929
1930
1932
1933
1934
1934
1933
1933
1933
1935
1937
1940
1942
1944
1946
1947
1948
1950
1951
1952
1953
1955
1957
1959
1960
1961
1962
1963
1963
1963
1962
1961
1961
1963
1965
1966
1966
1964
1963
1963
1964
1966
1968
1969
1970
1972
1973
1975
1976
1977
1975
1973
1971
1970
1970
1971
1972
1972
1972
1970
1970
1971
1973
1976
1978
1978
1977
1974
1971
1973
1986
2011
2043
2065
2067
2046
2007
1970
1950
1949
1962
1976
1985
1986
1984
1983
1982
1982
1981
1981
1982
1983
1985
1987
1988
1987
1986
1985
1984
1984
1984
1985
1986
1986
1987
1987
1987
1987
1987
1988
1989
1990
1992
1995
1998
2001
2004
2004
2004
2004
2005
2007
2009
2009
2008
2005
2002
1998
1994
1990
1986
1980
1975
1970
1964
1958
1952
1946
1940
1935
1930
1926
1922
1919
1916
1914
1912
1912
1912
1911
1911
1910
1909
1910
1912
1914
1915
1916
1916
1916
1917
1918
1919
1920
1921
1921
1921
1921
1921
1921
1922
1924
1925
1927
1928
1928
1927
1927
1928
1931
1934
1938
1941
1943
1945
1946
1947
1949
1950
1951
1952
1955
1957
1960
1962
1964
1966
1967
1970
1973
1976
1978
1977
1976
1973
1971
1970
1970
1971
1971
1973
1975
1978
1981
1983
1984
1984
1984
1985
1986
1986
1988
1998
2019
2048
2074
2081
2064
2030
1994
1973
1973
1988
2006
2017
2021
2020
2019
2019
2018
2018
2018
2019
2022
2025
2029
2031
2033
2035
2038
2041
2044
2046
2047
2047
2047
2046
2045
2043
2042
2042
2044
2046
2048
2048
2048
2049
2051
2053
2056
2059
2062
2065
2067
2067
2067
2065
2063
2062
2061
2059
2057
2055
2052
2048
2043
2037
2032
2028
2026
2026
2025
2024
2023
2021
2020
2020
2020
2021
2021
2021
2020
2019
2020
2020
2020
2020
2019
2019
2019
2018
2018
2018
2018
2019
2020
2019
2018
2016
2016
2017
2019
2022
2022
2021
2020
2019
2018
2019
2019
2019
2018
2017
2016
2016
2015
2015
2014
2013
2012
2011
2012
2013
2015
2016
2016
2016
2016
2017
2017
2016
2015
2014
2013
2012
2010
2009
2007
2006
2005
2006
2007
2007
2007
2006
2006
2005
2003
2000
1998
2000
2015
2041
2069
2086
2079
2049
2007
1971
1955
1959
1976
1991
1999
2000
1998
1997
1996
1996
1996
1995
1995
1996
1996
1996
1995
1993
1992
1991
1991
1992
1993
1993
1994
1994
1994
1993
1993
1994
1995
1996
1997
1999
2000
2002
2004
2006
2007
2008
2009
2009
2009
2009
2008
2007
2006
2004
2002
1999
1994
1990
1986
1982
1977
1971
1964
1958
1954
1952
1951
1951
1952
1953
1953
1953
1953
1951
1949
1947
1947
1948
1950
1952
1953
1953
1953
1952
1952
1951
1951
1952
1953
1955
1956
1957
1956
1955
1955
1955
1956
1958
1960
1962
1963
1963
1963
1962
1962
1962
1962
1962
1962
1962
1963
1964
1964
1963
1961
1960
1960
1960
1960
1961
1962
1963
1965
1967
1967
1968
1969
1970
1971
1971
1971
1971
1970
1969
1967
1965
1964
1965
1967
1968
1969
1969
1968
1968
1968
1968
1967
1965
1963
1963
1968
1984
2010
2037
2051
2046
2019
1983
1953
1940
1945
1959
1971
1977
1976
1973
1972
1972
1973
1975
1977
1977
1976
1975
1974
1974
1975
1976
1978
1980
1981
1981
1980
1979
1978
1978
1979
1981
1983
1985
1986
1987
1989
1991
1993
1995
1996
1998
2000
2003
2006
2007
2008
2008
2007
2006
2005
2005
2003
2001
1997
1993
1988
1984
1979
1975
1972
1970
1969
1968
1966
1965
1964
1964
1965
1966
1966
1966
1966
1965
1966
1966
1967
1967
1967
1966
1966
1966
1966
1967
1968
1969
1969
1968
1967
1967
1967
1968
1969
1969
1969
1969
1969
1969
1968
1968
1969
1969
1970
1971
1971
1971
1970
1970
1970
1970
1970
1970
1970
1969
1969
1968
1968
1968
1968
1969
1971
1973
1975
1977
1979
1980
1980
1978
1976
1974
1974
1973
1974
1974
1974
1974
1974
1973
1972
1972
1972
1974
1975
1975
1973
1969
1967
1972
1990
2018
2047
2060
2050
2020
1981
1953
1944
1953
1967
1977
1980
1977
1974
1974
1975
1977
1979
1980
1979
1978
1978
1977
1978
1979
1981
1983
1983
1983
1983
1982
1982
1984
1986
1988
1990
1992
1993
1995
1996
1997
1999
2001
2003
2006
2009
2012
2014
2015
2016
2017
2017
2017
2018
2018
2017
2014
2011
2006
2001
1997
1993
1989
1986
1983
1980
1978
1976
1976
1975
1975
1975
1975
1975
1975
1975
1975
1975
1975
1975
1976
1976
1976
1976
1976
1977
1978
1978
1977
1976
1975
1976
1976
1978
1979
1981
1982
1982
1981
1979
1978
1978
1979
1980
1980
1981
1981
1981
1981
1981
1980
1981
1981
1981
1982
1982
1981
1981
1980
1979
1978
1978
1977
1977
1978
1980
1981
1981
1981
1981
1981
1983
1986
1988
1989
1988
1986
1984
1982
1981
1981
1981
1982
1982
1982
1981
1981
1982
1982
1982
1981
1980
1978
1976
1975
1980
1997
2024
2050
2062
2052
2023
1986
1960
1952
1960
1973
1983
1985
1984
1982
1981
1982
1982
1983
1983
1984
1985
1985
1985
1984
1984
1984
1985
1987
1988
1988
1988
1987
1987
1988
1989
1991
1992
1994
1995
1997
1999
2000
2002
2004
2006
2009
2012
2015
2018
2019
2020
2020
2020
2019
2019
2017
2016
2012
2008
2004
1999
1994
1990
1987
1985
1982
1980
1977
1974
1972
1971
1970
1968
1967
1966
1964
1963
1962
1961
1961
1962
1963
1963
1962
1961
1961
1962
1963
1964
1963
1961
1960
1960
1962
1964
1967
1968
1968
1967
1966
1964
1963
1962
1963
1964
1966
1967
1967
1965
1962
1959
1956
1953
1949
1945
1942
1939
1936
1933
1931
1929
1928
1927
1927
1928
1930
1930
1928
1924
1916
1908
1901
1896
1895
1896
1898
1899
1898
1897
1896
1895
1896
1896
1897
1898
1899
1899
1897
1897
1903
1922
1950
1977
1988
1975
1940
1899
1871
1863
1873
1890
1903
1908
1909
1909
1911
1912
1913
1913
1913
1913
1914
1915
1917
1918
1919
1920
1921
1923
1924
1926
1926
1927
1927
1928
1930
1934
1937
1939
1941
1942
1943
1945
1949
1952
1957
1961
1965
1967
1969
1969
1968
1968
1967
1967
1967
1966
1964
1961
1957
1953
1948
1943
1939
1936
1933
1931
1929
1928
1927
1926
1925
1923
1922
1922
1924
1927
1929
1929
1929
1927
1926
1926
1926
1926
1926
1926
1927
1928
1929
1930
1931
1931
1931
1931
1932
1934
1935
1936
1936
1935
1934
1933
1932
1932
1933
1935
1937
1938
1938
1937
1935
1934
1934
1934
1935
1936
1937
1938
1937
1937
1936
1935
1935
1934
1934
1934
1934
1935
1936
1938
1939
1941
1942
1942
1942
1942
1943
1943
1944
1943
1941
1939
1939
1940
1942
1943
1944
1944
1944
1944
1944
1943
1942
1939
1937
1940
1955
