1945
1941
1936
1933
1933
1934
1936
1937
1937
1936
1934
1933
1933
1934
1934
1935
1936
1936
1936
1936
1935
1934
1934
1934
1935
1936
1936
1935
1935
1936
1938
1940
1940
1941
1941
1941
1942
1942
1942
1940
1937
1934
1932
1931
1930
1929
1928
1927
1927
1928
1928
1928
1928
1928
1927
1927
1926
1925
1923
1921
1920
1919
1919
1919
1920
1921
1923
1925
1927
1929
1931
1933
1934
1936
1938
1940
1942
1943
1944
1944
1944
1943
1944
1945
1948
1950
1952
1953
1953
1952
1951
1950
1949
1949
1949
1951
1953
1954
1954
1953
1952
1950
1948
1946
1945
1944
1943
1942
1941
1939
1938
1937
1936
1935
1933
1931
1929
1928
1926
1924
1924
1924
1924
1925
1925
1924
1923
1922
1921
1922
1927
1936
1946
1954
1957
1956
1953
1951
1948
1940
1927
1908
1890
1877
1875
1882
1894
1907
1918
1924
1928
1929
1930
1931
1932
1933
1935
1936
1937
1938
1938
1938
1938
1938
1938
1938
1939
1940
1940
1940
1940
1940
1939
1939
1939
1939
1939
1939
1939
1939
1939
1938
1939
1939
1940
1941
1941
1941
1941
1940
1939
1937
1936
1934
1933
1931
1930
1928
1926
1925
1923
1921
1919
1918
1917
1917
1917
1916
1916
1915
1914
1913
1913
1913
1913
1915
1917
1919
1920
1920
1920
1920
1920
1920
1921
1923
1923
1923
1923
1922
1922
1922
1921
1922
1922
1923
1924
1925
1925
1925
1924
1924
1925
1925
1926
1927
1928
1929
1930
1931
1932
1932
1931
1931
1931
1932
1933
1934
1934
1933
1931
1929
1929
1930
1931
1932
1934
1934
1934
1933
1931
1930
1929
1930
1931
1932
1932
1931
1930
1930
1930
1934
1942
1954
1967
1975
1979
1977
1974
1968
1961
1949
1933
1913
1897
1890
1894
1906
1921
1934
1944
1950
1954
1956
1959
1962
1964
1966
1967
1968
1968
1968
1968
1967
1967
1968
1970
1971
1972
1972
1972
1973
1974
1976
1978
1980
1982
1984
1985
1985
1986
1986
1986
1987
1988
1989
1991
1992
1993
1994
1994
1994
1994
1993
1993
1993
1993
1993
1993
1992
1991
1989
1986
1984
1982
1981
1981
1981
1982
1981
1981
1980
1979
1979
1979
1979
1980
1980
1981
1981
1982
1982
1982
1982
1982
1983
1983
1984
1984
1984
1984
1984
1984
1984
1984
1984
1985
1986
1987
1987
1987
1987
1986
1986
1987
1989
1991
1993
1993
1993
1993
1993
1993
1993
1994
1995
1996
1996
1996
1995
1994
1994
1994
1995
1996
1997
1998
1999
1998
1998
1997
1997
1997
1998
1999
2000
2002
2004
2005
2005
2005
2007
2011
2021
2032
2041
2046
2046
2042
2036
2027
2015
1997
1975
1956
1947
1949
1961
1977
1992
2002
2008
2009
2010
2010
2010
2010
2011
2011
2011
2010
2009
2008
2007
2007
2007
2008
2008
2008
2008
2008
2008
2007
2006
2007
2008
2010
2011
2011
2010
2009
2007
2007
2009
2011
2014
2017
2020
2022
2024
2025
2026
2027
2027
2027
2026
2025
2025
2025
2025
2025
2024
2023
2022
2021
2020
2020
2020
2020
2019
2020
2021
2023
2026
2029
2032
2034
2035
2035
2034
2033
2033
2032
2032
2033
2034
2035
2036
2036
2035
2034
2033
2032
2032
2034
2035
2036
2036
2035
2034
2032
2032
2032
2033
2034
2036
2038
2040
2041
2043
2044
2045
2046
2047
2048
2048
2049
2048
2048
2048
2048
2048
2048
2049
2053
2056
2059
2061
2060
2058
2056
2056
2057
2059
2061
2063
2064
2065
2065
2065
2067
2072
2081
2091
2100
2105
2104
2101
2096
2088
2075
2056
2035
2017
2008
2013
2027
2043
2056
2065
2070
2072
2073
2074
2075
2076
2077
2077
2078
2078
2078
2077
2077
2077
2078
2078
2078
2078
2076
2075
2074
2074
2073
2072
2071
2071
2070
2071
2073
2076
2080
2083
2085
2086
2086
2087
2088
2089
2089
2088
2086
2085
2084
2083
2083
2084
2085
2086
2088
2089
2090
2090
2089
2087
2085
2082
2081
2080
2080
2080
2081
2081
2080
2080
2079
2078
2077
2077
2076
2075
2074
2073
2071
2070
2069
2069
2069
2068
2067
2064
2062
2059
2056
2055
2054
2053
2052
2051
2050
2048
2047
2046
2044
2044
2043
2044
2045
2046
2046
2046
2046
2045
2044
2043
2042
2041
2040
2038
2038
2037
2037
2037
2037
2037
2037
2038
2039
2039
2038
2037
2036
2035
2035
2036
2038
2040
2042
2044
2046
2048
2051
2059
2069
2081
2090
2096
2099
2099
2095
2085
2068
2047
2025
2012
2009
2019
2034
2048
2058
2061
2061
2061
2063
2068
2076
2084
2089
2092
2094
2094
2093
2092
2090
2089
2088
2087
2088
2089
2089
2088
2086
2084
2081
2079
2079
2079
2080
2080
2081
2082
2083
2084
2085
2086
2088
2090
2092
2095
2098
2100
2102
2103
2106
2109
2113
2116
2119
2119
2119
2118
2118
2117
2117
2117
2118
2119
2120
2120
2119
2117
2115
2115
2115
2115
2114
2112
2109
2106
2104
2102
2100
2098
2096
2094
2093
2093
2092
2090
2088
2085
2083
2080
2078
2076
2074
2073
2072
2072
2071
2068
2066
2063
2061
2060
2059
2059
2058
2056
2055
2056
2057
2059
2060
2060
2059
2058
2056
2055
2053
2050
2047
2043
2039
2036
2033
2030
2027
2023
2020
2017
2015
2013
2012
2011
2011
2010
2008
2006
2004
2005
2009
2016
2023
2028
2032
2032
2030
2022
2006
1982
1955
1932
1920
1921
1932
1947
1959
1966
1969
1969
1968
1967
1966
1965
1964
1963
1962
1960
1960
1959
1957
1956
1954
1952
1948
1944
1940
1937
1936
1936
1937
1938
1938
1936
1934
1934
1935
1937
1940
1941
1942
1941
1940
1939
1939
1938
1939
1939
1938
1937
1935
1933
1932
1931
1932
1932
1932
1931
1930
1928
1926
1924
1922
1921
1919
1917
1915
1914
1913
1913
1912
1912
1911
1910
1908
1906
1905
1904
1904
1904
1903
1902
1902
1901
1900
1899
1896
1893
1890
1888
1888
1888
1888
1888
1887
1887
1886
1886
1885
1885
1884
1884
1884
1883
1882
1882
1881
1880
1880
1880
1881
1880
1880
1880
1880
1881
1882
1882
1882
1882
1881
1879
1877
1876
1876
1877
1879
1881
1883
1883
1882
1881
1880
1880
1882
1888
1897
1908
1918
1926
1929
1931
1930
1925
1913
1893
1869
1847
1834
1833
1841
1855
1867
1877
1883
1887
1888
1887
1885
1883
1880
1877
1875
1872
1870
1869
1869
1869
1869
1869
1868
1867
1866
1865
1865
1867
1869
1871
1872
1872
1871
1870
1871
1873
1875
1877
1877
1876
1875
1874
1873
1873
1873
1874
1875
1876
1877
1878
1879
1880
1881
1881
1881
1881
1881
1881
1881
1880
1880
1880
1880
1880
1881
1883
1885
1887
1889
1890
1891
1892
1892
1893
1894
1895
1895
1896
1897
1900
1903
1907
1911
1914
1917
1920
1923
1926
1928
1931
1933
1936
1939
1943
1947
1951
1954
1956
1957
1960
1965
1973
1984
1996
2007
2015
2021
2024
2026
2028
2031
2034
2037
2040
2042
2043
2043
2045
2048
2052
2058
2065
2071
2075
2079
2083
2086
2090
2095
2101
2109
2119
2132
2144
2155
2165
2173
2179
2179
2172
2158
2140
2122
2112
2112
2123
2139
2157
2173
2185
2194
2200
2202
2203
2203
2202
2202
2202
2204
2206
2209
2213
2215
2215
2213
2209
2206
2202
2198
2193
2189
2184
2180
2175
2170
2163
2157
2152
2149
2149
2149
2148
2147
2145
2142
2140
2141
2143
2144
2145
2144
2142
2140
2138
2137
2137
2137
2139
2141
2142
2141
2137
2132
2127
2123
2120
2117
2112
2105
2095
2083
2072
2063
2056
2051
2045
2038
2028
2018
2010
2005
2002
2001
1999
1997
1995
1993
1993
1996
1999
2002
2006
2010
2014
2017
2019
2021
2023
2026
2031
2036
2042
2047
2053
2060
2070
2080
2090
2099
2106
2112
2117
2121
2124
2127
2129
2130
2129
2128
2127
2126
2125
2123
2121
2118
2117
2117
2120
2124
2130
2135
2140
2147
2157
2171
2188
2204
2218
2229
2237
2241
2238
2226
2204
2177
2153
2137
2135
2143
2156
2168
2177
2180
2179
2178
2179
2183
2187
2190
2190
2188
2185
2182
2181
2182
2183
2185
2186
2186
2187
2187
2185
2183
2180
2177
2175
2175
2175
2175
2175
2175
2175
2175
2174
2171
2167
2162
2159
2158
2159
2161
2164
2166
2167
2168
2168
2169
2170
2171
2173
2176
2179
2181
2182
2181
2180
2180
2180
2180
2178
2176
2173
2170
2167
2165
2163
2161
2158
2155
2152
2148
2144
2142
2141
2140
2139
2139
2138
2138
2138
2136
2132
2128
2124
2121
2118
2114
2110
2104
2099
2094
2090
2085
2079
2072
2067
2063
2062
2063
2063
2063
2061
2059
2057
2057
2058
2060
2061
2061
2061
2060
2059
2057
2055
2053
2051
2050
2048
2046
2042
2038
2036
2037
2041
2048
2055
2062
2069
2073
2074
2071
2061
2043
2018
1989
1963
1947
1943
1950
1963
1976
1986
1993
1996
1999
2002
2005
2008
2009
2011
2013
2016
2019
2021
2020
2015
2009
2004
2000
1997
1995
1991
1985
1979
1972
1965
1958
1952
1946
1941
1934
1927
1919
1913
1909
1907
1905
1904
1902
1900
1900
1902
1905
1907
1908
1907
1905
1904
1903
1902
1902
1901
1899
1895
1893
1891
1890
1890
1889
1886
1883
1880
1877
1871
1865
1857
1848
1842
1837
1835
1835
1837
1842
1849
1855
1857
1851
1841
1831
1826
1827
1834
1842
1849
1853
1856
1858
1859
1858
1857
1857
1859
1864
1868
1869
1865
1857
1848
1842
1841
1845
1851
1856
1859
1861
1863
1866
1871
1875
1877
1874
1867
1859
1853
1854
1859
1867
1873
1878
1882
1888
1898
1908
1914
1916
1917
1920
1927
1938
1945
1942
1927
1903
1876
1855
1847
1850
1862
1877
1891
1900
1904
1906
1906
1907
1908
1912
1916
1921
1925
1929
1933
1935
1938
1941
1944
1947
1950
1952
1955
1958
1962
1967
1972
1977
1982
1986
1990
1994
1995
1995
1993
1991
1992
1995
1999
2002
2002
1998
1994
1989
1987
1986
1987
1988
1987
1987
1986
1986
1986
1987
1988
1990
1991
1990
1989
1989
1990
1991
1992
1993
1994
1994
1995
1996
1996
1995
1992
1990
1989
1989
1990
1993
1995
1996
1994
1989
1984
1984
1987
1994
2001
2004
2002
1998
1994
1992
1991
1991
1990
1989
1986
1984
1982
1980
1979
1978
1977
1978
1978
1979
1978
1978
1977
1977
1978
1981
1985
1987
1990
1992
1993
1994
1996
1999
2001
2003
2005
2006
2009
2013
2021
2032
2042
2047
2048
2046
2043
2040
2033
2020
2001
1979
1960
1950
1952
1961
1973
1980
1983
1979
1971
1964
1959
1958
1960
1962
1964
1964
1963
1962
1962
1962
1961
1961
1961
1962
1963
1964
1966
1969
1971
1972
1972
1972
1972
1972
1973
1975
1979
1983
1986
1989
1989
1986
1982
1978
1976
1976
1978
1981
1983
1983
1979
1973
1967
1962
1959
1959
1959
1958
1955
1951
1947
1946
1946
1948
1950
1950
1948
1944
1940
1936
1932
1929
1925
1922
1917
1912
1906
1901
1897
1894
1893
1893
1894
1895
1896
1896
1896
1895
1896
1897
1899
1901
1902
1904
1906
1907
1908
1908
1907
1906
1904
1901
1897
1892
1885
1878
1873
1869
1867
1867
1867
1867
1865
1860
1855
1849
1844
1840
1837
1835
1832
1828
1823
1816
1809
1803
1798
1793
1788
1785
1786
1791
1798
1804
1806
1807
1806
1806
1803
1795
1779
1756
1733
1716
1711
1718
1732
1747
1760
1768
1771
1770
1769
1768
1769
1773
1778
1785
1791
1796
1799
1802
1804
1806
1809
1812
1815
1817
1819
1820
1822
1824
1827
1831
1835
1839
1842
1844
1847
1851
1856
1861
1864
1867
1869
1872
1875
1879
1884
1891
1898
1906
1912
1917
1920
1921
1921
1922
1922
1921
1920
1919
1918
1917
1918
1919
1921
1922
1922
1922
1921
1921
1920
1920
1920
1920
1920
1920
1921
1921
1920
1920
1920
1921
1923
1924
1924
1922
1919
1914
1910
1906
1903
1900
1898
1897
1895
1893
1891
1890
1888
1887
1887
1886
1886
1886
1886
1884
1883
1881
1880
1879
1879
1879
1880
1882
1883
1882
1880
1877
1875
1874
1874
1874
1872
1868
1861
1855
1851
1848
1847
1845
1843
1842
1843
1843
1844
1844
1843
1843
1843
1844
1844
1845
1844
1844
1843
1844
1846
1849
1852
1853
1851
1848
1845
1846
1852
1864
1878
1888
1894
1894
1892
1889
1885
1877
1862
1840
1818
1805
1804
1817
1835
1852
1862
1865
1863
1860
1859
1860
1861
1863
1865
1867
1871
1875
1878
1878
1877
1875
1873
1873
1874
1875
1876
1877
1879
1883
1886
1889
1889
1889
1888
1888
1890
1892
1894
1896
1899
1901
1902
1903
1903
1903
1903
1905
1907
1907
1906
1904
1905
1907
1910
1912
1913
1912
1911
1911
1912
1913
1913
1913
1912
1912
1912
1912
1912
1912
1912
1913
1916
1919
1923
1926
1928
1928
1928
1928
1930
1932
1933
1935
1935
1935
1934
1934
1934
1934
1934
1934
1935
1937
1939
1940
1940
1941
1941
1941
1941
1940
1939
1939
1940
1943
1946
1948
1948
1946
1944
1942
1941
1942
1945
1948
1950
1952
1953
1953
1953
1953
1952
1952
1951
1952
1953
1955
1956
1958
1958
1958
1958
1956
1955
1955
1955
1956
1956
1957
1957
1958
1960
1963
1966
1967
1967
1965
1964
1964
1966
1970
1972
1973
1971
1967
1964
1965
1971
1982
1994
2004
2010
2012
2012
2012
2010
2002
1987
1965
1944
1929
1924
1930
1943
1957
1969
1976
1980
1982
1983
1984
1985
1985
1985
1985
1986
1987
1989
1991
1992
1992
1990
1989
1988
1988
1989
1991
1991
1992
1992
1992
1992
1991
1990
1990
1990
1992
1994
1995
1994
1992
1990
1991
1993
1996
1998
1998
1997
1996
1996
1996
1996
1996
1995
1994
1992
1990
1988
1986
1985
1983
1982
1980
1978
1976
1974
1973
1973
1973
1972
1970
1967
1964
1962
1963
1967
1970
1972
1971
1969
1965
1963
1962
1963
1964
1966
1966
1967
1966
1966
1965
1965
1964
1965
1965
1965
1965
1965
1966
1966
1966
1966
1964
1963
1961
1960
1960
1960
1961
1960
1958
1956
1954
1953
1953
1954
1955
1955
1955
1953
1949
1946
1943
1942
1943
1945
1947
1947
1946
1944
1942
1940
1940
1940
1941
1942
1943
1944
1944
1944
1944
1943
1943
1942
1940
1938
1936
1936
1937
1939
1941
1942
1942
1943
1943
1943
1944
1945
1945
1945
1943
1941
1939
1938
1938
1940
1940
1941
1943
1949
1958
1969
1977
1981
1981
1979
1978
1975
1967
1952
1930
1909
1894
1890
1897
1911
1927
1940
1949
1954
1955
1954
1953
1953
1954
1956
1958
1959
1960
1960
1960
1959
1958
1958
1958
1960
1962
1963
1964
1963
1962
1960
1960
1961
1962
1964
1966
1968
1968
1968
1966
1965
1965
1966
1968
1970
1972
1974
1974
1973
1971
1970
1970
1970
1971
1973
1974
1975
1974
1973
1971
1970
1969
1968
1968
1968
1968
1967
1965
1964
1963
1962
1962
1962
1962
1963
1964
1966
1967
1968
1969
1970
1970
1970
1971
1972
1973
1974
1974
1974
1974
1974
1974
1974
1975
1976
1977
1978
1978
1977
1976
1975
1975
1975
1974
1973
1972
1971
1972
1973
1974
1974
1974
1974
1974
1974
1975
1974
1973
1972
1972
1972
1973
1975
1976
1977
1977
1977
1976
1977
1977
1977
1977
1977
1976
1975
1975
1975
1975
1977
1978
1979
1979
1979
1979
1979
1981
1983
1985
1986
1986
1985
1984
1983
1983
1984
1985
1986
1986
1986
1986
1987
1988
1989
1989
1989
1988
1988
1988
1988
1988
1987
1987
1988
1988
1988
1988
1989
1993
2000
2011
2021
2028
2028
2025
2020
2015
2008
1998
1982
1963
1945
1935
1936
1946
1962
1978
1991
1999
2003
2004
2003
2003
2004
2004
2004
2004
2004
2004
2004
2005
2006
2006
2005
2003
2002
2002
2003
2004
2006
2008
2009
2009
2009
2010
2010
2010
2010
2011
2011
2013
2014
2015
2016
2016
2017
2017
2018
2018
2018
2017
2017
2017
2017
2018
2020
2021
2022
2022
2021
2020
2018
2016
2015
2014
2014
2014
2014
2013
2012
2010
2008
2007
2006
2006
2007
2008
2008
2009
2009
2008
2007
2007
2007
2007
2008
2010
2010
2010
2009
2008
2006
2006
2005
2006
2006
2007
2007
2006
2004
2001
1999
1998
1998
1998
1999
2001
2002
2003
2003
2001
2000
1998
1997
1997
1998
1999
2000
2000
2000
1999
1999
1998
1998
1999
1999
2000
2000
2000
2000
2000
1999
1999
1999
1999
2000
2000
2000
2001
2001
2001
2001
2001
2000
1999
1999
1999
2000
2001
2001
2000
1998
1996
1995
1995
1996
1997
1998
1998
1998
1998
1999
1999
2000
2000
2000
2000
2000
2000
2000
2000
2001
2002
2001
2000
1999
1998
1999
2000
2001
2001
2001
2000
2000
2000
2000
1999
1999
1999
1998
1997
1997
1997
1996
1996
1996
1996
1998
2001
2007
2016
2025
2032
2034
2032
2027
2022
2015
2004
1989
1969
1951
1941
1941
1952
1968
1983
1995
2001
2003
2004
2004
2004
2004
2004
2005
2006
2006
2007
2007
2007
2006
2006
2007
2007
2008
2008
2008
2007
2007
2007
2007
2008
2009
2009
2010
2010
2010
2010
2011
2011
2011
2010
2010
2011
2012
2013
2014
2014
2014
2013
2012
2011
2011
2011
2012
2013
2014
2013
2011
2010
2008
2006
2006
2005
2004
2003
2002
2001
1999
1999
1998
1999
2000
2000
2001
2001
2001
2000
1999
1999
1998
1998
1997
1997
1997
1997
1997
1997
1997
1997
1996
1995
1994
1993
1992
1992
1992
1991
1990
1989
1987
1986
1986
1985
1986
1987
1988
1988
1988
1987
1985
1984
1983
1982
1982
1983
1984
1984
1983
1981
1980
1979
1979
1979
1979
1978
1976
1974
1971
1969
1968
1968
1968
1968
1968
1968
1967
1967
1966
1965
1965
1964
1964
1965
1966
1967
1967
1966
1965
1965
1964
1964
1963
1962
1962
1961
1961
1962
1962
1961
1961
1962
1962
1963
1963
1962
1962
1961
1961
1961
1961
1961
1962
1963
1965
1965
1964
1963
1962
1961
1961
1962
1962
1962
1963
1964
1965
1964
1963
1960
1958
1957
1957
1957
1958
1959
1959
1959
1957
1956
1954
1952
1952
1955
1964
1975
1987
1993
1994
1991
1986
1983
1979
1970
1954
1933
1914
1903
1903
1913
1927
1940
1951
1958
1962
1964
1966
1967
1967
1966
1966
1966
1967
1968
1970
1972
1973
1973
1974
1974
1975
1975
1976
1977
1977
1977
1978
1979
1980
1979
1978
1976
1974
1974
1976
1978
1980
1982
1983
1984
1983
1983
1983
1983
1984
1985
1986
1986
1986
1985
1984
1984
1984
1983
1983
1983
1982
1981
1981
1981
1980
1978
1977
1977
1978
1979
1980
1979
1978
1977
1976
1977
1978
1979
1980
1980
1981
1981
1982
1983
1985
1987
1987
1988
1988
1989
1990
1991
1991
1990
1989
1988
1988
1988
1988
1989
1989
1989
1989
1989
1989
1989
1989
1989
1989
1989
1989
1990
1990
1991
1990
1988
1986
1985
1985
1986
1986
1986
1986
1986
1985
1985
1985
1985
1985
1986
1987
1989
1991
1991
1990
1987
1986
1986
1989
1993
1997
1999
2000
1999
1998
1997
1996
1996
1997
1998
1999
2001
2002
2002
2001
2000
2000
2002
2004
2006
2007
2008
2007
2006
2005
2004
2004
2003
2003
2003
2004
2005
2007
2010
2012
2013
2012
2012
2011
2012
2013
2015
2017
2018
2018
2018
2018
2019
2020
2020
2020
2019
2018
2017
2015
2015
2016
2020
2025
2029
2032
2032
2032
2034
2039
2048
2060
2071
2080
2085
2086
2085
2081
2075
2065
2049
2033
2018
2011
2015
2027
2043
2056
2066
2070
2072
2073
2074
2075
2075
2076
2075
2075
2076
2076
2076
2077
2077
2077
2076
2076
2075
2074
2074
2073
2073
2072
2072
2073
2076
2080
2085
2088
2088
2086
2083
2081
2081
2082
2084
2085
2086
2086
2085
2083
2079
2078
2079
2086
2097
2108
2115
2118
2116
2113
2110
2109
2109
2108
2108
2109
2110
2112
2113
2115
2116
2117
2118
2120
2123
2127
2132
2136
2138
2139
2138
2139
2142
2146
2152
2157
2162
2167
2172
2176
2181
2185
2189
2193
2197
2201
2204
2208
2212
2216
2218
2220
2219
2218
2217
2218
2221
2226
2230
2235
2239
2244
2250
2258
2269
2279
2289
2297
2303
2307
2311
2315
2319
2322
2325
2328
2330
2331
2331
2329
2329
2332
2336
2341
2344
2344
2342
2339
2336
2334
2331
2327
2323
2319
2318
2317
2317
2315
2312
2307
2303
2300
2299
2300
2300
2300
2299
2296
2293
2290
2287
2285
2284
2282
2282
2282
2282
2281
2281
2279
2277
2275
2274
2274
2273
2271
2266
2261
2255
2251
2247
2244
2241
2238
2234
2230
2225
2220
2214
2207
2201
2194
2188
2182
2176
2169
2163
2156
2149
2141
2133
2124
2116
2109
2105
2104
2104
2103
2100
2095
2088
2080
2069
2049
2021
1987
1954
1930
1918
1917
1920
1921
1919
1913
1906
1898
1891
1885
1880
1876
1874
1872
1870
1867
1865
1863
1861
1860
1859
1858
1856
1853
1850
1847
1846
1844
1841
1837
1832
1827
1824
1822
1820
1817
1813
1809
1806
1804
1803
1802
1802
1801
1801
1800
1799
1798
1798
1799
1799
1801
1803
1804
1806
1809
1811
1812
1813
1813
1812
1812
1812
1812
1812
1812
1812
1812
1811
1810
1810
1809
1810
1811
1812
1814
1815
1816
1817
1818
1819
1819
1820
1821
1823
1824
1825
1826
1828
1829
1830
1830
1830
1831
1832
1834
1836
1837
1837
1837
1837
1838
1840
1842
1843
1845
1847
1849
1850
1851
1850
1850
1851
1851
1852
1852
1853
1854
1857
1859
1862
1864
1867
1870
1873
1877
1881
1884
1886
1887
1890
1893
1897
1900
1903
1906
1908
1910
1912
1915
1919
1923
1926
1928
1929
1931
1934
1937
1940
1942
1945
1951
1961
1975
1989
2001
2008
2011
2012
2014
2019
2025
2032
2037
2041
2042
2041
2042
2043
2047
2050
2053
2056
2058
2060
2063
2064
2065
2065
2065
2066
2067
2068
2070
2073
2080
2092
2105
2116
2124
2129
2131
2130
2124
2112
2092
2069
2050
2043
2046
2057
2073
2086
2096
2101
2103
2103
2102
2101
2099
2098
2097
2097
2097
2097
2097
2096
2096
2095
2093
2091
2088
2086
2083
2080
2076
2073
2071
2068
2066
2064
2061
2058
2056
2054
2053
2051
2048
2043
2036
2028
2022
2019
2017
2016
2014
2012
2011
2011
2012
2014
2014
2013
2011
2010
2009
2010
2009
2007
2003
1996
1987
1976
1964
1952
1941
1932
1925
1919
1913
1908
1903
1897
1892
1885
1878
1871
1863
1856
1848
1840
1833
1827
1822
1818
1817
1816
1816
1816
1815
1814
1813
1811
1811
1811
1813
1816
1819
1821
1821
1820
1817
1814
1812
1811
1812
1813
1812
1811
1809
1807
1807
1809
1812
1816
1820
1822
1823
1823
1820
1816
1813
1810
1808
1808
1809
1810
1810
1810
1810
1811
1812
1814
1815
1816
1817
1818
1819
1820
1821
1822
1823
1823
1824
1826
1828
1830
1832
1834
1836
1838
1839
1840
1839
1839
1839
1839
1840
1842
1843
1844
1845
1845
1846
1847
1848
1849
1849
1850
1851
1851
1852
1853
1854
1854
1855
1857
1859
1861
1864
1868
1875
1886
1899
1908
1913
1913
1911
1908
1904
1895
1878
1854
1831
1815
1811
1820
1835
1852
1867
1876
1881
1883
1883
1882
1882
1884
1886
1888
1889
1891
1891
1891
1891
1892
1894
1896
1897
1898
1898
1898
1898
1898
1898
1899
1900
1902
1903
1904
1904
1905
1905
1907
1910
1912
1914
1915
1916
1917
1919
1921
1922
1921
1920
1919
1918
1918
1918
1919
1919
1919
1919
1919
1917
1916
1914
1912
1911
1911
1910
1909
1907
1905
1904
1903
1903
1904
1904
1905
1905
1906
1906
1905
1905
1905
1905
1906
1907
1908
1910
1910
1911
1910
1910
1910
1911
1912
1913
1914
1913
1911
1910
1909
1909
1909
1910
1910
1910
1911
1911
1911
1911
1910
1911
1912
1914
1916
1918
1919
1920
1921
1920
1920
1920
1922
1924
1927
1930
1933
1935
1937
1939
1940
1941
1941
1940
1938
1937
1935
1934
1935
1936
1938
1939
1939
1939
1939
1938
1938
1937
1937
1936
1935
1935
1935
1935
1936
1937
1939
1939
1938
1938
1940
1947
1959
1972
1982
1985
1981
1975
1968
1961
1952
1938
1919
1901
1888
1886
1894
1908
1923
1937
1947
1953
1956
1958
1959
1960
1960
1960
1959
1958
1958
1959
1961
1962
1963
1964
1964
1965
1966
1966
1967
1967
1968
1968
1969
1969
1970
1971
1972
1973
1974
1975
1976
1977
1978
1979
1979
1980
1981
1982
1982
1983
1984
1984
1984
1985
1985
1984
1985
1985
1984
1984
1984
1984
1985
1985
1985
1984
1982
1980
1978
1977
1977
1977
1978
1979
1980
1981
1982
1982
1981
1981
1982
1983
1984
1985
1986
1986
1986
1985
1985
1985
1986
1987
1988
1988
1988
1987
1987
1986
1987
1987
1988
1989
1990
1989
1989
1988
1988
1988
1989
1989
1989
1990
1991
1992
1993
1993
1993
1993
1993
1994
1995
1997
1998
1999
2000
2000
2000
1999
1998
1997
1997
1998
1999
2000
2000
2001
2002
2002
2003
2003
2002
2002
2002
2002
2003
2003
2004
2003
2002
2001
2000
2002
2006
2016
2028
2040
2046
2045
2040
2033
2026
2017
2003
1984
1964
1948
1942
1947
1960
1976
1991
2003
2011
2015
2016
2016
2015
2015
2015
2015
2016
2017
2018
2019
2020
2020
2020
2020
2021
2021
2022
2023
2023
2025
2026
2029
2031
2032
2033
2032
2032
2032
2033
2034
2035
2035
2035
2035
2035
2035
2036
2037
2039
2039
2039
2039
2039
2038
2037
2036
2034
2032
2031
2030
2028
2026
2024
2022
2020
2019
2018
2017
2017
2016
2015
2015
2014
2013
2013
2013
2014
2015
2015
2016
2016
2016
2015
2015
2014
2014
2014
2014
2014
2014
2014
2014
2014
2013
2012
2012
2012
2013
2014
2015
2015
2014
2013
2012
2012
2011
2011
2011
2011
2011
2011
2011
2010
2010
2010
2010
2010
2011
2011
2011
2010
2010
2009
2009
2009
2009
2010
2011
2012
2013
2014
2015
2015
2015
2014
2014
2013
2013
2013
2014
2014
2013
2013
2013
2013
2014
2014
2014
2014
2013
2013
2013
2012
2013
2013
2013
2013
2013
2013
2016
2021
2031
2043
2052
2055
2053
2048
2039
2030
2018
2000
1979
1960
1948
1948
1960
1978
1997
2012
2021
2026
2028
2028
2027
2028
2028
2029
2029
2030
2031
2031
2030
2030
2029
2029
2030
2031
2033
2034
2035
2036
2036
2036
2037
2037
2039
2041
2043
2044
2045
2045
2045
2045
2044
2044
2044
2045
2047
2048
2049
2049
2049
2048
2047
2047
2047
2047
2047
2047
2047
2046
2044
2042
2039
2036
2033
2030
2028
2026
2024
2023
2022
2021
2021
2021
2021
2022
2022
2023
2023
2023
2022
2022
2023
2023
2024
2024
2025
2026
2026
2026
2026
2025
2024
2023
2023
2023
2024
2026
2027
2028
2027
2027
2026
2026
2026
2026
2027
2027
2028
2028
2028
2027
2026
2025
2025
2025
2026
2026
2027
2028
2029
2029
2029
2029
2029
2029
2029
2030
2031
2031
2030
2030
2029
2029
2029
2029
2030
2031
2031
2031
2030
2029
2027
2026
2026
2025
2026
2027
2027
2028
2027
2027
2026
2025
2023
2022
2020
2019
2019
2019
2019
2020
2020
2020
2020
2020
2019
2018
2016
2015
2014
2014
2013
2013
2013
2013
2012
2010
2010
2011
2016
2026
2036
2044
2046
2042
2036
2028
2020
2008
1990
1969
1949
1938
1939
1951
1969
1986
1997
2003
2004
2003
2002
2002
2002
2002
2002
2002
2002
2001
2000
2000
2000
2000
2000
2001
2001
2002
2002
2003
2003
2002
2002
2002
2002
2003
2004
2004
2005
2005
2005
2004
2004
2005
2005
2005
2006
2007
2007
2007
2008
2008
2007
2007
2006
2005
2004
2003
2002
2001
1999
1996
1993
1989
1987
1985
1983
1982
1980
1978
1977
1976
1975
1974
1973
1972
1972
1972
1973
1974
1973
1972
1969
1967
1966
1966
1967
1968
1968
1966
1965
1964
1964
1965
1966
1967
1967
1965
1964
1963
1962
1961
1960
1960
1960
1960
1961
1961
1962
1962
1962
1961
1960
1960
1961
1962
1962
1961
1960
1959
1959
1959
1958
1958
1959
1960
1962
1962
1962
1961
1960
1959
1960
1961
1961
1961
1960
1959
1959
1959
1960
1961
1962
1962
1962
1961
1961
1962
1964
1965
1965
1965
1964
1964
1964
1964
1965
1966
1967
1968
1968
1967
1966
1965
1965
1964
1964
1964
1965
1965
1966
1967
1966
1965
1964
1964
1969
1978
1990
2000
2005
2005
2002
1998
1993
1985
1970
1949
1927
1910
1904
1909
1922
1936
1950
1959
1966
1969
1971
1972
1972
1972
1972
1973
1973
1975
1976
1978
1979
1980
1981
1981
1981
1982
1982
1982
1983
1984
1985
1985
1985
1985
1985
1985
1985
1986
1988
1989
1990
1991
1992
1992
1991
1992
1992
1994
1995
1996
1997
1996
1996
1995
1994
1993
1992
1991
1990
1989
1989
1988
1987
1985
1984
1984
1984
1984
1983
1983
1983
1983
1983
1983
1983
1983
1983
1983
1984
1984
1983
1981
1979
1978
1978
1979
1981
1983
1985
1987
1987
1987
1987
1986
1984
1984
1983
1984
1984
1984
1984
1983
1982
1981
1980
1980
1981
1982
1983
1983
1982
1981
1980
1979
1978
1978
1978
1979
1980
1981
1981
1982
1982
1982
1981
1980
1980
1981
1981
1982
1983
1983
1983
1984
1985
1986
1988
1989
1990
1991
1992
1993
1994
1995
1995
1995
1995
1994
1995
1996
1997
1998
1997
1997
1995
1995
1995
1995
1995
1995
1995
1994
1994
1993
1994
1995
1996
1997
1997
1996
1996
1997
2002
2009
2020
2030
2039
2045
2048
2049
2049
2044
2032
2012
1988
1969
1959
1962
1976
1993
2008
2019
2024
2027
2028
2029
2030
2031
2032
2033
2033
2034
2034
2035
2036
2037
2038
2039
2039
2040
2040
2041
2042
2043
2043
2043
2043
2043
2043
2044
2045
2045
2044
2043
2041
2039
2037
2037
2038
2040
2043
2044
2043
2041
2038
2035
2033
2033
2033
2034
2034
2033
2030
2026
2023
2021
2021
2021
2020
2020
2019
2017
2015
2012
2008
2004
2000
1998
1998
1999
2000
2002
2002
2002
2001
2001
2002
2003
2004
2004
2002
2000
1998
1997
1997
1998
1999
1999
1998
1995
1992
1989
1987
1986
1986
1987
1987
1988
1988
1987
1987
1986
1984
1981
1977
1973
1970
1968
1967
1966
1966
1965
1963
1962
1959
1957
1954
1952
1951
1950
1949
1947
1945
1943
1942
1941
1942
1942
1943
1943
1943
1942
1941
1940
1940
1940
1941
1941
1941
1940
1938
1936
1935
1934
1932
1932
1931
1931
1932
1932
1932
1932
1930
1929
1928
1927
1926
1924
1923
1923
1923
1923
1924
1924
1923
1923
1922
1921
1921
1920
1919
1922
1927
1936
1946
1953
1956
1956
1955
1954
1948
1935
1913
1887
1864
1852
1853
1866
1883
1900
1911
1918
1920
1920
1920
1921
1922
1924
1926
1927
1927
1926
1925
1925
1925
1927
1929
1930
1932
1933
1933
1934
1935
1935
1936
1936
1937
1938
1940
1942
1945
1947
1948
1948
1948
1947
1947
1948
1949
1950
1951
1951
1951
1950
1950
1950
1951
1951
1951
1952
1952
1953
1953
1953
1951
1949
1948
1947
1947
1948
1949
1948
1947
1945
1943
1942
1942
1941
1941
1941
1941
1941
1941
1941
1940
1940
1940
1941
1941
1942
1942
1943
1943
1943
1942
1942
1941
1941
1941
1942
1943
1943
1944
1944
1943
1942
1940
1940
1940
1940
1941
1941
1941
1942
1944
1945
1946
1946
1945
1943
1942
1943
1945
1947
1949
1949
1947
1945
1944
1944
1946
1948
1949
1950
1950
1950
1950
1952
1954
1956
1957
1958
1958
1959
1961
1962
1963
1964
1964
1964
1965
1965
1965
1965
1966
1968
1970
1973
1974
1975
1977
1978
1980
1982
1983
1983
1983
1984
1984
1986
1987
1987
1988
1990
1996
2007
2020
2032
2037
2037
2033
2028
2020
2009
1991
1969
1949
1939
1942
1956
1976
1994
2008
2018
2024
2027
2030
2031
2031
2031
2030
2030
2031
2034
2038
2043
2048
2052
2056
2058
2061
2067
2075
2083
2087
2086
2081
2076
2074
2076
2080
2085
2088
2090
2092
2095
2097
2100
2102
2105
2107
2109
2111
2112
2112
2111
2109
2107
2105
2105
2106
2108
2109
2108
2106
2103
2101
2100
2101
2103
2104
2104
2103
2101
2099
2098
2098
2098
2100
2102
2104
2106
2109
2112
2115
2118
2120
2120
2119
2117
2116
2115
2116
2118
2122
2125
2126
2126
2125
2122
2120
2120
2122
2125
2127
2128
2128
2127
2125
2125
2126
2128
2130
2132
2132
2130
2128
2126
2126
2128
2131
2134
2137
2138
2137
2136
2137
2141
2147
2153
2158
2160
2161
2163
2166
2171
2176
2181
2183
2182
2180
2177
2174
2172
2173
2177
2183
2190
2197
2204
2210
2217
2223
2230
2237
2245
2254
2263
2273
2282
2293
2303
2314
2323
2332
2340
2349
2358
2367
2376
2384
2391
2397
2401
2404
2408
2413
2418
2420
2421
2421
2424
2431
2441
2451
2458
2458
2454
2449
2447
2450
2456
2463
2468
2467
2462
2458
2452
2443
2429
2408
2384
2363
2353
2356
2369
2386
2399
2405
2404
2399
2394
2391
2391
2391
2391
2390
2387
2385
2383
2381
2378
2374
2370
2366
2363
2360
2357
2356
2358
2360
2362
2360
2353
2343
2335
2332
2334
2339
2343
2345
2341
2334
2327
2321
2318
2318
2320
2323
2327
2333
2337
2339
2336
2329
2323
2318
2317
2317
2316
2312
2307
2301
2296
2294
2291
2290
2289
2290
2290
2288
2283
2274
2263
2253
2249
2252
2259
2266
2270
2272
2272
2271
2269
2263
2252
2239
2229
2224
2226
2231
2233
2230
2225
2217
2210
2203
2194
2181
2164
2143
2123
2108
2100
2095
2093
2089
2086
2082
2078
2076
2075
2074
2073
2071
2068
2064
2058
2052
2046
2040
2035
2030
2025
2019
2012
2006
2002
1999
1996
1989
1976
1959
1942
1931
1925
1924
1923
1919
1913
1906
1900
1894
1890
1887
1885
1886
1887
1888
1887
1880
1868
1857
1853
1859
1872
1886
1893
1891
1882
1875
1874
1878
1886
1891
1893
1889
1882
1874
1868
1865
1865
1864
1862
1858
1855
1854
1854
1854
1853
1853
1853
1856
1861
1868
1877
1887
1895
1898
1896
1890
1883
1874
1864
1849
1829
1811
1799
1800
1811
1827
1842
1851
1856
1857
1859
1861
1864
1866
1865
1864
1864
1869
1878
1889
1897
1901
1896
1888
1879
1873
1873
1876
1881
1885
1887
1888
1887
1887
1890
1893
1896
1899
1901
1901
1901
1901
1901
1906
1915
1928
1940
1948
1949
1945
1941
1940
1941
1944
1947
1950
1952
1953
1953
1953
1952
1953
1956
1960
1963
1963
1960
1955
1952
1953
1957
1962
1965
1964
1961
1957
1956
1958
1962
1968
1972
1974
1976
1978
1981
1983
1986
1988
1988
1987
1987
1989
1992
1995
1999
2003
2007
2010
2012
2014
2014
2014
2014
2014
2016
2019
2024
2027
2029
2028
2026
2024
2024
2027
2032
2036
2040
2042
2045
2048
2051
2053
2054
2054
2054
2054
2054
2055
2056
2056
2055
2054
2054
2054
2055
2054
2054
2055
2056
2058
2058
2057
2055
2053
2052
2051
2051
2050
2049
2047
2045
2044
2043
2043
2043
2042
2040
2037
2032
2025
2019
2014
2015
2020
2028
2036
2041
2041
2038
2035
2035
2039
2048
2056
2063
2064
2061
2054
2047
2034
2015
1988
1956
1928
1911
1910
1922
1939
1955
1964
1966
1965
1961
1959
1958
1958
1958
1957
1955
1951
1948
1946
1945
1945
1944
1943
1939
1934
1928
1923
1919
1917
1915
1914
1913
1913
1913
1914
1914
1913
1913
1914
1915
1917
1919
1920
1922
1928
1937
1948
1958
1965
1968
1968
1967
1966
1966
1965
1964
1962
1960
1959
1958
1956
1953
1951
1950
1949
1948
1944
1940
1935
1931
1928
1927
1927
1927
1926
1924
1923
1922
1922
1923
1924
1925
1925
1924
1922
1919
1917
1916
1915
1914
1913
1914
1915
1917
1918
1919
1918
1918
1918
1919
1920
1922
1922
1922
1920
1919
1919
1920
1921
1923
1924
1924
1923
1922
1921
1921
1920
1920
1919
1919
1919
1920
1921
1922
1922
1921
1920
1919
1919
1919
1920
1921
1922
1923
1925
1925
1925
1924
1923
1922
1922
1924
1925
1927
1928
1928
1928
1928
1929
1931
1933
1935
1935
1935
1934
1934
1934
1934
1935
1935
1936
1937
1938
1937
1936
1934
1932
1931
1931
1932
1934
1935
1936
1936
1935
1934
1935
1940
1950
1962
1973
1980
1982
1981
1979
1976
1969
1954
1932
1907
1887
1878
1882
1895
1910
1924
1933
1938
1940
1941
1942
1943
1943
1944
1944
1945
1945
1946
1947
1948
1949
1950
1952
1953
1953
1953
1953
1952
1952
1952
1952
1953
1954
1955
1956
1957
1956
1956
1955
1955
1956
1957
1959
1960
1962
1962
1962
1961
1961
1961
1961
1962
1963
1963
1961
1960
1959
1958
1957
1955
1953
1952
1950
1950
1951
1951
1951
1949
1948
1946
1945
1945
1946
1946
1947
1947
1946
1945
1943
1943
1944
1945
1947
1948
1948
1948
1947
1947
1947
1948
1949
1950
1951
1951
1950
1948
1947
1947
1947
1948
1948
1947
1946
1945
1945
1946
1947
1949
1949
1950
1951
1952
1954
1955
1955
1955
1955
1954
1955
1956
1958
1958
1958
1957
1955
1953
1951
1950
1950
1951
1952
1952
1951
1951
1951
1952
1953
1953
1953
1952
1952
1952
1954
1955
1955
1954
1952
1951
1952
1953
1954
1956
1957
1956
1955
1954
1954
1953
1953
1953
1952
1951
1950
1950
1951
1952
1953
1954
1955
1955
1955
1956
1959
1965
1975
1987
1998
2004
2006
2005
2004
2002
1996
1983
1962
1939
1923
1918
1926
1943
1961
1974
1982
1985
1985
1984
1984
1984
1986
1989
1992
1995
1998
2000
2001
2002
2002
2000
1998
1996
1995
1996
1998
2000
2003
2004
2006
2006
2007
2007
2009
2011
2014
2018
2021
2023
2025
2027
2029
2031
2033
2035
2036
2037
2039
2040
2041
2041
2041
2041
2042
2044
2044
2043
2040
2038
2038
2039
2041
2041
2041
2042
2043
2045
2047
2047
2047
2046
2046
2046
2046
2047
2047
2048
2047
2046
2045
2045
2046
2048
2048
2047
2043
2038
2035
2033
2034
2034
2034
2033
2032
2030
2026
2022
2018
2016
2014
2014
2015
2014
2013
2012
2011
2011
2012
2013
2014
2014
2013
2010
2009
2007
2006
2005
2002
1999
1997
1995
1994
1993
1992
1989
1985
1982
1979
1978
1978
1978
1977
1975
1973
1971
1971
1971
1969
1965
1959
1955
1953
1954
1954
1954
1952
1950
1948
1946
1943
1939
1935
1932
1932
1935
1939
1943
1946
1946
1944
1941
1936
1932
1932
1937
1947
1960
1971
1977
1978
1977
1975
1971
1962
1945
1922
1898
1879
1872
1876
1889
1904
1918
1927
1932
1934
1934
1933
1932
1932
1932
1933
1934
1935
1936
1937
1938
1938
1938
1939
1939
1941
1942
1944
1945
1945
1945
1945
1946
1948
1950
1951
1952
1953
1954
1956
1958
1960
1961
1961
1960
1961
1963
1968
1972
1975
1976
1976
1975
1974
1974
1975
1976
1977
1978
1979
1978
1977
1976
1974
1972
1970
1969
1968
1968
1967
1968
1970
1972
1975
1976
1977
1978
1979
1980
1982
1984
1985
1985
1984
1985
1985
1987
1989
1991
1992
1993
1994
1996
1997
1998
1997
1995
1993
1992
1993
1994
1995
1994
1992
1989
1988
1989
1990
1992
1993
1995
1996
1997
1996
1995
1994
1994
1996
1999
2002
2004
2004
2002
2000
2000
2000
2000
2001
2001
2000
2000
2001
2001
2001
2001
2000
1998
1997
1997
1998
1999
2001
2003
2004
2003
2002
2001
2000
2000
2001
2002
2003
2003
2003
2004
2004
2005
2004
2004
2004
2006
2013
2023
2034
2042
2046
2045
2043
2040
2033
2020
2000
1976
1955
1944
1947
1959
1976
1992
2003
2008
2011
2011
2011
2011
2010
2009
2008
2008
2009
2009
2009
2008
2007
2006
2007
2009
2010
2010
2010
2010
2009
2009
2009
2007
2006
2005
2004
2005
2007
2008
2008
2007
2006
2005
2005
2005
2005
2006
2005
2005
2003
2002
2000
1998
1996
1995
1995
1995
1996
1996
1996
1994
1992
1989
1985
1982
1980
1978
1977
1974
1970
1966
1963
1961
1961
1962
1962
1960
1959
1958
1959
1960
1960
1960
1959
1957
1955
1954
1952
1951
1950
1949
1950
1950
1950
1949
1949
1947
1946
1944
1942
1941
1939
1938
1938
1938
1938
1936
1934
1932
1929
1927
1926
1926
1925
1924
1924
1924
1924
1924
1923
1922
1920
1918
1915
1913
1912
1911
1911
1912
1912
1912
1912
1912
1912
1912
1913
1914
1914
1915
1916
1916
1917
1918
1919
1921
1922
1922
1920
1919
1917
1916
1915
1915
1914
1914
1914
1915
1916
1916
1915
1915
1917
1925
1936
1949
1959
1965
1965
1964
1961
1954
1942
1922
1897
1874
1861
1860
1871
1887
1902
1914
1920
1922
1923
1922
1923
1923
1924
1925
1926
1927
1928
1928
1928
1928
1929
1930
1931
1932
1932
1932
1933
1933
1934
1935
1936
1937
1937
1937
1937
1937
1938
1938
1940
1941
1943
1945
1947
1948
1949
1949
1949
1948
1948
1948
1949
1949
1950
1950
1949
1948
1947
1946
1947
1948
1948
1946
1942
1936
1932
1930
1929
1929
1930
1930
1930
1930
1930
1929
1929
1930
1930
1930
1931
1932
1933
1934
1933
1932
1932
1932
1934
1936
1936
1935
1935
1935
1936
1938
1939
1939
1939
1938
1939
1941
1942
1943
1943
1943
1942
1942
1942
1943
1944
1945
1947
1948
1949
1949
1950
1951
1952
1953
1955
1957
1959
1962
1965
1967
1968
1968
1966
1963
1962
1962
1964
1967
1969
1969
1968
1967
1965
1965
1965
1966
1967
1968
1967
1966
1965
1965
1965
1966
1967
1967
1966
1964
1964
1964
1965
1966
1966
1966
1966
1967
1968
1968
1967
1966
1964
1966
1973
1984
1997
2006
2010
2010
2008
2004
1997
1983
1963
1939
1919
1909
1911
1924
1941
1957
1969
1974
1976
1976
1975
1975
1976
1978
1980
1981
1981
1980
1978
1977
1978
1979
1981
1983
1984
1985
1986
1986
1985
1984
1984
1984
1985
1988
1990
1993
1994
1993
1993
1992
1993
1995
1997
1999
2001
2002
2003
2003
2002
2002
2001
2001
2002
2002
2002
2002
2000
1998
1996
1993
1991
1989
1988
1987
1986
1985
1984
1983
1982
1980
1979
1979
1979
1980
1981
1981
1981
1981
1980
1980
1979
1979
1980
1981
1981
1981
1981
1981
1981
1980
1980
1980
1980
1979
1979
1978
1977
1977
1977
1976
1977
1977
1977
1976
1975
1973
1971
1970
1969
1969
1969
1970
1971
1972
1972
1971
1971
1970
1969
1968
1968
1967
1966
1967
1967
1969
1970
1970
1971
1970
1969
1968
1967
1966
1966
1967
1967
1967
1967
1967
1968
1970
1973
1975
1976
1976
1975
1973
1972
1971
1971
1972
1973
1975
1976
1975
1972
1970
1968
1967
1967
1968
1968
1969
1969
1968
1966
1964
1963
1965
1971
1981
1993
2003
2006
2005
2001
1996
1989
1978
1961
1939
1920
1909
1909
1919
1934
1949
1961
1970
1975
1976
1977
1977
1978
1980
1981
1982
1982
1981
1980
1980
1980
1981
1982
1983
1983
1984
1985
1985
1985
1985
1985
1986
1988
1990
1991
1991
1989
1988
1989
1991
1993
1997
1999
2002
2004
2005
2006
2006
2006
2006
2007
2007
2007
2006
2004
2003
2002
2001
1999
1997
1994
1991
1989
1987
1985
1984
1984
1983
1983
1983
1983
1984
1985
1985
1986
1987
1987
1987
1986
1985
1984
1984
1984
1985
1986
1988
1989
1991
1991
1992
1992
1992
1992
1992
1992
1992
1991
1990
1990
1991
1992
1993
1994
1994
1994
1993
1992
1991
1991
1991
1991
1992
1992
1992
1993
1993
1994
1994
1994
1993
1992
1992
1994
1996
1998
1998
1996
1995
1995
1996
1999
2001
2001
2000
1999
1999
1999
2000
2001
2001
2000
2000
1999
1999
1999
1999
1999
1999
1999
1999
1999
1999
1998
1996
1994
1991
1988
1987
1988
1991
1994
1996
1997
1997
1997
1999
2005
2015
2027
2036
2040
2039
2034
2029
2022
2013
1998
1977
1957
1944
1942
1952
1968
1986
2000
2008
2013
2015
2016
2018
2020
2022
2023
2024
2025
2024
2024
2025
2028
2032
2037
2042
2046
2048
2049
2050
2051
2052
2054
2056
2059
2061
2064
2066
2068
2070
2072
2074
2078
2082
2088
2094
2099
2102
2105
2107
2110
2113
2115
2118
2121
2125
2132
2140
2146
2148
2148
2147
2147
2147
2148
2148
2148
2148
2150
2153
2156
2158
2159
2158
2156
2155
2153
2152
2152
2153
2154
2155
2155
2153
2150
2149
2149
2152
2154
2155
2156
2156
2156
2157
2159
2161
2163
2164
2165
2165
2166
2168
2171
2174
2178
2182
2186
2190
2194
2197
2198
2199
2200
2201
2203
2206
2210
2214
2219
2222
2224
2226
2227
2230
2234
2237
2238
2236
2232
2228
2224
2222
2220
2220
2221
2221
2221
2220
2218
2215
2212
2209
2207
2205
2204
2203
2201
2198
2194
2189
2185
2181
2179
2177
2177
2177
2177
2175
2172
2167
2162
2157
2154
2152
2152
2151
2150
2147
2145
2142
2141
2140
2139
2139
2141
2146
2154
2162
2166
2164
2157
2150
2144
2137
2125
2107
2083
2061
2048
2047
2054
2067
2079
2088
2093
2096
2096
2096
2094
2093
2092
2091
2089
2088
2088
2089
2089
2089
2086
2082
2078
2075
2074
2075
2077
2078
2078
2077
2076
2074
2072
2070
2068
2066
2063
2060
2059
2057
2055
2054
2052
2051
2050
2050
2050
2050
2049
2048
2045
2042
2039
2035
2032
2027
2021
2015
2010
2006
2003
2003
2003
2004
2005
2006
2005
2003
2000
1996
1992
1989
1988
1986
1986
1986
1987
1987
1988
1987
1987
1988
1989
1989
1989
1989
1988
1987
1987
1987
1986
1985
1984
1982
1982
1983
1983
1984
1984
1984
1983
1982
1981
1981
1980
1980
1980
1981
1982
1984
1986
1986
1986
1984
1982
1981
1982
1983
1983
1982
1981
1980
1979
1978
1978
1978
1977
1977
1978
1978
1978
1977
1976
1975
1975
1975
1975
1976
1976
1975
1974
1973
1972
1972
1973
1974
1975
1976
1976
1976
1974
1972
1970
1970
1970
1971
1973
1974
1974
1973
1971
1969
1969
1973
1981
1993
2004
2011
2013
2011
2008
2005
2000
1988
1969
1946
1926
1917
1920
1934
1952
1969
1982
1989
1992
1993
1994
1996
1998
2000
2000
2000
1999
2000
2002
2005
2009
2012
2015
2017
2019
2020
2021
2022
2023
2024
2025
2026
2026
2026
2026
2027
2028
2031
2033
2036
2038
2040
2041
2043
2045
2046
2048
2048
2048
2049
2049
2050
2051
2052
2052
2051
2050
2049
2049
2049
2049
2050
2050
2050
2051
2053
2055
2057
2058
2059
2061
2064
2067
2070
2072
2073
2072
2071
2071
2071
2073
2075
2077
2078
2077
2076
2075
2075
2075
2076
2077
2077
2077
2077
2077
2077
2076
2075
2074
2072
2071
2070
2069
2068
2066
2065
2064
2065
2068
2070
2072
2073
2073
2072
2071
2070
2069
2069
2070
2071
2073
2075
2075
2075
2075
2074
2073
2072
2072
2072
2072
2074
2078
2082
2086
2089
2092
2094
2096
2098
2100
2101
2102
2102
2102
2102
2103
2103
2104
2106
2108
2109
2109
2110
2111
2112
2112
2113
2112
2111
2109
2108
2106
2103
2101
2098
2096
2093
2091
2090
2088
2086
2083
2080
2078
2080
2084
2090
2096
2098
2098
2098
2096
2091
2079
2059
2035
2012
1997
1995
2005
2020
2034
2044
2048
2047
2044
2040
2036
2033
2031
2031
2030
2030
2029
2028
2026
2024
2022
2021
2021
2021
2021
2021
2020
2018
2017
2016
2016
2017
2018
2018
2019
2019
2019
2018
2018
2017
2017
2018
2018
2019
2019
2019
2020
2020
2020
2020
2020
2020
2019
2019
2018
2017
2016
2015
2013
2011
2008
2005
2001
1997
1993
1990
1986
1982
1979
1975
1972
1970
1968
1966
1965
1964
1962
1962
1961
1960
1959
1958
1957
1956
1956
1957
1957
1958
1957
1956
1955
1954
1954
1955
1956
1957
1956
1955
1953
1951
1952
1954
1957
1960
1961
1960
1960
1960
1960
1962
1963
1963
1963
1962
1961
1961
1962
1963
1964
1964
1963
1963
1964
1967
1970
1972
1974
1974
1972
1971
1971
1973
1976
1980
1983
1985
1985
1985
1985
1985
1985
1984
1983
1981
1979
1978
1978
1979
1981
1983
1983
1981
1979
1976
1973
1971
1970
1968
1967
1967
1967
1967
1967
1966
1965
1964
1966
1970
1978
1987
1994
1998
1998
1997
1996
1993
1984
1968
1944
1918
1898
1888
1890
1900
1911
1921
1927
1929
1927
1924
1920
1918
1916
1914
1911
1908
1905
1901
1899
1897
1896
1895
1894
1894
1893
1892
1892
1891
1891
1890
1889
1889
1888
1887
1886
1885
1884
1882
1881
1880
1880
1879
1878
1877
1876
1876
1876
1877
1878
1878
1878
1878
1877
1877
1877
1876
1875
1873
1870
1867
1865
1864
1863
1862
1861
1859
1857
1856
1854
1853
1853
1853
1855
1857
1858
1859
1859
1858
1857
1857
1858
1858
1859
1859
1859
1858
1856
1855
1853
1852
1851
1850
1850
1850
1850
1849
1848
1848
1847
1848
1849
1850
1851
1853
1855
1856
1857
1856
1855
1854
1854
1855
1857
1859
1862
1864
1865
1867
1868
1870
1872
1874
1877
1879
1881
1883
1884
1886
1887
1888
1889
1891
1892
1894
1895
1897
1898
1899
1901
1903
1905
1906
1906
1907
1908
1909
1909
1910
1911
1911
1911
1911
1911
1912
1916
1924
1935
1948
1956
1960
1958
1955
1951
1946
1935
1918
1896
1875
1863
1863
1873
1888
1904
1917
1927
1933
1936
1937
1938
1939
1941
1942
1944
1944
1945
1946
1947
1948
1948
1949
1950
1952
1954
1956
1957
1957
1957
1957
1957
1957
1956
1956
1956
1957
1958
1959
1960
1961
1963
1965
1966
1968
1970
1972
1974
1975
1975
1974
1973
1972
1971
1970
1970
1971
1971
1971
1970
1967
1964
1962
1960
1960
1959
1957
1956
1955
1954
1954
1954
1953
1953
1953
1954
1955
1955
1955
1955
1954
1953
1952
1951
1950
1950
1950
1950
1950
1950
1950
1950
1950
1949
1948
1947
1946
1945
1945
1946
1946
1947
1946
1945
1945
1945
1945
1945
1945
1945
1944
1944
1944
1944
1944
1945
1946
1946
1946
1945
1944
1944
1943
1943
1943
1943
1943
1942
1942
1942
1942
1942
1940
1939
1939
1941
1942
1944
1945
1944
1943
1941
1940
1940
1944
1953
1966
1978
1985
1986
1981
1974
1967
1958
1944
1926
1906
1890
1884
1888
1900
1914
1927
1937
1945
1950
1953
1955
1956
1955
1954
1954
1955
1956
1958
1960
1961
1962
1962
1962
1962
1962
1963
1963
1964
1965
1965
1966
1967
1968
1968
1968
1969
1970
1971
1973
1974
1975
1977
1978
1979
1980
1980
1980
1980
1981
1982
1982
1981
1981
1980
1980
1979
1978
1976
1974
1973
1971
1970
1968
1966
1964
1963
1962
1961
1961
1962
1962
1962
1962
1961
1961
1961
1961
1962
1963
1964
1965
1966
1965
1965
1964
1963
1964
1965
1967
1968
1969
1969
1969
1968
1968
1968
1968
1968
1969
1970
1970
1970
1971
1971
1970
1970
1970
1970
1971
1972
1973
1974
1975
1975
1975
1976
1977
1979
1979
1979
1979
1978
1977
1977
1977
1977
1978
1978
1979
1980
1981
1981
1981
1980
1979
1978
1978
1979
1980
1982
1982
1982
1981
1981
1984
1992
2004
2017
2027
2030
2028
2022
2015
2006
1992
1973
1951
1932
1922
1924
1937
1953
1970
1982
1991
1995
1998
1999
2001
2003
2004
2005
2005
2005
2005
2006
2007
2008
2009
2011
2011
2012
2012
2013
2013
2014
2015
2016
2017
2018
2019
2020
2020
2021
2022
2023
2025
2026
2028
2029
2030
2031
2032
2032
2032
2032
2032
2032
2033
2034
2034
2034
2033
2032
2030
2029
2026
2024
2023
2021
2020
2019
2018
2017
2016
2016
2015
2015
2016
2016
2016
2016
2016
2016
2016
2016
2016
2017
2019
2020
2020
2021
2021
2021
2021
2020
2020
2020
2021
2021
2021
2021
2020
2020
2020
2020
2021
2022
2023
2022
2022
2021
2020
2019
2019
2018
2018
2018
2018
2018
2018
2018
2018
2018
2018
2018
2018
2018
2019
2020
2020
2020
2020
2019
2017
2016
2016
2017
2018
2019
2021
2023
2024
2024
2023
2021
2019
2018
2019
2019
2020
2021
2021
2021
2021
2021
2020
2020
2021
2027
2038
2050
2061
2064
2061
2052
2044
2034
2023
2006
1984
1963
1949
1948
1959
1977
1996
2011
2020
2025
2028
2028
2028
2028
2027
2027
2028
2028
2029
2029
2029
2029
2028
2027
2026
2024
2024
2024
2025
2027
2028
2029
2030
2032
2033
2035
2037
2038
2038
2038
2038
2038
2039
2040
2042
2043
2043
2044
2045
2045
2046
2046
2046
2045
2044
2043
2042
2041
2040
2038
2036
2034
2031
2028
2026
2023
2022
2020
2019
2019
2018
2018
2018
2017
2017
2016
2016
2017
2017
2018
2018
2018
2018
2017
2017
2017
2017
2017
2018
2019
2019
2020
2020
2019
2017
2016
2016
2015
2016
2016
2017
2018
2018
2018
2018
2018
2017
2017
2017
2018
2018
2019
2018
2018
2017
2017
2016
2016
2016
2017
2017
2017
2017
2018
2018
2018
2018
2019
2019
2020
2020
2020
2020
2020
2020
2019
2018
2017
2017
2018
2019
2020
2020
2020
2020
2019
2019
2018
2018
2018
2018
2018
2018
2018
2017
2017
2016
2016
2015
2015
2018
2025
2036
2048
2056
2057
2051
2043
2031
2018
2002
1982
1960
1943
1937
1944
1961
1981
1998
2010
2015
2017
2017
2016
2016
2016
2016
2017
2017
2018
2019
2019
2019
2018
2018
2018
2018
2019
2020
2021
2022
2023
2023
2023
2023
2023
2023
2023
2024
2025
2026
2026
2027
2027
2026
2026
2027
2028
2029
2030
2031
2031
2030
2029
2028
2027
2026
2025
2025
2024
2022
2019
2016
2013
2009
2006
2004
2002
2000
1999
1998
1997
1996
1996
1995
1994
1994
1994
1995
1995
1995
1996
1995
1995
1994
1993
1992
1992
1992
1992
1992
1992
1991
1990
1989
1989
1988
1988
1987
1987
1987
1987
1986
1986
1985
1984
1984
1983
1983
1984
1984
1984
1984
1983
1982
1982
1981
1981
1981
1982
1982
1982
1982
1982
1981
1981
1982
1982
1982
1982
1982
1982
1981
1980
1979
1978
1978
1979
1980
1982
1984
1985
1986
1986
1987
1987
1987
1987
1987
1986
1985
1985
1984
1984
1984
1984
1984
1985
1986
1986
1986
1985
1985
1985
1985
1985
1986
1987
1988
1989
1989
1988
1989
1993
2002
2013
2023
2028
2027
2022
2015
2005
1992
1973
1950
1930
1919
1920
1934
1952
1970
1984
1992
1995
1996
1996
1996
1996
1997
1998
1999
1999
1999
1999
2000
2000
2000
2001
2002
2003
2003
2004
2005
2005
2006
2006
2006
2006
2008
2009
2012
2015
2017
2019
2020
2021
2021
2022
2022
2023
2023
2024
2024
2025
2026
2027
2028
2029
2029
2029
2029
2028
2026
2023
2021
2019
2016
2015
2013
2012
2011
2010
2009
2007
2006
2004
2003
2002
2002
2003
2003
2003
2002
2001
2000
2000
2000
2000
2000
2001
2001
2000
1999
1998
1997
1996
1995
1995
1995
1996
1995
1995
1995
1994
1994
1994
1994
1994
1994
1994
1993
1993
1993
1993
1993
1993
1994
1995
1996
1996
1997
1997
1997
1996
1996
1995
1994
1994
1994
1995
1996
1996
1996
1996
1996
1996
1996
1996
1997
1998
1998
1999
2000
2000
2000
2000
2000
2001
2002
2002
2002
2001
1999
1997
1996
1996
1996
1996
1997
1998
1998
1998
1997
1996
1994
1992
1991
1991
1991
1992
1993
1993
1993
1992
1990
1989
1991
1998
2010
2022
2031
2035
2033
2027
2018
2006
1988
1967
1945
1929
1925
1934
1950
1969
1984
1993
1997
1999
2000
2000
2001
2001
2002
2002
2002
2001
2000
2000
2000
2001
2001
2002
2002
2001
2000
2000
2001
2001
2002
2003
2004
2005
2006
2006
2007
2007
2008
2009
2011
2012
2013
2014
2015
2016
2017
2018
2019
2020
2020
2020
2019
2019
2018
2018
2017
2016
2015
2014
2013
2013
2012
2011
2009
2007
2005
2003
2003
2002
2002
2002
2002
2002
2002
2002
2001
2000
2000
1999
1999
1999
1999
1999
1998
1997
1997
1996
1995
1995
1995
1995
1995
1994
1993
1992
1991
1990
1990
1990
1990
1990
1989
1989
1989
1988
1987
1986
1986
1985
1985
1986
1985
1985
1985
1984
1984
1984
1984
1984
1984
1984
1985
1985
1985
1985
1984
1984
1984
1983
1983
1982
1982
1981
1981
1980
1980
1979
1979
1979
1979
1979
1980
1981
1981
1980
1980
1980
1980
1981
1982
1982
1982
1981
1980
1979
1978
1978
1979
1980
1981
1982
1982
1981
1980
1978
1976
1975
1974
1974
1974
1975
1975
1975
1974
1973
1972
1973
1979
1989
2001
2010
2015
2015
2010
2003
1992
1975
1953
1929
1912
1906
1913
1930
1949
1965
1975
1981
1983
1984
1984
1985
1986
1986
1986
1986
1986
1986
1986
1986
1987
1988
1988
1988
1988
1987
1987
1986
1986
1987
1988
1989
1989
1990
1990
1990
1990
1990
1991
1992
1993
1995
1996
1997
1997
1997
1997
1996
1996
1996
1996
1997
1997
1997
1997
1995
1993
1990
1988
1986
1984
1983
1981
1979
1977
1975
1972
1970
1968
1967
1967
1967
1967
1967
1966
1965
1964
1963
1962
1962
1962
1963
1963
1963
1963
1963
1962
1962
1962
1961
1961
1960
1959
1958
1958
1958
1957
1957
1957
1957
1958
1958
1958
1957
1956
1955
1954
1953
1953
1953
1953
1954
1955
1955
1956
1955
1955
1954
1953
1953
1953
1953
1953
1953
1952
1951
1950
1948
1947
1947
1947
1946
1945
1943
1942
1940
1940
1940
1941
1942
1943
1943
1944
1944
1943
1943
1942
1941
1941
1940
1939
1938
1938
1938
1938
1937
1937
1936
1935
1934
1933
1932
1931
1930
1929
1929
1929
1930
1930
1930
1930
1929
1930
1934
1943
1954
1966
1974
1977
1976
1974
1970
1961
1945
1923
1899
1880
1871
1875
1888
1904
1919
1930
1937
1940
1941
1941
1940
1940
1940
1941
1942
1942
1943
1943
1942
1941
1941
1941
1942
1943
1944
1945
1946
1947
1947
1947
1947
1947
1948
1950
1951
1953
1953
1954
1955
1955
1956
1957
1958
1959
1960
1961
1961
1961
1961
1961
1960
1960
1960
1960
1960
1959
1959
1957
1956
1954
1952
1951
1950
1949
1948
1948
1947
1947
1946
1945
1945
1945
1946
1946
1947
1948
1948
1948
1948
1947
1947
1947
1947
1948
1949
1949
1950
1950
1950
1950
1950
1949
1949
1950
1950
1950
1951
1951
1951
1950
1950
1951
1952
1953
1954
1955
1955
1955
1954
1954
1954
1954
1955
1956
1956
1956
1956
1956
1957
1957
1957
1957
1957
1958
1959
1959
1960
1960
1960
1960
1961
1961
1962
1964
1965
1966
1967
1966
1965
1965
1964
1964
1965
1967
1969
1972
1974
1975
1974
1973
1970
1969
1969
1970
1972
1974
1976
1976
1976
1975
1974
1974
1976
1983
1994
2006
2016
2020
2019
2015
2009
2000
1987
1968
1946
1927
1918
1921
1934
1951
1968
1980
1988
1992
1994
1994
1995
1995
1995
1995
1995
1995
1996
1997
1997
1998
1998
1998
1998
1998
1998
1998
1999
2000
2001
2002
2003
2003
2004
2006
2007
2009
2010
2011
2012
2013
2014
2016
2017
2017
2017
2017
2017
2018
2019
2021
2022
2023
2023
2022
2022
2021
2021
2020
2019
2018
2016
2014
2012
2010
2008
2007
2005
2004
2004
2004
2003
2003
2003
2003
2003
2003
2003
2004
2004
2004
2003
2003
2002
2001
2000
2000
1999
1999
1999
1999
1999
1998
1997
1996
1995
1995
1994
1994
1994
1994
1994
1994
1993
1992
1991
1991
1991
1992
1993
1993
1993
1993
1992
1991
1990
1990
1989
1990
1990
1990
1991
1990
1989
1989
1989
1989
1991
1992
1993
1994
1995
1995
1994
1994
1993
1992
1991
1990
1990
1991
1991
1991
1991
1991
1991
1991
1991
1991
1990
1989
1989
1988
1988
1987
1987
1987
1987
1988
1987
1987
1988
1992
2001
2012
2022
2027
2027
2022
2015
2006
1991
1971
1948
1928
1918
1920
1934
1953
1971
1984
1992
1995
1995
1995
1995
1995
1996
1997
1998
1998
1999
1999
1999
1999
2000
2000
2000
2001
2001
2002
2002
2003
2003
2003
2004
2004
2005
2006
2007
2008
2009
2010
2011
2012
2013
2013
2014
2016
2017
2019
2020
2021
2021
2021
2020
2019
2019
2019
2018
2018
2017
2015
2012
2009
2007
2004
2003
2002
2001
2000
1999
1998
1997
1996
1995
1994
1994
1994
1994
1995
1995
1995
1995
1994
1994
1994
1994
1994
1994
1994
1993
1992
1991
1990
1989
1989
1989
1989
1990
1990
1990
1990
1989
1989
1988
1987
1987
1987
1987
1988
1988
1988
1987
1986
1985
1985
1985
1985
1986
1986
1987
1987
1986
1985
1985
1984
1984
1984
1985
1985
1985
1986
1986
1986
1986
1986
1987
1988
1989
1989
1988
1987
1985
1984
1984
1984
1985
1986
1987
1988
1988
1987
1985
1983
1982
1981
1980
1981
1982
1983
1983
1983
1982
1980
1979
1980
1986
1997
2009
2019
2023
2022
2016
2007
1995
1978
1957
1934
1918
1912
1919
1935
1954
1970
1980
1984
1986
1987
1987
1987
1988
1988
1989
1989
1989
1988
1988
1988
1988
1988
1987
1987
1987
1986
1986
1986
1986
1986
1987
1988
1988
1988
1989
1988
1988
1988
1988
1989
1990
1991
1992
1992
1993
1993
1993
1993
1994
1994
1994
1995
1995
1994
1993
1991
1988
1986
1984
1983
1981
1980
1978
1976
1974
1972
1971
1971
1971
1971
1972
1972
1972
1971
1970
1970
1969
1968
1968
1967
1967
1967
1967
1966
1965
1964
1963
1962
1961
1961
1960
1960
1960
1959
1958
1956
1955
1954
1953
1953
1953
1953
1953
1953
1953
1954
1954
1954
1954
1954
1953
1953
1953
1952
1951
1949
1947
1945
1944
1944
1944
1945
1945
1945
1945
1944
1944
1944
1944
1946
1947
1948
1949
1949
1949
1948
1948
1947
1947
1947
1948
1948
1949
1949
1948
1948
1948
1948
1948
1948
1947
1946
1945
1945
1944
1943
1942
1942
1942
1941
1941
1940
1941
1944
1952
1964
1976
1984
1986
1984
1980
1973
1963
1947
1926
1904
1886
1878
1880
1891
1906
1921
1933
1942
1946
1946
1945
1943
1942
1942
1942
1942
1942
1942
1940
1938
1937
1937
1937
1937
1939
1940
1941
1942
1942
1942
1942
1943
1945
1946
1947
1948
1949
1950
1950
1951
1952
1953
1954
1955
1957
1957
1958
1958
1958
1957
1957
1957
1957
1957
1958
1958
1957
1956
1954
1952
1950
1949
1947
1946
1945
1944
1943
1943
1942
1941
1941
1940
1941
1941
1942
1943
1944
1944
1943
1943
1943
1944
1944
1945
1946
1947
1947
1948
1948
1948
1948
1948
1948
1949
1950
1951
1951
1950
1950
1951
1952
1954
1955
1956
1957
1958
1960
1962
1963
1964
1964
1964
1964
1965
1966
1967
1968
1968
1968
1968
1968
1968
1969
1969
1970
1971
1971
1972
1972
1973
1973
1973
1974
1975
1976
1977
1977
1976
1975
1973
1973
1972
1972
1973
1974
1975
1976
1975
1974
1971
1970
1969
1970
1971
1973
1974
1974
1973
1972
1970
1969
1969
1973
1983
1996
2008
2016
2017
2014
2008
2000
1989
1972
1950
1928
1913
1909
1917
1933
1950
1964
1975
1981
1984
1985
1986
1987
1987
1988
1988
1988
1989
1989
1990
1991
1993
1993
1994
1994
1994
1994
1995
1995
1996
1996
1996
1997
1997
1998
1999
2001
2002
2004
2006
2008
2010
2012
2013
2014
2015
2016
2018
2020
2023
2025
2026
2026
2025
2024
2023
2021
2020
2019
2018
2017
2015
2013
2010
2007
2005
2003
2002
2002
2001
2001
2001
2000
2000
1999
1999
1999
1999
2000
2000
2001
2001
2001
2001
2001
2001
2000
2000
2000
2000
2001
2001
2002
2002
2001
2001
2000
2000
2000
2000
2001
2001
2001
2001
2001
2000
2000
2000
2000
2001
2001
2002
2002
2001
2001
2001
2000
2000
2000
2001
2001
2002
2002
2002
2002
2001
2001
2000
2000
2001
2002
2002
2002
2002
2001
2001
2000
2000
2000
2001
2001
2001
2001
2001
2001
2001
2001
2001
2001
2002
2002
2002
2001
2000
1999
1997
1996
1996
1996
1997
1998
1999
2000
2000
2000
1998
1996
1995
1994
1994
1994
1995
1996
1996
1996
1995
1993
1992
1992
1996
2004
2015
2027
2034
2035
2031
2023
2013
2002
1986
1966
1945
1931
1927
1935
1952
1970
1985
1995
2000
2002
2003
2003
2002
2002
2002
2002
2002
2002
2003
2004
2005
2005
2005
2004
2004
2004
2004
2005
2006
2007
2007
2008
2008
2009
2009
2010
2011
2013
2015
2018
2019
2020
2021
2021
2022
2022
2022
2023
2024
2026
2027
2027
2027
2026
2025
2024
2023
2022
2021
2019
2017
2015
2013
2010
2008
2006
2004
2003
2003
2002
2002
2001
2000
2000
1999
1998
1998
1998
1999
1999
2000
2000
2000
2000
1999
1998
1997
1997
1997
1998
1998
1998
1997
1996
1995
1994
1994
1993
1993
1993
1993
1993
1992
1991
1990
1989
1988
1988
1988
1988
1988
1988
1988
1987
1986
1985
1985
1984
1984
1985
1985
1985
1985
1984
1983
1983
1983
1983
1984
1984
1984
1984
1984
1984
1983
1982
1982
1982
1982
1982
1982
1983
1982
1982
1982
1981
1981
1981
1982
1982
1982
1981
1980
1979
1979
1978
1979
1979
1980
1980
1981
1981
1980
1979
1978
1977
1976
1975
1974
1974
1973
1972
1972
1972
1972
1973
1974
1974
1974
1973
1972
1972
1972
1971
1971
1970
1970
1971
1971
1970
1969
1969
1973
1982
1993
2003
2009
2010
2006
2000
1992
1980
1962
1939
1917
1903
1902
1912
1930
1949
1963
1972
1976
1978
1977
1977
1976
1976
1977
1977
1977
1976
1976
1975
1975
1974
1975
1976
1976
1977
1977
1977
1976
1976
1975
1975
1975
1976
1977
1978
1979
1981
1982
1982
1983
1983
1984
1984
1985
1986
1987
1988
1988
1988
1987
1987
1986
1986
1986
1986
1986
1985
1983
1981
1978
1975
1973
1971
1970
1969
1968
1966
1965
1964
1963
1962
1961
1960
1960
1961
1961
1962
1962
1961
1960
1959
1958
1959
1959
1960
1961
1961
1961
1961
1960
1959
1957
1956
1955
1955
1956
1956
1956
1956
1955
1954
1954
1954
1954
1955
1956
1956
1956
1956
1955
1954
1954
1954
1954
1955
1955
1955
1955
1955
1955
1955
1954
1955
1955
1955
1956
1957
1957
1957
1957
1957
1957
1957
1958
1958
1959
1959
1959
1959
1959
1959
1959
1959
1960
1961
1961
1962
1961
1961
1960
1960
1960
1960
1960
1961
1962
1963
1963
1964
1963
1963
1963
1964
1964
1965
1966
1967
1968
1968
1968
1968
1968
1968
1968
1968
1969
1969
1969
1969
1969
1970
1970
1971
1970
1970
1969
1968
1968
1967
1967
1968
1968
1969
1970
1970
1970
1969
1970
1973
1981
1992
2004
2011
2014
2012
2007
2000
1989
1972
1950
1927
1911
1906
1914
1929
1947
1961
1971
1976
1979
1979
1979
1980
1981
1983
1985
1986
1988
1989
1989
1990
1990
1991
1992
1993
1994
1995
1995
1996
1996
1996
1997
1998
2000
2001
2003
2004
2005
2005
2006
2008
2009
2011
2013
2014
2016
2017
2018
2018
2018
2019
2019
2020
2020
2020
2020
2020
2019
2018
2016
2014
2012
2010
2008
2007
2006
2004
2003
2002
2001
2000
2000
2000
2000
2001
2001
2002
2002
2001
2001
2001
2001
2002
2002
2003
2003
2004
2003
2003
2001
2000
1999
1998
1998
1999
1999
1999
1998
1997
1997
1996
1996
1996
1996
1997
1997
1997
1996
1996
1995
1995
1995
1995
1995
1995
1995
1995
1995
1995
1995
1995
1994
1994
1994
1995
1994
1994
1994
1993
1993
1992
1992
1993
1993
1994
1994
1994
1994
1993
1993
1992
1992
1993
1993
1993
1994
1994
1994
1993
1993
1992
1992
1992
1992
1993
1993
1994
1994
1993
1993
1992
1992
1991
1992
1992
1993
1994
1994
1994
1994
1994
1994
1995
1995
1996
1996
1996
1995
1995
1994
1994
1995
1995
1996
1995
1995
1994
1993
1992
1991
1990
1990
1989
1990
1990
1990
1990
1989
1988
1988
1990
1998
2009
2021
2029
2031
2027
2020
2011
1999
1983
1962
1942
1928
1925
1934
1950
1968
1982
1991
1996
1998
1999
1999
2000
2001
2001
2001
2001
2001
2001
2002
2002
2003
2004
2005
2005
2005
2005
2005
2005
2006
2006
2008
2009
2010
2011
2012
2012
2013
2014
2015
2016
2017
2019
2020
2021
2022
2024
2025
2026
2027
2028
2029
2029
2030
2030
2030
2029
2027
2025
2022
2020
2018
2017
2015
2013
2011
2009
2007
2005
2004
2003
2003
2003
2003
2003
2003
2002
2002
2001
2002
2002
2002
2003
2003
2002
2002
2001
2000
1999
1999
1999
1999
1999
1999
1998
1997
1997
1996
1995
1994
1993
1993
1992
1992
1992
1991
1990
1989
1988
1988
1988
1988
1988
1989
1988
1988
1987
1987
1986
1985
1985
1985
1985
1984
1984
1984
1983
1982
1982
1982
1982
1983
1983
1982
1982
1981
1980
1980
1979
1979
1978
1978
1978
1978
1978
1978
1978
1977
1976
1976
1976
1976
1976
1976
1976
1976
1976
1976
1975
1975
1974
1973
1972
1972
1972
1972
1972
1972
1971
1970
1969
1969
1969
1968
1968
1968
1967
1966
1965
1964
1965
1965
1966
1965
1964
1963
1961
1960
1958
1957
1956
1955
1955
1956
1957
1957
1957
1957
1955
1953
1953
1956
1963
1974
1983
1989
1989
1985
1979
1972
1960
1943
1921
1900
1886
1884
1893
1908
1925
1940
1950
1955
1958
1958
1958
1958
1957
1956
1955
1955
1956
1957
1958
1958
1958
1958
1959
1959
1958
1958
1958
1958
1959
1960
1961
1961
1961
1960
1960
1960
1960
1961
1962
1964
1965
1967
1969
1970
1972
1973
1974
1975
1976
1976
1975
1975
1975
1974
1973
1972
1971
1970
1969
1967
1965
1962
1959
1957
1955
1953
1953
1952
1952
1951
1950
1949
1947
1946
1945
1945
1945
1945
1944
1943
1942
1942
1941
1941
1941
1942
1942
1942
1942
1943
1943
1944
1944
1944
1943
1942
1942
1942
1942
1943
1943
1943
1943
1942
1942
1942
1942
1943
1943
1943
1943
1943
1942
1941
1940
1939
1938
1938
1938
1938
1939
1939
1938
1938
1937
1938
1939
1941
1942
1942
1942
1942
1941
1941
1941
1941
1942
1942
1942
1943
1943
1943
1942
1942
1942
1942
1943
1944
1945
1945
1946
1947
1948
1949
1951
1953
1955
1956
1957
1957
1957
1957
1957
1957
1957
1958
1958
1957
1957
1958
1958
1959
1958
1956
1953
1951
1950
1951
1951
1951
1950
1949
1949
1951
1958
1969
1983
1994
1999
1999
1995
1989
1980
1967
1948
1925
1905
1892
1892
1902
1917
1933
1946
1955
1961
1963
1965
1966
1967
1968
1969
1970
1970
1971
1972
1972
1973
1973
1974
1975
1976
1976
1976
1975
1975
1975
1975
1976
1978
1979
1980
1980
1979
1979
1980
1981
1982
1983
1984
1985
1986
1986
1986
1986
1986
1987
1990
1994
1997
1998
1997
1994
1991
1987
1985
1983
1981
1980
1978
1977
1976
1974
1972
1970
1968
1968
1967
1968
1968
1969
1969
1969
1968
1967
1966
1966
1966
1967
1968
1969
1969
1969
1968
1967
1966
1966
1966
1967
1968
1969
1970
1971
1970
1969
1968
1968
1969
1971
1973
1974
1975
1975
1975
1974
1974
1974
1974
1975
1976
1977
1977
1977
1976
1975
1974
1974
1974
1974
1975
1976
1977
1977
1976
1976
1975
1974
1974
1973
1973
1973
1972
1972
1971
1971
1971
1971
1972
1973
1974
1974
1975
1976
1977
1977
1978
1978
1978
1979
1979
1980
1980
1980
1980
1980
1979
1979
1979
1979
1979
1979
1978
1977
1976
1975
1975
1975
1975
1976
1975
1974
1974
1975
1980
1990
2002
2014
2020
2020
2016
2010
2002
1990
1972
1949
1927
1913
1910
1919
1935
1952
1967
1976
1982
1984
1985
1985
1987
1988
1990
1991
1991
1991
1991
1991
1992
1992
1993
1994
1995
1995
1996
1996
1996
1996
1997
1998
1999
2001
2003
2006
2008
2009
2010
2011
2012
2014
2016
2018
2020
2022
2023
2024
2024
2023
2023
2023
2023
2024
2024
2024
2024
2023
2021
2019
2017
2015
2013
2012
2011
2010
2008
2007
2005
2004
2003
2002
2002
2002
2002
2002
2001
2001
2000
2000
2000
2000
2000
2000
2001
2002
2004
2005
2006
2005
2005
2004
2004
2004
2005
2005
2006
2006
2006
2005
2005
2005
2005
2004
2004
2004
2003
2003
2002
2002
2001
2000
1999
1999
1999
1999
1999
1998
1998
1997
1997
1997
1997
1998
1998
1999
1999
1999
1999
1999
1999
1999
2000
2001
2002
2003
2004
2004
2004
2003
2003
2003
2004
2004
2004
2005
2005
2005
2006
2008
2009
2011
2012
2013
2013
2014
2014
2014
2015
2015
2016
2016
2015
2015
2014
2014
2014
2013
2012
2011
2010
2009
2009
2010
2010
2010
2009
2008
2007
2010
2018
2030
2042
2049
2050
2046
2038
2027
2015
1998
1977
1956
1942
1939
1950
1968
1987
2002
2012
2016
2018
2018
2018
2019
2020
2021
2022
2022
2022
2022
2022
2022
2022
2023
2023
2024
2024
2024
2023
2024
2024
2025
2026
2027
2028
2029
2030
2031
2032
2033
2034
2035
2036
2037
2039
2040
2042
2043
2043
2044
2044
2044
2044
2045
2045
2044
2043
2042
2040
2037
2035
2032
2030
2028
2026
2024
2022
2020
2018
2016
2015
2014
2013
2013
2014
2014
2013
2013
2013
2012
2012
2012
2012
2013
2013
2014
2013
2012
2011
2009
2008
2007
2007
2007
2008
2009
2009
2009
2008
2007
2006
2005
2006
2007
2007
2008
2008
2007
2007
2006
2005
2005
2005
2005
2005
2006
2006
2006
2005
2005
2004
2004
2003
2003
2003
2003
2003
2003
2003
2002
2002
2001
2001
2002
2002
2002
2002
2002
2001
2000
1999
1999
1999
2000
2000
2001
2001
2000
2000
1999
1998
1998
1998
1999
1999
2000
2000
2000
1999
1999
1999
2000
2001
2002
2002
2002
2002
2001
2001
2000
2000
2000
2000
2001
2001
2001
2000
1999
1998
1996
1995
1995
1995
1995
1995
1996
1996
1995
1993
1992
1992
1995
2003
2015
2027
2033
2033
2028
2019
2008
1994
1976
1955
1935
1923
1923
1935
1953
1971
1985
1994
1997
1999
1999
1999
1999
1999
1999
1998
1998
1997
1997
1997
1997
1997
1997
1997
1997
1997
1997
1998
1999
1999
2000
2001
2001
2002
2002
2002
2002
2002
2003
2004
2005
2007
2008
2009
2010
2010
2010
2010
2010
2011
2011
2012
2012
2012
2011
2009
2008
2006
2004
2001
1998
1994
1992
1989
1987
1984
1982
1980
1979
1978
1978
1978
1977
1977
1976
1975
1973
1972
1971
1971
1972
1973
1974
1976
1976
1976
1975
1974
1973
1973
1973
1973
1973
1973
1972
1972
1971
1970
1970
1970
1970
1969
1969
1968
1967
1966
1965
1964
1964
1964
1964
1965
1966
1965
1964
1962
1961
1960
1960
1960
1961
1962
1962
1962
1961
1960
1959
1958
1958
1957
1957
1957
1957
1958
1958
1957
1956
1954
1953
1953
1954
1956
1957
1957
1956
1955
1954
1953
1953
1953
1953
1953
1954
1955
1956
1957
1957
1956
1955
1955
1955
1955
1956
1956
1956
1956
1956
1956
1956
1956
1957
1958
1959
1959
1958
1956
1954
1953
1952
1951
1951
1951
1952
1952
1952
1951
1949
1947
1946
1944
1944
1943
1943
1942
1941
1940
1939
1938
1938
1938
1939
1940
1944
1950
1960
1971
1980
1984
1982
1978
1973
1967
1959
1944
1923
1902
1887
1882
1888
1901
1916
1928
1936
1941
1943
1943
1942
1940
1940
1942
1946
1952
1955
1954
1951
1946
1942
1940
1940
1941
1941
1942
1944
1946
1949
1952
1953
1954
1953
1953
1953
1953
1953
1953
1951
1949
1948
1950
1954
1960
1966
1969
1968
1965
1962
1960
1961
1963
1964
1964
1963
1963
1964
1965
1966
1966
1964
1962
1960
1959
1959
1958
1957
1956
1954
1952
1950
1951
1953
1956
1959
1961
1961
1961
1960
1960
1959
1959
1960
1963
1966
1969
1971
1972
1971
1969
1967
1965
1963
1961
1960
1960
1961
1962
1965
1967
1969
1969
1968
1966
1964
1964
1964
1965
1967
1969
1971
1972
1974
1975
1975
1974
1973
1972
1972
1973
1975
1976
1977
1979
1983
1985
1987
1987
1986
1984
1984
1984
1983
1982
1980
1981
1985
1990
1995
1997
1995
1991
1987
1984
1981
1979
1977
1978
1981
1985
1987
1988
1987
1987
1989
1991
1991
1988
1982
1979
1980
1986
1993
1996
1994
1989
1982
1979
1980
1983
1988
1989
1988
1986
1984
1983
1985
1987
1987
1986
1986
1988
1993
1997
1999
1996
1991
1987
1986
1989
1993
1995
1994
1992
1992
1996
2006
2019
2030
2035
2032
2025
2015
2004
1992
1977
1962
1948
1939
1936
1941
1951
1964
1979
1992
2001
2004
2002
1999
1997
1997
2000
2004
2007
2009
2010
2011
2010
2009
2006
2004
2003
2005
2008
2010
2010
2009
2010
2013
2017
2018
2017
2015
2015
2018
2024
2032
2039
2041
2039
2034
2030
2028
2030
2034
2037
2039
2039
2037
2038
2041
2044
2045
2043
2039
2034
2031
2030
2031
2031
2031
2028
2025
2023
2020
2020
2020
2021
2023
2024
2023
2022
2021
2021
2022
2025
2027
2029
2030
2032
2034
2035
2035
2035
2037
2040
2042
2041
2038
2033
2031
2033
2038
2045
2048
2047
2042
2038
2035
2035
2037
2038
2038
2036
2034
2034
2036
2038
2039
2039
2038
2038
2038
2040
2042
2044
2046
2046
2045
2044
2042
2041
2041
2042
2042
2041
2040
2039
2039
2038
2036
2034
2033
2034
2035
2037
2038
2039
2039
2038
2036
2033
2031
2032
2036
2041
2043
2041
2035
2030
2028
2029
2031
2032
2031
2029
2029
2030
2030
2030
2028
2027
2028
2029
2031
2033
2034
2034
2033
2031
2031
2032
2035
2040
2043
2043
2040
2036
2032
2030
2030
2030
2029
2028
2029
2033
2037
2040
2038
2032
2026
2022
2022
2025
2029
2030
2029
2026
2022
2018
2016
2020
2030
2043
2054
2060
2059
2053
2046
2034
2017
1996
1973
1956
1948
1952
1966
1984
2000
2010
2013
2013
2011
2012
2016
2021
2023
2023
2020
2017
2015
2015
2015
2015
2015
2016
2018
2021
2022
2021
2019
2016
2015
2016
2019
2022
2024
2026
2026
2025
2023
2022
2022
2024
2025
2026
2026
2027
2029
2030
2031
2030
2029
2028
2028
2030
2033
2033
2031
2026
2022
2020
2021
2022
2020
2016
2009
2003
2001
2003
2006
2008
2007
2005
2002
2001
2000
1998
1997
1996
1996
1998
1999
1998
1996
1994
1996
2001
2005
2006
2003
1997
1991
1988
1991
1996
2001
2003
1999
1992
1986
1983
1984
1988
1993
1994
1992
1989
1986
1986
1986
1986
1987
1988
1989
1989
1988
1984
1978
1974
1974
1977
1981
1984
1985
1984
1982
1980
1978
1977
1977
1977
1978
1978
1978
1979
1979
1979
1978
1975
1971
1969
1969
1973
1977
1979
1977
1972
1967
1965
1967
1971
1973
1972
1970
1969
1968
1969
1968
1966
1963
1961
1959
1960
1963
1966
1968
1968
1966
1963
1961
1961
1963
1965
1967
1967
1967
1965
1964
1961
1959
1957
1957
1957
1957
1957
1956
1954
1951
1949
1946
1943
1941
1941
1942
1944
1946
1946
1944
1941
1939
1941
1950
1964
1978
1987
1987
1980
1971
1963
1956
1947
1932
1912
1893
1882
1882
1892
1906
1919
1929
1936
1942
1947
1950
1951
1949
1947
1946
1948
1950
1950
1948
1944
1942
1942
1946
1950
1955
1958
1959
1959
1958
1956
1953
1952
1952
1955
1959
1962
1963
1963
1961
1959
1958
1960
1964
1968
1972
1975
1975
1974
1972
1970
1970
1972
1975
1978
1980
1978
1974
1970
1966
1964
1964
1965
1965
1963
1961
1959
1957
1955
1952
1951
1951
1953
1955
1955
1954
1950
1947
1944
1944
1947
1952
1958
1962
1965
1964
1962
1960
1959
1958
1957
1955
1954
1953
1955
1957
1959
1961
1961
1961
1962
1962
1963
1963
1963
1963
1963
1964
1964
1965
1965
1965
1963
1962
1961
1961
1962
1963
1963
1964
1963
1964
1964
1966
1968
1969
1968
1966
1965
1965
1966
1968
1970
1972
1974
1975
1976
1976
1975
1975
1975
1976
1977
1978
1977
1976
1974
1974
1973
1973
1973
1974
1975
1977
1977
1977
1977
1977
1977
1977
1976
1974
1973
1974
1977
1980
1981
1978
1974
1971
1970
1972
1975
1977
1977
1976
1975
1974
1974
1975
1975
1974
1972
1971
1972
1974
1976
1978
1978
1978
1977
1976
1976
1980
1989
2002
2014
2022
2022
2018
2011
2002
1990
1974
1953
1931
1915
1910
1916
1930
1946
1961
1972
1979
1982
1983
1982
1982
1983
1984
1985
1986
1986
1987
1987
1987
1987
1988
1990
1991
1993
1995
1996
1997
1997
1996
1996
1995
1995
1995
1996
1998
2001
2003
2005
2006
2007
2007
2007
2007
2008
2009
2011
2012
2013
2013
2012
2012
2011
2011
2011
2011
2010
2010
2009
2008
2005
2003
2001
1999
1999
2000
2001
2003
2003
2002
2002
2002
2003
2003
2001
1998
1994
1992
1992
1993
1995
1997
1998
1998
1997
1996
1995
1993
1992
1991
1990
1989
1987
1985
1984
1984
1986
1988
1990
1990
1988
1985
1984
1985
1986
1987
1987
1987
1987
1987
1987
1986
1985
1982
1980
1978
1977
1977
1978
1979
1980
1981
1982
1984
1986
1987
1989
1989
1989
1990
1991
1991
1990
1988
1987
1987
1989
1991
1992
1990
1987
1983
1982
1982
1984
1985
1986
1986
1984
1983
1983
1984
1987
1991
1994
1996
1996
1996
1996
1996
1996
1996
1996
1996
1995
1994
1993
1992
1991
1992
1994
1995
1995
1995
1994
1993
1993
1992
1992
1993
1998
2008
2021
2031
2037
2036
2031
2024
2013
1998
1978
1956
1939
1932
1937
1951
1970
1987
2001
2010
2015
2016
2015
2015
2015
2016
2017
2018
2018
2017
2017
2017
2016
2015
2015
2015
2015
2016
2017
2019
2021
2021
2020
2019
2019
2021
2026
2031
2033
2032
2029
2028
2028
2031
2035
2039
2044
2048
2050
2051
2050
2050
2050
2052
2054
2056
2056
2054
2052
2050
2050
2049
2050
2050
2049
2048
2045
2042
2039
2035
2032
2030
2029
2030
2033
2036
2036
2033
2027
2022
2019
2019
2022
2023
2023
2020
2018
2017
2019
2020
2020
2018
2015
2013
2014
2016
2016
2015
2014
2012
2012
2012
2011
2010
2008
2006
2005
2003
2002
2001
2000
1998
1997
1996
1995
1995
1995
1994
1993
1993
1992
1992
1992
1991
1991
1990
1989
1988
1987
1987
1987
1987
1986
1986
1985
1986
1988
1989
1990
1989
1987
1983
1981
1980
1981
1982
1982
1981
1980
1979
1979
1979
1979
1978
1976
1976
1975
1975
1975
1974
1974
1973
1973
1972
1972
1971
1969
1967
1965
1964
1963
1962
1961
1961
1963
1970
1981
1995
2005
2009
2004
1994
1983
1972
1962
1948
1929
1909
1893
1887
1893
1909
1929
1946
1958
1962
1961
1958
1956
1954
1954
1953
1952
1953
1955
1958
1960
1960
1959
1956
1954
1952
1951
1950
1950
1950
1952
1954
1954
1953
1951
1950
1951
1953
1954
1954
1953
1952
1952
1953
1955
1956
1957
1958
1957
1957
1957
1958
1961
1962
1963
1960
1956
1952
1949
1949
1950
1951
1952
1951
1949
1946
1943
1940
1939
1937
1935
1933
1931
1929
1928
1928
1927
1928
1928
1929
1930
1930
1931
1931
1931
1931
1932
1932
1934
1936
1940
1942
1942
1939
1936
1933
1932
1933
1934
1936
1937
1938
1940
1941
1942
1943
1942
1941
1940
1941
1942
1943
1944
1943
1943
1945
1947
1949
1951
1952
1952
1952
1952
1952
1951
1951
1951
1952
1955
1958
1961
1964
1965
1965
1963
1962
1962
1963
1965
1967
1968
1968
1968
1969
1970
1972
1974
1974
1972
1970
1968
1968
1969
1971
1973
1973
1973
1974
1974
1974
1974
1973
1972
1975
1982
1995
2008
2017
2021
2020
2016
2010
2003
1991
1974
1955
1938
1929
1932
1943
1960
1977
1991
2000
2005
2008
2009
2011
2012
2013
2015
2017
2019
2022
2023
2022
2021
2021
2022
2025
2027
2028
2028
2028
2028
2030
2031
2033
2034
2035
2037
2039
2041
2042
2042
2042
2041
2041
2042
2045
2048
2050
2053
2055
2055
2055
2054
2053
2053
2054
2054
2055
2054
2052
2049
2047
2045
2045
2046
2047
2047
2045
2043
2042
2042
2043
2043
2042
2040
2038
2037
2039
2042
2046
2047
2047
2046
2044
2043
2043
2045
2048
2050
2050
2048
2045
2042
2041
2042
2045
2048
2050
2050
2050
2049
2048
2048
2050
2051
2052
2051
2049
2048
2048
2048
2048
2049
2049
2050
2051
2052
2052
2053
2053
2053
2052
2051
2048
2047
2046
2046
2048
2050
2054
2057
2058
2057
2055
2053
2053
2054
2054
2053
2050
2049
2048
2049
2051
2052
2052
2052
2052
2052
2051
2050
2049
2048
2048
2048
2048
2048
2048
2048
2048
2047
2045
2042
2039
2039
2042
2051
2064
2077
2084
2082
2072
2060
2048
2039
2026
2010
1990
1973
1966
1973
1989
2007
2022
2031
2036
2039
2041
2043
2045
2044
2043
2041
2040
2040
2041
2043
2045
2046
2046
2044
2043
2042
2042
2042
2043
2044
2044
2045
2046
2046
2045
2043
2041
2040
2040
2041
2043
2046
2046
2046
2044
2042
2041
2042
2045
2047
2048
2047
2043
2039
2036
2034
2033
2033
2032
2030
2028
2026
2023
2021
2018
2014
2011
2009
2007
2007
2007
2007
2005
2003
2000
1997
1996
1996
1997
1999
2001
2001
1999
1997
1996
1996
1998
1998
1998
1996
1995
1994
1995
1996
1996
1996
1994
1992
1991
1990
1989
1989
1990
1990
1989
1988
1986
1984
1983
1982
1982
1982
1983
1983
1982
1981
1980
1979
1979
1979
1979
1979
1979
1977
1976
1975
1975
1975
1975
1976
1978
1979
1979
1979
1977
1976
1976
1976
1977
1976
1975
1973
1971
1971
1970
1969
1967
1966
1965
1965
1965
1965
1966
1966
1966
1965
1964
1963
1963
1962
1961
1960
1960
1962
1970
1984
1999
2010
2013
2007
1998
1988
1976
1962
1942
1921
1903
1896
1902
1917
1934
1949
1960
1967
1971
1972
1973
1974
1976
1978
1979
1980
1980
1979
1978
1978
1977
1978
1979
1980
1983
1985
1986
1985
1984
1983
1984
1985
1987
1989
1990
1991
1992
1994
1995
1996
1998
1999
2000
2001
2002
2003
2005
2005
2006
2006
2006
2006
2006
2006
2006
2006
2005
2004
2003
2002
2000
1999
1997
1996
1995
1993
1992
1991
1990
1989
1988
1988
1989
1989
1990
1990
1991
1991
1991
1991
1990
1991
1992
1993
1994
1994
1994
1993
1993
1994
1996
1998
2000
2000
1999
1999
1999
2000
2001
2001
2000
2000
1999
1999
1999
1999
1999
1999
1999
2000
2000
2001
2001
2002
2002
2001
2001
2001
2001
2001
2001
2000
2000
1999
1997
1995
1995
1995
1998
2000
2003
2005
2006
2007
2009
2010
2012
2012
2011
2010
2009
2008
2007
2007
2007
2007
2007
2007
2007
2007
2007
2007
2006
2005
2005
2005
2005
2006
2005
2004
2003
2002
2002
2002
2003
2005
2010
2019
2030
2038
2042
2040
2034
2025
2015
2001
1982
1961
1943
1936
1942
1959
1980
1999
2012
2019
2021
2022
2022
2022
2022
2023
2023
2024
2024
2024
2024
2024
2023
2023
2023
2022
2022
2023
2023
2024
2025
2025
2025
2025
2026
2027
2027
2028
2029
2030
2030
2030
2029
2029
2030
2031
2032
2034
2035
2035
2035
2035
2035
2034
2034
2034
2034
2034
2033
2031
2029
2026
2023
2020
2017
2015
2014
2013
2012
2011
2010
2009
2008
2007
2006
2006
2007
2008
2008
2008
2007
2006
2006
2006
2006
2006
2007
2007
2007
2007
2006
2005
2004
2004
2003
2003
2003
2002
2002
2001
2001
2000
1999
1999
1998
1999
1999
2000
2001
2001
2000
1999
1998
1997
1996
1996
1996
1997
1997
1998
1997
1997
1996
1996
1996
1996
1997
1997
1998
1998
1997
1996
1996
1995
1995
1996
1997
1998
1999
2000
2000
2000
1999
1998
1997
1997
1997
1996
1996
1996
1996
1996
1996
1996
1997
1997
1997
1996
1995
1994
1993
1992
1991
1991
1991
1992
1993
1993
1993
1992
1993
1997
2005
2017
2027
2033
2032
2026
2018
2007
1993
1974
1951
1931
1920
1921
1935
1955
1974
1988
1997
2000
2001
2001
2001
2001
2002
2004
2004
2005
2005
2005
2006
2007
2008
2008
2009
2009
2010
2010
2010
2010
2010
2010
2011
2011
2011
2011
2012
2013
2014
2014
2015
2015
2015
2016
2016
2017
2018
2019
2019
2020
2019
2019
2019
2018
2018
2017
2016
2015
2013
2011
2008
2005
2002
1999
1997
1996
1995
1994
1992
1990
1988
1986
1985
1985
1986
1987
1987
1988
1988
1988
1988
1988
1987
1988
1988
1989
1989
1989
1988
1988
1987
1986
1986
1985
1985
1986
1986
1986
1986
1985
1984
1983
1983
1983
1983
1984
1984
1984
1984
1983
1983
1983
1983
1984
1984
1983
1982
1981
1980
1980
1979
1979
1979
1979
1980
1981
1981
1981
1980
1980
1979
1979
1979
1979
1980
1982
1983
1984
1984
1984
1984
1983
1983
1983
1983
1984
1983
1983
1982
1982
1982
1982
1983
1984
1984
1984
1983
1982
1980
1979
1979
1979
1979
1980
1980
1981
1981
1980
1980
1980
1985
1995
2007
2019
2025
2026
2022
2015
2006
1994
1976
1954
1933
1920
1918
1927
1943
1959
1972
1980
1984
1985
1984
1984
1984
1985
1986
1987
1987
1987
1987
1987
1987
1988
1989
1991
1991
1992
1992
1991
1991
1991
1991
1991
1992
1993
1994
1995
1996
1996
1996
1996
1997
1998
1999
2001
2002
2004
2004
2004
2004
2003
2003
2003
2003
2004
2004
2004
2003
2002
2000
1997
1995
1993
1991
1990
1989
1988
1986
1985
1983
1982
1981
1981
1982
1984
1985
1986
1986
1986
1985
1985
1985
1986
1986
1986
1987
1987
1987
1987
1986
1986
1985
1984
1984
1985
1985
1985
1985
1984
1983
1982
1982
1982
1982
1983
1984
1984
1983
1983
1981
1980
1980
1980
1980
1981
1981
1981
1981
1981
1981
1981
1981
1981
1981
1981
1981
1981
1981
1981
1980
1980
1979
1980
1980
1981
1981
1981
1981
1981
1981
1981
1981
1982
1983
1984
1985
1985
1985
1985
1985
1984
1984
1983
1983
1983
1984
1984
1984
1985
1985
1985
1984
1983
1982
1981
1980
1980
1980
1980
1980
1980
1980
1979
1978
1977
1978
1983
1992
2003
2013
2017
2015
2008
2000
1990
1977
1958
1937
1917
1906
1907
1920
1939
1957
1971
1979
1983
1985
1985
1985
1985
1986
1987
1989
1990
1991
1991
1991
1990
1990
1990
1991
1992
1993
1994
1995
1996
1996
1996
1996
1997
1998
1999
2001
2003
2005
2006
2007
2007
2008
2008
2009
2011
2013
2014
2016
2017
2018
2018
2017
2016
2016
2016
2015
2015
2013
2011
2008
2005
2002
1999
1997
1996
1995
1994
1993
1993
1991
1990
1989
1988
1988
1988
1989
1989
1990
1990
1990
1990
1990
1990
1989
1989
1989
1990
1990
1990
1990
1990
1989
1988
1987
1987
1987
1987
1987
1987
1986
1985
1985
1984
1984
1984
1985
1985
1985
1985
1985
1984
1983
1983
1982
1982
1983
1984
1984
1985
1986
1986
1985
1984
1983
1981
1980
1980
1979
1979
1978
1978
1978
1977
1978
1978
1978
1979
1979
1979
1979
1979
1978
1978
1978
1978
1979
1980
1982
1983
1983
1983
1982
1982
1981
1981
1981
1981
1980
1980
1979
1980
1982
1984
1985
1984
1983
1980
1977
1976
1975
1975
1975
1975
1975
1975
1974
1974
1974
1973
1973
1977
1985
1997
2008
2014
2014
2009
1999
1988
1974
1957
1936
1917
1907
1909
1922
1942
1960
1973
1980
1983
1983
1983
1982
1984
1986
1990
1992
1993
1991
1989
1988
1989
1991
1993
1992
1991
1992
1994
1997
1999
1999
1997
1995
1995
1997
1999
2002
2003
2003
2003
2004
2005
2007
2009
2010
2012
2013
2014
2015
2014
2013
2012
2011
2011
2012
2012
2011
2009
2005
2002
2001
1999
1998
1996
1994
1990
1987
1986
1985
1984
1983
1981
1978
1975
1973
1973
1974
1976
1977
1976
1973
1971
1971
1973
1975
1977
1977
1975
1974
1972
1972
1972
1973
1973
1973
1973
1974
1975
1975
1975
1975
1975
1974
1974
1974
1974
1975
1975
1976
1976
1976
1974
1972
1971
1971
1973
1975
1976
1975
1973
1969
1967
1966
1967
1968
1969
1968
1968
1968
1968
1966
1964
1962
1960
1960
1962
1965
1967
1968
1967
1965
1962
1960
1960
1962
1966
1969
1971
1970
1968
1964
1962
1963
1967
1972
1975
1976
1975
1971
1968
1966
1966
1967
1969
1970
1970
1969
1967
1965
1964
1962
1962
1962
1962
1963
1965
1966
1967
1966
1964
1961
1960
1966
1978
1991
2000
2000
1993
1982
1971
1960
1946
1928
1907
1891
1885
1891
1906
1923
1938
1948
1953
1956
1957
1957
1957
1957
1957
1958
1958
1958
1958
1959
1960
1962
1964
1966
1967
1968
1967
1965
1964
1964
1965
1966
1968
1968
1968
1968
1968
1968
1970
1973
1976
1978
1979
1978
1977
1977
1978
1979
1981
1982
1982
1982
1982
1982
1981
1980
1980
1978
1977
1976
1974
1972
1970
1969
1969
1969
1969
1967
1964
1960
1957
1957
1959
1963
1967
1968
1966
1963
1960
1958
1957
1959
1960
1961
1961
1960
1959
1959
1960
1961
1961
1962
1962
1963
1964
1965
1965
1964
1962
1960
1958
1958
1959
1961
1962
1962
1960
1959
1958
1959
1961
1962
1962
1961
1960
1960
1960
1961
1963
1964
1964
1963
1962
1959
1957
1956
1956
1957
1959
1960
1962
1962
1963
1963
1963
1964
1965
1965
1964
1962
1961
1962
1964
1968
1969
1969
1966
1963
1962
1963
1965
1968
1969
1970
1970
1970
1969
1968
1965
1962
1960
1959
1960
1963
1965
1967
1967
1966
1964
1962
1962
1964
1969
1980
1994
2006
2012
2009
2001
1990
1980
1969
1956
1939
1921
1908
1904
1910
1923
1938
1953
1966
1975
1980
1982
1982
1982
1981
1981
1982
1984
1985
1987
1989
1991
1991
1991
1990
1989
1989
1990
1991
1992
1993
1993
1993
1994
1995
1996
1997
1999
1999
2000
2001
2003
2004
2007
2009
2010
2011
2012
2013
2014
2015
2015
2014
2014
2013
2013
2013
2013
2013
2011
2009
2007
2005
2003
2001
1998
1995
1994
1994
1995
1996
1996
1994
1992
1990
1988
1989
1990
1992
1993
1993
1992
1991
1991
1992
1992
1991
1990
1989
1988
1989
1991
1992
1991
1988
1985
1982
1982
1983
1985
1986
1987
1986
1985
1984
1983
1983
1983
1983
1984
1985
1986
1987
1987
1985
1983
1981
1981
1981
1982
1981
1981
1980
1980
1979
1979
1979
1980
1981
1983
1984
1984
1984
1982
1980
1977
1976
1975
1977
1979
1982
1984
1985
1985
1985
1984
1983
1983
1983
1984
1984
1983
1983
1982
1982
1983
1983
1983
1982
1981
1980
1979
1979
1979
1979
1980
1981
1982
1983
1982
1980
1978
1979
1985
1997
2009
2017
2018
2011
2000
1987
1972
1955
1936
1918
1906
1904
1914
1932
1952
1970
1982
1988
1990
1990
1989
1989
1990
1992
1994
1996
1997
1996
1995
1994
1993
1994
1995
1997
1998
1998
1998
1998
1998
1998
1999
2000
2000
2001
2002
2004
2007
2009
2009
2008
2007
2007
2008
2010
2013
2014
2015
2015
2014
2015
2016
2017
2018
2018
2016
2015
2013
2011
2010
2009
2007
2006
2004
2002
2000
1997
1994
1993
1994
1996
1999
2000
2000
1998
1997
1996
1997
1998
1998
1998
1997
1996
1996
1996
1997
1998
1998
1998
1997
1996
1994
1993
1992
1992
1992
1994
1995
1995
1995
1993
1991
1990
1990
1991
1991
1992
1992
1992
1992
1993
1993
1993
1993
1992
1991
1989
1988
1988
1988
1989
1991
1993
1994
1994
1994
1994
1994
1995
1996
1995
1993
1991
1989
1989
1990
1992
1994
1995
1996
1996
1995
1995
1995
1995
1994
1994
1993
1993
1994
1996
1997
1997
1997
1995
1994
1992
1990
1988
1988
1987
1987
1987
1987
1987
1987
1987
1986
1984
1982
1981
1984
1994
2008
2022
2030
2031
2024
2013
2001
1988
1971
1952
1933
1919
1917
1926
1943
1962
1977
1987
1992
1994
1994
1994
1994
1995
1995
1997
1998
1998
1997
1996
1994
1994
1995
1997
1998
1999
1999
2000
2000
2000
2000
2001
2003
2004
2005
2006
2008
2010
2012
2013
2012
2011
2010
2009
2010
2012
2014
2015
2015
2015
2015
2016
2017
2017
2016
2014
2012
2009
2007
2004
2002
2001
1999
1998
1996
1993
1989
1986
1984
1983
1982
1983
1984
1984
1984
1983
1982
1980
1980
1982
1984
1987
1989
1988
1986
1984
1982
1983
1984
1985
1985
1984
1983
1983
1983
1983
1984
1983
1983
1982
1982
1981
1980
1980
1981
1983
1985
1986
1985
1982
1980
1979
1979
1980
1981
1982
1983
1983
1982
1981
1980
1980
1981
1983
1985
1987
1988
1987
1986
1984
1983
1984
1986
1988
1991
1993
1993
1991
1988
1985
1983
1985
1989
1993
1996
1996
1993
1990
1988
1987
1988
1989
1992
1994
1996
1996
1993
1990
1989
1989
1991
1992
1990
1986
1981
1977
1975
1975
1976
1977
1978
1980
1981
1981
1980
1978
1977
1980
1990
2003
2017
2026
2027
2020
2011
1999
1986
1971
1952
1933
1920
1917
1925
1941
1958
1972
1982
1987
1990
1992
1993
1995
1995
1993
1991
1990
1989
1989
1990
1990
1991
1992
1992
1993
1993
1993
1993
1994
1995
1996
1997
1998
1999
2001
2002
2003
2004
2003
2002
2001
2002
2003
2006
2007
2009
2010
2010
2011
2011
2011
2010
2009
2009
2008
2008
2007
2007
2006
2004
2000
1996
1992
1990
1989
1988
1987
1985
1982
1980
1979
1979
1979
1979
1980
1980
1980
1980
1980
1979
1979
1979
1980
1981
1982
1983
1983
1983
1982
1981
1980
1980
1979
1979
1979
1979
1979
1979
1980
1979
1978
1977
1976
1976
1976
1976
1974
1973
1971
1971
1971
1971
1970
1969
1968
1967
1967
1968
1969
1969
1970
1970
1971
1972
1972
1973
1972
1972
1971
1969
1968
1968
1969
1969
1969
1968
1966
1964
1963
1962
1963
1965
1966
1968
1968
1969
1968
1968
1966
1965
1964
1962
1962
1964
1965
1966
1966
1965
1963
1962
1961
1961
1962
1963
1964
1964
1964
1964
1962
1961
1960
1961
1965
1974
1986
1998
2007
2008
2004
1997
1989
1979
1966
1948
1928
1911
1903
1906
1917
1932
1947
1959
1966
1970
1972
1973
1972
1972
1973
1974
1975
1977
1977
1978
1978
1979
1979
1979
1979
1978
1978
1978
1980
1981
1983
1985
1987
1988
1988
1987
1986
1986
1987
1988
1990
1991
1992
1993
1994
1995
1996
1997
1998
1999
1999
1999
1998
1997
1996
1995
1995
1996
1997
1998
1997
1996
1994
1992
1989
1985
1983
1981
1981
1981
1982
1983
1983
1982
1982
1982
1982
1982
1982
1982
1981
1980
1979
1979
1979
1979
1979
1979
1979
1980
1980
1980
1981
1981
1982
1983
1984
1985
1985
1984
1984
1984
1984
1984
1984
1983
1982
1981
1981
1981
1982
1982
1982
1982
1982
1982
1983
1983
1983
1983
1983
1983
1983
1982
1982
1982
1982
1983
1984
1986
1986
1986
1985
1984
1984
1984
1983
1983
1983
1984
1984
1985
1986
1986
1986
1986
1987
1988
1988
1989
1988
1986
1985
1983
1983
1983
1984
1985
1987
1989
1989
1988
1987
1985
1984
1984
1984
1984
1984
1984
1984
1984
1984
1983
1984
1987
1995
2005
2016
2024
2026
2022
2014
2005
1993
1978
1960
1940
1925
1920
1925
1939
1956
1972
1984
1992
1996
1998
1999
1999
2001
2002
2002
2002
2001
2001
2000
2000
2001
2002
2003
2005
2005
2006
2005
2004
2003
2003
2004
2006
2007
2008
2008
2008
2008
2008
2009
2011
2012
2013
2014
2015
2016
2018
2019
2020
2019
2019
2019
2019
2019
2019
2019
2019
2018
2017
2015
2013
2011
2009
2008
2006
2005
2004
2002
2000
1998
1997
1997
1997
1997
1997
1997
1996
1995
1994
1994
1995
1996
1996
1996
1996
1996
1996
1995
1994
1994
1994
1994
1995
1996
1996
1995
1994
1993
1993
1993
1993
1994
1995
1996
1995
1994
1993
1992
1992
1992
1992
1993
1993
1992
1991
1991
1991
1991
1991
1991
1990
1990
1990
1990
1990
1991
1990
1990
1989
1989
1989
1990
1991
1991
1991
1990
1989
1989
1989
1989
1989
1990
1990
1991
1991
1991
1991
1991
1991
1993
1994
1995
1996
1996
1995
1994
1993
1992
1992
1992
1993
1994
1995
1996
1996
1995
1994
1992
1991
1990
1989
1988
1988
1988
1988
1989
1989
1990
1989
1988
1989
1993
2003
2016
2027
2033
2031
2023
2012
2001
1988
1972
1953
1935
1924
1924
1933
1948
1965
1978
1989
1995
1998
2000
2001
2001
2001
2001
2001
2001
2002
2004
2005
2006
2006
2006
2006
2005
2005
2005
2005
2006
2008
2010
2010
2010
2009
2009
2010
2012
2013
2014
2015
2016
2017
2018
2020
2021
2021
2022
2022
2023
2023
2023
2023
2022
2021
2020
2019
2018
2018
2017
2017
2015
2013
2011
2008
2006
2005
2004
2004
2004
2003
2002
2001
2001
2001
2002
2002
2003
2003
2003
2002
2002
2001
2001
2001
2000
2000
1999
1999
2000
2000
2000
2000
2000
1999
1999
1998
1998
1998
1998
1999
1999
1999
1998
1997
1996
1995
1994
1994
1995
1996
1997
1997
1998
1998
1998
1998
1997
1997
1997
1997
1997
1998
1998
1998
1998
1997
1997
1997
1997
1997
1997
1997
1997
1997
1996
1995
1995
1995
1996
1996
1996
1996
1996
1996
1995
1996
1996
1997
1998
1998
1997
1997
1996
1996
1997
1997
1999
2000
2002
2004
2004
2004
2004
2002
2001
1999
1998
1997
1997
1997
1999
2000
2001
2001
1999
1998
1996
1995
1995
1995
1995
1995
1995
1995
1995
1994
1993
1992
1994
1998
2006
2017
2028
2034
2035
2030
2022
2012
1998
1981
1960
1941
1929
1928
1937
1953
1971
1985
1995
2001
2004
2005
2005
2004
2004
2003
2003
2003
2003
2003
2003
2003
2003
2002
2001
1999
1997
1997
1998
1999
2000
2001
2000
2000
1999
2000
2001
2002
2003
2004
2006
2006
2006
2006
2005
2005
2006
2008
2010
2011
2012
2012
2011
2010
2008
2007
2005
2004
2003
2002
2000
1997
1995
1993
1992
1990
1989
1987
1986
1985
1984
1983
1982
1981
1980
1979
1979
1978
1978
1978
1978
1978
1978
1978
1977
1977
1976
1976
1976
1977
1977
1977
1976
1975
1973
1972
1972
1972
1972
1972
1972
1971
1970
1969
1968
1967
1966
1966
1966
1966
1967
1967
1967
1966
1965
1964
1964
1963
1964
1964
1964
1963
1963
1962
1962
1962
1963
1963
1964
1964
1964
1965
1965
1964
1962
1961
1960
1960
1961
1962
1963
1963
1963
1963
1963
1963
1963
1963
1963
1962
1961
1960
1959
1958
1959
1960
1961
1962
1963
1963
1963
1962
1961
1960
1959
1959
1959
1960
1961
1962
1963
1963
1963
1961
1958
1956
1955
1954
1954
1955
1956
1956
1956
1956
1955
1954
1953
1953
1958
1968
1981
1993
2000
2000
1995
1988
1980
1970
1955
1937
1917
1901
1895
1898
1910
1924
1938
1950
1957
1961
1963
1963
1962
1962
1962
1963
1963
1964
1965
1965
1966
1966
1967
1968
1969
1969
1969
1969
1969
1970
1972
1973
1973
1973
1974
1974
1975
1977
1978
1980
1981
1982
1982
1983
1984
1985
1986
1987
1988
1988
1989
1989
1989
1989
1989
1989
1988
1988
1987
1986
1985
1983
1981
1978
1976
1974
1972
1972
1973
1973
1972
1971
1969
1968
1968
1968
1969
1970
1971
1972
1973
1974
1973
1973
1972
1971
1972
1972
1973
1974
1975
1976
1976
1977
1976
1974
1973
1973
1974
1974
1975
1975
1975
1975
1975
1975
1975
1974
1974
1974
1975
1976
1977
1978
1979
1979
1979
1979
1979
1980
1981
1982
1981
1981
1980
1979
1978
1979
1980
1981
1982
1983
1983
1983
1982
1981
1980
1980
1980
1981
1982
1983
1983
1983
1983
1983
1983
1983
1984
1985
1985
1986
1985
1985
1984
1984
1985
1986
1988
1989
1990
1990
1990
1990
1989
1989
1989
1989
1990
1992
1993
1994
1994
1993
1992
1990
1989
1988
1988
1988
1988
1988
1988
1988
1988
1987
1986
1985
1986
1990
1999
2011
2023
2030
2030
2025
2019
2011
2002
1989
1970
1949
1931
1923
1927
1940
1957
1973
1986
1994
1998
1999
1998
1997
1997
1997
1998
1999
2000
2001
2002
2003
2003
2003
2003
2003
2003
2004
2005
2006
2006
2006
2006
2006
2006
2006
2005
2005
2005
2006
2008
2009
2011
2012
2013
2014
2015
2016
2017
2017
2018
2019
2020
2021
2021
2021
2021
2021
2021
2021
2020
2019
2017
2014
2010
2008
2006
2005
2004
2004
2003
2003
2003
2003
2003
2003
2002
2001
2001
2002
2002
2003
2003
2002
2002
2002
2002
2003
2005
2005
2005
2004
2003
2003
2003
2003
2002
2001
2001
2000
2000
2001
2001
2002
2002
2001
2001
2001
2001
2001
2001
2001
2001
2001
2000
2000
1999
1999
1998
1998
1998
1998
1998
1998
1997
1997
1996
1996
1996
1997
1997
1997
1997
1997
1997
1997
1997
1997
1997
1997
1997
1997
1997
1996
1995
1994
1994
1994
1995
1996
1997
1998
1998
1999
1998
1998
1998
1998
1998
1998
1999
1999
1999
1998
1997
1997
1996
1996
1997
1997
1998
1999
2000
2000
2000
1999
1999
1999
1999
2000
2000
2000
2000
1999
1999
1998
1997
1997
1997
1997
1997
1997
1996
1995
1994
1993
1993
1993
1993
1993
1993
1994
1999
2008
2020
2030
2036
2035
2029
2021
2011
1998
1980
1960
1941
1931
1932
1945
1963
1981
1995
2003
2007
2008
2008
2009
2010
2011
2012
2013
2013
2014
2014
2014
2014
2015
2015
2015
2016
2017
2018
2019
2020
2020
2020
2020
2020
2022
2024
2026
2027
2028
2028
2028
2028
2029
2030
2032
2034
2035
2036
2037
2037
2037
2038
2039
2039
2039
2039
2039
2039
2039
2037
2034
2031
2028
2025
2023
2021
2020
2018
2018
2017
2016
2015
2014
2013
2013
2013
2014
2015
2015
2014
2014
2013
2012
2012
2013
2013
2014
2014
2014
2014
2013
2013
2013
2013
2013
2013
2013
2012
2012
2011
2010
2009
2009
2008
2009
2009
2008
2008
2007
2007
2006
2006
2006
2006
2005
2006
2006
2006
2006
2005
2004
2003
2002
2002
2002
2002
2002
2002
2002
2002
2001
2000
2000
2000
2000
2001
2001
2002
2002
2002
2002
2002
2002
2002
2003
2004
2004
2005
2005
2005
2005
2005
2005
2005
2007
2008
2008
2008
2007
2006
2005
2005
2005
2005
2005
2005
2006
2006
2006
2006
2006
2006
2006
2007
2007
2008
2008
2008
2008
2007
2007
2006
2005
2005
2005
2006
2006
2005
2005
2004
2003
2001
2000
1999
1998
1998
1999
1999
1998
1997
1995
1994
1997
2004
2015
2026
2034
2035
2030
2022
2012
1999
1981
1960
1938
1923
1919
1927
1943
1960
1974
1981
1985
1986
1986
1986
1986
1986
1986
1985
1984
1983
1981
1980
1978
1978
1979
1980
1981
1981
1980
1978
1976
1975
1974
1974
1974
1974
1974
1973
1973
1972
1972
1972
1972
1973
1974
1974
1974
1974
1974
1974
1974
1974
1975
1976
1977
1978
1978
1977
1974
1971
1968
1965
1963
1961
1959
1957
1954
1951
1948
1946
1945
1944
1944
1945
1945
1944
1944
1943
1942
1942
1944
1945
1947
1947
1946
1944
1941
1938
1936
1934
1932
1930
1928
1926
1925
1924
1923
1923
1923
1923
1922
1921
1921
1921
1922
1923
1924
1924
1925
1925
1925
1925
1925
1924
1924
1923
1923
1923
1924
1926
1927
1928
1929
1930
1930
1931
1931
1931
1932
1933
1933
1934
1934
1933
1932
1932
1932
1933
1934
1935
1936
1935
1934
1934
1934
1936
1938
1939
1940
1939
1937
1936
1936
1937
1938
1939
1940
1941
1941
1942
1944
1947
1949
1951
1952
1952
1951
1951
1950
1948
1946
1943
1941
1941
1941
1943
1944
1945
1945
1944
1943
1942
1942
1943
1944
1945
1946
1945
1944
1943
1944
1949
1959
1972
1983
1989
1989
1984
1977
1969
1957
1941
1921
1902
1889
1886
1893
1906
1921
1934
1944
1950
1953
1955
1956
1956
1957
1958
1958
1958
1958
1958
1958
1960
1962
1963
1965
1966
1967
1967
1968
1968
1969
1970
1971
1972
1974
1975
1976
1976
1976
1976
1977
1978
1981
1983
1985
1985
1984
1983
1982
1982
1983
1984
1986
1986
1986
1985
1985
1984
1982
1981
1979
1977
1976
1975
1973
1972
1970
1969
1969
1969
1969
1970
1971
1972
1973
1973
1973
1973
1972
1972
1973
1974
1975
1976
1976
1976
1976
1976
1977
1977
1977
1978
1979
1980
1980
1981
1981
1981
1981
1981
1981
1982
1983
1984
1985
1985
1985
1985
1985
1986
1986
1987
1987
1988
1990
1991
1992
1991
1989
1988
1987
1988
1989
1989
1989
1988
1987
1986
1986
1986
1987
1989
1990
1991
1991
1989
1986
1983
1982
1984
1986
1987
1987
1986
1985
1985
1985
1985
1985
1984
1983
1983
1983
1984
1984
1983
1981
1980
1980
1980
1982
1984
1985
1987
1988
1987
1986
1985
1985
1985
1986
1986
1986
1986
1985
1983
1981
1980
1978
1978
1978
1978
1979
1978
1978
1976
1974
1974
1977
1984
1996
2010
2021
2025
2023
2016
2007
1994
1977
1955
1931
1913
1907
1914
1932
1952
1970
1983
1990
1993
1995
1996
1998
2000
2002
2002
2002
2003
2004
2007
2010
2012
2012
2012
2011
2011
2012
2013
2013
2013
2013
2014
2017
2019
2021
2020
2019
2017
2018
2019
2022
2025
2028
2030
2031
2031
2031
2031
2031
2032
2033
2035
2036
2036
2036
2035
2033
2031
2030
2028
2026
2025
2024
2023
2022
2021
2020
2019
2017
2015
2014
2013
2014
2015
2015
2015
2015
2016
2017
2019
2021
2024
2026
2029
2031
2031
2031
2031
2030
2030
2031
2031
2032
2032
2032
2033
2032
2032
2031
2031
2031
2032
2033
2034
2035
2035
2035
2035
2035
2035
2033
2032
2031
2031
2031
2030
2029
2028
2026
2025
2024
2024
2023
2023
2021
2021
2020
2021
2021
2022
2022
2022
2022
2023
2023
2023
2023
2022
2022
2022
2022
2023
2023
2023
2022
2021
2020
2018
2016
2014
2014
2014
2015
2015
2014
2013
2011
2009
2007
2006
2006
2006
2006
2006
2006
2005
2003
2001
1999
1998
1997
1997
1998
1998
1998
1996
1994
1992
1990
1990
1993
2001
2012
2023
2032
2035
2034
2031
2026
2018
2004
1983
1960
1940
1929
1931
1942
1957
1971
1982
1988
1991
1992
1992
1991
1991
1991
1990
1990
1990
1990
1990
1991
1992
1992
1993
1993
1993
1993
1992
1991
1991
1991
1991
1992
1992
1992
1991
1990
1990
1993
1997
2002
2005
2006
2003
1998
1993
1989
1988
1988
1989
1990
1990
1990
1990
1990
1990
1989
1988
1987
1986
1984
1983
1981
1979
1978
1976
1975
1975
1975
1975
1974
1974
1973
1971
1970
1969
1969
1969
1970
1971
1972
1972
1971
1971
1971
1971
1971
1971
1972
1972
1972
1972
1971
1971
1969
1967
1965
1964
1963
1964
1964
1965
1966
1966
1966
1965
1965
1965
1965
1966
1966
1965
1964
1964
1963
1963
1963
1963
1963
1963
1963
1963
1962
1960
1959
1958
1959
1960
1961
1962
1963
1963
1963
1963
1963
1963
1964
1964
1966
1967
1969
1970
1970
1970
1969
1967
1966
1966
1966
1967
1968
1970
1970
1969
1966
1962
1958
1955
1954
1954
1955
1956
1957
1957
1956
1954
1954
1958
1967
1980
1994
2003
2006
2003
1996
1989
1980
1969
1954
1936
1919
1909
1908
1915
1927
1940
1952
1961
1966
1969
1969
1969
1968
1967
1966
1965
1966
1966
1966
1966
1966
1967
1968
1969
1969
1968
1967
1967
1968
1969
1970
1970
1970
1970
1970
1970
1971
1971
1971
1971
1972
1973
1974
1975
1975
1975
1974
1974
1973
1973
1974
1974
1974
1974
1973
1971
1969
1967
1966
1965
1964
1963
1961
1959
1957
1955
1953
1951
1950
1949
1950
1951
1952
1952
1951
1950
1949
1949
1949
1950
1951
1951
1951
1950
1950
1949
1950
1950
1951
1951
1952
1954
1955
1956
1956
1957
1957
1957
1957
1958
1958
1958
1959
1958
1958
1957
1956
1955
1955
1956
1957
1958
1958
1957
1956
1955
1955
1955
1956
1957
1958
1959
1960
1960
1960
1960
1960
1960
1961
1962
1963
1962
1961
1960
1958
1957
1957
1957
1958
1959
1961
1961
1961
1960
1958
1956
1955
1955
1955
1955
1956
1957
1957
1956
1955
1954
1956
1963
1974
1988
1999
2003
2002
1996
1989
1981
1970
1953
1933
1913
1900
1897
1905
1918
1933
1946
1955
1961
1964
1965
1967
1969
1971
1972
1973
1973
1973
1973
1974
1974
1975
1976
1976
1976
1976
1976
1975
1976
1976
1977
1977
1978
1978
1978
1978
1978
1979
1979
1980
1982
1983
1985
1985
1986
1986
1986
1986
1987
1988
1989
1989
1990
1990
1989
1987
1985
1984
1982
1980
1979
1978
1976
1975
1973
1972
1970
1970
1970
1971
1972
1974
1975
1976
1976
1976
1975
1976
1976
1977
1978
1978
1979
1978
1978
1978
1978
1977
1978
1977
1977
1978
1978
1978
1978
1978
1978
1977
1977
1977
1977
1977
1978
1978
1978
1978
1977
1977
1977
1977
1978
1978
1979
1979
1980
1980
1980
1981
1982
1982
1983
1984
1985
1986
1987
1987
1987
1987
1987
1988
1988
1989
1989
1988
1987
1985
1984
1983
1983
1983
1984
1984
1984
1983
1982
1980
1978
1977
1976
1976
1977
1978
1979
1979
1978
1976
1973
1973
1975
1984
1997
2011
2020
2021
2014
2004
1994
1982
1967
1947
1926
1909
1903
1908
1923
1941
1957
1969
1977
1980
1982
1983
1983
1983
1984
1984
1984
1985
1985
1986
1987
1988
1988
1989
1989
1989
1989
1990
1990
1991
1993
1994
1995
1996
1997
1999
2000
2003
2005
2008
2010
2012
2014
2015
2016
2017
2018
2019
2019
2020
2020
2021
2022
2022
2021
2020
2019
2018
2016
2014
2011
2009
2007
2005
2004
2002
2001
1999
1998
1997
1997
1998
2000
2001
2002
2002
2001
2001
2001
2002
2003
2004
2005
2006
2006
2005
2004
2003
2003
2004
2005
2007
2008
2009
2009
2008
2007
2007
2007
2007
2008
2008
2009
2008
2007
2006
2005
2004
2004
2004
2005
2006
2006
2006
2006
2005
2003
2001
2000
2000
2000
2000
2001
2001
2000
2000
2000
2000
2001
2001
2001
2001
2001
2001
2001
2001
1999
1997
1995
1994
1994
1995
1996
1997
1998
1999
1999
1998
1998
1997
1996
1995
1996
1996
1996
1997
1997
1997
1996
1995
1994
1995
1998
2007
2020
2031
2038
2036
2029
2019
2008
1995
1978
1957
1938
1925
1924
1936
1955
1975
1990
1999
2003
2004
2003
2003
2002
2002
2002
2002
2003
2004
2005
2005
2005
2005
2005
2005
2004
2005
2006
2007
2008
2009
2010
2010
2010
2010
2011
2012
2013
2014
2015
2016
2017
2018
2018
2019
2019
2020
2021
2023
2024
2025
2025
2025
2024
2022
2021
2019
2018
2017
2015
2014
2011
2009
2006
2003
2000
1997
1996
1994
1993
1992
1992
1991
1991
1990
1989
1989
1989
1991
1992
1993
1994
1993
1992
1992
1992
1992
1992
1991
1990
1989
1989
1989
1989
1989
1989
1990
1990
1990
1990
1990
1989
1988
1987
1987
1986
1986
1986
1987
1987
1987
1986
1986
1986
1985
1985
1985
1986
1986
1987
1988
1988
1988
1988
1987
1987
1987
1987
1988
1988
1988
1988
1988
1987
1987
1987
1987
1987
1988
1989
1990
1991
1991
1991
1991
1992
1992
1992
1991
1990
1989
1989
1988
1988
1988
1989
1990
1991
1992
1991
1990
1989
1988
1987
1986
1986
1987
1988
1989
1990
1990
1988
1987
1986
1989
1998
2010
2022
2029
2029
2023
2014
2002
1988
1970
1949
1930
1919
1920
1933
1952
1971
1985
1993
1996
1998
1998
1998
1998
1999
2000
2000
2000
1999
1999
1999
2000
2000
2001
2001
2001
2000
2000
1999
1999
1999
2000
2001
2002
2004
2005
2005
2005
2005
2006
2007
2008
2010
2012
2014
2015
2015
2015
2015
2015
2016
2016
2017
2018
2017
2017
2016
2014
2013
2010
2008
2005
2003
2001
1999
1997
1994
1992
1990
1989
1988
1987
1987
1986
1986
1986
1986
1986
1986
1985
1985
1985
1986
1986
1987
1987
1987
1986
1986
1985
1985
1985
1985
1986
1988
1989
1989
1988
1986
1985
1984
1984
1985
1985
1985
1985
1984
1983
1982
1981
1981
1981
1981
1981
1980
1980
1979
1978
1978
1977
1977
1977
1976
1977
1977
1977
1977
1977
1976
1974
1973
1973
1972
1972
1973
1973
1973
1973
1973
1973
1974
1974
1975
1975
1974
1974
1974
1974
1974
1974
1974
1975
1976
1976
1977
1977
1976
1975
1974
1973
1973
1974
1975
1977
1977
1977
1975
1973
1971
1970
1969
1968
1968
1967
1967
1966
1966
1966
1965
1964
1962
1962
1964
1969
1980
1992
2002
2007
2005
1999
1993
1985
1974
1957
1935
1915
1902
1900
1909
1925
1941
1953
1962
1967
1969
1970
1969
1969
1969
1970
1970
1971
1972
1972
1972
1972
1972
1972
1972
1972
1972
1972
1973
1973
1974
1974
1975
1975
1975
1974
1975
1975
1976
1978
1979
1981
1982
1983
1983
1983
1984
1985
1986
1988
1989
1989
1990
1989
1989
1988
1988
1987
1986
1985
1984
1982
1980
1977
1975
1973
1971
1970
1969
1968
1968
1967
1967
1966
1965
1965
1965
1965
1966
1967
1968
1968
1968
1968
1967
1967
1967
1967
1968
1969
1969
1969
1969
1969
1968
1967
1967
1967
1968
1968
1969
1969
1969
1968
1968
1967
1967
1967
1968
1968
1969
1969
1970
1970
1970
1969
1969
1969
1970
1971
1971
1972
1972
1971
1971
1971
1971
1972
1973
1974
1975
1975
1975
1975
1974
1974
1974
1974
1975
1976
1977
1978
1979
1979
1979
1979
1979
1979
1979
1979
1980
1980
1981
1981
1982
1982
1982
1983
1983
1984
1984
1984
1983
1982
1981
1981
1981
1981
1982
1982
1982
1981
1980
1980
1982
1988
1999
2011
2020
2024
2023
2017
2010
1999
1983
1963
1940
1923
1916
1922
1937
1955
1971
1982
1988
1991
1992
1992
1993
1994
1995
1996
1996
1996
1995
1995
1995
1995
1996
1997
1998
1999
1999
1999
1999
1999
2000
2000
2002
2003
2004
2005
2005
2005
2005
2006
2007
2008
2010
2011
2013
2014
2015
2015
2016
2017
2018
2018
2019
2019
2019
2019
2017
2015
2013
2010
2008
2007
2006
2005
2004
2002
2000
1998
1996
1995
1994
1994
1994
1995
1995
1995
1995
1995
1995
1995
1995
1995
1995
1996
1996
1996
1996
1996
1995
1994
1993
1993
1993
1994
1994
1993
1993
1992
1991
1990
1990
1990
1990
1990
1990
1990
1990
1989
1989
1988
1987
1987
1988
1988
1988
1988
1988
1987
1986
1986
1986
1986
1986
1986
1987
1987
1987
1986
1986
1985
1985
1985
1986
1986
1987
1987
1986
1986
1986
1985
1985
1985
1985
1986
1987
1988
1989
1989
1989
1989
1989
1989
1989
1989
1989
1989
1989
1989
1989
1989
1989
1988
1988
1988
1988
1987
1986
1985
1984
1984
1984
1985
1985
1986
1985
1984
1983
1985
1990
2000
2012
2021
2025
2022
2016
2007
1996
1979
1958
1936
1920
1915
1923
1940
1959
1975
1985
1990
1992
1992
1991
1991
1992
1993
1994
1995
1995
1995
1994
1994
1994
1995
1996
1997
1997
1998
1998
1998
1998
1999
1999
1999
2000
2001
2002
2003
2003
2004
2004
2005
2006
2008
2010
2011
2012
2013
2013
2013
2013
2013
2014
2014
2014
2015
2015
2013
2012
2009
2007
2004
2002
2000
1998
1997
1996
1994
1993
1991
1990
1989
1988
1988
1988
1988
1989
1990
1990
1990
1990
1989
1989
1989
1990
1991
1991
1991
1991
1990
1990
1989
1989
1989
1989
1989
1989
1989
1988
1987
1986
1986
1986
1986
1986
1986
1986
1986
1985
1984
1983
1983
1982
1982
1982
1983
1983
1984
1983
1983
1982
1982
1981
1982
1982
1983
1983
1983
1982
1982
1981
1981
1981
1981
1982
1982
1983
1983
1983
1983
1982
1982
1982
1982
1983
1984
1985
1985
1986
1986
1985
1985
1985
1985
1985
1986
1986
1987
1987
1987
1986
1985
1984
1984
1984
1984
1984
1983
1982
1981
1981
1980
1980
1980
1980
1980
1980
1981
1985
1994
2006
2015
2020
2019
2014
2006
1996
1980
1960
1937
1918
1910
1915
1930
1950
1967
1979
1986
1988
1989
1988
1988
1989
1989
1990
1991
1991
1992
1992
1992
1991
1991
1991
1992
1993
1994
1995
1995
1996
1995
1995
1995
1996
1997
1998
1999
2000
2001
2001
2002
2003
2003
2004
2005
2007
2008
2010
2011
2011
2010
2010
2009
2009
2009
2009
2009
2008
2006
2004
2002
1999
1997
1994
1992
1990
1989
1988
1987
1986
1985
1984
1983
1983
1983
1983
1984
1984
1984
1985
1984
1984
1983
1983
1983
1983
1984
1984
1985
1985
1984
1983
1982
1982
1981
1981
1982
1982
1981
1981
1980
1980
1979
1978
1978
1978
1978
1978
1978
1978
