1982
1982
1982
1983
1983
1984
1984
1985
1985
1985
1986
1987
1988
1990
1991
1992
1993
1994
1995
1996
1996
1997
1997
1998
1999
2000
2000
2001
2000
1999
1998
1996
1994
1992
1989
1987
1985
1984
1982
1980
1978
1977
1976
1976
1975
1974
1973
1973
1972
1971
1971
1970
1969
1969
1969
1970
1970
1970
1970
1970
1969
1969
1970
1970
1971
1972
1972
1973
1974
1974
1973
1972
1971
1970
1971
1972
1974
1976
1978
1979
1979
1978
1975
1973
1972
1971
1971
1970
1969
1968
1966
1965
1965
1966
1967
1968
1968
1969
1969
1969
1967
1965
1964
1964
1969
1981
2001
2026
2048
2055
2045
2016
1981
1950
1935
1937
1949
1963
1972
1976
1975
1974
1974
1979
1988
1998
2007
2014
2018
2021
2023
2025
2026
2028
2029
2031
2032
2034
2035
2035
2034
2033
2033
2035
2036
2038
2040
2041
2041
2041
2041
2041
2042
2044
2045
2046
2048
2048
2048
2048
2048
2048
2047
2047
2047
2047
2047
2046
2045
2043
2040
2037
2034
2030
2027
2024
2022
2020
2018
2016
2014
2013
2012
2011
2011
2011
2011
2010
2010
2010
2010
2009
2009
2008
2008
2009
2009
2009
2009
2008
2008
2007
2007
2007
2008
2008
2008
2008
2008
2008
2010
2012
2016
2018
2019
2018
2016
2013
2010
2009
2007
2007
2006
2006
2005
2005
2006
2006
2007
2006
2005
2004
2002
2001
1999
1999
2001
2007
2021
2043
2068
2089
2095
2080
2048
2011
1980
1965
1966
1977
1989
1998
2002
2004
2004
2005
2006
2007
2007
2006
2005
2004
2004
2005
2006
2007
2007
2007
2008
2008
2008
2009
2009
2010
2011
2012
2013
2013
2013
2013
2014
2015
2017
2018
2021
2023
2026
2028
2029
2029
2027
2026
2025
2025
2026
2028
2030
2031
2032
2032
2030
2028
2024
2020
2016
2012
2009
2008
2008
2008
2006
2003
2000
1996
1995
1996
1998
2002
2005
2006
2006
2006
2005
2005
2005
2006
2007
2008
2009
2009
2008
2006
2005
2004
2004
2004
2005
2005
2005
2005
2005
2005
2006
2007
2008
2009
2011
2013
2013
2012
2009
2005
2003
2003
2003
2003
2003
2002
2001
2000
2001
2001
2001
2002
2002
2003
2003
2002
2002
2004
2013
2030
2054
2078
2089
2079
2050
2012
1977
1957
1955
1965
1978
1988
1992
1992
1992
1991
1992
1993
1994
1994
1993
1992
1993
1994
1996
1997
1997
1995
1995
1994
1995
1997
1998
1999
1999
1999
1998
1997
1997
1997
1998
1999
2001
2004
2005
2006
2007
2008
2007
2007
2006
2005
2005
2006
2006
2005
2004
2002
2001
1999
1997
1995
1992
1989
1986
1982
1979
1975
1973
1971
1970
1970
1970
1969
1969
1969
1969
1968
1967
1966
1966
1965
1965
1965
1966
1966
1966
1966
1966
1966
1967
1967
1968
1969
1969
1968
1967
1967
1966
1966
1967
1968
1968
1969
1969
1969
1969
1970
1970
1969
1968
1966
1964
1963
1963
1963
1963
1964
1963
1962
1961
1961
1962
1963
1963
1963
1962
1961
1960
1961
1966
1978
1997
2020
2040
2048
2036
2008
1973
1943
1928
1929
1940
1953
1962
1966
1966
1966
1966
1965
1965
1964
1963
1963
1963
1964
1965
1965
1966
1967
1968
1969
1969
1970
1970
1970
1970
1971
1972
1973
1974
1975
1976
1977
1978
1979
1981
1982
1983
1984
1985
1986
1987
1987
1988
1988
1988
1988
1988
1988
1988
1987
1986
1985
1983
1981
1979
1976
1973
1971
1969
1968
1966
1965
1965
1964
1964
1964
1963
1963
1964
1964
1965
1965
1965
1965
1965
1966
1966
1965
1964
1963
1964
1965
1966
1967
1967
1967
1967
1967
1967
1967
1967
1967
1967
1968
1968
1969
1969
1971
1972
1973
1974
1973
1973
1971
1970
1969
1967
1966
1965
1964
1964
1964
1965
1966
1967
1968
1967
1966
1965
1963
1962
1961
1960
1962
1968
1982
2003
2030
2050
2058
2045
2015
1979
1951
1939
1942
1953
1963
1969
1968
1966
1965
1965
1965
1966
1967
1967
1967
1967
1968
1969
1971
1971
1971
1971
1971
1971
1971
1971
1972
1974
1976
1978
1979
1978
1977
1976
1976
1977
1980
1982
1985
1987
1988
1990
1992
1993
1995
1995
1996
1996
1996
1996
1996
1996
1995
1995
1993
1992
1990
1988
1986
1984
1981
1979
1977
1975
1974
1972
1972
1972
1972
1973
1973
1973
1973
1972
1971
1971
1971
1972
1973
1974
1975
1975
1975
1975
1975
1975
1975
1976
1978
1979
1980
1979
1977
1976
1975
1975
1976
1976
1976
1976
1976
1977
1977
1977
1978
1979
1980
1981
1982
1982
1981
1980
1978
1977
1977
1976
1975
1974
1974
1974
1975
1977
1977
1977
1976
1975
1974
1973
1973
1974
1978
1987
2004
2027
2052
2070
2072
2054
2022
1985
1959
1950
1955
1966
1975
1979
1978
1977
1976
1977
1977
1977
1977
1978
1978
1978
1978
1978
1979
1979
1980
1981
1981
1981
1981
1982
1982
1983
1984
1985
1986
1986
1987
1987
1988
1989
1990
1992
1994
1995
1996
1997
1997
1997
1997
1997
1997
1998
1998
1998
1998
1998
1998
1997
1995
1993
1990
1988
1986
1986
1985
1985
1983
1981
1978
1977
1976
1976
1976
1977
1977
1977
1977
1977
1978
1977
1976
1975
1974
1974
1974
1975
1976
1976
1976
1976
1976
1976
1977
1978
1978
1978
1978
1978
1978
1978
1978
1978
1979
1979
1980
1980
1980
1980
1979
1977
1976
1976
1977
1979
1981
1982
1983
1984
1984
1985
1984
1983
1981
1980
1979
1979
1978
1978
1977
1977
1977
1978
1979
1980
1980
1980
1979
1977
1976
1976
1978
1984
1996
2016
2040
2062
2074
2068
2044
2009
1977
1958
1955
1963
1973
1980
1982
1981
1979
1978
1978
1978
1979
1979
1980
1981
1981
1982
1982
1982
1982
1982
1982
1983
1985
1986
1986
1987
1987
1988
1989
1990
1990
1990
1991
1991
1992
1994
1996
1997
1998
1998
1999
2000
2002
2004
2005
2005
2004
2003
2003
2003
2004
2005
2005
2004
2001
1998
1996
1993
1991
1989
1987
1986
1985
1984
1984
1982
1981
1980
1980
1980
1981
1981
1981
1980
1979
1978
1978
1978
1979
1980
1981
1982
1982
1982
1982
1982
1982
1982
1983
1983
1983
1983
1984
1984
1984
1983
1983
1982
1982
1983
1984
1985
1985
1985
1984
1983
1981
1980
1980
1980
1981
1982
1982
1981
1981
1980
1980
1980
1980
1981
1983
1985
1987
1988
1988
1986
1984
1982
1981
1980
1980
1981
1982
1982
1982
1982
1981
1980
1980
1980
1981
1981
1981
1981
1981
1984
1990
2003
2022
2045
2063
2069
2056
2030
1998
1972
1960
1961
1970
1979
1984
1985
1985
1984
1983
1981
1980
1980
1980
1981
1982
1984
1985
1985
1986
1986
1985
1984
1984
1985
1987
1989
1990
1991
1991
1991
1991
1991
1991
1991
1992
1994
1996
1997
1999
1999
1999
1999
2000
2001
2003
2005
2006
2006
2006
2005
2004
2003
2003
2003
2002
2001
1999
1997
1995
1992
1990
1988
1986
1984
1983
1982
1982
1982
1981
1981
1981
1981
1980
1980
1980
1979
1979
1979
1979
1979
1980
1980
1980
1981
1982
1982
1983
1983
1982
1982
1982
1982
1982
1982
1982
1982
1982
1982
1982
1982
1982
1981
1981
1981
1981
1981
1982
1983
1983
1983
1982
1981
1980
1979
1980
1980
1981
1981
1980
1980
1980
1980
1981
1983
1985
1986
1985
1984
1982
1980
1979
1978
1978
1978
1979
1979
1980
1980
1980
1979
1978
1977
1977
1977
1978
1980
1984
1993
2007
2027
2048
2061
2060
2043
2013
1983
1961
1955
1960
1970
1978
1980
1979
1978
1977
1977
1978
1978
1979
1979
1978
1979
1979
1980
1981
1982
1983
1983
1983
1983
1982
1982
1982
1983
1985
1986
1987
1987
1987
1986
1987
1988
1990
1992
1994
1995
1997
1998
1998
1999
1999
1999
1999
1999
2000
2001
2001
2001
2000
1998
1997
1995
1995
1993
1992
1990
1988
1985
1983
1981
1979
1978
1977
1977
1978
1978
1978
1978
1977
1977
1977
1976
1976
1976
1976
1977
1978
1979
1979
1979
1979
1978
1978
1979
1979
1980
1981
1981
1980
1980
1979
1979
1980
1980
1981
1981
1981
1981
1981
1980
1980
1980
1980
1980
1981
1981
1981
1980
1979
1979
1979
1979
1981
1983
1984
1985
1986
1985
1984
1983
1981
1980
1980
1979
1979
1979
1980
1981
1981
1981
1981
1980
1980
1979
1979
1979
1980
1983
1991
2005
2025
2046
2061
2062
2048
2019
1989
1967
1959
1962
1972
1980
1984
1983
1982
1981
1981
1981
1981
1981
1981
1981
1981
1982
1983
1984
1984
1985
1985
1985
1985
1984
1984
1985
1986
1987
1988
1988
1988
1989
1990
1993
1997
2000
2003
2005
2007
2008
2010
2012
2013
2014
2014
2014
2014
2014
2014
2013
2013
2012
2012
2011
2009
2007
2006
2004
2002
2000
1998
1995
1993
1992
1991
1990
1990
1989
1989
1988
1987
1986
1985
1985
1985
1985
1986
1986
1987
1987
1987
1987
1986
1987
1987
1987
1988
1988
1988
1988
1989
1989
1989
1988
1988
1988
1988
1989
1989
1988
1988
1987
1986
1987
1987
1988
1988
1988
1987
1987
1986
1986
1987
1987
1988
1990
1991
1992
1992
1991
1989
1987
1985
1984
1983
1983
1984
1984
1983
1983
1983
1983
1983
1984
1984
1984
1984
1983
1982
1983
1986
1995
2009
2029
2049
2061
2058
2040
2010
1981
1962
1957
1964
1974
1981
1984
1984
1983
1982
1982
1981
1980
1980
1980
1980
1982
1983
1984
1985
1985
1986
1985
1985
1985
1985
1985
1986
1987
1987
1988
1988
1988
1988
1989
1990
1991
1992
1994
1996
1997
1997
1997
1997
1997
1997
1998
2000
2002
2003
2003
2002
2001
1999
1997
1996
1994
1993
1992
1991
1989
1987
1985
1983
1981
1980
1979
1978
1977
1977
1977
1976
1976
1975
1975
1975
1975
1976
1977
1978
1979
1979
1978
1977
1976
1976
1977
1978
1979
1979
1979
1979
1979
1979
1978
1978
1978
1978
1979
1979
1980
1980
1979
1979
1978
1977
1977
1977
1978
1979
1979
1979
1978
1978
1979
1980
1981
1983
1984
1984
1983
1981
1979
1977
1976
1976
1976
1977
1978
1978
1978
1978
1977
1977
1976
1976
1976
1976
1976
1975
1976
1980
1990
2006
2028
2048
2058
2052
2032
2001
1972
1954
1950
1957
1967
1976
1980
1981
1980
1979
1979
1978
1978
1978
1979
1979
1980
1981
1981
1981
1982
1982
1981
1981
1982
1983
1984
1985
1986
1987
1988
1988
1988
1988
1988
1989
1990
1992
1994
1996
1997
1998
1998
1998
1998
1999
1999
2000
2000
2001
2002
2002
2002
2001
2000
1999
1998
1998
1996
1994
1992
1988
1985
1983
1981
1981
1980
1980
1980
1979
1979
1978
1978
1977
1976
1977
1978
1979
1980
1980
1980
1979
1978
1978
1978
1979
1979
1980
1981
1981
1982
1982
1982
1981
1980
1980
1980
1981
1982
1983
1983
1983
1982
1981
1981
1981
1981
1981
1981
1981
1980
1978
1978
1978
1980
1983
1987
1989
1990
1989
1988
1986
1984
1982
1981
1980
1979
1979
1980
1980
1981
1981
1980
1980
1980
1979
1980
1980
1981
1982
1983
1986
1996
2012
2033
2052
2061
2052
2029
1998
1970
1956
1955
1964
1974
1982
1984
1983
1983
1982
1982
1982
1982
1982
1981
1981
1982
1983
1984
1985
1985
1985
1984
1984
1984
1985
1986
1987
1989
1990
1990
1990
1990
1991
1991
1992
1993
1993
1994
1996
1997
1998
1999
1999
2000
2001
2002
2003
2003
2003
2002
2001
2001
2001
2001
2002
2001
1999
1996
1993
1989
1987
1985
1984
1983
1982
1981
1981
1981
1981
1982
1982
1982
1981
1981
1980
1980
1980
1981
1982
1982
1981
1980
1980
1980
1980
1981
1982
1983
1983
1983
1982
1982
1982
1982
1983
1983
1983
1983
1983
1983
1983
1982
1981
1981
1981
1982
1983
1983
1983
1982
1981
1981
1980
1980
1980
1981
1982
1982
1982
1982
1982
1983
1983
1984
1985
1986
1986
1985
1984
1982
1981
1980
1980
1980
1980
1980
1980
1981
1981
1982
1982
1981
1980
1978
1977
1977
1980
1986
1999
2017
2038
2055
2061
2050
2026
1995
1969
1956
1957
1967
1976
1981
1982
1980
1979
1979
1979
1980
1980
1980
1981
1982
1982
1982
1982
1981
1981
1981
1983
1984
1985
1985
1984
1984
1984
1985
1987
1989
1990
1991
1991
1991
1991
1991
1992
1993
1995
1997
1998
1999
2000
2000
2000
2000
2000
2000
2001
2002
2002
2002
2002
2001
1999
1997
1995
1993
1991
1990
1989
1987
1985
1983
1981
1980
1980
1980
1980
1979
1979
1978
1978
1977
1977
1977
1977
1977
1978
1979
1980
1981
1981
1980
1979
1979
1979
1980
1981
1982
1983
1982
1982
1981
1980
1979
1980
1980
1981
1982
1982
1981
1981
1981
1980
1980
1979
1979
1980
1981
1982
1982
1981
1980
1978
1977
1977
1978
1979
1980
1981
1981
1980
1979
1977
1977
1977
1977
1979
1980
1982
1983
1984
1985
1985
1985
1985
1984
1983
1982
1980
1979
1979
1978
1978
1978
1978
1979
1979
1980
1980
1980
1979
1978
1977
1977
1979
1985
1995
2012
2033
2051
2060
2053
2031
1999
1971
1955
1954
1963
1974
1981
1984
1982
1980
1978
1978
1978
1978
1978
1979
1979
1979
1980
1980
1980
1981
1982
1983
1984
1985
1985
1984
1984
1984
1984
1985
1986
1987
1988
1990
1991
1991
1991
1992
1992
1993
1995
1997
1998
1999
1999
1999
1999
1999
2000
2000
2001
2001
2001
2001
2001
2000
1999
1997
1995
1992
1990
1988
1987
1986
1984
1983
1982
1980
1979
1978
1978
1978
1978
1979
1979
1979
1978
1977
1976
1976
1978
1979
1980
1980
1980
1980
1980
1980
1979
1979
1979
1979
1980
1981
1981
1981
1981
1980
1979
1979
1980
1981
1981
1981
1980
1979
1979
1979
1980
1980
1980
1980
1980
1980
1979
1979
1978
1978
1978
1978
1979
1979
1979
1979
1979
1979
1979
1979
1979
1978
1978
1978
1978
1979
1980
1980
1981
1981
1982
1983
1985
1985
1985
1984
1983
1981
1980
1979
1979
1979
1979
1979
1980
1980
1980
1980
1979
1978
1977
1976
1976
1978
1982
1990
2003
2021
2041
2055
2057
2043
2016
1985
1962
1953
1957
1968
1977
1981
1981
1979
1978
1978
1979
1980
1980
1980
1979
1979
1980
1980
1980
1981
1981
1982
1983
1984
1983
1983
1982
1983
1984
1985
1986
1988
1989
1989
1990
1990
1991
1992
1993
1994
1995
1996
1997
1998
1998
1999
1999
2000
2000
2001
2002
2002
2002
2001
2000
1999
1997
1996
1995
1994
1992
1991
1990
1988
1985
1983
1981
1979
1979
1980
1981
1981
1980
1979
1978
1977
1977
1977
1978
1979
1980
1980
1980
1979
1978
1978
1978
1978
1979
1979
1980
1980
1980
1981
1981
1980
1980
1980
1980
1981
1981
1981
1981
1980
1980
1979
1979
1979
1979
1980
1981
1981
1981
1980
1980
1979
1979
1979
1979
1980
1980
1979
1979
1979
1979
1978
1978
1979
1979
1979
1980
1980
1980
1980
1980
1979
1978
1977
1978
1979
1981
1983
1984
1985
1985
1985
1984
1983
1982
1982
1982
1981
1980
1980
1979
1979
1979
1979
1979
1979
1980
1980
1980
1979
1978
1978
1979
1983
1994
2011
2033
2051
2060
2052
2030
1999
1971
1956
1955
1963
1973
1980
1983
1981
1979
1978
1978
1978
1979
1979
1980
1980
1981
1981
1981
1981
1981
1981
1982
1983
1985
1986
1986
1986
1986
1985
1986
1986
1987
1988
1989
1990
1991
1991
1991
1992
1993
1994
1996
1998
2000
2000
2000
2000
2000
2000
2000
2001
2002
2002
2002
2002
2000
1998
1996
1994
1992
1990
1988
1987
1985
1984
1982
1981
1980
1978
1978
1977
1978
1978
1978
1978
1977
1977
1976
1976
1976
1976
1976
1977
1979
1980
1980
1980
1979
1978
1977
1978
1979
1980
1980
1980
1980
1979
1979
1979
1979
1978
1978
1978
1979
1980
1981
1981
1980
1980
1979
1978
1978
1978
1978
1978
1979
1979
1978
1978
1977
1977
1977
1977
1978
1978
1978
1978
1978
1977
1977
1977
1977
1977
1977
1978
1978
1978
1978
1978
1979
1980
1982
1984
1985
1985
1984
1982
1981
1979
1978
1978
1978
1978
1978
1978
1979
1978
1978
1978
1978
1977
1977
1977
1977
1978
1981
1988
2000
2018
2038
2053
2057
2044
2017
1987
1963
1952
1955
1964
1973
1978
1979
1979
1978
1978
1978
1978
1978
1978
1978
1978
1978
1978
1979
1980
1981
1981
1981
1981
1981
1982
1983
1984
1984
1985
1985
1986
1986
1986
1986
1987
1988
1989
1990
1992
1993
1994
1995
1996
1997
1998
1998
1999
1999
1999
1999
1999
1999
1998
1998
1997
1996
1995
1994
1993
1992
1990
1988
1986
1983
1980
1978
1977
1977
1977
1977
1977
1977
1976
1975
1974
1974
1975
1975
1975
1976
1976
1975
1975
1975
1976
1976
1977
1977
1978
1978
1978
1978
1978
1977
1977
1977
1977
1978
1978
1978
1978
1978
1977
1977
1977
1977
1978
1978
1979
1979
1979
1978
1978
1977
1976
1975
1975
1976
1977
1978
1978
1978
1978
1978
1979
1981
1983
1985
1986
1986
1986
1985
1984
1984
1984
1985
1987
1989
1990
1991
1991
1990
1989
1988
1987
1986
1985
1984
1984
1983
1983
1984
1984
1984
1984
1984
1983
1983
1982
1982
1982
1982
1985
1993
2007
2027
2048
2062
2061
2045
2015
1983
1961
1953
1958
1968
1978
1983
1984
1983
1981
1980
1980
1980
1981
1981
1982
1983
1984
1984
1984
1983
1982
1982
1983
1984
1986
1986
1987
1987
1987
1988
1988
1988
1988
1989
1990
1991
1993
1995
1996
1997
1997
1997
1998
1999
2001
2003
2004
2004
2004
2003
2003
2004
2004
2004
2004
2004
2003
2002
1999
1996
1993
1991
1989
1987
1985
1984
1983
1981
1980
1979
1978
1978
1977
1977
1977
1978
1978
1978
1978
1978
1978
1977
1976
1976
1976
1978
1979
1980
1980
1980
1979
1979
1979
1979
1980
1980
1980
1980
1980
1979
1979
1978
1979
1979
1980
1980
1980
1980
1980
1979
1979
1979
1978
1978
1978
1979
1979
1980
1980
1979
1978
1977
1976
1977
1977
1978
1979
1980
1980
1981
1982
1983
1984
1983
1983
1982
1981
1980
1979
1979
1977
1976
1976
1976
1977
1978
1979
1980
1979
1978
1977
1975
1975
1976
1982
1992
2008
2030
2049
2061
2058
2039
2008
1976
1955
1948
1953
1965
1975
1980
1980
1979
1977
1977
1977
1978
1979
1979
1979
1978
1978
1979
1979
1980
1981
1982
1982
1983
1983
1983
1983
1984
1985
1986
1987
1987
1987
1987
1988
1989
1990
1991
1993
1994
1995
1997
1998
1999
2000
2000
2001
2001
2001
2001
2001
2002
2002
2002
2002
2001
1999
1997
1994
1992
1990
1988
1986
1984
1982
1981
1979
1978
1977
1977
1976
1977
1977
1977
1977
1977
1976
1976
1975
1975
1976
1977
1977
1978
1977
1977
1977
1977
1977
1978
1979
1980
1981
1980
1980
1979
1978
1978
1978
1979
1980
1980
1980
1980
1979
1979
1979
1979
1979
1979
1979
1980
1980
1979
1979
1978
1978
1978
1977
1977
1977
1978
1978
1979
1980
1981
1982
1982
1983
1984
1984
1983
1982
1981
1980
1979
1978
1978
1977
1977
1977
1977
1978
1979
1980
1979
1978
1976
1975
1974
1975
1980
1991
2007
2028
2048
2059
2057
2039
2009
1978
1957
1951
1956
1967
1976
1980
1980
1978
1977
1977
1978
1978
1979
1979
1979
1979
1979
1979
1979
1980
1981
1982
1982
1982
1982
1982
1982
1983
1984
1985
1986
1987
1987
1987
1987
1988
1989
1990
1992
1993
1994
1994
1996
1997
1998
1999
1998
1998
1998
1999
2000
2001
2002
2001
1999
1997
1996
1994
1992
1990
1988
1986
1985
1983
1981
1980
1978
1978
1977
1977
1977
1976
1976
1975
1974
1974
1974
1974
1974
1974
1975
1975
1975
1976
1976
1975
1975
1976
1977
1978
1978
1979
1979
1978
1977
1977
1976
1976
1977
1978
1978
1978
1978
1977
1977
1977
1978
1979
1979
1979
1979
1979
1978
1978
1978
1978
1978
1977
1977
1977
1977
1977
1977
1977
1978
1979
1981
1982
1983
1983
1983
1982
1981
1980
1979
1978
1976
1975
1975
1976
1977
1978
1978
1978
1977
1976
1975
1974
1974
1974
1977
1983
1994
2010
2031
2050
2059
2053
2032
2001
1972
1955
1953
1960
1970
1976
1978
1977
1976
1977
1977
1978
1978
1978
1978
1978
1978
1978
1978
1978
1978
1980
1981
1982
1982
1982
1982
1982
1982
1983
1984
1985
1986
1987
1987
1988
1988
1989
1989
1991
1992
1993
1995
1996
1997
1997
1998
1998
1999
2000
2001
2002
2002
2001
2000
1998
1996
1995
1993
1992
1991
1989
1987
1985
1983
1981
1979
1978
1978
1978
1978
1978
1978
1977
1976
1975
1973
1973
1973
1974
1975
1976
1977
1977
1977
1976
1977
1977
1978
1979
1978
1978
1977
1977
1977
1977
1977
1977
1978
1978
1979
1980
1979
1979
1978
1977
1978
1978
1979
1979
1979
1978
1978
1978
1978
1978
1978
1977
1977
1977
1977
1977
1977
1977
1977
1977
1978
1979
1980
1982
1983
1984
1984
1983
1982
1980
1978
1977
1977
1978
1978
1978
1977
1977
1976
1977
1978
1978
1977
1976
1976
1976
1978
1982
1990
2003
2022
2043
2057
2058
2044
2015
1984
1961
1952
1956
1965
1975
1980
1981
1980
1978
1977
1976
1976
1976
1976
1977
1978
1980
1981
1981
1981
1981
1981
1981
1981
1981
1981
1981
1983
1984
1985
1986
1986
1986
1986
1986
1988
1990
1991
1992
1993
1993
1993
1993
1994
1995
1997
1999
2001
2001
2001
2000
2000
1999
1999
1999
1999
1998
1996
1994
1992
1990
1988
1986
1983
1982
1980
1980
1979
1979
1978
1977
1977
1977
1976
1975
1975
1974
1975
1975
1976
1977
1976
1976
1976
1975
1976
1977
1978
1979
1979
1979
1978
1977
1977
1977
1978
1979
1979
1979
1979
1979
1979
1979
1978
1978
1977
1978
1978
1979
1980
1979
1979
1977
1977
1977
1977
1978
1979
1979
1978
1977
1976
1976
1976
1977
1979
1981
1982
1984
1985
1985
1984
1982
1979
1977
1976
1976
1976
1977
1978
1978
1978
1977
1977
1977
1977
1977
1977
1977
1976
1976
1978
1984
1997
2016
2038
2055
2061
2049
2023
1991
1965
1952
1953
1962
1972
1979
1981
1980
1978
1977
1976
1975
1975
1975
1976
1978
1979
1980
1980
1980
1980
1980
1980
1980
1980
1981
1982
1983
1984
1984
1984
1984
1984
1985
1987
1988
1990
1990
1991
1991
1992
1993
1994
1995
1997
1998
1999
2000
2000
2000
1999
1998
1998
1998
1999
1999
1998
1997
1994
1992
1989
1987
1985
1983
1981
1980
1978
1978
1977
1976
1976
1975
1974
1973
1973
1974
1975
1977
1977
1977
1976
1975
1975
1975
1975
1976
1977
1977
1977
1977
1977
1977
1977
1977
1977
1978
1978
1979
1978
1978
1977
1977
1977
1978
1978
1979
1980
1980
1979
1979
1978
1977
1976
1976
1977
1977
1978
1978
1978
1978
1977
1977
1976
1976
1976
1977
1978
1980
1981
1982
1982
1982
1982
1982
1981
1980
1979
1978
1978
1978
1978
1978
1977
1978
1977
1977
1977
1978
1978
1977
1977
1976
1975
1977
1983
1995
2013
2035
2052
2059
2050
2026
1994
1967
1953
1953
1962
1972
1979
1981
1980
1978
1976
1976
1976
1976
1977
1978
1978
1978
1978
1978
1979
1979
1980
1980
1981
1982
1982
1982
1982
1982
1982
1983
1985
1986
1987
1988
1988
1988
1988
1989
1989
1991
1993
1995
1997
1998
1998
1999
1999
1999
1999
2000
1999
1999
1999
1999
1999
1998
1997
1995
1992
1990
1988
1986
1985
1983
1982
1980
1978
1976
1975
1975
1975
1976
1976
1976
1976
1975
1974
1973
1973
1973
1974
1975
1976
1976
1977
1977
1976
1976
1975
1975
1975
1976
1977
1978
1978
1977
1976
1976
1976
1976
1976
1977
1977
1978
1978
1978
1978
1976
1975
1975
1975
1976
1977
1978
1978
1977
1975
1974
1974
1975
1976
1978
1979
1980
1981
1982
1982
1981
1980
1978
1977
1976
1976
1976
1977
1977
1977
1976
1975
1974
1975
1975
1976
1977
1977
1975
1974
1973
1974
1981
1994
2014
2037
2055
2060
2048
2021
1988
1961
1948
1949
1959
1970
1977
1980
1979
1977
1975
1975
1975
1976
1977
1977
1978
1978
1978
1979
1979
1979
1980
1980
1980
1981
1981
1982
1982
1983
1983
1984
1984
1985
1986
1987
1988
1989
1990
1990
1991
1992
1993
1995
1996
1997
1998
1999
1999
1999
2000
2000
2001
2002
2003
2003
2001
1998
1995
1992
1989
1987
1985
1983
1981
1980
1979
1979
1978
1977
1975
1974
1974
1974
1974
1975
1975
1975
1975
1975
1974
1974
1975
1975
1975
1975
1976
1976
1976
1976
1976
1976
1976
1977
1977
1978
1978
1978
1979
1979
1978
1978
1977
1977
1977
1978
1979
1979
1979
1979
1978
1978
1978
1978
1978
1978
1978
1978
1978
1979
1979
1980
1981
1982
1982
1982
1981
1981
1980
1979
1978
1977
1976
1976
1977
1978
1979
1978
1978
1977
1977
1977
1976
1975
1974
1974
1976
1984
1999
2020
2044
2060
2063
2048
2018
1984
1958
1946
1949
1959
1970
1977
1979
1978
1977
1976
1977
1977
1978
1979
1979
1979
1978
1979
1979
1980
1980
1981
1981
1981
1981
1982
1983
1983
1984
1985
1986
1987
1987
1987
1987
1988
1989
1990
1991
1992
1993
1995
1996
1997
1998
1999
1999
2000
2001
2002
2002
2002
2002
2001
2000
1999
1998
1996
1995
1992
1989
1986
1984
1981
1980
1979
1977
1976
1975
1975
1974
1974
1975
1975
1974
1974
1973
1972
1972
1973
1973
1974
1974
1974
1973
1973
1973
1974
1975
1976
1976
1975
1974
1974
1974
1975
1975
1976
1976
1976
1977
1977
1978
1977
1977
1976
1976
1976
1977
1977
1978
1977
1976
1975
1975
1975
1977
1978
1980
1982
1982
1982
1981
1979
1977
1975
1974
1974
1974
1976
1976
1977
1976
1974
1973
1973
1973
1973
1973
1974
1973
1973
1972
1974
1980
1992
2013
2037
2055
2060
2048
2019
1985
1958
1947
1949
1959
1970
1975
1976
1975
1974
1974
1975
1975
1976
1976
1976
1976
1977
1978
1979
1979
1979
1979
1979
1979
1980
1981
1982
1983
1983
1983
1983
1983
1983
1984
1985
1987
1989
1990
1992
1992
1992
1992
1992
1993
1995
1997
1999
2000
2000
2000
2000
1999
1999
1999
1999
1998
1997
1995
1992
1989
1987
1985
1982
1980
1979
1978
1978
1978
1978
1978
1976
1975
1973
1973
1973
1974
1975
1976
1976
1976
1975
1974
1974
1974
1974
1975
1976
1977
1977
1977
1977
1977
1978
1978
1978
1978
1978
1977
1977
1977
1977
1977
1977
1977
1977
1978
1979
1979
1979
1978
1978
1977
1976
1976
1977
1977
1978
1978
1979
1979
1980
1981
1982
1982
1982
1981
1980
1979
1978
1977
1977
1977
1977
1977
1977
1977
1978
1978
1977
1977
1976
1975
1974
1973
1974
1977
1983
1996
2015
2037
2055
2063
2053
2028
1996
1968
1953
1953
1962
1972
1978
1979
1977
1975
1975
1976
1977
1977
1977
1977
1976
1976
1977
1978
1978
1979
1979
1980
1981
1982
1983
1983
1983
1983
1983
1983
1983
1984
1985
1986
1987
1988
1989
1990
1991
1992
1994
1995
1997
1998
1999
1999
1998
1998
1998
1999
2000
2001
2001
2000
1999
1997
1995
1992
1990
1988
1987
1985
1984
1982
1980
1979
1977
1976
1975
1975
1975
1975
1976
1976
1975
1975
1974
1974
1974
1975
1976
1976
1976
1976
1976
1976
1976
1976
1977
1978
1978
1978
1978
1977
1977
1977
1977
1978
1979
1979
1978
1978
1977
1977
1977
1977
1977
1977
1977
1977
1978
1978
1978
1978
1977
1976
1975
1975
1976
1978
1980
1981
1982
1982
1981
1980
1979
1978
1977
1977
1977
1976
1976
1976
1976
1976
1976
1976
1976
1976
1976
1976
1976
1975
1974
1974
1976
1982
1995
2014
2037
2055
2062
2053
2028
1995
1967
1953
1954
1963
1973
1979
1980
1978
1976
1975
1974
1974
1975
1975
1976
1977
1977
1978
1978
1978
1977
1977
1978
1979
1980
1981
1982
1983
1983
1983
1982
1982
1983
1984
1985
1987
1988
1989
1989
1989
1990
1991
1992
1994
1995
1996
1997
1997
1998
1998
1998
1998
1997
1997
1997
1997
1996
1994
1991
1988
1986
1984
1983
1981
1979
1978
1977
1976
1976
1975
1974
1973
1973
1973
1973
1974
1974
1975
1974
1974
1973
1973
1973
1973
1974
1975
1975
1975
1975
1975
1975
1975
1975
1975
1976
1977
1977
1977
1977
1976
1976
1976
1976
1976
1976
1975
1975
1975
1975
1975
1975
1975
1976
1976
1976
1976
1976
1975
1975
1974
1974
1975
1976
1978
1979
1980
1981
1980
1980
1979
1977
1976
1975
1975
1975
1975
1975
1974
1974
1974
1974
1974
1975
1975
1976
1976
1976
1975
1974
1975
1978
1987
2002
2024
2045
2057
2055
2037
2006
1976
1956
1950
1956
1966
1975
1979
1979
1978
1976
1975
1974
1974
1974
1976
1977
1978
1979
1979
1978
1977
1977
1978
1979
1981
1982
1983
1983
1982
1981
1981
1981
1981
1983
1986
1988
1990
1991
1991
1991
1991
1991
1993
1994
1996
1997
1998
1998
1998
1998
1998
1998
1999
1999
1999
1999
1998
1997
1995
1993
1990
1988
1986
1984
1983
1982
1980
1979
1978
1976
1975
1974
1974
1974
1974
1975
1976
1976
1975
1974
1974
1974
1974
1975
1976
1977
1977
1978
1978
1978
1977
1976
1976
1977
1977
1978
1978
1978
1978
1978
1979
1979
1979
1979
1979
1978
1978
1977
1977
1977
1976
1976
1976
1977
1977
1977
1978
1978
1979
1980
1980
1981
1981
1981
1981
1981
1980
1980
1978
1977
1976
1975
1976
1976
1977
1977
1977
1977
1977
1977
1977
1977
1977
1976
1975
1975
1978
1986
2000
2019
2042
2057
2061
2048
2020
1988
1962
1950
1951
1961
1971
1978
1981
1980
1980
1979
1978
1979
1979
1979
1979
1979
1980
1980
1982
1983
1983
1984
1984
1983
1983
1983
1984
1985
1986
1987
1988
1989
1989
1989
1989
1989
1990
1992
1994
1996
1997
1998
1999
1999
1999
2000
2000
2001
2002
2003
2004
2004
2004
2003
2002
2000
1999
1998
1996
1994
1991
1988
1986
1985
1984
1983
1982
1980
1979
1978
1977
1977
1978
1978
1978
1977
1977
1976
1976
1977
1978
1978
1978
1978
1978
1978
1978
1979
1979
1980
1981
1981
1980
1979
1978
1978
1978
1978
1980
1981
1981
1981
1981
1980
1980
1979
1979
1980
1980
1980
1980
1980
1979
1979
1979
1979
1980
1982
1983
1985
1986
1986
1984
1982
1979
1977
1976
1977
1977
1978
1978
1979
1978
1978
1978
1978
1978
1978
1978
1978
1977
1977
1977
1980
1988
2002
2022
2044
2058
2058
2042
2013
1981
1959
1952
1957
1967
1976
1981
1981
1980
1978
1977
1977
1977
1977
1978
1978
1979
1980
1980
1981
1981
1981
1981
1981
1981
1982
1982
1983
1984
1985
1986
1986
1986
1986
1986
1986
1987
1988
1990
1992
1993
1994
1994
1994
1995
1996
1998
1999
2000
2000
2000
2000
2000
2000
2000
1999
1997
1995
1993
1992
1990
1988
1985
1983
1982
1980
1979
1978
1977
1976
1976
1976
1975
1975
1974
1974
1974
1975
1975
1975
1975
1975
1975
1975
1975
1975
1976
1977
1977
1977
1977
1977
1977
1977
1977
1978
1978
1978
1979
1979
1979
1979
1978
1977
1977
1977
1978
1978
1979
1979
1979
1979
1978
1977
1976
1976
1977
1978
1980
1981
1981
1981
1982
1982
1982
1982
1981
1979
1978
1976
1975
1975
1975
1976
1977
1977
1977
1977
1977
1976
1976
1976
1975
1974
1973
1974
1977
1984
1998
2017
2040
2056
2060
2048
2020
1989
1964
1953
1956
1965
1974
1978
1978
1976
1975
1975
1976
1977
1978
1978
1978
1977
1977
1977
1977
1978
1979
1980
1980
1981
1981
1982
1982
1982
1982
1982
1983
1984
1985
1986
1986
1987
1987
1989
1990
1992
1993
1994
1995
1995
1996
1997
1997
1997
1997
1998
1998
1999
1999
1999
1998
1996
1995
1993
1992
1990
1988
1986
1985
1983
1981
1978
1977
1976
1975
1975
1975
1975
1975
1976
1976
1975
1975
1974
1973
1974
1974
1975
1975
1976
1975
1975
1975
1976
1976
1976
1976
1977
1977
1978
1978
1978
1977
1977
1977
1978
1978
1979
1979
1978
1978
1978
1978
1979
1979
1978
1978
1978
1978
1978
1978
1978
1977
1977
1977
1978
1980
1982
1984
1985
1985
1984
1982
1980
1978
1977
1977
1977
1978
1978
1978
1977
1976
1976
1976
1976
1977
1978
1978
1977
1976
1975
1976
1981
1990
2006
2028
2048
2059
2055
2036
2005
1975
1957
1952
1959
1970
1979
1982
1981
1978
1976
1975
1975
1975
1976
1977
1978
1979
1980
1980
1980
1980
1980
1980
1980
1981
1982
1983
1983
1983
1983
1983
1984
1984
1985
1986
1987
1988
1990
1990
1991
1992
1993
1994
1995
1997
1999
2000
2000
2000
2000
1999
1999
1999
1999
1999
1999
1999
1998
1995
1993
1990
1988
1986
1984
1983
1982
1980
1978
1977
1976
1975
1975
1975
1976
1976
1976
1976
1976
1975
1975
1975
1975
1975
1976
1977
1977
1978
1977
1977
1977
1978
1978
1979
1979
1979
1979
1979
1979
1979
1979
1979
1978
1978
1978
1979
1980
1980
1980
1979
1979
1978
1978
1978
1978
1978
1980
1981
1982
1983
1983
1983
1983
1982
1981
1980
1979
1979
1978
1978
1977
1977
1977
1977
1978
1978
1978
1978
1978
1978
1978
1977
1976
1975
1977
1984
1998
2018
2041
2058
2063
2049
2022
1989
1963
1950
1952
1962
1973
1980
1981
1980
1978
1977
1978
1979
1980
1980
1981
1982
1982
1982
1982
1982
1982
1983
1984
1985
1985
1986
1986
1985
1985
1985
1986
1987
1989
1990
1991
1992
1992
1992
1993
1994
1995
1997
1998
2000
2001
2001
2002
2002
2002
2003
2003
2003
2003
2003
2002
2001
2000
1998
1996
1994
1991
1989
1986
1984
1982
1981
1980
1979
1978
1978
1978
1978
1978
1977
1977
1977
1976
1976
1976
1976
1976
1977
1978
1979
1980
1980
1979
1979
1979
1978
1979
1979
1980
1981
1982
1982
1981
1980
1980
1980
1980
1980
1981
1980
1980
1979
1979
1978
1978
1979
1980
1982
1984
1986
1986
1986
1985
1983
1982
1980
1979
1978
1978
1978
1978
1978
1978
1977
1977
1977
1977
1976
1976
1976
1977
1976
1976
1975
1976
1981
1992
2011
2034
2053
2062
2052
2027
1993
1964
1948
1948
1957
1969
1977
1980
1980
1978
1977
1976
1976
1976
1977
1978
1978
1979
1979
1979
1979
1979
1980
1981
1982
1983
1983
1983
1982
1982
1983
1984
1985
1986
1987
1988
1988
1988
1989
1990
1991
1991
1992
1993
1995
1996
1998
1998
1999
1999
1999
1999
1999
1999
1999
1999
1998
1997
1994
1992
1989
1987
1985
1983
1981
1980
1978
1977
1975
1974
1973
1973
1973
1973
1974
1974
1974
1973
1972
1972
1971
1972
1972
1973
1974
1975
1975
1974
1974
1974
1973
1974
1975
1976
1977
1978
1977
1977
1976
1975
1975
1976
1976
1976
1976
1976
1976
1976
1977
1977
1977
1978
1979
1980
1981
1982
1982
1981
1979
1978
1976
1975
1974
1974
1974
1975
1975
1975
1975
1975
1975
1974
1974
1975
1975
1974
1974
1973
1974
1980
1991
2010
2033
2050
2057
2046
2020
1988
1962
1950
1953
1962
1972
1978
1979
1978
1977
1977
1976
1975
1974
1974
1975
1975
1977
1978
1978
1978
1978
1979
1979
1979
1979
1980
1981
1982
1983
1984
1984
1983
1983
1983
1984
1985
1986
1988
1989
1990
1990
1991
1992
1993
1994
1995
1996
1997
1997
1998
1998
1998
1998
1997
1995
1994
1992
1991
1990
1988
1986
1984
1981
1979
1978
1977
1977
1976
1976
1975
1974
1973
1973
1973
1973
1973
1973
1973
1973
1973
1974
1974
1974
1974
1974
1974
1974
1975
1976
1977
1976
1976
1975
1975
1975
1976
1977
1977
1977
1977
1977
1977
1976
1976
1976
1976
1976
1976
1976
1976
1976
1976
1977
1978
1979
1981
1982
1982
1982
1980
1979
1978
1976
1975
1974
1975
1975
1976
1976
1976
1976
1975
1975
1975
1976
1975
1975
1975
1974
1974
1976
1981
1993
2012
2035
2053
2060
2049
2025
1993
1966
1953
1953
1962
1972
1978
1979
1978
1977
1977
1976
1976
1975
1975
1974
1975
1976
1976
1977
1977
1978
1978
1979
1979
1979
1980
1980
1981
1982
1982
1982
1981
1981
1981
1983
1985
1987
1988
1989
1990
1990
1991
1992
1993
1993
1994
1994
1995
1995
1996
1996
1996
1995
1995
1995
1994
1993
1992
1991
1989
1986
1983
1980
1978
1977
1976
1975
1975
1975
1975
1974
1973
1972
1971
1972
1973
1973
1973
1973
1972
1972
1972
1972
1972
1972
1973
1974
1974
1975
1975
1975
1975
1974
1974
1974
1974
1975
1976
1977
1977
1977
1976
1975
1974
1974
1975
1975
1976
1977
1976
1975
1974
1973
1974
1975
1976
1978
1978
1979
1979
1980
1979
1979
1977
1976
1975
1975
1975
1974
1974
1973
1973
1973
1973
1973
1973
1974
1974
1974
1974
1974
1973
1972
1974
1980
1993
2013
2036
2053
2057
2046
2018
1986
1961
1949
1952
1962
1972
1978
1978
1976
1974
1973
1972
1973
1974
1976
1976
1977
1977
1977
1977
1976
1976
1976
1977
1978
1979
1981
1982
1982
1982
1982
1982
1982
1983
1984
1985
1986
1987
1988
1989
1989
1989
1990
1992
1995
1997
1998
1998
1997
1996
1996
1996
1996
1997
1998
1998
1997
1996
1994
1992
1989
1987
1985
1983
1981
1980
1979
1978
1977
1976
1975
1974
1974
1974
1975
1975
1975
1975
1974
1973
1973
1974
1975
1976
1976
1977
1976
1976
1976
1976
1976
1976
1976
1976
1976
1977
1977
1978
1979
1979
1978
1977
1976
1976
1976
1977
1978
1978
1978
1977
1976
1976
1976
1977
1979
1981
1983
1983
1983
1981
1979
1977
1975
1975
1975
1977
1977
1977
1975
1974
1972
1972
1973
1974
1975
1975
1976
1975
1974
1973
1973
1976
1987
2004
2027
2048
2059
2054
2032
2000
1969
1950
1946
1953
1964
1973
1976
1976
1975
1974
1974
1973
1974
1974
1975
1976
1977
1978
1978
1979
1978
1978
1978
1978
1978
1979
1980
1982
1983
1984
1984
1983
1983
1984
1985
1986
1988
1989
1990
1991
1991
1992
1993
1994
1995
1997
1998
1999
1999
1999
1998
1998
1999
1999
1999
1998
1997
1995
1992
1990
1987
1985
1983
1981
1981
1980
1980
1979
1978
1976
1974
1973
1973
1974
1974
1975
1975
1975
1975
1974
1974
1973
1973
1974
1976
1977
1977
1977
1977
1977
1977
1977
1977
1977
1977
1978
1978
1978
1977
1977
1977
1976
1977
1977
1978
1978
1978
1977
1976
1976
1976
1977
1978
1979
1980
1981
1981
1981
1981
1980
1978
1975
1974
1973
1973
1974
1975
1975
1975
1975
1974
1973
1973
1974
1976
1976
1976
1974
1972
1972
1977
1988
2006
2029
2048
2058
2050
2026
1994
1965
1949
1947
1956
1968
1976
1978
1978
1976
1975
1975
1974
1974
1974
1974
1975
1976
1977
1978
1979
1979
1978
1978
1978
1979
1981
1982
1983
1984
1984
1983
1982
1982
1983
1984
1986
1987
1989
1989
1990
1991
1992
1993
1994
1995
1996
1996
1997
1998
1999
1999
1999
1998
1997
1996
1995
1994
1993
1992
1989
1986
1983
1981
1979
1979
1979
1979
1978
1977
1976
1975
1974
1974
1974
1974
1974
1974
1974
1974
1974
1974
1973
1973
1974
1974
1975
1976
1976
1976
1976
1976
1975
1975
1975
1975
1975
1976
1976
1976
1976
1976
1976
1976
1975
1975
1976
1976
1977
1977
1975
1974
1973
1972
1973
1974
1976
1978
1979
1980
1980
1979
1978
1977
1976
1975
1975
1974
1974
1974
1974
1974
1974
1974
1973
1973
1974
1974
1974
1974
1973
1972
1970
1971
1975
1986
2003
2026
2048
2058
2054
2033
2001
1971
1953
1949
1956
1966
1974
1977
1976
1974
1973
1973
1973
1973
1974
1974
1974
1975
1975
1976
1976
1976
1976
1976
1977
1978
1979
1980
1980
1980
1980
1980
1981
1982
1982
1983
1984
1985
1986
1987
1988
1989
1990
1991
1992
1993
1994
1995
1996
1996
1995
1995
1996
1996
1996
1996
1996
1995
1994
1991
1989
1987
1985
1983
1982
1980
1979
1978
1976
1975
1974
1973
1972
1973
1973
1974
1974
1974
1973
1973
1973
1973
1973
1973
1973
1974
1974
1974
1974
1974
1974
1975
1975
1976
1976
1976
1976
1976
1976
1976
1976
1976
1976
1975
1975
1975
1975
1975
1975
1975
1975
1975
1975
1975
1975
1976
1976
1976
1976
1976
1977
1978
1979
1980
1981
1981
1980
1979
1978
1977
1975
1974
1973
1974
1974
1975
1976
1976
1975
1974
1974
1974
1973
1973
1973
1973
1974
1976
1984
1997
2017
2039
2055
2058
2045
2018
1986
1961
1950
1953
1962
1972
1977
1978
1977
1976
1975
1975
1975
1975
1975
1976
1977
1977
1978
1979
1979
1980
1979
1979
1978
1978
1979
1980
1981
1982
1982
1983
1983
1983
1984
1984
1985
1986
1988
1990
1991
1992
1992
1992
1992
1992
1993
1994
1995
1996
1997
1997
1997
1997
1997
1996
1995
1994
1992
1991
1990
1988
1986
1984
1981
1980
1978
1977
1976
1976
1975
1975
1974
1974
1974
1974
1974
1974
1975
1976
1976
1976
1976
1975
1974
1974
1974
1974
1976
1977
1977
1977
1976
1975
1974
1972
1972
1972
1972
1972
1973
1972
1972
1972
1972
1973
1973
1974
1976
1976
1977
1978
1978
1977
1976
1975
1975
1975
1976
1977
1979
1980
1981
1982
1982
1981
1980
1979
1978
1978
1978
1978
1977
1976
1976
1975
1975
1976
1976
1977
1977
1977
1977
1976
1975
1974
1973
1974
1978
1988
2004
2025
2046
2057
2054
2035
2004
1975
1955
1950
1957
1967
1974
1978
1977
1976
1975
1975
1975
1976
1976
1977
1977
1977
1976
1976
1976
1977
1978
1979
1980
1980
1980
1979
1980
1980
1981
1981
1982
1983
1984
1984
1985
1986
1986
1987
1989
1990
1992
1993
1994
1994
1994
1995
1995
1995
1996
1997
1997
1998
1997
1996
1996
1995
1994
1993
1991
1989
1987
1986
1985
1983
1981
1979
1977
1975
1975
1975
1975
1975
1975
1975
1974
1974
1974
1974
1974
1974
1974
1974
1975
1975
1975
1976
1976
1976
1977
1977
1978
1978
1978
1978
1979
1979
1979
1978
1978
1978
1978
1979
1979
1979
1979
1978
1977
1976
1976
1977
1978
1978
1977
1976
1975
1975
1975
1977
1979
1981
1982
1983
1982
1981
1980
1978
1977
1976
1976
1976
1976
1976
1977
1976
1976
1976
1975
1975
1975
1975
1976
1975
1975
1974
1975
1980
1992
2011
2034
2053
2061
2051
2027
1993
1965
1948
1947
1956
1967
1975
1979
1980
1979
1978
1977
1977
1977
1977
1977
1977
1978
1979
1980
1981
1981
1981
1981
1981
1981
1981
1981
1982
1982
1983
1984
1985
1985
1986
1986
1987
1989
1991
1992
1993
1994
1995
1996
1997
1997
1998
1999
2000
2000
2000
2000
1999
1999
1999
1999
1999
1998
1998
1996
1994
1991
1988
1986
1984
1982
1980
1979
1978
1977
1977
1977
1977
1976
1974
1973
1973
1974
1974
1975
1975
1975
1975
1975
1975
1975
1975
1976
1977
1978
1979
1979
1978
1977
1977
1977
1977
1978
1978
1979
1979
1978
1978
1977
1977
1977
1977
1978
1979
1979
1979
1978
1977
1976
1976
1976
1977
1978
1980
1981
1983
1983
1982
1981
1979
1978
1977
1977
1977
1978
1979
1978
1977
1976
1974
1974
1974
1975
1976
1976
1977
1976
1975
1974
1973
1975
1981
1994
2014
2036
2054
2059
2048
2020
1987
1959
1946
1948
1958
1970
1977
1980
1978
1977
1975
1975
1976
1976
1977
1977
1978
1978
1978
1978
1978
1979
1979
1979
1979
1980
1980
1981
1982
1983
1983
1983
1984
1984
1985
1986
1988
1988
1989
1989
1990
1990
1992
1993
1996
1998
1999
1999
1999
1998
1998
1998
1998
1999
2000
1999
1998
1996
1994
1991
1989
1988
1986
1984
1983
1982
1982
1981
1980
1978
1977
1976
1976
1976
1976
1976
1976
1975
1974
1974
1974
1975
1976
1977
1978
1978
1978
1978
1978
1978
1978
1977
1978
1978
1978
1979
1980
1980
1980
1979
1978
1978
1978
1980
1981
1981
1980
1979
1978
1977
1977
1977
1977
1978
1978
1978
1978
1978
1978
1977
1977
1978
1979
1981
1983
1984
1984
1983
1981
1979
1977
1977
1976
1976
1976
1976
1977
1976
1976
1975
1975
1975
1976
1976
1976
1976
1975
1974
1976
1981
1991
2008
2029
2048
2058
2052
2031
1999
1969
1951
1948
1956
1967
1976
1979
1978
1976
1975
1974
1974
1974
1974
1975
1975
1977
1978
1979
1979
1979
1978
1978
1979
1979
1981
1981
1982
1982
1982
1981
1981
1982
1982
1983
1984
1986
1987
1988
1989
1990
1990
1991
1991
1992
1993
1994
1996
1997
1997
1996
1995
1995
1995
1995
1996
1995
1994
1992
1990
1987
1985
1983
1981
1979
1978
1977
1976
1975
1974
1973
1973
1972
1973
1973
1973
1973
1973
1973
1974
1974
1974
1974
1973
1973
1974
1974
1975
1975
1974
1974
1974
1974
1975
1975
1976
1977
1977
1977
1977
1977
1976
1976
1976
1975
1976
1976
1977
1977
1977
1976
1975
1975
1974
1975
1975
1976
1975
1975
1974
1975
1976
1978
1980
1981
1982
1982
1981
1979
1977
1976
1975
1974
1974
1974
1975
1975
1975
1975
1975
1974
1975
1975
1975
1975
1975
1974
1974
1975
1978
1987
2003
2024
2045
2057
2053
2034
2003
1973
1954
1949
1956
1966
1974
1977
1976
1975
1974
1974
1974
1974
1974
1974
1975
1976
1977
1977
1977
1977
1977
1977
1977
1978
1979
1980
1981
1981
1982
1982
1982
1982
1982
1982
1983
1984
1986
1988
1989
1990
1991
1991
1992
1993
1993
1994
1995
1996
1996
1996
1996
1996
1996
1995
1994
1994
1993
1992
1990
1989
1987
1984
1982
1979
1978
1976
1976
1975
1975
1975
1975
1974
1973
1973
1973
1973
1973
1973
1973
1973
1973
1973
1973
1972
1972
1972
1972
1973
1974
1975
1975
1975
1975
1974
1975
1975
1975
1976
1976
1976
1975
1975
1975
1975
1975
1975
1976
1976
1976
1975
1975
1974
1974
1974
1974
1975
1976
1976
1976
1976
1975
1974
1973
1973
1974
1976
1978
1980
1980
1980
1980
1978
1977
1975
1974
1973
1973
1973
1974
1975
1975
1975
1974
1973
1973
1973
1974
1974
1974
1973
1973
1976
1983
1995
2015
2037
2053
2057
2045
2018
1986
1960
1949
1951
1961
1971
1976
1977
1976
1975
1974
1974
1973
1973
1973
1974
1975
1976
1977
1977
1977
1977
1977
1977
1977
1978
1979
1979
1980
1980
1981
1981
1982
1982
1982
1983
1984
1985
1986
1988
1989
1990
1990
1990
1991
1992
1993
1995
1996
1997
1997
1996
1996
1996
1996
1996
1996
1995
1994
1992
1990
1988
1986
1984
1981
1979
1978
1977
1976
1976
1975
1974
1974
1973
1973
1973
1973
1973
1973
1973
1973
1972
1971
1971
1972
1973
1974
1975
1975
1976
1976
1976
1976
1976
1975
1976
1976
1976
1976
1976
1976
1976
1976
1976
1976
1975
1975
1976
1976
1977
1978
1978
1977
1976
1976
1976
1976
1977
1977
1976
1975
1975
1975
1975
1977
1978
1980
1982
1982
1982
1981
1980
1978
1977
1977
1976
1976
1976
1976
1977
1977
1976
1976
1975
1975
1976
1977
1977
1977
1975
1975
1976
1981
1992
2009
2032
2052
2061
2054
2030
1998
1968
1950
1947
1955
1967
1976
1980
1980
1979
1977
1976
1976
1977
1977
1978
1978
1979
1979
1980
1980
1979
1979
1979
1979
1980
1982
1983
1984
1985
1985
1985
1985
1985
1986
1986
1987
1989
1991
1992
1993
1993
1993
1994
1995
1997
1998
1999
2000
2001
2001
2001
2001
2001
2001
2001
2001
2000
1999
1997
1995
1992
1990
1987
1985
1983
1982
1981
1980
1978
1977
1977
1976
1976
1976
1976
1975
1975
1975
1975
1975
1975
1975
1975
1975
1976
1976
1977
1977
1977
1977
1977
1977
1977
1977
1977
1977
1978
1978
1978
1978
1978
1978
1977
1977
1976
1976
1976
1976
1977
1977
1976
1976
1976
1975
1975
1975
1975
1976
1976
1977
1977
1978
1978
1979
1980
1980
1980
1979
1978
1977
1976
1976
1975
1974
1973
1974
1974
1975
1976
1976
1975
1975
1975
1975
1974
1973
1973
1974
1979
1989
2005
2027
2047
2058
2054
2034
2002
1970
1949
1943
1950
1962
1972
1977
1977
1976
1975
1975
1975
1975
1975
1974
1974
1974
1975
1976
1977
1977
1978
1978
1979
1979
1980
1980
1980
1980
1981
1981
1981
1982
1983
1984
1985
1986
1987
1987
1988
1989
1990
1991
1992
1993
1994
1995
1995
1996
1997
1998
1999
1999
1999
1998
1997
1996
1995
1994
1992
1991
1988
1986
1983
1981
1979
1978
1977
1977
1977
1977
1977
1976
1975
1974
1973
1973
1974
1974
1975
1976
1976
1976
1975
1975
1974
1975
1976
1977
1978
1978
1978
1977
1977
1977
1977
1977
1977
1977
1977
1978
1978
1978
1977
1976
1975
1975
1976
1977
1978
1979
1979
1978
1977
1976
1975
1975
1975
1975
1975
1975
1976
1976
1977
1978
1979
1980
1981
1981
1981
1980
1979
1978
1977
1975
1974
1974
1974
1974
1975
1975
1976
1975
1975
1975
1975
1974
1974
1973
1973
1976
1982
1994
2012
2033
2051
2057
2048
2022
1990
1963
1949
1949
1959
1969
1976
1977
1976
1975
1975
1975
1975
1975
1975
1975
1975
1975
1975
1976
1977
1978
1978
1978
1977
1977
1977
1978
1980
1981
1981
1982
1982
1983
1983
1984
1984
1985
1985
1987
1988
1989
1991
1992
1993
1993
1994
1994
1994
1994
1994
1992
1991
1990
1989
1989
1989
1988
1986
1984
1982
1981
1980
1978
1976
1973
1971
1969
1968
1968
1968
1968
1967
1966
1966
1965
1965
1966
1966
1967
1968
1968
1968
1968
1968
1968
1968
1968
1968
1969
1969
1969
1970
1971
1971
1970
1970
1969
1969
1970
1970
1971
1971
1971
1971
1970
1970
1970
1970
1971
1971
1972
1972
1972
1972
1971
1971
1970
1969
1970
1970
1971
1971
1971
1971
1972
1973
1975
1976
1977
1978
1977
1976
1974
1973
1971
1970
1970
1970
1971
1972
1973
1973
1973
1972
1972
1971
1971
1971
1971
1971
1972
1976
1984
1998
2017
2039
2052
2053
2038
2009
1978
1956
1948
1952
1962
1970
1974
1974
1973
1972
1972
1972
1973
1973
1973
1973
1973
1973
1974
1976
1976
1977
1976
1976
1976
1977
1977
1977
1978
1979
1980
1980
1981
1982
1982
1983
1984
1985
1986
1987
1988
1988
1989
1990
1991
1992
1993
1994
1995
1996
1996
1997
1996
1996
1995
1994
1993
1993
1992
1990
1989
1986
1984
1982
1979
1978
1976
1976
1975
1975
1975
1974
1973
1971
1971
1971
1971
1972
1972
1972
1973
1973
1973
1973
1973
1972
1972
1972
1973
1973
1974
1975
1975
1975
1975
1975
1975
1975
1974
1974
1974
1974
1975
1975
1975
1975
1975
1975
1975
1975
1975
1975
1975
1974
1974
1974
1974
1975
1975
1975
1975
1975
1974
1974
1973
1973
1974
1975
1977
1979
1980
1980
1979
1978
1977
1976
1975
1975
1975
1975
1975
1974
1974
1973
1973
1974
1974
1975
1975
1975
1974
1973
1973
1974
1978
1987
2002
2022
2043
2055
2053
2035
2005
1975
1955
1949
1955
1965
1974
1978
1978
1976
1975
1974
1974
1974
1975
1975
1975
1975
1976
1976
1977
1977
1977
1977
1977
1978
1979
1980
1980
1980
1981
1981
1981
1982
1983
1984
1985
1986
1987
1988
1989
1989
1990
1990
1991
1993
1995
1997
1997
1997
1997
1996
1996
1996
1996
1996
1996
1996
1995
1993
1991
1989
1986
1984
1983
1981
1980
1979
1978
1977
1976
1975
1975
1974
1974
1974
1974
1974
1974
1974
1974
1973
1973
1972
1972
1972
1973
1974
1975
1976
1976
1975
1975
1975
1975
1975
1975
1976
1977
1977
1977
1976
1976
1975
1976
1976
1976
1976
1976
1976
1976
1975
1974
1974
1974
1974
1974
1974
1975
1975
1975
1974
1973
1973
1973
1974
1975
1977
1978
1978
1979
1980
1980
1980
1979
1978
1977
1976
1976
1975
1974
1974
1973
1973
1973
1974
1974
1975
1975
1975
1975
1975
1974
1973
1974
1977
1984
1997
2017
2038
2053
2056
2043
2016
1984
1959
1948
1950
1960
1971
1977
1978
1976
1974
1973
1974
1975
1977
1978
1978
1977
1977
1977
1978
1978
1979
1979
1979
1980
1980
1981
1981
1982
1982
1983
1983
1984
1985
1986
1986
1987
1987
1988
1989
1991
1992
1994
1995
1996
1997
1997
1998
1998
1998
1998
1999
2000
2002
2002
2002
2000
1998
1996
1994
1993
1992
1991
1989
1986
1983
1981
1978
1976
1975
1974
1974
1974
1975
1975
1975
1975
1974
1974
1974
1974
1974
1975
1975
1976
1977
1977
1977
1977
1976
1977
1977
1978
1979
1979
1978
1978
1977
1976
1976
1977
1978
1979
1980
1981
1980
1979
1979
1978
1978
1978
1979
1979
1979
1979
1979
1978
1978
1978
1978
1979
1980
1981
1983
1985
1985
1985
1983
1981
1979
1977
1977
1977
1978
1979
1979
1978
1978
1977
1977
1977
1978
1979
1979
1978
1976
1976
1977
1981
1992
2009
2032
2053
2065
2061
2039
2004
1971
1949
1943
1951
1964
1975
1981
1982
1981
1979
1978
1977
1977
1977
1978
1979
1980
1981
1981
1981
1981
1981
1981
1981
1982
1983
1984
1985
1986
1986
1986
1986
1986
1986
1987
1988
1989
1990
1991
1991
1992
1993
1994
1995
1996
1998
1999
2000
2000
2001
2001
2001
2001
2001
2001
2001
2000
1998
1996
1994
1991
1988
1985
1983
1981
1980
1980
1979
1978
1976
1975
1974
1974
1975
1975
1975
1975
1974
1974
1973
1973
1973
1974
1974
1975
1976
1977
1977
1977
1976
1975
1974
1974
1975
1976
1977
1978
1978
1977
1977
1976
1976
1976
1976
1976
1976
1977
1977
1977
1977
1977
1977
1976
1975
1975
1974
1974
1974
1973
1973
1973
1974
1975
1976
1976
1975
1974
1974
1973
1972
1971
1970
1969
1969
1969
1970
1970
1970
1970
1969
1968
1968
1968
1968
1967
1967
1968
1973
1982
1997
2018
2039
2051
2049
2030
2000
1969
1949
1944
1949
1959
1967
1970
1971
1970
1970
1970
1970
1970
1969
1969
1969
1970
1971
1971
1972
1973
1973
1973
1974
1974
1975
1975
1976
1976
1977
1977
1978
1979
1979
1979
1980
1980
1981
1982
1984
1985
1987
1987
1988
1988
1989
1990
1990
1991
1992
1993
1993
1993
1993
1993
1992
1991
1990
1988
1986
1984
1982
1980
1978
1976
1974
1972
1971
1970
1969
1969
1969
1969
1969
1969
1968
1967
1967
1967
1967
1968
1968
1968
1969
1969
1969
1969
1969
1969
1970
1970
1970
1971
1971
1971
1970
1969
1969
1969
1970
1971
1972
1972
1972
1971
1971
1970
1970
1970
1970
1970
1971
1971
1971
1971
1970
1969
1969
1969
1970
1971
1972
1973
1974
1975
1975
1974
1974
1973
1972
1971
1970
1970
1969
1969
1969
1969
1969
1969
1969
1969
1970
1970
1970
1969
1968
1967
1966
1968
1974
1984
1999
2020
2040
2052
2049
2031
2001
1970
1950
1945
1951
1962
1969
1972
1971
1970
1969
1969
1970
1971
1971
1971
1971
1970
1970
1970
1971
1972
1974
1974
1975
1975
1975
1975
1975
1976
1976
1977
1978
1978
1979
1979
1979
1979
1980
1981
1982
1983
1985
1987
1988
1989
1990
1990
1991
1991
1992
1992
1993
1993
1993
1993
1992
1991
1989
1987
1985
1983
1982
1980
1979
1977
1976
1974
1972
1971
1970
1969
1969
1969
1969
1969
1969
1968
1968
1967
1967
1967
1968
1969
1970
1970
1970
1970
1970
1970
1970
1970
1970
1970
1970
1971
1971
1971
1971
1971
1971
1971
1972
1972
1972
1972
1972
1972
1971
1971
1970
1971
1971
1972
1973
1973
1973
1973
1971
1970
1969
1969
1970
1971
1972
1973
1973
1973
1973
1974
1974
1974
1974
1974
1974
1973
1972
1970
1969
1968
1968
1969
1970
1971
1971
1971
1971
1970
1970
1969
1968
1968
1969
1973
1982
1996
2016
2037
2051
2051
2035
2006
1975
1954
1946
1952
1962
1970
1973
1972
1971
1969
1970
1971
1972
1972
1973
1972
1972
1972
1972
1973
1974
1975
1976
1976
1976
1976
1976
1976
1977
1978
1979
1979
1980
1980
1981
1981
1981
1982
1983
1985
1986
1988
1989
1990
1990
1991
1991
1992
1993
1994
1995
1995
1995
1995
1994
1994
1993
1992
1990
1988
1986
1985
1983
1982
1980
1978
1976
1974
1972
1971
1971
1971
1971
1971
1971
1971
1970
1970
1970
1970
1971
1971
1971
1971
1971
1971
1971
1971
1971
1971
1972
1973
1974
1974
1974
1973
1972
1972
1972
1973
1974
1975
1975
1975
1974
1973
1973
1972
1972
1973
1974
1975
1974
1974
1973
1972
1972
1972
1973
1973
1973
1973
1973
1973
1974
1974
1975
1976
1977
1978
1978
1978
1977
1976
1975
1973
1972
1970
1970
1971
1972
1973
1974
1974
1974
1973
1973
1972
1972
1971
1971
1972
1975
1983
1997
2018
2040
2054
2055
2039
2009
1977
1953
1944
1948
1958
1968
1973
1974
1974
1973
1973
1974
1974
1974
1974
1973
1974
1974
1975
1977
1977
1977
1977
1977
1977
1977
1978
1979
1980
1981
1981
1981
1982
1982
1983
1984
1984
1985
1986
1988
1990
1992
1994
1995
1995
1995
1995
1996
1996
1997
1998
1999
2000
2000
2000
1999
1997
1996
1994
1992
1990
1988
1987
1984
1981
1978
1976
1975
1974
1975
1974
1974
1973
1972
1972
1972
1972
1972
1972
1972
1973
1973
1973
1973
1973
1972
1972
1973
1973
1974
1975
1975
1976
1976
1975
1975
1975
1975
1975
1975
1975
1975
1976
1976
1976
1976
1976
1975
1975
1975
1975
1976
1977
1976
1975
1973
1972
1972
1973
1973
1974
1974
1975
1977
1979
1980
1980
1979
1979
1978
1977
1975
1974
1974
1974
1976
1979
1980
1982
1982
1982
1981
1981
1981
1981
1980
1978
1977
1978
1982
1991
2006
2027
2048
2062
2062
2046
2016
1982
1957
1947
1951
1963
1973
1980
1981
1980
1978
1977
1977
1977
1978
1978
1978
1978
1979
1979
1979
1979
1980
1980
1981
1981
1981
1981
1982
1982
1983
1983
1984
1984
1984
1984
1985
1986
1987
1988
1988
1990
1992
1994
1995
1996
1997
1998
1998
1998
1999
1998
1998
1998
1999
1999
1998
1997
1996
1994
1992
1990
1989
1987
1985
1982
1980
1977
1975
1974
1974
1974
1975
1975
1975
1975
1974
1972
1972
1972
1972
1972
1973
1973
1973
1973
1972
1972
1972
1972
1972
1972
1973
1974
1975
1976
1976
1975
1973
1972
1971
1972
1973
1974
1975
1976
1975
1974
1973
1973
1972
1972
1973
1973
1974
1974
1974
1973
1972
1971
1971
1971
1971
1972
1974
1975
1976
1977
1977
1977
1976
1975
1974
1974
1974
1974
1973
1973
1972
1971
1970
1971
1971
1972
1972
1972
1972
1971
1970
1969
1970
1973
1980
1993
2012
2034
2050
2055
2043
2016
1983
1957
1945
1947
1957
1968
1974
1975
1973
1972
1970
1970
1971
1972
1973
1974
1973
1973
1971
1971
1971
1972
1974
1975
1976
1976
1976
1975
1975
1976
1977
1978
1979
1980
1981
1982
1983
1983
1983
1983
1984
1985
1987
1988
1990
1991
1992
1992
1992
1992
1993
1993
1993
1994
1994
1994
1994
1993
1990
1988
1985
1983
1981
1980
1978
1977
1975
1973
1971
1970
1971
1971
1972
1972
1971
1970
1969
1969
1968
1968
1968
1968
1968
1968
1969
1970
1970
1970
1970
1970
1970
1970
1971
1972
1973
1973
1973
1972
1972
1972
1972
1973
1974
1973
1973
1972
1972
1972
1972
1972
1972
1973
1974
1974
1974
1974
1974
1974
1973
1973
1972
1972
1972
1973
1974
1974
1975
1976
1976
1977
1977
1978
1978
1978
1977
1975
1974
1973
1973
1972
1971
1971
1971
1972
1973
1973
1974
1973
1972
1971
1970
1970
1972
1976
1985
1999
2019
2039
2053
2054
2039
2010
1979
1955
1947
1951
1961
1970
1975
1975
1973
1972
1971
1972
1973
1974
1974
1973
1972
1972
1972
1973
1975
1976
1977
1977
1977
1976
1976
1976
1977
1978
1980
1980
1981
1982
1982
1982
1982
1983
1984
1985
1986
1987
1989
1990
1990
1991
1991
1991
1992
1993
1995
1996
1996
1996
1996
1995
1993
1992
1991
1989
1988
1985
1983
1980
1978
1976
1975
1974
1973
1972
1972
1971
1971
1970
1970
1970
1970
1971
1970
1970
1970
1970
1970
1971
1971
1971
1971
1970
1970
1970
1971
1972
1973
1973
1972
1971
1971
1971
1972
1973
1974
1974
1974
1974
1974
1973
1973
1972
1972
1972
1973
1973
1973
1973
1973
1973
1973
1972
1971
1971
1970
1971
1971
1972
1973
1972
1972
1972
1974
1975
1977
1978
1978
1977
1975
1974
1972
1972
1971
1972
1972
1972
1971
1971
1971
1972
1972
1972
1971
1971
1971
1971
1971
1973
1978
1987
2002
2022
2042
2053
2050
2032
2002
1972
1952
1947
1952
1962
1970
1974
1974
1974
1973
1972
1971
1971
1971
1972
1972
1973
1973
1973
1974
1975
1976
1976
1977
1977
1977
1977
1977
1977
1978
1979
1980
1980
1980
1980
1980
1981
1983
1985
1986
1987
1988
1989
1990
1991
1992
1993
1994
1995
1996
1996
1996
1996
1996
1995
1994
1994
1993
1992
1991
1989
1986
1983
1980
1978
1976
1975
1974
1974
1973
1972
1971
1971
1970
1970
1970
1970
1971
1971
1971
1972
1972
1971
1971
1970
1970
1971
1972
1972
1973
1973
1973
1972
1972
1972
1973
1973
1974
1974
1975
1975
1975
1975
1974
1974
1973
1974
1974
1975
1975
1975
1975
1975
1975
1975
1974
1973
1973
1972
1972
1972
1973
1973
1974
1975
1976
1978
1979
1980
1979
1979
1978
1976
1974
1973
1972
1972
1973
1974
1975
1975
1975
1975
1974
1974
1973
1973
1973
1973
1972
1973
1977
1987
2004
2026
2048
2059
2054
2034
2002
1970
1950
1943
1949
1960
1970
1976
1977
1977
1976
1976
1976
1976
1976
1976
1975
1975
1976
1977
1978
1979
1978
1977
1977
1978
1979
1980
1982
1983
1983
1984
1984
1984
1984
1984
1984
1985
1987
1988
1990
1992
1993
1993
1993
1993
1993
1994
1996
1998
1999
2000
2000
1999
1999
1998
1998
1997
1996
1994
1992
1990
1988
1985
1982
1979
1977
1975
1974
1973
1973
1973
1972
1972
1971
1970
1970
1970
1970
1971
1971
1971
1971
1971
1971
1971
1971
1970
1970
1971
1972
1972
1973
1973
1973
1972
1972
1972
1972
1973
1973
1974
1974
1973
1973
1972
1972
1972
1972
1973
1973
1973
1973
1973
1972
1970
1969
1968
1969
1971
1973
1975
1977
1977
1976
1975
1974
1973
1973
1972
1972
1970
1969
1968
1967
1968
1968
1969
1970
1971
1971
1971
1971
1970
1968
1966
1966
1970
1980
1997
2019
2041
2053
2051
2032
2000
1968
1946
1940
1947
1958
1968
1973
1973
1971
1970
1970
1970
1971
1971
1972
1972
1972
1972
1972
1972
1972
1973
1974
1975
1976
1977
1977
1977
1977
1977
1977
1977
1977
1978
1979
1981
1983
1984
1984
1984
1984
1985
1987
1989
1991
1992
1993
1993
1992
1991
1991
1992
1993
1995
1995
1995
1994
1992
1990
1987
1985
1983
1981
1980
1978
1977
1975
1973
1971
1970
1969
1969
1969
1970
1971
1971
1971
1970
1969
1968
1968
1968
1969
1970
1971
1971
1971
1971
1970
1970
1970
1970
1971
1972
1973
1972
1972
1971
1971
1971
1971
1972
1973
1973
1974
1973
1972
1971
1970
1970
1970
1970
1971
1972
1972
1972
1971
1971
1971
1972
1973
1975
1976
1977
1976
1976
1975
1973
1972
1970
1970
1969
1969
1970
1971
1971
1971
1970
1970
1969
1969
1969
1969
1969
1969
1969
1972
1980
1994
2015
2037
2052
2052
2035
2005
1973
1951
1943
1947
1958
1967
1972
1973
1972
1971
1970
1970
1970
1970
1970
1970
1970
1971
1972
1973
1974
1974
1974
1974
1974
1974
1975
1975
1976
1976
1977
1977
1978
1979
1980
1981
1982
1983
1984
1985
1986
1987
1988
1989
1989
1990
1991
1992
1993
1993
1994
1994
1994
1994
1994
1993
1992
1991
1990
1988
1986
1984
1982
1979
1977
1975
1974
1973
1972
1972
1972
1971
1970
1969
1969
1969
1969
1969
1969
1969
1969
1970
1970
1971
1971
1971
1971
1971
1971
1971
1972
1972
1972
1972
1972
1972
1972
1973
1973
1974
1974
1974
1974
1973
1972
1972
1972
1973
1974
1974
1975
1974
1973
1972
1971
1970
1970
1970
1971
1972
1974
1975
1976
1976
1976
1977
1977
1977
1976
1975
1974
1972
1971
1970
1970
1970
1971
1971
1971
1972
1972
1972
1972
1971
1970
1969
1969
1970
1973
1980
1992
2011
2033
2049
2055
2044
2018
1986
1960
1948
1949
1958
1968
1973
1974
1973
1972
1971
1971
1972
1973
1973
1973
1973
1972
1972
1972
1973
1974
1976
1976
1976
1976
1976
1977
1977
1978
1979
1980
1981
1982
1982
1982
1982
1982
1983
1984
1986
1987
1989
1990
1991
1991
1992
1993
1994
1994
1995
1995
1995
1996
1995
1994
1993
1992
1990
1989
1988
1987
1985
1982
1979
1977
1975
1974
1974
1973
1973
1972
1971
1971
1970
1970
1970
1970
1970
1970
1970
1971
1971
1971
1971
1971
1970
1971
1971
1971
1972
1972
1973
1973
1973
1972
1972
1972
1972
1972
1973
1974
1974
1974
1973
1973
1972
1972
1972
1973
1973
1974
1974
1973
1973
1972
1972
1971
1971
1970
1970
1971
1972
1973
1974
1975
1976
1977
1977
1978
1978
1977
1976
1975
1973
1972
1971
1971
1971
1972
1972
1972
1972
1972
1973
1973
1973
1972
1971
1970
1970
1972
1976
1985
2000
2021
2042
2054
2053
2035
2005
1975
1954
1947
1953
1962
1970
1974
1974
1973
1972
1971
1971
1971
1972
1972
1972
1972
1972
1972
1973
1974
1975
1976
1977
1977
1976
1976
1976
1977
1978
1979
1980
1982
1982
1983
1982
1982
1982
1984
1986
1988
1990
1991
1991
1991
1990
1991
1992
1994
1995
1996
1996
1996
1996
1995
1994
1993
1993
1992
1991
1989
1987
1984
1982
1980
1978
1976
1975
1974
1974
1974
1973
1973
1972
1972
1971
1971
1971
1971
1972
1972
1973
1973
1973
1972
1972
1972
1972
1973
1974
1975
1975
1975
1974
1974
1974
1974
1974
1974
1974
1975
1976
1976
1976
1975
1974
1974
1974
1974
1975
1976
1976
1975
1974
1974
1974
1974
1974
1974
1974
1975
1975
1975
1974
1974
1974
1974
1975
1976
1977
1979
1980
1981
1980
1979
1977
1975
1974
1973
1974
1974
1975
1975
1974
1973
1973
1972
1972
1973
1974
1975
1974
1973
1973
1973
1978
1988
2004
2026
2047
2057
2052
2032
2000
1971
1952
1948
1955
1965
1973
1977
1977
1976
1975
1974
1974
1974
1975
1976
1976
1977
1977
1977
1977
1977
1977
1977
1978
1978
1980
1981
1982
1983
1983
1983
1982
1983
1983
1985
1986
1987
1989
1989
1990
1990
1990
1990
1991
1993
1996
1997
1998
1998
1997
1996
1997
1997
1998
1999
1999
2000
1999
1998
1996
1992
1989
1986
1984
1982
1981
1980
1979
1978
1977
1976
1975
1974
1974
1974
1974
1974
1974
1974
1974
1973
1973
1973
1974
1974
1975
1976
1977
1977
1977
1976
1975
1975
1976
1977
1977
1977
1978
1977
1977
1977
1976
1975
1974
1975
1975
1976
1977
1977
1977
1977
1976
1976
1976
1976
1976
1976
1977
1977
1976
1976
1977
1978
1980
1982
1984
1984
1983
1982
1980
1978
1976
1975
1974
1975
1976
1976
1977
1976
1976
1976
1976
1976
1976
1976
1975
1974
1974
1977
1984
1997
2017
2039
2056
2061
2048
2020
1987
1960
1946
1947
1957
1969
1976
1979
1978
1977
1976
1975
1975
1975
1976
1976
1977
1977
1978
1978
1979
1980
1980
1981
1981
1980
1980
1981
1981
1982
1983
1984
1985
1986
1986
1986
1986
1987
1988
1990
1991
1993
1994
1994
1995
1996
1998
1999
2000
2002
2002
2003
2002
2002
2001
2001
2000
2000
1998
1996
1994
1991
1989
1986
1984
1981
1979
1977
1977
1977
1977
1977
1976
1975
1974
1973
1973
1973
1973
1974
1974
1974
1975
1974
1974
1974
1974
1974
1975
1975
1975
1975
1975
1975
1975
1976
1976
1976
1976
1976
1976
1975
1975
1975
1975
1975
1976
1976
1976
1976
1976
1975
1975
1974
1974
1973
1974
1975
1977
1979
1981
1982
1982
1980
1979
1977
1975
1974
1974
1974
1974
1974
1974
1973
1973
1973
1973
1974
1974
1974
1974
1973
1972
1972
1973
1978
1989
2007
2031
2051
2060
2051
2026
1992
1961
1944
1942
1952
1964
1973
1977
1976
1975
1973
1972
1972
1972
1973
1974
1975
1975
1975
1975
1975
1975
1975
1975
1975
1976
1977
1978
1979
1980
1979
1979
1978
1979
1980
1982
1984
1984
1985
1985
1986
1987
1989
1990
1991
1992
1993
1994
1995
1996
1996
1996
1996
1995
1995
1995
1995
1995
1994
1991
1988
1985
1982
1980
1978
1977
1976
1975
1973
1972
1971
1970
1970
1970
1970
1970
1969
1969
1970
1970
1969
1969
1969
1969
1969
1970
1971
1971
1971
1971
1971
1971
1970
1970
1971
1972
1973
1973
1973
1972
1972
1971
1971
1971
1972
1973
1973
1973
1973
1972
1972
1972
1971
1971
1972
1972
1973
1974
1975
1976
1977
1977
1977
1977
1976
1976
1975
1974
1973
1973
1972
1972
1972
1972
1972
1973
1973
1973
1973
1972
1971
1970
1969
1969
1971
1976
1987
2004
2025
2045
2055
2050
2029
1997
1967
1949
1946
1954
1965
1973
1976
1975
1973
1972
1971
1972
1972
1973
1974
1974
1974
1974
1974
1974
1975
1976
1976
1977
1977
1978
1978
1978
1979
1979
1980
1981
1982
1983
1984
1985
1985
1986
1986
1987
1987
1988
1990
1991
1992
1993
1993
1993
1993
1993
1994
1995
1997
1998
1998
1997
1995
1993
1990
1988
1986
1985
1984
1982
1979
1977
1975
1974
1973
1973
1972
1972
1972
1972
1973
1973
1973
1971
1970
1970
1969
1970
1971
1972
1972
1973
1973
1973
1972
1972
1972
1973
1973
1974
1974
1974
1974
1974
1974
1974
1974
1974
1974
1974
1974
1974
1974
1974
1973
1973
1973
1973
1974
1974
1974
1973
1972
1972
1972
1972
1974
1975
1977
1978
1978
1978
1977
1975
1974
1972
1972
1972
1973
1973
1973
1972
1971
1970
1970
1970
1971
1972
1973
1972
1971
1970
1969
1971
1975
1986
2002
2024
2046
2057
2052
2031
1999
1969
1950
1946
1953
1964
1973
1976
1976
1974
1973
1972
1972
1972
1972
1972
1973
1973
1974
1974
1974
1974
1974
1975
1976
1977
1978
1978
1978
1978
1978
1979
1980
1981
1981
1982
1983
1984
1985
1985
1986
1987
1987
1988
1990
1991
1993
1994
1995
1995
1995
1995
1995
1995
1996
1997
1997
1996
1994
1992
1989
1987
1986
1984
1983
1981
1980
1978
1976
1974
1973
1973
1972
1971
1971
1972
1972
1973
1973
1972
1971
1970
1970
1971
1971
1973
1973
1974
1974
1974
1973
1973
1973
1973
1974
1974
1975
1976
1976
1975
1974
1973
1973
1973
1974
1976
1976
1976
1976
1975
1974
1974
1974
1974
1974
1974
1975
1975
1974
1974
1974
1974
1974
1976
1977
1979
1980
1980
1980
1979
1978
1976
1974
1973
1972
1972
1973
1974
1974
1974
1974
1973
1973
1973
1974
1974
1973
1972
1972
1972
1975
1983
1997
2017
2039
2053
2055
2041
2013
1982
1959
1950
1953
1962
1972
1977
1978
1976
1975
1974
1973
1972
1972
1972
1973
1974
1976
1977
1977
1976
1976
1975
1975
1976
1977
1978
1980
1981
1982
1982
1982
1982
1982
1982
1983
1984
1986
1987
1988
1988
1989
1989
1989
1991
1992
1994
1996
1997
1997
1996
1996
1996
1996
1997
1997
1996
1995
1994
1992
1990
1988
1986
1984
1982
1980
1979
1978
1977
1976
1975
1974
1973
1972
1972
1972
1972
1973
1973
1974
1974
1974
1973
1972
1972
1973
1974
1975
1976
1976
1976
1975
1975
1975
1976
1976
1976
1977
1977
1977
1977
1976
1975
1975
1975
1976
1977
1978
1977
1977
1976
1975
1975
1975
1975
1975
1976
1977
1978
1980
1981
1981
1981
1980
1979
1979
1979
1978
1977
1976
1974
1974
1974
1974
1975
1975
1975
1975
1975
1976
1976
1975
1974
1973
1973
1973
1977
1984
1998
2018
2040
2054
2055
2040
2011
1980
1957
1948
1953
1963
1972
1976
1977
1976
1976
1975
1975
1975
1975
1975
1975
1976
1977
1977
1977
1977
1978
1979
1980
1981
1981
1981
1980
1980
1980
1981
1982
1984
1985
1986
1986
1986
1987
1988
1989
1990
1991
1992
1993
1994
1995
1995
1996
1997
1998
1999
1999
1999
1999
1999
1998
1998
1997
1996
1994
1992
1989
1987
1985
1984
1983
1981
1979
1977
1975
1974
1973
1974
1975
1975
1974
1973
1972
1971
1971
1972
1973
1974
1975
1976
1976
1975
1975
1975
1974
1975
1976
1976
1976
1976
1976
1975
1975
1975
1975
1975
1975
1976
1977
1977
1977
1976
1975
1973
1972
1972
1973
1975
1977
1979
1980
1981
1981
1981
1979
1978
1976
1975
1974
1974
1973
1973
1973
1973
1974
1974
1975
1975
1975
1975
1975
1974
1972
1971
1969
1970
1976
1987
2005
2028
2048
2058
2051
2028
1995
1964
1946
1944
1953
1965
1974
1977
1976
1975
1974
1974
1974
1975
1975
1976
1976
1976
1976
1976
1977
1977
1978
1978
1979
1979
1980
1980
1980
1980
1981
1982
1983
1984
1984
1985
1985
1986
1986
1987
1988
1989
1991
1992
1992
1993
1994
1995
1996
1997
1998
1998
1998
1998
1998
1998
1998
1997
1996
1993
1991
1989
1986
1984
1981
1979
1977
1976
1975
1974
1973
1972
1972
1972
1972
1972
1972
1972
1971
1971
1970
1970
1971
1972
1973
1973
1973
1973
1972
1972
1972
1972
1973
1973
1974
1974
1974
1974
1974
1974
1974
1975
1975
1975
1975
1975
1975
1975
1974
1974
1974
1975
1977
1978
1980
1980
1980
1980
1978
1976
1975
1973
1973
1973
1974
1974
1975
1974
1973
1972
1972
1973
1974
1975
1975
1974
1972
1971
1970
1972
1979
1993
2013
2036
2052
2054
2039
2010
1978
1955
1946
1952
1963
1974
1979
1980
1978
1976
1974
1973
1973
1974
1975
1976
1977
1978
1978
1977
1977
1976
1976
1977
1978
1979
1980
1981
1981
1981
1981
1981
1982
1983
1984
1985
1986
1987
1987
1988
1988
1989
1990
1992
1993
1995
1996
1996
1996
1996
1996
1996
1997
1997
1998
1997
1997
1995
1993
1991
1988
1985
1983
1981
1980
1980
1979
1978
1977
1975
1975
1974
1974
1974
1974
1974
1974
1974
1975
1974
1974
1973
1973
1973
1974
1975
1976
1976
1976
1976
1975
1975
1974
1975
1975
1976
1977
1977
1977
1977
1976
1976
1976
1976
1976
1976
1976
1976
1976
1976
1975
1976
1977
1978
1980
1981
1982
1981
1979
1977
1976
1974
1974
1973
1973
1974
1974
1975
1975
1975
1974
1973
1973
1973
1973
1973
1973
1972
1971
1972
1976
1985
2002
2024
2045
2055
2051
2031
2000
1971
1954
1951
1958
1967
1974
1976
1975
1974
1974
1974
1973
1973
1973
1974
1975
1976
1977
1977
1977
1976
1976
1976
1976
1976
1977
1979
1980
1981
1981
1981
1981
1981
1981
1982
1983
1985
1986
1987
1987
1987
1988
1988
1990
1991
1993
1995
1995
1995
1995
1994
1994
1994
1994
1995
1995
1995
1994
1992
1989
1987
1984
1981
1980
1979
1978
1978
1977
1976
1974
1972
1971
1971
1972
1972
1973
1972
1972
1972
1972
1972
1972
1972
1971
1970
1969
1968
1968
1968
1969
1968
1968
1968
1968
1968
1969
1969
1969
1969
1969
1968
1967
1967
1967
1968
1969
1970
1970
1970
1969
1968
1968
1969
1970
1972
1973
1975
1976
1976
1975
1973
1971
1970
1968
1968
1968
1968
1968
1968
1968
1967
1967
1967
1967
1968
1969
1969
1969
1968
1967
1967
1969
1976
1989
2010
2033
2048
2050
2035
2007
1976
1953
1945
1950
1960
1969
1973
1973
1971
1970
1969
1969
1969
1969
1969
1970
1971
1971
1972
1973
1973
1974
1974
1974
1974
1974
1974
1975
1976
1977
1978
1978
1978
1978
1979
1979
1980
1982
1983
1984
1985
1986
1986
1986
1987
1988
1990
1991
1992
1992
1992
1992
1992
1992
1992
1992
1992
1992
1991
1989
1986
1984
1981
1978
1976
1975
1974
1974
1974
1974
1972
1971
1970
1969
1970
1970
1971
1971
1971
1970
1969
1969
1970
1971
1971
1972
1972
1973
1973
1973
1973
1973
1973
1973
1973
1973
1974
1974
1975
1975
1975
1974
1973
1973
1973
1973
1974
1975
1974
1974
1973
1973
1973
1974
1975
1977
1979
1980
1980
1979
1978
1976
1975
1974
1973
1973
1974
1973
1973
1972
1972
1972
1972
1973
1974
1974
1974
1973
1972
1971
1970
1971
1975
1985
2002
2023
2044
2053
2048
2027
1996
1968
1950
1948
1956
1967
1975
1978
1977
1976
1974
1973
1973
1974
1975
1976
1977
1977
1978
1977
1977
1977
1977
1977
1978
1979
1980
1981
1982
1982
1982
1982
1983
1984
1985
1986
1987
1987
1987
1987
1988
1989
1990
1992
1993
1995
1997
1998
1998
1997
1996
1996
1996
1997
1998
1999
1999
1999
1997
1995
1993
1990
1988
1985
1984
1982
1981
1980
1978
1976
1975
1974
1973
1973
1973
1973
1973
1974
1975
1975
1974
1973
1972
1972
1973
1974
1975
1976
1976
1976
1975
1975
1975
1975
1975
1975
1976
1976
1977
1977
1976
1975
1975
1975
1976
1977
1978
1977
1976
1976
1975
1975
1976
1977
1978
1979
1980
1980
1980
1979
1977
1975
1974
1973
1972
1972
1973
1973
1974
1974
1974
1973
1973
1973
1972
1972
1972
1971
1970
1971
1975
1985
2001
2024
2044
2055
2049
2027
1995
1965
1946
1943
1952
1964
1973
1976
1976
1975
1974
1973
1973
1973
1973
1973
1974
1975
1976
1976
1976
1976
1977
1977
1977
1978
1978
1980
1981
1981
1981
1981
1980
1980
1981
1983
1985
1987
1988
1989
1990
1991
1991
1993
1995
1997
1998
1998
1998
1998
1998
1999
1999
1999
1999
1998
1997
1997
1996
1995
1993
1990
1987
1984
1982
1980
1980
1979
1980
1979
1978
1976
1974
1973
1972
1972
1973
1975
1976
1976
1976
1975
1975
1975
1975
1975
1975
1975
1976
1977
1978
1978
1979
1978
1978
1977
1977
1977
1978
1978
1978
1978
1978
1978
1977
1977
1976
1977
1978
1979
1980
1980
1981
1981
1982
1982
1982
1982
1982
1981
1980
1978
1977
1976
1976
1976
1976
1976
1976
1976
1977
1977
1977
1977
1976
1975
1974
1973
1974
1976
1983
1996
2015
2036
2052
2057
2046
2020
1989
1964
1952
1954
1963
1973
1979
1981
1981
1980
1979
1978
1977
1977
1977
1978
1979
1980
1981
1982
1983
1983
1984
1984
1984
1984
1984
1984
1985
1985
1986
1987
1988
1988
1988
1988
1989
1989
1990
1992
1993
1995
1996
1997
1998
1998
1998
1998
1998
1999
2000
2001
2001
2001
2000
1999
1998
1998
1997
1995
1993
1990
1988
1986
1984
1983
1981
1979
1978
1978
1977
1977
1977
1977
1977
1976
1976
1976
1976
1977
1977
1978
1978
1977
1977
1977
1977
1977
1978
1978
1979
1979
1979
1979
1979
1978
1978
1978
1978
1978
1978
1979
1979
1980
1980
1979
1979
1978
1977
1977
1978
1979
1980
1981
1981
1981
1981
1982
1982
1983
1983
1982
1980
1979
1977
1975
1975
1975
1975
1975
1976
1977
1978
1978
1977
1976
1975
1974
1974
1974
1975
1978
1985
1998
2017
2038
2054
2057
2044
2017
1986
1962
1951
1954
1964
1973
1978
1978
1976
1976
1975
1976
1976
1976
1976
1976
1977
1978
1978
1979
1980
1980
1980
1979
1979
1979
1979
1980
1981
1982
1983
1984
1984
1985
1985
1985
1986
1987
1988
1990
1991
1992
1992
1992
1992
1993
1993
1994
1996
1997
1997
1998
1998
1998
1997
1996
1995
1994
1993
1992
1990
1989
1987
1984
1981
1979
1977
1976
1975
1975
1975
1975
1975
1975
1974
1974
1973
1973
1973
1974
1974
1975
1975
1975
1975
1974
1974
1974
1975
1975
1976
1976
1976
1976
1976
1976
1976
1976
1977
1977
1977
1977
1977
1976
1976
1975
1975
1976
1976
1976
1976
1975
1976
1976
1976
1976
1977
1978
1980
1981
1982
1981
1980
1978
1976
1974
1973
1973
1974
1975
1975
1975
1975
1974
1974
1973
1973
1973
1974
1974
1974
1974
1974
1976
1982
1995
2015
2036
2052
2056
2043
2016
1986
1963
1953
1955
1964
1973
1978
1978
1977
1975
1974
1974
1974
1974
1974
1974
1974
1975
1976
1977
1977
1977
1978
1978
1978
1978
1979
1980
1981
1982
1983
1982
1981
1981
1982
1983
1985
1986
1987
1987
1988
1988
1989
1990
1991
1991
1992
1993
1995
1996
1997
1997
1996
1996
1996
1995
1995
1994
1993
1991
1989
1987
1985
1983
1981
1979
1977
1976
1976
1976
1975
1975
1974
1973
1972
1972
1972
1972
1973
1974
1974
1973
1973
1973
1973
1974
1975
1975
1975
1976
1975
1976
1976
1976
1976
1977
1977
1977
1977
1977
1977
1977
1976
1976
1977
1977
1977
1977
1977
1976
1975
1975
1976
1977
1978
1979
1980
1981
1982
1982
1982
1981
1979
1978
1976
1975
1974
1974
1974
1974
1974
1975
1975
1975
1976
1976
1976
1975
1975
1974
1973
1973
1975
1982
1994
2014
2037
2053
2056
2042
2014
1982
1959
1949
1953
1963
1973
1978
1979
1978
1977
1976
1976
1976
1976
1977
1977
1978
1979
1980
1980
1980
1980
1980
1980
1981
1982
1983
1983
1984
1985
1986
1986
1986
1986
1986
1986
1988
1989
1991
1993
1994
1994
1994
1994
1995
1996
1997
1999
2000
2000
2000
1999
1999
1998
1998
1998
1999
1999
1998
1996
1994
1991
1988
1986
1984
1982
1981
1980
1979
1978
1977
1976
1975
1975
1975
1975
1976
1976
1976
1977
1977
1977
1977
1976
1976
1976
1976
1977
1978
1979
1979
1979
1979
1978
1978
1978
1978
1979
1979
1979
1979
1978
1977
1977
1977
1977
1978
1979
1979
1979
1979
1978
1978
1978
1979
1981
1982
1982
1981
1980
1978
1976
1975
1974
1974
1974
1975
1976
1977
1977
1977
1977
1976
1975
1975
1975
1975
1974
1974
1975
1982
1994
2014
2037
2053
2057
2045
2017
1984
1958
1947
1949
1959
1970
1977
1980
1979
1978
1977
1977
1977
1977
1977
1977
1978
1978
1978
1979
1980
1981
1981
1982
1982
1982
1982
1982
1983
1983
1984
1985
1985
1986
1986
1987
1988
1989
1990
1991
1992
1993
1993
1993
1994
1994
1995
1997
1998
1999
1999
1999
1999
1999
1998
1998
1997
1996
1995
1994
1992
1990
1988
1986
1983
1981
1979
1978
1977
1977
1978
1978
1977
1976
1975
1973
1972
1972
1973
1974
1975
1975
1976
1976
1976
1976
1977
1977
1976
1975
1975
1975
1975
1976
1977
1977
1977
1976
1976
1977
1978
1979
1980
1979
1979
1978
1977
1977
1978
1979
1980
1981
1982
1983
1984
1984
1983
1982
1981
1980
1979
1978
1977
1976
1976
1976
1977
1978
1978
1979
1979
1978
1978
1977
1976
1975
1975
1975
1976
1981
1990
2006
2026
2046
2056
2051
2030
1999
1971
1955
1953
1962
1972
1980
1981
1980
1978
1978
1978
1979
1980
1980
1981
1981
1981
1980
1980
1980
1980
1981
1982
1983
1984
1984
1984
1983
1983
1984
1985
1986
1988
1989
1990
1990
1990
1989
1990
1990
1992
1994
1996
1998
1999
1999
1998
1998
1997
1997
1998
1999
2001
2001
2001
2000
1998
1996
1995
1993
1992
1990
1987
1985
1983
1981
1980
1979
1978
1977
1977
1978
1978
1978
1978
1977
1976
1976
1976
1977
1977
1978
1978
1978
1978
1978
1977
1977
1977
1977
1978
1979
1980
1980
1980
1979
1978
1977
1976
1976
1977
1978
1979
1979
1979
1978
1977
1976
1976
1976
1977
1979
1980
1982
1982
1983
1982
1981
1981
1980
1980
1979
1978
1976
1976
1975
1975
1975
1975
1975
1976
1976
1977
1977
1977
1976
1975
1974
1973
1974
1978
1987
2003
2025
2046
2057
2052
2033
2003
1974
1957
1953
1960
1970
1977
1979
1978
1977
1976
1976
1977
1977
1977
1977
1976
1977
1977
1978
1979
1979
1980
1981
1981
1981
1981
1981
1981
1982
1983
1984
1985
1986
1986
1987
1987
1987
1987
1988
1989
1990
1991
1993
1995
1996
1998
1998
1999
1999
1998
1998
1998
1999
2000
2000
2000
1999
1997
1995
1993
1990
1988
1987
1986
1985
1984
1982
1981
1979
1979
1978
1978
1978
1978
1977
1977
1976
1976
1976
1976
1976
1977
1978
1979
1979
1978
1977
1977
1977
1977
1978
1979
1980
1980
1980
1980
1979
1979
1979
1979
1978
1979
1979
1979
1980
1980
1980
1979
1978
1978
1977
1977
1977
1978
1979
1979
1980
1980
1980
1981
1981
1982
1982
1981
1980
1979
1977
1976
1975
1975
1975
1976
1976
1976
1977
1977
1976
1976
1975
1975
1974
1974
1974
1976
1980
1988
2003
2024
2044
2056
2053
2035
2005
1976
1957
1952
1959
1968
1976
1979
1978
1977
1976
1976
1976
1976
1976
1975
1975
1976
1976
1977
1978
1979
1980
1980
1980
1980
1981
1981
1982
1982
1983
1983
1984
1985
1986
1986
1986
1986
1987
1988
1989
1990
1991
1992
1993
1994
1995
1995
1996
1996
1996
1997
1997
1997
1996
1996
1995
1995
1995
1994
1993
1991
1989
1986
1983
1981
1979
1978
1978
1977
1977
1976
1976
1975
1975
1974
1973
1972
1972
1973
1974
1975
1976
1976
1976
1975
1974
1974
1975
1976
1977
1977
1978
1978
1977
1977
1976
1976
1976
1977
1978
1978
1978
1978
1977
1977
1976
1977
1977
1978
1978
1978
1978
1977
1977
1976
1976
1976
1977
1979
1981
1983
1984
1984
1982
1980
1978
1977
1976
1976
1976
1977
1977
1977
1976
1975
1975
1975
1976
1977
1977
1977
1976
1974
1973
1974
1978
1987
2003
2024
2045
2057
2054
2035
2005
1975
1955
1950
1957
1967
1976
1980
1980
1979
1977
1976
1976
1977
1977
1977
1978
1978
1979
1979
1980
1980
1980
1980
1980
1981
1983
1983
1984
1984
1983
1983
1983
1983
1984
1985
1987
1989
1990
1990
1990
1991
1992
1993
1994
1996
1997
1998
1998
1998
1997
1997
1997
1998
1999
1999
2000
1999
1998
1996
1994
1992
1990
1988
1986
1984
1983
1982
1980
1979
1978
1977
1976
1976
1976
1976
1976
1976
1976
1976
1976
1975
1974
1975
1976
1976
1977
1977
1978
1978
1978
1978
1977
1976
1977
1977
1979
1979
1980
1979
1978
1977
1977
1977
1978
1979
1980
1980
1980
1979
1977
1976
1975
1975
1976
1978
1980
1982
1983
1983
1983
1982
1980
1978
1977
1977
1977
1977
1976
1976
1975
1975
1975
1975
1976
1976
1977
1977
1977
1976
1974
1972
1972
1976
1987
2006
2030
2050
2060
2052
2027
1993
1962
1946
1945
1955
1967
1976
1979
1978
1976
1974
1974
1975
1976
1976
1977
1977
1977
1977
1978
1979
1979
1979
1979
1979
1980
1981
1982
1983
1983
1982
1982
1983
1984
1986
1987
1987
1988
1988
1989
1990
1991
1992
1993
1994
1995
1996
1997
1998
1998
1997
1996
1996
1997
1998
1999
1999
1999
1997
1995
1992
1989
1987
1985
1983
1982
1981
1979
1977
1976
1975
1975
1974
1974
1974
1974
1974
1974
1974
1974
1974
1974
1974
1974
1974
1975
1975
1976
1976
1976
1976
1976
1976
1976
1978
1979
1979
1978
1978
1977
1976
1976
1976
1976
1977
1978
1978
1979
1978
1977
1976
1975
1975
1976
1977
1979
1981
1981
1982
1982
1981
1979
1977
1976
1975
1975
1975
1975
1975
1974
1974
1973
1974
1974
1975
1975
1975
1975
1975
1974
1973
1973
1977
1986
2002
2024
2046
2057
2052
2031
1999
1969
1949
1945
1953
1965
1974
1979
1979
1977
1975
1974
1974
1975
1975
1976
1977
1978
1978
1978
1978
1978
1978
1979
1981
1982
1982
1982
1982
1981
1982
1982
1983
1984
1985
1986
1987
1987
1988
1988
1989
1990
1991
1992
1993
1995
1995
1996
1997
1997
1997
1997
1997
1997
1998
1998
1998
1997
1996
1994
1992
1989
1987
1985
1984
1982
1981
1980
1979
1978
1977
1976
1975
1975
1975
1976
1976
1977
1976
1976
1975
1974
1974
1975
1976
1978
1978
1979
1978
1978
1977
1976
1976
1976
1977
1978
1979
1979
1979
1979
1978
1978
1978
1978
1979
1980
1980
1980
1979
1977
1976
1975
1976
1976
1977
1978
1980
1981
1981
1982
1982
1982
1981
1980
1980
1979
1978
1977
1976
1976
1975
1975
1975
1976
1976
1977
1977
1977
1977
1976
1975
1974
1973
1975
1980
1990
2007
2029
2048
2058
2052
2030
1998
1970
1953
1951
1960
1971
1978
1980
1978
1977
1976
1976
1977
1978
1979
1979
1978
1978
1978
1978
1979
1980
1981
1982
1982
1982
1982
1981
1981
1982
1984
1985
1986
1986
1987
1987
1987
1988
1989
1989
1990
1991
1992
1994
1995
1995
1995
1995
1996
1996
1997
1997
1998
1998
1998
1998
1998
1997
1996
1993
1990
1988
1986
1985
1984
1982
1980
1978
1977
1975
1974
1974
1974
1975
1975
1975
1975
1974
1973
1972
1972
1973
1974
1975
1976
1975
1975
1975
1975
1975
1976
1976
1976
1976
1976
1976
1976
1976
1975
1975
1974
1974
1975
1975
1976
1977
1976
1976
1974
1974
1974
1975
1976
1976
1976
1976
1975
1974
1974
1975
1976
1978
1980
1980
1981
1980
1979
1977
1975
1974
1973
1972
1973
1973
1974
1974
1974
1973
1973
1973
1973
1973
1973
1973
1973
1973
1974
1978
1987
2003
2024
2044
2054
2050
2030
1999
1970
1952
1948
1956
1966
1974
1978
1977
1977
1976
1975
1975
1975
1974
1974
1975
1976
1977
1978
1978
1978
1978
1978
1978
1979
1980
1981
1981
1982
1982
1982
1982
1983
1984
1985
1986
1986
1987
1987
1988
1989
1990
1991
1992
1992
1993
1994
1995
1996
1997
1996
1995
1995
1995
1995
1995
1995
1995
1994
1992
1990
1987
1985
1982
1980
1978
1977
1976
1976
1976
1976
1974
1973
1972
1971
1971
1972
1974
1975
1975
1975
1974
1973
1972
1972
1973
1974
1975
1976
1976
1976
1975
1975
1975
1975
1975
1975
1976
1976
1976
1976
1976
1976
1975
1975
1975
1975
1975
1975
1975
1975
1974
1974
1974
1975
1975
1975
1975
1975
1976
1977
1978
1979
1979
1980
1980
1979
1978
1976
1974
1973
1972
1972
1972
1972
1973
1973
1975
1975
1976
1976
1975
1973
1972
1971
1972
1974
1981
1994
2012
2032
2048
2053
2044
2018
1988
1963
1951
1952
1961
1971
1977
1979
1977
1976
1974
1974
1975
1975
1976
1976
1975
1975
1975
1975
1976
1978
1979
1980
1981
1981
1980
1980
1980
1980
1981
1982
1983
1984
1985
1985
1985
1986
1987
1988
1990
1992
1993
1993
1993
1993
1993
1994
1994
1995
1996
1997
1998
1998
1998
1997
1997
1996
1996
1996
1996
1996
1995
1993
1992
1990
1988
1986
1985
1984
1984
1984
1984
1984
1983
1982
1981
1980
1980
1981
1981
1981
1981
1981
1982
1982
1983
1983
1983
1982
1982
1982
1983
1983
1984
1983
1983
1982
1981
1981
1981
1982
1983
1983
1983
1983
1982
1981
1981
1980
1980
1981
1981
1982
1982
1981
1980
1980
1981
1982
1984
1985
1985
1984
1983
1981
1980
1979
1978
1977
1977
1977
1978
1978
1978
1978
1978
1977
1977
1976
1976
1976
1975
1975
1976
1981
1992
2009
2032
2052
2062
2054
2031
1997
1966
1948
1945
1952
1964
1973
1978
1979
1979
1978
1977
1976
1976
1976
1976
1976
1977
1977
1979
1980
1981
1981
1981
1980
1979
1979
1979
1980
1981
1982
1983
1983
1984
1984
1985
1985
1986
1986
1987
1988
1990
1991
1992
1993
1993
1994
1995
1996
1997
1998
1998
1998
1997
1996
1996
1996
1996
1996
1995
1993
1990
1988
1986
1983
1981
1979
1977
1976
1976
1976
1975
1974
1973
1973
1972
1971
1971
1972
1973
1973
1974
1973
1972
1972
1972
1973
1974
1975
1975
1975
1975
1975
1976
1976
1976
1976
1976
1976
1976
1976
1975
1975
1975
1975
1975
1975
1975
1975
1974
1974
1975
1975
1975
1974
1975
1975
1977
1979
1980
1981
1981
1979
1977
1975
1973
1972
1972
1973
1974
1974
1974
1973
1973
1972
1972
1972
1973
1973
1973
1972
1971
1971
1973
1980
1994
2015
2037
2052
2054
2039
2009
1977
1952
1943
1947
1958
1969
1976
1978
1976
1974
1972
1971
1971
1971
1973
1974
1975
1975
1976
1976
1977
1977
1977
1977
1977
1978
1979
1979
1980
1980
1980
1981
1981
1982
1982
1983
1984
1985
1986
1987
1989
1990
1991
1991
1991
1991
1992
1993
1995
1996
1997
1997
1996
1995
1995
1994
1994
1995
1994
1993
1991
1988
1985
1983
1981
1980
1979
1979
1978
1977
1976
1975
1974
1974
1974
1974
1974
1974
1974
1974
1973
1973
1973
1973
1973
1974
1975
1976
1977
1977
1977
1976
1974
1974
1974
1975
1977
1978
1978
1977
1977
1976
1975
1975
1975
1976
1976
1977
1977
1977
1977
1976
1976
1976
1976
1977
1979
1981
1982
1982
1982
1980
1978
1976
1975
1974
1975
1975
1976
1976
1975
1975
1975
1974
1974
1974
1974
1974
1975
1975
1974
1973
1973
1977
1987
2003
2026
2047
2057
2051
2029
1997
1968
1951
1949
1957
1968
1976
1978
1978
1976
1975
1975
1975
1975
1975
1975
1976
1977
1978
1978
1978
1977
1977
1978
1978
1980
1981
1982
1982
1982
1982
1982
1982
1983
1984
1985
1986
1986
1987
1988
1988
1989
1989
1990
1991
1993
1994
1995
1995
1995
1995
1995
1995
1995
1996
1997
1997
1997
1997
1995
1993
1990
1987
1984
1982
1981
1980
1980
1979
1978
1977
1975
1974
1973
1973
1973
1973
1974
1974
1974
1974
1974
1974
1974
1975
1975
1976
1976
1976
1976
1975
1975
1975
1976
1976
1976
1977
1977
1977
1977
1976
1975
1974
1974
1975
1976
1977
1977
1977
1977
1976
1975
1974
1973
1974
1974
1975
1976
1977
1977
1978
1979
1980
1980
1980
1980
1979
1977
1975
1974
1973
1972
1973
1973
1974
1975
1975
1975
1976
1976
1976
1975
1973
1972
1972
1974
1979
1989
2005
2025
2045
2055
2051
2031
2002
1973
1955
1952
1959
1969
1975
1977
1976
1975
1974
1974
1975
1976
1976
1975
1975
1975
1975
1976
1977
1977
1978
1979
1980
1980
1979
1979
1979
1980
1981
1982
1983
1984
1985
1985
1985
1986
1986
1987
1988
1989
1990
1991
1993
1994
1994
1995
1995
1995
1995
1996
1996
1996
1996
1997
1996
1996
1995
1994
1992
1990
1987
1985
1983
1981
1980
1978
1977
1976
1975
1976
1976
1976
1976
1975
1974
1973
1973
1973
1974
1974
1974
1974
1974
1974
1974
1974
1974
1975
1975
1976
1977
1977
1977
1977
1976
1976
1975
1975
1976
1976
1977
1977
1978
1978
1978
1977
1976
1975
1975
1975
1976
1977
1977
1977
1975
1974
1974
1974
1975
1976
1978
1980
1981
1982
1982
1980
1979
1978
1977
1976
1976
1976
1975
1975
1975
1974
1974
1974
1975
1975
1976
1976
1975
1974
1973
1972
1973
1978
1987
2003
2024
2044
2056
2053
2034
2004
1974
1954
1949
1955
1967
1976
1980
1979
1977
1975
1974
1974
1974
1975
1976
1977
1977
1977
1976
1976
1976
1977
1978
1979
1980
1981
1981
1982
1982
1982
1982
1982
1983
1983
1984
1985
1986
1987
1987
1987
1987
1988
1989
1992
1994
1995
1996
1996
1996
1996
1995
1995
1995
1996
1996
1997
1996
1995
1993
1991
1988
1987
1985
1984
1983
1981
1979
1978
1976
1974
1973
1973
1973
1973
1973
1973
1973
1973
1972
1972
1971
1971
1972
1973
1974
1974
1974
1974
1974
1973
1973
1973
1973
1974
1975
1975
1976
1976
1975
1975
1974
1974
1974
1975
1976
1976
1976
1976
1975
1974
1973
1973
1974
1975
1975
1976
1976
1975
1974
1973
1972
1973
1974
1975
1976
1977
1978
1979
1979
1979
1978
1978
1977
1977
1976
1975
1974
1973
1973
1972
1972
1973
1973
1974
1974
1974
1974
1973
1973
1972
1972
1973
1977
1987
2003
2023
2043
2054
2051
2032
2003
1973
1954
1949
1955
1965
1973
1976
1975
1974
1972
1972
1973
1974
1974
1975
1975
1975
1976
1976
1976
1976
1977
1977
1978
1978
1978
1978
1978
1979
1980
1980
1981
1981
1982
1983
1983
1984
1985
1985
1986
1987
1988
1989
1990
1991
1992
1992
1992
1993
1993
1993
1994
1995
1996
1996
1995
1994
1993
1991
1989
1987
1986
1985
1983
1982
1980
1978
1976
1974
1972
1972
1972
1973
1973
1973
1972
1972
1971
1971
1970
1970
1970
1971
1972
1972
1973
1973
1973
1972
1972
1972
1972
1973
1973
1973
1974
1974
1974
1974
1973
1973
1973
1973
1974
1975
1975
1974
1973
1972
1971
1971
1972
1973
1974
1974
1974
1974
1973
1972
1971
1971
1971
1972
1973
1974
1975
1976
1977
1977
1978
1978
1978
1977
1977
1976
1975
1974
1972
1971
1970
1971
1972
1973
1974
1975
1974
1974
1973
1972
1971
1970
1970
1971
1976
1986
2001
2021
2041
2051
2049
2031
2002
1973
1954
1948
1953
1963
1971
1975
1975
1974
1973
1973
1973
1974
1975
1975
1975
1975
1975
1975
1976
1977
1978
1979
1979
1979
1978
1978
1978
1978
1979
1980
1981
1982
1984
1985
1985
1985
1985
1986
1987
1988
1990
1992
1992
1992
1992
1992
1992
1994
1995
1997
1998
1998
1997
1996
1995
1994
1994
1993
1992
1991
1990
1988
1986
1983
1980
1978
1976
1975
1974
1974
1973
1972
1972
1971
1971
1971
1971
1971
1972
1973
1973
1973
1974
1974
1974
1974
1974
1974
1974
1975
1975
1976
1976
1976
1976
1976
1976
1976
1976
1976
1977
1977
1977
1977
1977
1976
1975
1976
1976
1977
1977
1977
1977
1976
1975
1975
1975
1975
1977
1978
1980
1981
1981
1981
1980
1978
1977
1976
1975
1975
1975
1976
1976
1976
1976
1976
1975
1975
1975
1974
1974
1974
1974
1974
1974
1975
1980
1989
2006
2029
2050
2062
2057
2035
2001
1968
1948
1943
1952
1965
1975
1979
1979
1977
1976
1975
1976
1976
1976
1977
1978
1979
1979
1979
1979
1980
1980
1981
1981
1982
1982
1983
1983
1984
1984
1984
1984
1985
1986
1988
1989
1990
1990
1989
1989
1990
1991
1992
1994
1995
1997
1999
2000
2000
2000
1999
1999
1999
2000
2001
2001
2000
1999
1997
1995
1992
1990
1988
1985
1984
1982
1981
1980
1979
1978
1977
1976
1975
1975
1974
1974
1974
1975
1975
1975
1974
1974
1975
1975
1976
1977
1978
1978
1977
1977
1976
1976
1977
1977
1979
1979
1979
1979
1978
1978
1978
1977
1977
1977
1977
1978
1979
1979
1979
1978
1976
1976
1976
1978
1980
1982
1983
1983
1982
1981
1980
1979
1978
1977
1976
1976
1977
1977
1976
1976
1976
1976
1976
1976
1976
1976
1976
1975
1974
1973
1973
1976
1986
2003
2026
2048
2060
2056
2035
2002
1969
1948
1944
1952
1964
1975
1979
1979
1978
1976
1975
1976
1976
1977
1977
1977
1977
1977
1978
1978
1978
1978
1978
1979
1980
1981
1982
1983
1983
1982
1981
1981
1982
1984
1986
1988
1989
1989
1988
1987
1987
1988
1990
1992
1994
1995
1996
1997
1998
1998
1997
1997
1997
1997
1998
1999
1999
1997
1995
1992
1989
1987
1985
1983
1981
1980
1978
1977
1976
1975
1974
1973
1973
1973
1973
1973
1974
1973
1973
1972
1972
1972
1972
1973
1974
1975
1975
1975
1975
1975
1975
1974
1974
1974
1974
1975
1976
1977
1977
1977
1976
1975
1975
1975
1975
1975
1975
1975
1975
1975
1976
1977
1979
1980
1981
1982
1981
1980
1978
1976
1974
1973
1973
1973
1974
1974
1975
1975
1974
1974
1973
1973
1973
1973
1973
1973
1973
1972
1974
1980
1993
2013
2035
2050
2052
2038
2010
1979
1957
1948
1952
1962
1972
1977
1977
1976
1976
1976
1976
1976
1975
1975
1974
1974
1976
1978
1979
1980
1980
1978
1977
1977
1978
1979
1981
1982
1983
1983
1983
1983
1983
1984
1984
1986
1988
1990
1991
1992
1993
1993
1993
1993
1993
1993
1995
1996
1998
1998
1998
1998
1997
1997
1996
1996
1995
1994
1993
1991
1988
1984
1981
1979
1978
1976
1976
1975
1974
1974
1974
1974
1973
1972
1972
1972
1973
1973
1974
1974
1973
1973
1973
1973
1974
1974
1974
1975
1975
1975
1975
1975
1975
1975
1976
1976
1976
1976
1976
1976
1976
1976
1976
1975
1975
1975
1975
1975
1976
1977
1978
1979
1980
1981
1980
1979
1978
1977
1976
1975
1975
1974
1974
1973
1972
1972
1972
1972
1973
1974
1975
1975
1973
1972
1970
1969
1970
1974
1983
1998
2018
2039
2051
2051
2034
2004
1973
1954
1949
1956
1967
1975
1977
1975
1973
1971
1972
1973
1974
1975
1974
1974
1974
1974
1975
1976
1977
1978
1978
1978
1978
1978
1978
1979
1979
1980
1980
1981
1981
1982
1983
1984
1985
1985
1986
1986
1987
1988
1990
1991
1993
1993
1994
1994
1994
1995
1996
1997
1997
1997
1996
1995
1994
1993
1992
1991
1990
1988
1986
1983
1980
1978
1977
1976
1975
1974
1973
1972
1972
1972
1972
1972
1972
1972
1972
1972
1973
1973
1974
1975
1975
1975
1975
1974
1974
1975
1976
1977
1977
1976
1975
1974
1974
1974
1975
1976
1977
1977
1977
1977
1977
1976
1976
1976
1976
1976
1976
1977
1977
1978
1979
1980
1980
1981
1980
1980
1979
1978
1977
1976
1975
1975
1974
1974
1973
1973
1973
1973
1974
1974
1974
1974
1973
1973
1972
1972
1974
1981
1993
2011
2034
2050
2056
2045
2019
1989
1965
1955
1957
1966
1974
1978
1977
1976
1975
1975
1976
1976
1977
1977
1977
1977
1978
1978
1978
1979
1979
1980
1980
1981
1981
1981
1981
1981
1982
1982
1984
1985
1986
1987
1987
1986
1987
1987
1988
1990
1991
1993
1994
1996
1997
1997
1997
1997
1997
1997
1997
1998
1998
1999
1999
1998
1997
1995
1993
1990
1988
1987
1985
1984
1982
1980
1978
1977
1976
1976
1976
1976
1976
1976
1975
1974
1974
1974
1974
1975
1975
1975
1976
1976
1977
1977
1978
1978
1978
1978
1978
1979
1979
1979
1979
1979
1979
1978
1978
1978
1978
1979
1979
1980
1980
1980
1979
1979
1978
1978
1978
1978
1980
1981
1982
1982
1983
1983
1982
1982
1981
1980
1978
1976
1974
1972
1971
1971
1972
1973
1973
1974
1973
1973
1973
1972
1971
1970
1969
1969
1970
1976
1988
2006
2027
2045
2051
2042
2018
1988
1963
1951
1952
1960
1970
1975
1976
1974
1973
1972
1972
1973
1973
1974
1974
1974
1974
1975
1975
1976
1977
1977
1978
1978
1977
1977
1977
1977
1978
1980
1982
1983
1984
1984
1984
1984
1984
1984
1985
1986
1988
1990
1992
1992
1993
1993
1993
1992
1992
1992
1993
1995
1996
1997
1997
1996
1994
1992
1990
1989
1987
1985
1983
1980
1978
1976
1975
1973
1972
1972
1972
1972
1972
1973
1972
1972
1971
1970
1969
1969
1970
1971
1971
1972
1973
1973
1973
1973
1972
1972
1973
1974
1974
1974
1974
1974
1974
1974
1975
1975
1975
1975
1974
1974
1973
1973
1973
1973
1974
1976
1977
1978
1979
1979
1978
1977
1976
1975
1974
1973
1972
1971
1971
1971
1971
1971
1971
1971
1971
1972
1972
1973
1973
1973
1971
1969
1969
1974
1987
2007
2031
2050
2055
2042
2013
1979
1952
1939
1942
1954
1966
1974
1977
1976
1975
1973
1972
1972
1972
1973
1974
1975
1975
1976
1976
1976
1976
1977
1977
1977
1978
1979
1980
1981
1982
1982
1983
1982
1982
1983
1984
1985
1986
1988
1988
1989
1989
1989
1990
1992
1994
1995
1996
1997
1997
1996
1996
1996
1996
1996
1996
1996
1994
1992
1990
1987
1985
1984
1983
1981
1979
1976
1975
1973
1973
1973
1973
1973
1972
1972
1971
1971
1972
1972
1972
1972
1972
1972
1972
1973
1974
1974
1975
1975
1975
1975
1975
1975
1975
1974
1974
1975
1975
1976
1976
1977
1977
1976
1976
1976
1977
1979
1980
1982
1982
1982
1981
1979
1977
1975
1974
1973
1973
1973
1972
1971
1971
1971
1971
1973
1974
1975
1975
1974
1972
1970
1968
1968
1973
1986
2007
2031
2050
2055
2042
2012
1978
1951
1939
1943
1955
1967
1974
1976
1975
1974
1973
1973
1973
1974
1975
1975
1976
1976
1976
1976
1975
1975
1975
1976
1977
1979
1979
1980
1980
1980
1979
1979
1979
1980
1982
1984
1985
1986
1986
1987
1988
1989
1990
1991
1992
1993
1994
1996
1997
1997
1996
1995
1994
1995
1996
1997
1996
1994
1991
1988
1985
1982
1980
1978
1976
1975
1974
1974
1973
1972
1970
1969
1968
1968
1968
1969
1970
1970
1970
1970
1969
1968
1968
1969
1970
1970
1970
1968
1967
1966
1965
1964
1964
1964
1965
1966
1967
1967
1968
1967
1966
1965
1965
1966
1968
1970
1972
1973
1972
1971
1969
1967
1966
1966
1965
1965
1965
1964
1963
1963
1962
1962
1962
1962
1963
1964
1964
1964
1962
1961
1959
1960
1966
1980
2000
2023
2040
2042
2027
1998
1966
1944
1937
1944
1955
1965
1970
1969
1967
1965
1964
1964
1965
1965
1967
1968
1969
1969
1969
1969
1968
1968
1969
1970
1971
1972
1973
1973
1973
1974
1974
1975
1975
1976
1977
1978
1979
1980
1982
1983
1984
1984
1985
1986
1987
1989
1991
1992
1992
1992
1991
1990
1990
1990
1991
1991
1990
1990
1988
1986
1983
1980
1978
1977
1976
1975
1974
1973
1971
1970
1969
1968
1969
1969
1970
1970
1971
1971
1970
1969
1969
1968
1968
1969
1971
1973
1974
1973
1972
1971
1971
1971
1972
1973
1974
1974
1974
1974
1974
1973
1973
1972
1972
1973
1974
1976
1978
1979
1979
1979
1978
1977
1976
1975
1975
1975
1974
1974
1973
1971
1970
1970
1970
1971
1972
1973
1974
1973
1972
1970
1968
1967
1968
1975
1989
2010
2034
2051
2054
2040
2012
1979
1956
1947
1952
1963
1973
1978
1978
1975
1973
1972
1971
1972
1973
1973
1974
1975
1975
1975
1974
1975
1975
1976
1977
1978
1979
1978
1978
1977
1977
1978
1979
1981
1982
1983
1984
1984
1985
1986
1986
1986
1987
1988
1989
1991
1992
1994
1994
1995
1994
1994
1993
1993
1994
1995
1995
1995
1993
1990
1987
1985
1983
1981
1980
1978
1977
1976
1974
1973
1972
1972
1972
1972
1971
1971
1971
1971
1971
1971
1971
1971
1971
1972
1972
1973
1973
1973
1973
1974
1973
1973
1973
1973
1974
1975
1976
1975
1975
1974
1973
1973
1973
1973
1974
1975
1976
1976
1975
1974
1974
1974
1975
1976
1978
1979
1979
1980
1979
1978
1976
1974
1972
1972
1972
1973
1973
1973
1972
1971
1971
1971
1972
1972
1972
1971
1970
1969
1969
1971
1977
1990
2010
2033
2050
2055
2044
2018
1987
1963
1951
1952
1961
1970
1975
1976
1974
1973
1972
1972
1972
1972
1972
1972
1972
1973
1973
1974
1975
1975
1975
1976
1976
1976
1977
1977
1978
1979
1980
1980
1980
1980
1980
1981
1982
1983
1985
1986
1986
1987
1987
1988
1990
1991
1992
1993
1993
1993
1993
1993
1993
1994
1993
1993
1992
1991
1990
1988
1987
1985
1983
1981
1979
1978
1976
1976
1976
1975
1975
1974
1972
1972
1971
1971
1972
1972
1972
1972
1971
1971
1971
1971
1972
1973
1974
1974
1975
1975
1975
1975
1974
1974
1974
1974
1975
1976
1976
1977
1976
1975
1974
1973
1974
1974
1975
1975
1975
1974
1974
1973
1973
1974
1974
1976
1977
1978
1979
1980
1979
1978
1977
1975
1974
1973
1973
1973
1972
1972
1972
1972
1972
1973
1973
1973
1973
1973
1973
1972
1971
1971
1972
1979
1992
2012
2034
2051
2055
2043
2015
1984
1960
1950
1953
1963
1972
1977
1977
1975
1974
1973
1973
1973
1973
1973
1973
1974
1975
1976
1977
1977
1977
1977
1977
1977
1978
1979
1980
1981
1982
1982
1982
1981
1981
1982
1983
1985
1986
1987
1987
1987
1987
1988
1990
1991
1993
1994
1995
1996
1996
1995
1995
1994
1995
1995
1995
1995
1994
1992
1990
1989
1987
1985
1984
1982
1981
1980
1978
1977
1975
1973
1972
1972
1972
1972
1973
1974
1974
1974
1973
1973
1973
1973
1973
1973
1974
1974
1975
1975
1975
1975
1974
1974
1975
1976
1977
1978
1978
1977
1977
1976
1975
1975
1976
1976
1977
1977
1976
1975
1974
1974
1974
1975
1977
1979
1980
1981
1981
1980
1979
1978
1977
1975
1975
1974
1974
1974
1975
1975
1974
1974
1973
1973
1973
1974
1975
1975
1975
1973
1972
1974
1982
1998
2020
2043
2056
2053
2034
2003
1971
1951
1945
1951
1963
1972
1977
1978
1977
1977
1976
1976
1976
1975
1975
1976
1976
1977
1978
1979
1979
1979
1979
1979
1980
1981
1982
1982
1982
1982
1982
1982
1983
1984
1985
1986
1987
1988
1989
1990
1990
1991
1992
1993
1993
1994
1994
1995
1996
1997
1997
1997
1996
1996
1995
1995
1995
1994
1993
1991
1989
1986
1983
1981
1978
1977
1976
1975
1975
1974
1973
1972
1971
1970
1970
1970
1970
1971
1972
1972
1972
1972
1972
1971
1971
1971
1972
1973
1974
1974
1974
1974
1973
1973
1972
1972
1973
1974
1974
1975
1975
1974
1973
1972
1972
1972
1973
1974
1975
1976
1977
1977
1977
1976
1976
1976
1976
1976
1975
1974
1973
1972
1971
1970
1970
1970
1970
1971
1971
1972
1972
1972
1970
1969
1968
1967
1970
1978
1992
2012
2035
2049
2050
2034
2005
1972
1949
1941
1947
1959
1969
1975
1975
1974
1972
1972
1972
1973
1974
1974
1974
1973
1973
1973
1973
1974
1975
1977
1978
1978
1979
1979
1978
1978
1978
1979
1980
1981
1982
1983
1983
1983
1983
1984
1985
1986
1987
1988
1989
1990
1991
1992
1992
1993
1993
1993
1994
1995
1995
1995
1994
1993
1991
1989
1987
1985
1983
1981
1979
1978
1976
1975
1973
1972
1971
1970
1970
1970
1970
1969
1969
1968
1968
1969
1969
1969
1970
1971
1972
1972
1973
1973
1972
1972
1972
1972
1973
1974
1974
1974
1974
1973
1973
1973
1973
1973
1973
1974
1974
1974
1973
1973
1972
1972
1973
1975
1977
1979
1980
1980
1980
1978
1976
1973
1971
1970
1970
1970
1971
1972
1971
1971
1970
1969
1970
1971
1972
1972
1972
1970
1968
1966
1969
1977
1993
2016
2038
2051
2049
2030
1999
1968
1948
1944
1951
1963
1972
1976
1976
1974
1973
1972
1971
1971
1971
1972
1972
1973
1974
1974
1974
1974
1973
1973
1974
1975
1976
1977
1978
1978
1978
1978
1978
1979
1979
1980
1982
1983
1984
1985
1986
1986
1987
1987
1988
1989
1991
1992
1993
1993
1993
1993
1992
1992
1992
1992
1992
1992
1991
1990
1988
1986
1984
1981
1979
1977
1976
1975
1975
1975
1974
1974
1972
1971
1971
1971
1972
1973
1974
1973
1973
1972
1971
1972
1972
1972
1973
1974
1974
1975
1975
1975
1974
1974
1974
1974
1975
1975
1975
1975
1975
1975
1975
1975
1975
1975
1975
1975
1975
1975
1975
1975
1976
1977
1978
1980
1981
1981
1980
1978
1976
1974
1973
1973
1973
1973
1973
1973
1974
1974
1974
1974
1974
1975
1975
1975
1975
1974
1974
1975
1982
1995
2014
2036
2052
2056
2045
2019
1988
1964
1953
1955
1964
1973
1978
1979
1979
1978
1977
1978
1978
1977
1977
1976
1976
1976
1977
1979
1980
1981
1982
1981
1980
1980
1980
1981
1983
1984
1984
1984
1984
1985
1985
1986
1987
1988
1989
1990
1990
1991
1992
1993
1993
1994
1995
1996
1997
1998
1998
1998
1997
1996
1996
1995
1995
1995
1994
1993
1991
1988
1985
1983
1981
1979
1978
1978
1977
1977
1976
1976
1976
1975
1974
1973
1972
1973
1973
1974
1975
1976
1976
1976
1976
1976
1976
1976
1976
1976
1976
1977
1977
1976
1976
1975
1975
1976
1977
1978
1978
1978
1978
1977
1976
1976
1976
1977
1978
1978
1978
1978
1976
1975
1975
1976
1977
1979
1980
1981
1982
1981
1980
1979
1977
1976
1975
1975
1976
1976
1977
1977
1976
1976
1975
1975
1975
1974
1975
1975
1975
1974
1974
1976
1983
1995
2015
2037
2053
2058
2046
2020
1988
1963
1952
1954
1963
1973
1979
1980
1978
1977
1976
1975
1975
1975
1975
1976
1976
1977
1978
1979
1979
1979
1979
1979
1979
1980
1981
1982
1982
1982
1982
1983
1983
1984
1984
1985
1986
1987
1989
1990
1991
1991
1990
1990
1991
1992
1993
1995
1996
1996
1995
1995
1994
1994
1994
1995
1995
1995
1993
1992
1990
1988
1986
1983
1981
1979
1977
1976
1976
1976
1976
1976
1975
1973
1972
1972
1972
1973
1973
1974
1974
1974
1974
1974
1975
1974
1975
1975
1975
1975
1975
1975
1975
1975
1975
1976
1976
1976
1977
1977
1976
1976
1976
1975
1975
1975
1976
1976
1976
1976
1976
1975
1974
1974
1974
1974
1974
1975
1976
1976
1977
1978
1979
1980
1980
1980
1979
1978
1977
1976
1975
1974
1973
1973
1972
1972
1973
1974
1975
1975
1975
1974
1973
1972
1971
1971
1973
1978
1987
2002
2022
2042
2053
2051
2034
2005
1976
1957
1951
1957
1966
1973
1977
1976
1975
1974
1973
1974
1974
1975
1975
1975
1975
1975
1975
1975
1976
1978
1979
1979
1979
1979
1979
1979
1979
1980
1981
1983
1984
1984
1984
1984
1985
1985
1986
1987
1988
1990
1991
1992
1992
1992
1992
1992
1993
1993
1995
1996
1997
1997
1996
1995
1993
1992
1991
1991
1990
1988
1986
1983
1981
1979
1977
1976
1975
1974
1973
1973
1973
1973
1973
1973
1972
1972
1972
1972
1972
1973
1974
1975
1975
1974
1974
1974
1974
1974
1975
1976
1977
1976
1976
1975
1975
1975
1977
1978
1978
1978
1977
1977
1976
1976
1975
1975
1975
1976
1977
1977
1976
1975
1975
1974
1975
1975
1976
1978
1980
1981
1982
1982
1981
1979
1978
1977
1976
1976
1976
1976
1977
1977
1977
1976
1976
1975
1976
1977
1977
1977
1976
1975
1975
1979
1989
2006
2028
2048
2059
2055
2035
2004
1974
1954
1949
1956
1967
1976
1980
1981
1980
1979
1978
1978
1978
1978
1978
1979
1979
1980
1981
1981
1982
1982
1982
1982
1982
1983
1984
1985
1986
1986
1987
1987
1987
1987
1988
1989
1989
1990
1991
1992
1993
1993
1994
1995
1996
1997
1998
1999
1999
2000
1999
1999
1999
1999
1999
1999
1999
1999
1997
1995
1992
1990
1987
1985
1983
1981
1979
1978
1977
1977
1976
1976
1975
1975
1974
1974
1973
1973
1974
1974
1975
1976
1976
1976
1975
1974
1975
1975
1975
1976
1976
1976
1977
1977
1977
1976
1976
1976
1977
1977
1977
1977
1976
1975
1975
1975
1976
1977
1977
1976
1976
1975
1975
1975
1975
1976
1977
1979
1980
1980
1980
1979
1978
1976
1975
1974
1974
1974
1974
1975
1974
1974
1973
1972
1972
1973
1974
1975
1974
1973
1972
1972
1975
1985
2002
2024
2046
2058
2054
2033
2000
1967
1946
1942
1949
1961
1972
1977
1977
1976
1975
1973
1972
1972
1972
1973
1975
1976
1977
1977
1977
1977
1977
1977
1977
1978
1979
1980
1980
1981
1981
1981
1981
1981
1982
1983
1985
1986
1987
1988
1988
1989
1989
1990
1991
1992
1993
1994
1994
1994
1994
1994
1994
1994
1994
1995
1995
1995
1993
1992
1989
1987
1985
1983
1982
1980
1978
1977
1975
1974
1974
1973
1972
1971
1971
1971
1972
1972
1972
1972
1972
1972
1972
1972
1972
1972
1972
1972
1973
1974
1974
1974
1974
1974
1974
1974
1974
1974
1975
1975
1975
1975
1974
1974
1973
1974
1974
1975
1975
1975
1974
1974
1973
1973
1973
1974
1976
1978
1979
1980
1979
1978
1977
1975
1974
1973
1972
1972
1973
1973
1974
1974
1973
1972
1972
1972
1972
1973
1973
1972
1972
1971
1973
1978
1989
2008
2030
2048
2055
2046
2020
1988
1960
1946
1947
1958
1969
1977
1979
1978
1976
1975
1974
1974
1974
1974
1975
1976
1977
1977
1977
1977
1977
1977
1978
1979
1980
1981
1982
1982
1982
1982
1981
1982
1983
1984
1985
1987
1987
1988
1988
1989
1990
1990
1991
1992
1993
1994
1995
1995
1995
1995
1995
1995
1996
1996
1996
1996
1995
1994
1993
1990
1988
1985
1983
1981
1980
1979
1978
1976
1975
1974
1973
1973
1973
1973
1973
1973
1974
1974
1973
1972
1972
1972
1972
1974
1975
1975
1976
1975
1975
1975
1975
1974
1974
1975
1975
1976
1976
1976
1976
1975
1975
1974
1975
1975
1976
1977
1977
1976
1975
1974
1974
1974
1974
1974
1975
1975
1976
1977
1978
1979
1979
1979
1978
1977
1977
1976
1975
1974
1974
1973
1972
1972
1972
1972
1973
1973
1973
1973
1973
1973
1972
1971
1971
1974
1981
1995
2015
2037
2053
2055
2041
2012
1981
1958
1949
1953
1963
1972
1976
1975
1973
1972
1972
1973
1974
1974
1974
1974
1974
1974
1974
1974
1975
1975
1976
1977
1978
1979
1979
1979
1979
1978
1978
1979
1980
1982
1983
1984
1985
1985
1985
1985
1985
1987
1988
1990
1991
1991
1992
1992
1993
1993
1993
1992
1992
1992
1993
1993
1993
1992
1990
1988
1986
1984
1982
1981
1979
1978
1976
1975
1973
1973
1972
1971
1971
1970
1970
1971
1971
1971
1970
1970
1970
1971
1971
1971
1971
1971
1972
1973
1973
1973
1973
1973
1973
1973
1973
1973
1973
1972
1972
1972
1972
1973
1974
1975
1975
1975
1975
1974
1973
1972
1972
1973
1974
1974
1974
1973
1973
1972
1972
1973
1973
1975
1976
1978
1979
1979
1978
1977
1975
1973
1971
1970
1970
1971
1972
1973
1973
1973
1973
1972
1971
1971
1972
1972
1971
1971
1971
1975
1983
1999
2021
2042
2054
2052
2033
2003
1974
1954
1948
1954
1964
1972
1975
1975
1974
1973
1972
1972
1971
1971
1972
1973
1974
1975
1976
1975
1974
1974
1973
1974
1975
1976
1978
1978
1979
1979
1979
1979
1979
1979
1980
1981
1983
1984
1985
1986
1986
1987
1988
1989
1990
1991
1992
1993
1993
1993
1993
1992
1992
1992
1993
1993
1992
1991
1990
1989
1987
1984
1982
1979
1977
1976
1975
1974
1974
1974
1973
1972
1971
1970
1969
1969
1969
1970
1971
1971
1971
1971
1971
1971
1971
1971
1972
1973
1973
1974
1974
1974
1973
1972
1972
1972
1973
1974
1974
1975
1975
1974
1973
1973
1973
1973
1973
1974
1974
1975
1974
1974
1973
1972
1972
1973
1974
1976
1977
1978
1978
1978
1977
1975
1974
1974
1973
1973
1973
1972
1972
1972
1971
1971
1971
1971
1972
1973
1973
1973
1972
1970
1969
1970
1974
1985
2003
2025
2045
2053
2047
2023
1992
1965
1949
1948
1956
1967
1974
1977
1976
1974
1972
1971
1971
1972
1973
1975
1975
1975
1975
1975
1975
1975
1975
1976
1977
1978
1979
1980
1980
1980
1980
1980
1981
1981
1982
1983
1984
1985
1986
1986
1987
1987
1987
1988
1990
1991
1992
1992
1993
1993
1993
1994
1994
1995
1995
1995
1994
1992
1990
1989
1987
1986
1984
1983
1982
1980
1979
1977
1975
1974
1972
1972
1971
1971
1972
1972
1973
1973
1973
1972
1972
1972
1972
1973
1973
1974
1973
1973
1973
1973
1974
1974
1975
1975
1975
1975
1976
1976
1976
1975
1975
1974
1974
1974
1975
1976
1977
1977
1976
1975
1973
1973
1973
1974
1976
1978
1979
1979
1978
1977
1975
1974
1973
1973
1973
1973
1973
1973
1973
1972
1971
1970
1970
1971
1971
1972
1973
1973
1971
1969
1969
1973
1983
2002
2026
2048
2057
2049
2025
1991
1961
1943
1941
1950
1963
1973
1977
1977
1976
1974
1973
1973
1973
1973
1974
1975
1976
1976
1976
1976
1976
1976
1976
1977
1978
1979
1980
1981
1981
1981
1980
1980
1981
1982
1984
1985
1986
1987
1987
1987
1988
1988
1990
1991
1992
1993
1994
1995
1995
1996
1996
1996
1995
1995
1995
1995
1995
1994
1992
1989
1986
1984
1982
1980
1979
1978
1977
1975
1975
1974
1973
1972
1971
1971
1971
1971
1971
1972
1972
1972
1971
1971
1971
1972
1973
1973
1974
1974
1974
1974
1975
1975
1975
1975
1975
1975
1976
1976
1975
1975
1974
1975
1975
1976
1976
1975
1975
1974
1973
1973
1974
1975
1977
1978
1979
1980
1980
1979
1977
1975
1973
1972
1972
1972
1972
1973
1973
1973
1973
1973
1973
1973
1973
1972
1972
1971
1971
1971
1974
1982
1997
2018
2040
2052
2050
2032
2001
1970
1950
1945
1952
1964
1973
1977
1977
1976
1974
1973
1973
1973
1973
1974
1975
1976
1976
1977
1977
1977
1978
1978
1978
1979
1979
1979
1979
1980
1981
1982
1983
1983
1982
1982
1983
1984
1986
1988
1990
1990
1990
