2029
2029
2029
2029
2029
2029
2029
2029
2028
2029
2030
2027
2026
2021
2019
2021
2025
2031
2034
2033
2029
2025
2022
2020
2020
2017
2015
2013
2011
2010
2007
2005
2002
2000
1998
1995
1994
1993
1993
1992
1991
1989
1986
1982
1979
1977
1980
1988
1996
2005
2010
2012
2014
2016
2023
2031
2039
2046
2048
2049
2047
2043
2038
2035
2032
2030
2029
2028
2028
2029
2028
2026
2024
2020
2015
2008
2002
1999
1997
1999
2001
2003
2006
2007
2011
2014
2019
2022
2025
2027
2027
2027
2027
2025
2025
2023
2024
2024
2025
2026
2026
2028
2029
2031
2034
2034
2033
2031
2029
2031
2033
2036
2037
2035
2034
2031
2030
2032
2032
2033
2033
2033
2032
2032
2032
2033
2037
2041
2048
2056
2067
2079
2088
2093
2092
2082
2070
2058
2046
2037
2034
2036
2043
2048
2051
2049
2043
2037
2034
2033
2034
2037
2036
2037
2039
2040
2041
2040
2039
2038
2038
2038
2040
2040
2040
2040
2042
2043
2043
2040
2038
2039
2043
2048
2053
2054
2052
2049
2048
2048
2050
2052
2053
2053
2054
2054
2054
2054
2054
2054
2054
2054
2054
2053
2052
2052
2049
2051
2048
2047
2044
2040
2040
2041
2045
2048
2049
2048
2046
2044
2039
2042
2041
2042
2043
2043
2043
2043
2043
2043
2043
2043
2043
2043
2043
2042
2042
2040
2043
2044
2042
2040
2035
2034
2037
2042
2048
2049
2047
2042
2038
2037
2038
2040
2041
2041
2041
2040
2040
2040
2040
2040
2040
2041
2041
2042
2042
2043
2042
2045
2045
2044
2042
2040
2039
2040
2042
2045
2046
2046
2043
2041
2040
2041
2042
2041
2040
2039
2040
2042
2046
2050
2056
2064
2074
2084
2091
2092
2087
2077
2066
2057
2050
2046
2043
2040
2040
2044
2047
2048
2048
2044
2042
2038
2039
2040
2040
2040
2041
2042
2042
2043
2043
2043
2043
2043
2043
2043
2043
2045
2045
2047
2048
2048
2047
2043
2040
2041
2044
2050
2056
2059
2057
2053
2050
2048
2049
2049
2050
2050
2050
2050
2051
2050
2049
2048
2048
2047
2046
2046
2045
2044
2042
2043
2043
2041
2040
2038
2036
2039
2042
2046
2048
2046
2044
2041
2039
2040
2041
2043
2044
2043
2042
2041
2041
2040
2041
2042
2043
2043
2043
2043
2043
2042
2045
2045
2046
2045
2042
2039
2040
2044
2048
2050
2050
2048
2046
2044
2043
2043
2045
2045
2045
2044
2044
2044
2046
2048
2049
2051
2049
2048
2048
2046
2048
2048
2048
2048
2048
2045
2043
2044
2047
2051
2055
2055
2053
2049
2048
2050
2056
2064
2072
2082
2092
2102
2108
2107
2101
2089
2076
2066
2060
2058
2058
2058
2054
2057
2055
2054
2051
2048
2047
2048
2054
2060
2061
2059
2054
2051
2048
2051
2054
2056
2057
2052
2049
2048
2050
2057
2065
2068
2066
2059
2055
2053
2055
2057
2061
2063
2063
2062
2060
2060
2061
2065
2071
2074
2074
2071
2068
2066
2065
2065
2065
2063
2062
2061
2060
2059
2058
2056
2055
2054
2053
2052
2051
2051
2049
2050
2050
2048
2048
2044
2041
2042
2045
2051
2055
2056
2053
2049
2047
2045
2047
2047
2047
2048
2048
2048
2048
2048
2047
2047
2047
2047
2048
2047
2047
2046
2046
2048
2048
2047
2045
2042
2040
2043
2045
2049
2050
2048
2047
2045
2044
2045
2046
2046
2046
2046
2046
2045
2044
2043
2042
2042
2043
2042
2043
2043
2043
2042
2042
2040
2038
2036
2036
2040
2045
2055
2065
2076
2085
2091
2094
2089
2080
2068
2056
2048
2044
2043
2042
2041
2041
2039
2038
2038
2037
2038
2037
2038
2036
2038
2038
2036
2034
2032
2032
2036
2041
2045
2047
2045
2043
2040
2040
2043
2046
2048
2050
2052
2053
2052
2053
2052
2054
2055
2058
2060
2060
2060
2058
2057
2059
2060
2060
2060
2055
2051
2050
2056
2066
2075
2080
2079
2074
2070
2067
2066
2066
2067
2064
2060
2057
2052
2049
2048
2048
2048
2047
2045
2043
2042
2041
2041
2041
2038
2034
2030
2028
2030
2034
2041
2044
2042
2038
2032
2029
2029
2032
2034
2033
2032
2030
2031
2032
2033
2033
2033
2032
2031
2032
2033
2034
2035
2036
2039
2038
2038
2035
2033
2034
2038
2044
2047
2046
2042
2038
2037
2034
2036
2034
2033
2033
2034
2035
2036
2036
2037
2038
2037
2036
2035
2037
2040
2045
2048
2057
2067
2078
2087
2089
2086
2079
2070
2063
2056
2051
2048
2044
2041
2040
2039
2039
2039
2039
2039
2039
2039
2041
2042
2042
2041
2041
2042
2044
2047
2047
2046
2043
2040
2039
2038
2039
2041
2044
2047
2048
2048
2045
2042
2041
2041
2046
2049
2053
2053
2052
2053
2054
2058
2062
2063
2060
2054
2050
2048
2051
2053
2054
2054
2051
2046
2040
2036
2037
2043
2049
2054
2050
2042
2035
2033
2040
2048
2052
2049
2043
2035
2032
2032
2035
2037
2038
2037
2037
2037
2038
2039
2039
2037
2036
2032
2031
2028
2026
2028
2031
2037
2042
2044
2043
2039
2036
2032
2032
2033
2034
2036
2036
2035
2034
2033
2032
2031
2031
2030
2029
2030
2030
2030
2029
2031
2032
2032
2032
2031
2030
2031
2032
2035
2035
2034
2034
2033
2032
2034
2034
2035
2035
2036
2036
2036
2036
2034
2034
2037
2042
2049
2058
2069
2079
2086
2091
2086
2074
2058
2045
2034
2031
2033
2035
2035
2033
2029
2026
2024
2022
2020
2018
2016
2017
2016
2020
2020
2020
2020
2020
2021
2024
2028
2032
2033
2035
2035
2037
2037
2040
2039
2039
2040
2042
2047
2051
2053
2054
2053
2052
2053
2055
2058
2060
2063
2064
2066
2067
2068
2069
2070
2072
2074
2075
2076
2077
2077
2074
2078
2076
2075
2072
2069
2068
2071
2078
2084
2087
2086
2082
2080
2076
2080
2079
2080
2082
2082
2083
2085
2086
2088
2091
2094
2098
2103
2109
2115
2121
2125
2133
2138
2140
2140
2138
2139
2142
2148
2155
2158
2157
2153
2149
2147
2148
2148
2148
2147
2145
2144
2142
2140
2139
2138
2137
2136
2134
2133
2131
2130
2126
2124
2122
2117
2113
2108
2104
2105
2109
2116
2118
2118
2113
2107
2100
2099
2102
2103
2107
2112
2117
2124
2132
2142
2149
2152
2146
2134
2119
2104
2093
2086
2084
2083
2080
2075
2070
2064
2062
2063
2065
2067
2066
2062
2058
2053
2054
2054
2054
2054
2052
2052
2052
2053
2054
2055
2055
2056
2056
2055
2055
2055
2054
2052
2051
2048
2047
2044
2040
2040
2043
2048
2052
2051
2048
2044
2042
2043
2049
2054
2059
2062
2063
2061
2059
2055
2052
2048
2047
2045
2042
2038
2033
2030
2029
2026
2025
2024
2020
2018
2020
2024
2029
2032
2032
2029
2025
2020
2019
2018
2020
2022
2022
2021
2020
2019
2021
2021
2022
2020
2019
2019
2020
2022
2023
2021
2019
2018
2018
2016
2014
2013
2013
2017
2024
2031
2034
2032
2029
2025
2023
2023
2024
2027
2030
2033
2033
2034
2030
2028
2028
2030
2034
2039
2041
2040
2038
2033
2037
2039
2040
2039
2035
2034
2038
2049
2062
2071
2077
2082
2091
2099
2112
2115
2112
2100
2088
2078
2071
2068
2068
2068
2069
2070
2071
2071
2071
2069
2066
2067
2066
2067
2064
2062
2062
2064
2071
2076
2080
2078
2073
2070
2068
2072
2072
2073
2071
2070
2070
2071
2073
2074
2074
2074
2075
2075
2076
2075
2074
2072
2075
2076
2076
2073
2067
2064
2066
2073
2082
2086
2084
2077
2070
2063
2061
2061
2059
2059
2057
2057
2055
2054
2052
2051
2051
2051
2050
2048
2048
2047
2046
2047
2048
2048
2046
2041
2036
2034
2037
2044
2049
2050
2047
2041
2035
2032
2032
2031
2031
2030
2030
2030
2030
2030
2030
2030
2030
2031
2031
2029
2028
2027
2027
2031
2033
2033
2029
2024
2021
2023
2029
2036
2039
2036
2031
2026
2024
2026
2027
2029
2028
2028
2027
2025
2024
2022
2021
2020
2021
2021
2023
2025
2026
2025
2029
2029
2029
2025
2021
2020
2025
2035
2047
2053
2056
2058
2064
2069
2081
2082
2076
2064
2050
2040
2034
2030
2029
2028
2026
2025
2024
2025
2025
2027
2027
2028
2027
2026
2023
2020
2019
2022
2027
2032
2034
2033
2029
2025
2024
2025
2026
2029
2030
2031
2033
2033
2034
2034
2035
2036
2037
2038
2039
2040
2040
2039
2042
2043
2046
2044
2040
2037
2037
2042
2048
2051
2051
2047
2040
2034
2033
2033
2033
2033
2032
2030
2030
2028
2030
2029
2028
2026
2024
2024
2026
2028
2030
2030
2031
2029
2026
2021
2019
2019
2024
2032
2039
2039
2035
2029
2024
2023
2026
2026
2025
2024
2024
2023
2023
2022
2022
2021
2021
2021
2021
2021
2020
2018
2020
2023
2023
2026
2024
2020
2017
2016
2019
2022
2024
2023
2019
2016
2014
2017
2017
2020
2020
2021
2021
2021
2022
2021
2021
2021
2021
2021
2021
2021
2021
2019
2022
2023
2022
2019
2015
2013
2015
2021
2028
2033
2036
2038
2043
2050
2064
2076
2082
2079
2069
2055
2043
2034
2029
2028
2028
2026
2025
2023
2021
2020
2018
2019
2019
2017
2014
2011
2009
2009
2013
2017
2021
2021
2018
2016
2014
2015
2017
2018
2020
2020
2021
2022
2023
2025
2027
2028
2030
2032
2033
2034
2034
2036
2037
2042
2044
2044
2040
2038
2038
2043
2049
2055
2056
2051
2046
2041
2036
2038
2036
2036
2034
2033
2032
2031
2030
2029
2029
2028
2028
2028
2028
2028
2028
2027
2028
2028
2029
2028
2027
2026
2028
2030
2033
2035
2033
2031
2030
2028
2029
2029
2030
2030
2030
2030
2030
2030
2030
2030
2029
2029
2028
2027
2026
2026
2026
2026
2027
2027
2025
2023
2021
2022
2024
2028
2030
2029
2027
2025
2025
2026
2029
2030
2030
2029
2029
2029
2028
2028
2027
2026
2026
2026
2026
2026
2026
2025
2026
2027
2027
2025
2023
2023
2027
2035
2048
2060
2072
2080
2084
2082
2074
2062
2049
2039
2033
2031
2031
2030
2029
2027
2028
2027
2026
2025
2024
2023
2025
2025
2029
2028
2026
2022
2018
2018
2022
2027
2030
2030
2027
2024
2022
2022
2026
2027
2027
2027
2027
2028
2029
2031
2032
2034
2035
2036
2037
2038
2039
2040
2040
2043
2043
2044
2043
2042
2041
2042
2046
2048
2049
2047
2044
2040
2036
2038
2036
2038
2037
2037
2037
2036
2036
2036
2036
2036
2036
2036
2036
2037
2036
2035
2038
2038
2036
2036
2031
2030
2031
2036
2042
2047
2046
2042
2037
2033
2033
2037
2036
2034
2029
2028
2030
2039
2046
2048
2046
2040
2034
2030
2032
2033
2035
2036
2036
2036
2033
2031
2030
2032
2036
2040
2042
2041
2038
2035
2032
2034
2035
2035
2035
2035
2034
2035
2035
2035
2036
2036
2037
2037
2038
2038
2038
2037
2037
2040
2039
2037
2033
2029
2029
2034
2042
2049
2051
2047
2040
2035
2033
2037
2040
2045
2048
2054
2063
2074
2086
2093
2095
2089
2077
2064
2055
2049
2048
2047
2048
2046
2044
2041
2038
2037
2040
2045
2049
2051
2049
2046
2044
2040
2043
2043
2045
2046
2047
2047
2047
2047
2048
2048
2049
2049
2050
2051
2051
2052
2053
2054
2056
2056
2058
2057
2057
2059
2061
2065
2066
2066
2065
2063
2063
2063
2064
2064
2063
2063
2063
2062
2061
2060
2058
2056
2055
2055
2054
2052
2051
2050
2050
2052
2051
2052
2050
2048
2048
2049
2053
2055
2055
2054
2051
2049
2050
2050
2049
2049
2049
2048
2049
2049
2049
2049
2050
2050
2049
2048
2047
2047
2048
2048
2052
2052
2049
2046
2042
2041
2045
2050
2055
2056
2052
2048
2045
2043
2045
2046
2045
2045
2046
2046
2046
2046
2046
2046
2045
2045
2045
2045
2045
2044
2043
2046
2045
2045
2040
2037
2036
2040
2047
2052
2054
2050
2045
2041
2038
2042
2043
2043
2043
2043
2044
2045
2045
2046
2046
2045
2044
2044
2044
2043
2043
2042
2043
2043
2043
2043
2041
2039
2039
2041
2046
2048
2051
2054
2057
2063
2073
2085
2095
2099
2097
2087
2074
2061
2053
2048
2048
2048
2047
2045
2044
2043
2042
2042
2042
2041
2039
2038
2037
2038
2040
2043
2044
2043
2041
2040
2038
2039
2040
2041
2041
2041
2041
2041
2042
2043
2043
2044
2045
2046
2046
2047
2047
2048
2048
2052
2054
2055
2053
2051
2049
2051
2055
2060
2063
2062
2059
2055
2051
2050
2049
2049
2048
2048
2046
2045
2044
2043
2043
2042
2041
2040
2040
2040
2040
2040
2041
2040
2039
2038
2036
2036
2039
2042
2045
2046
2045
2043
2041
2040
2042
2041
2042
2041
2041
2041
2042
2042
2041
2041
2041
2040
2040
2039
2039
2039
2039
2039
2040
2039
2038
2037
2036
2036
2038
2041
2043
2043
2041
2039
2037
2037
2037
2038
2037
2037
2037
2037
2036
2036
2035
2034
2034
2034
2034
2035
2035
2035
2037
2039
2039
2039
2034
2030
2028
2030
2036
2041
2044
2041
2036
2032
2031
2032
2033
2033
2032
2031
2032
2035
2038
2044
2049
2058
2070
2080
2085
2084
2075
2063
2054
2045
2039
2033
2028
2026
2029
2035
2040
2039
2035
2030
2025
2026
2027
2025
2023
2020
2019
2017
2016
2014
2013
2014
2014
2014
2015
2014
2015
2015
2015
2020
2021
2021
2017
2014
2013
2018
2027
2032
2033
2027
2021
2018
2017
2023
2026
2027
2029
2030
2032
2035
2036
2037
2037
2038
2038
2037
2037
2037
2036
2035
2034
2034
2033
2033
2031
2031
2031
2032
2035
2035
2033
2029
2024
2021
2019
2020
2020
2019
2019
2019
2018
2018
2017
2015
2014
2013
2012
2013
2014
2016
2016
2019
2020
2020
2020
2019
2018
2020
2023
2027
2028
2027
2024
2021
2018
2018
2020
2020
2021
2021
2021
2020
2020
2020
2020
2021
2021
2021
2020
2019
2018
2018
2018
2020
2022
2021
2019
2016
2015
2017
2021
2026
2027
2026
2023
2019
2017
2018
2020
2021
2022
2023
2024
2024
2025
2025
2027
2027
2028
2027
2028
2028
2028
2028
2029
2029
2030
2028
2027
2026
2027
2029
2032
2033
2033
2033
2035
2038
2045
2054
2067
2078
2085
2083
2075
2061
2048
2039
2035
2034
2034
2034
2033
2031
2031
2030
2031
2030
2029
2029
2029
2030
2032
2035
2035
2035
2034
2032
2032
2032
2034
2034
2034
2035
2036
2036
2037
2037
2037
2037
2038
2040
2042
2039
2036
2033
2034
2041
2048
2054
2053
2049
2045
2044
2047
2051
2053
2051
2048
2046
2045
2046
2045
2045
2043
2041
2041
2039
2038
2037
2036
2036
2035
2034
2034
2034
2033
2030
2033
2032
2032
2031
2031
2031
2033
2037
2040
2040
2037
2034
2030
2029
2031
2032
2033
2033
2034
2033
2034
2034
2034
2035
2035
2035
2035
2035
2034
2033
2032
2035
2034
2035
2033
2030
2029
2030
2034
2037
2038
2035
2032
2030
2029
2035
2035
2036
2035
2034
2033
2034
2035
2036
2037
2037
2037
2038
2038
2038
2039
2038
2042
2042
2042
2039
2036
2035
2038
2044
2050
2053
2051
2048
2044
2042
2044
2047
2048
2049
2050
2051
2052
2053
2055
2056
2058
2059
2060
2060
2060
2060
2059
2059
2060
2061
2061
2058
2055
2055
2059
2066
2073
2076
2074
2069
2066
2066
2072
2078
2086
2097
2108
2121
2129
2129
2122
2110
2097
2087
2081
2078
2077
2075
2075
2077
2077
2075
2071
2067
2067
2071
2077
2083
2083
2079
2075
2070
2069
2070
2071
2072
2072
2072
2072
2072
2072
2071
2071
2071
2072
2072
2072
2073
2072
2071
2073
2075
2073
2071
2066
2063
2063
2069
2077
2080
2078
2071
2064
2056
2054
2053
2046
2041
2032
2024
2017
2009
2001
1991
1982
1976
1975
1981
1992
2008
2024
2042
2054
2059
2058
2051
2044
2039
2039
2043
2046
2050
2053
2056
2059
2063
2066
2070
2072
2075
2078
2080
2081
2082
2082
2082
2082
2082
2080
2079
2077
2076
2076
2078
2078
2081
2077
2075
2074
2078
2085
2093
2098
2098
2095
2090
2088
2088
2088
2092
2091
2089
2088
2086
2084
2084
2083
2082
2081
2080
2079
2079
2078
2078
2079
2077
2074
2071
2070
2072
2078
2084
2088
2086
2083
2078
2075
2075
2075
2075
2074
2072
2072
2070
2070
2070
2072
2075
2076
2075
2072
2068
2065
2064
2067
2076
2082
2085
2086
2088
2095
2107
2122
2128
2122
2105
2086
2070
2060
2060
2059
2056
2053
2050
2049
2049
2050
2053
2055
2058
2062
2065
2068
2069
2070
2069
2068
2067
2064
2062
2058
2057
2059
2064
2071
2074
2075
2071
2068
2066
2067
2070
2073
2075
2077
2077
2077
2077
2077
2078
2080
2081
2082
2083
2082
2081
2080
2080
2078
2078
2077
2076
2074
2073
2072
2072
2071
2069
2066
2064
2061
2060
2060
2060
2060
2059
2058
2057
2056
2056
2057
2057
2058
2059
2059
2059
2059
2059
2058
2060
2060
2058
2054
2050
2048
2048
2050
2053
2053
2050
2046
2041
2038
2038
2037
2037
2037
2038
2038
2038
2038
2037
2037
2036
2037
2036
2036
2037
2036
2035
2037
2035
2036
2034
2032
2034
2035
2039
2043
2045
2046
2045
2044
2044
2046
2047
2048
2048
2049
2050
2051
2051
2052
2052
2053
2053
2052
2051
2050
2050
2053
2059
2066
2072
2079
2087
2096
2104
2108
2104
2092
2075
2059
2048
2043
2041
2039
2037
2034
2031
2030
2028
2026
2025
2023
2022
2021
2021
2020
2019
2019
2019
2021
2022
2022
2024
2022
2020
2019
2020
2024
2028
2030
2029
2027
2026
2025
2028
2028
2031
2032
2033
2034
2035
2037
2038
2039
2040
2040
2041
2042
2042
2043
2044
2047
2047
2046
2044
2041
2040
2041
2045
2048
2048
2046
2043
2040
2038
2038
2037
2034
2034
2034
2033
2033
2033
2033
2032
2032
2032
2031
2031
2032
2032
2031
2033
2032
2032
2030
2029
2028
2031
2036
2039
2040
2037
2034
2030
2027
2030
2030
2032
2031
2031
2031
2031
2031
2031
2031
2032
2033
2033
2034
2035
2034
2034
2036
2037
2037
2034
2033
2032
2036
2043
2049
2053
2051
2047
2043
2040
2041
2045
2047
2048
2048
2049
2050
2050
2049
2048
2048
2048
2050
2054
2059
2066
2073
2086
2099
2110
2114
2111
2100
2086
2076
2069
2065
2063
2059
2054
2047
2044
2044
2047
2055
2059
2060
2055
2049
2046
2044
2045
2047
2047
2046
2046
2045
2044
2044
2048
2049
2049
2046
2043
2041
2045
2051
2059
2061
2059
2054
2049
2047
2049
2051
2054
2056
2058
2059
2060
2060
2060
2062
2061
2061
2061
2061
2061
2060
2058
2057
2055
2054
2051
2048
2046
2044
2044
2045
2045
2043
2041
2039
2037
2038
2038
2039
2039
2039
2039
2040
2040
2041
2041
2041
2041
2041
2042
2042
2042
2044
2044
2045
2044
2043
2042
2042
2044
2048
2049
2050
2048
2047
2045
2044
2044
2045
2045
2046
2046
2045
2045
2045
2044
2044
2044
2043
2043
2043
2043
2044
2045
2047
2048
2048
2047
2044
2041
2041
2044
2048
2051
2052
2049
2046
2043
2041
2042
2043
2042
2041
2040
2041
2043
2046
2050
2055
2062
2073
2087
2100
2109
2110
2100
2087
2071
2058
2049
2045
2045
2046
2047
2048
2048
2048
2048
2049
2051
2054
2055
2054
2054
2054
2054
2053
2053
2052
2052
2051
2050
2049
2048
2047
2046
2044
2046
2045
2046
2043
2039
2036
2036
2039
2043
2047
2047
2045
2042
2037
2039
2036
2037
2035
2034
2034
2034
2035
2036
2037
2039
2039
2038
2035
2031
2028
2026
2029
2033
2034
2035
2035
2035
2038
2045
2051
2057
2059
2059
2057
2057
2059
2063
2066
2069
2071
2073
2074
2076
2077
2078
2079
2080
2082
2084
2086
2088
2088
2091
2091
2091
2087
2083
2080
2079
2082
2084
2084
2082
2077
2074
2071
2072
2074
2074
2075
2074
2073
2072
2071
2070
2069
2070
2070
2070
2070
2069
2069
2070
2073
2079
2082
2084
2082
2078
2078
2083
2089
2094
2093
2087
2080
2073
2071
2072
2073
2073
2071
2070
2070
2071
2073
2076
2080
2086
2095
2108
2121
2130
2132
2124
2111
2095
2081
2070
2063
2061
2063
2068
2071
2072
2069
2063
2059
2055
2057
2059
2060
2061
2061
2061
2061
2061
2061
2061
2062
2062
2063
2065
2067
2069
2069
2069
2068
2067
2065
2064
2063
2064
2065
2066
2066
2065
2064
2061
2060
2061
2061
2062
2062
2063
2063
2063
2063
2063
2062
2062
2062
2062
2060
2060
2058
2057
2057
2055
2055
2052
2049
2048
2048
2049
2051
2051
2051
2048
2047
2047
2046
2047
2048
2048
2048
2049
2050
2051
2052
2051
2051
2051
2051
2052
2053
2053
2053
2053
2053
2051
2051
2048
2045
2042
2041
2042
2044
2044
2041
2037
2033
2030
2030
2030
2032
2030
2029
2027
2026
2026
2025
2024
2023
2023
2022
2021
2021
2020
2018
2021
2021
2021
2018
2014
2012
2014
2020
2025
2028
2026
2020
2016
2012
2013
2015
2014
2014
2013
2012
2011
2010
2010
2009
2010
2009
2008
2008
2006
2005
2002
2003
2001
1999
1997
1994
1992
1993
1996
1999
1999
1997
1994
1991
1989
1990
1989
1991
1993
1997
2003
2013
2025
2037
2044
2044
2039
2031
2022
2016
2010
2002
1994
1985
1978
1974
1972
1972
1976
1985
1997
2006
2008
2003
1995
1987
1984
1984
1988
1994
1999
2005
2012
2018
2024
2030
2034
2037
2039
2039
2038
2038
2038
2037
2043
2043
2047
2043
2038
2037
2041
2050
2062
2071
2072
2067
2061
2055
2058
2056
2061
2061
2061
2060
2060
2059
2058
2057
2055
2054
2053
2051
2051
2050
2048
2051
2050
2050
2048
2043
2042
2043
2048
2055
2059
2057
2052
2048
2044
2047
2048
2048
2048
2048
2048
2049
2052
2057
2061
2063
2063
2058
2052
2047
2044
2043
2047
2052
2058
2060
2062
2061
2062
2063
2065
2063
2059
2054
2049
2047
2048
2048
2048
2047
2046
2045
2046
2048
2050
2052
2053
2052
2050
2048
2046
2044
2044
2046
2047
2047
2044
2040
2038
2039
2044
2049
2052
2051
2046
2041
2036
2036
2038
2040
2039
2038
2036
2036
2036
2037
2036
2039
2040
2041
2038
2034
2031
2033
2038
2049
2057
2058
2050
2042
2036
2038
2044
2051
2054
2053
2049
2048
2044
2044
2044
2046
2046
2045
2048
2048
2047
2048
2049
2052
2057
2064
2072
2083
2095
2103
2110
2105
2092
2073
2056
2048
2048
2055
2062
2064
2059
2051
2046
2042
2045
2046
2046
2045
2042
2042
2042
2043
2044
2046
2047
2048
2048
2049
2048
2048
2047
2049
2050
2051
2049
2047
2046
2048
2054
2062
2067
2066
2062
2057
2054
2056
2057
2059
2059
2059
2060
2061
2061
2062
2062
2062
2062
2062
2063
2062
2060
2059
2057
2058
2057
2055
2050
2047
2047
2051
2057
2062
2062
2056
2051
2048
2045
2048
2048
2050
2051
2052
2056
2058
2060
2063
2066
2070
2074
2078
2081
2084
2088
2092
2099
2105
2110
2113
2116
2122
2133
2149
2165
2180
2191
2203
2216
2231
2251
2268
2285
2297
2308
2317
2325
2333
2340
2346
2351
2356
2360
2364
2367
2370
2370
2376
2376
2377
2376
2374
2375
2379
2387
2395
2400
2399
2393
2389
2383
2386
2387
2388
2389
2387
2386
2385
2384
2384
2384
2384
2383
2383
2382
2380
2380
2378
2378
2377
2376
2373
2369
2366
2366
2369
2372
2374
2374
2371
2366
2363
2362
2362
2364
2364
2362
2359
2354
2350
2347
2346
2346
2345
2343
2342
2339
2335
2330
2325
2321
2316
2311
2305
2299
2293
2287
2283
2279
2274
2264
2249
2228
2204
2181
2161
2146
2135
2126
2119
2110
2102
2095
2088
2082
2075
2069
2064
2059
2054
2049
2047
2041
2036
2030
2026
2023
2022
2025
2026
2024
2021
2016
2014
2012
2013
2013
2012
2008
2007
2005
2004
2004
2004
2005
2005
2006
2006
2005
2005
2004
2002
2005
2004
2004
2002
1999
1997
1998
2001
2003
2003
1998
1993
1990
1986
1989
1988
1986
1984
1981
1979
1979
1978
1978
1978
1976
1975
1975
1975
1974
1974
1973
1976
1976
1976
1974
1972
1971
1974
1978
1982
1983
1981
1977
1974
1973
1975
1976
1977
1977
1978
1978
1978
1977
1978
1978
1978
1979
1979
1979
1979
1979
1979
1978
1981
1978
1979
1976
1975
1977
1980
1985
1988
1989
1987
1984
1981
1978
1980
1979
1981
1981
1982
1984
1984
1984
1984
1985
1985
1985
1985
1984
1984
1983
1984
1986
1987
1986
1985
1983
1984
1988
1992
1995
1994
1990
1987
1983
1983
1985
1986
1987
1987
1988
1988
1989
1989
1989
1989
1990
1991
1991
1991
1991
1991
1990
1995
1995
1994
1994
1990
1989
1990
1995
2001
2003
2002
1998
1993
1987
1990
1990
1990
1994
1993
1992
1991
1990
1991
1993
1997
2003
2009
2019
2030
2041
2048
2053
2049
2038
2024
2010
2001
1998
1999
2001
2001
1999
1996
1993
1991
1991
1992
1992
1994
1995
1996
1996
1997
1997
1997
1998
1998
1999
2000
2000
2001
2002
2003
2005
2006
2005
2003
2002
2002
2005
2011
2015
2017
2014
2011
2009
2008
2010
2012
2014
2015
2015
2015
2014
2015
2015
2016
2017
2017
2016
2016
2014
2014
2013
2013
2013
2010
2007
2005
2004
2005
2008
2010
2010
2008
2004
2002
2000
2003
2005
2007
2006
2006
2004
2004
2005
2004
2007
2006
2006
2007
2007
2007
2006
2005
2008
2007
2008
2006
2004
2003
2005
2010
2014
2016
2012
2008
2006
2004
2010
2011
2012
2011
2009
2008
2009
2009
2010
2012
2011
2011
2011
2011
2011
2011
2011
2013
2014
2014
2012
2010
2009
2010
2013
2019
2021
2020
2016
2013
2011
2012
2014
2015
2015
2015
2016
2016
2016
2016
2016
2017
2017
2018
2018
2019
2020
2020
2019
2022
2020
2020
2016
2014
2015
2018
2024
2027
2027
2024
2020
2018
2016
2019
2017
2017
2017
2019
2024
2030
2038
2046
2055
2065
2072
2075
2071
2062
2050
2040
2034
2031
2028
2027
2024
2023
2024
2027
2031
2032
2028
2022
2016
2014
2018
2026
2032
2034
2032
2027
2024
2022
2024
2026
2027
2028
2028
2029
2029
2030
2028
2033
2033
2033
2031
2027
2027
2030
2038
2045
2048
2048
2043
2041
2038
2042
2044
2045
2045
2045
2045
2046
2045
2045
2044
2043
2042
2041
2040
2039
2038
2037
2037
2037
2035
2033
2030
2029
2030
2033
2037
2037
2036
2033
2030
2030
2030
2030
2031
2031
2031
2032
2032
2032
2032
2032
2032
2032
2032
2033
2032
2032
2032
2033
2034
2034
2034
2032
2032
2033
2035
2038
2038
2037
2035
2033
2031
2032
2033
2034
2034
2033
2032
2033
2032
2032
2033
2033
2033
2033
2033
2034
2035
2035
2036
2036
2035
2034
2032
2031
2032
2036
2041
2044
2043
2040
2037
2034
2033
2033
2034
2035
2036
2038
2038
2038
2036
2035
2035
2035
2037
2037
2037
2038
2036
2037
2041
2040
2040
2037
2034
2033
2037
2043
2048
2048
2044
2039
2035
2034
2039
2040
2040
2040
2037
2036
2037
2039
2043
2047
2051
2056
2064
2075
2086
2096
2097
2093
2083
2069
2056
2046
2042
2041
2044
2047
2047
2046
2042
2039
2037
2037
2038
2038
2038
2038
2038
2038
2038
2038
2039
2039
2039
2039
2039
2039
2040
2041
2040
2044
2042
2042
2039
2038
2040
2044
2050
2054
2055
2053
2050
2048
2047
2051
2051
2053
2054
2055
2057
2057
2057
2057
2057
2057
2056
2055
2053
2052
2050
2049
2049
2049
2047
2045
2041
2040
2042
2043
2046
2045
2042
2040
2038
2036
2037
2038
2038
2038
2039
2039
2039
2039
2039
2038
2038
2038
2038
2039
2040
2040
2039
2042
2040
2039
2036
2032
2031
2033
2040
2046
2048
2047
2041
2037
2032
2036
2036
2037
2037
2037
2037
2037
2036
2037
2036
2037
2037
2037
2037
2036
2036
2035
2035
2036
2035
2034
2032
2032
2033
2036
2039
2039
2038
2036
2034
2034
2034
2036
2037
2037
2037
2037
2037
2036
2035
2035
2034
2033
2032
2032
2031
2032
2032
2033
2034
2034
2032
2029
2028
2029
2034
2044
2052
2061
2069
2076
2084
2089
2089
2082
2069
2056
2046
2040
2037
2037
2037
2036
2035
2033
2033
2032
2032
2032
2031
2031
2032
2031
2030
2029
2029
2031
2034
2037
2038
2036
2035
2033
2031
2030
2031
2032
2034
2037
2039
2039
2038
2038
2038
2037
2041
2042
2043
2044
2045
2043
2048
2047
2048
2046
2044
2044
2047
2050
2054
2055
2051
2047
2044
2040
2043
2043
2042
2040
2036
2034
2033
2033
2032
2033
2032
2031
2031
2031
2030
2030
2030
2030
2032
2033
2030
2024
2020
2020
2026
2036
2044
2046
2042
2035
2029
2026
2027
2029
2030
2030
2031
2030
2031
2030
2031
2031
2030
2030
2030
2030
2030
2030
2032
2031
2030
2029
2027
2027
2029
2033
2036
2038
2037
2034
2032
2029
2030
2030
2029
2031
2030
2031
2031
2032
2032
2031
2031
2031
2031
2031
2031
2032
2031
2032
2035
2036
2034
2031
2028
2028
2032
2037
2041
2041
2037
2032
2027
2027
2028
2030
2030
2030
2030
2029
2029
2030
2033
2037
2042
2048
2057
2068
2081
2088
2092
2087
2073
2060
2047
2037
2034
2036
2039
2041
2040
2037
2033
2030
2029
2030
2030
2031
2031
2031
2031
2032
2032
2032
2032
2032
2033
2032
2032
2032
2033
2033
2034
2036
2037
2036
2035
2034
2035
2038
2042
2045
2045
2044
2042
2042
2042
2044
2045
2046
2047
2048
2048
2048
2048
2048
2048
2047
2046
2046
2044
2043
2042
2041
2040
2039
2038
2036
2035
2034
2033
2034
2034
2035
2033
2031
2030
2029
2030
2030
2030
2030
2029
2029
2029
2028
2028
2029
2029
2029
2029
2029
2030
2031
2031
2033
2032
2031
2030
2030
2031
2034
2035
2036
2034
2030
2031
2030
2028
2029
2028
2028
2029
2031
2033
2032
2031
2030
2031
2031
2031
2027
2024
2024
2028
2033
2042
2042
2039
2032
2026
2025
2028
2035
2039
2040
2038
2035
2033
2030
2033
2033
2034
2036
2036
2036
2037
2038
2039
2040
2041
2041
2041
2041
2040
2040
2039
2041
2043
2042
2040
2037
2035
2036
2041
2047
2048
2048
2047
2047
2050
2057
2067
2078
2090
2101
2110
2112
2106
2094
2080
2069
2062
2058
2055
2052
2049
2047
2045
2047
2044
2041
2036
2032
2030
2034
2040
2044
2044
2040
2036
2033
2032
2037
2037
2039
2040
2041
2044
2046
2048
2048
2048
2048
2048
2048
2046
2045
2045
2044
2048
2049
2049
2049
2047
2048
2052
2059
2066
2067
2063
2058
2053
2049
2050
2050
2050
2049
2048
2048
2046
2044
2042
2041
2040
2039
2038
2037
2037
2036
2035
2035
2034
2035
2033
2032
2030
2031
2033
2036
2037
2035
2033
2030
2028
2029
2028
2027
2025
2024
2022
2022
2022
2022
2023
2024
2025
2026
2027
2028
2029
2030
2032
2033
2032
2031
2029
2030
2033
2037
2039
2039
2037
2035
2033
2033
2033
2033
2033
2033
2034
2034
2034
2034
2034
2033
2034
2033
2034
2034
2033
2032
2032
2034
2034
2036
2034
2032
2031
2031
2034
2039
2042
2042
2040
2037
2035
2036
2036
2038
2038
2038
2037
2037
2036
2036
2036
2036
2036
2036
2036
2036
2036
2036
2035
2035
2032
2031
2030
2034
2041
2051
2061
2070
2076
2080
2081
2077
2070
2063
2051
2043
2038
2035
2035
2038
2038
2038
2037
2034
2034
2033
2034
2036
2035
2035
2036
2034
2034
2033
2032
2033
2036
2039
2042
2042
2039
2038
2037
2036
2038
2039
2040
2041
2041
2041
2041
2042
2043
2044
2045
2046
2047
2048
2049
2049
2049
2051
2052
2052
2051
2049
2048
2050
2055
2059
2060
2057
2053
2049
2048
2048
2049
2048
2046
2043
2043
2043
2043
2043
2043
2043
2042
2042
2042
2042
2042
2042
2042
2046
2044
2043
2037
2034
2034
2040
2048
2054
2055
2050
2044
2041
2038
2041
2042
2042
2041
2041
2042
2042
2042
2042
2042
2042
2041
2041
2040
2040
2040
2039
2043
2043
2041
2038
2034
2033
2037
2043
2049
2051
2047
2042
2037
2034
2037
2038
2038
2038
2038
2038
2038
2038
2038
2038
2039
2039
2040
2041
2042
2043
2042
2042
2041
2041
2038
2037
2036
2037
2039
2042
2044
2043
2041
2039
2036
2037
2036
2037
2038
2042
2048
2055
2064
2074
2083
2091
2093
2089
2079
2067
2056
2048
2045
2045
2042
2040
2037
2035
2035
2038
2040
2041
2040
2038
2036
2035
2034
2036
2036
2036
2036
2037
2037
2038
2038
2038
2038
2038
2037
2038
2038
2039
2040
2042
2044
2045
2046
2045
2045
2046
2048
2050
2052
2053
2053
2051
2051
2051
2052
2053
2054
2054
2054
2054
2053
2053
2052
2051
2050
2048
2048
2048
2046
2046
2043
2043
2040
2039
2037
2036
2038
2040
2042
2042
2041
2039
2036
2037
2036
2038
2039
2039
2039
2038
2037
2037
2039
2041
2042
2042
2040
2039
2038
2038
2039
2039
2040
2038
2039
2037
2036
2036
2038
2040
2042
2043
2042
2041
2038
2036
2037
2037
2038
2038
2038
2038
2038
2038
2037
2038
2038
2038
2038
2038
2039
2039
2040
2042
2043
2042
2039
2037
2036
2038
2043
2046
2048
2046
2043
2039
2038
2039
2038
2039
2038
2037
2038
2040
2044
2048
2055
2062
2070
2081
2089
2093
2092
2084
2073
2062
2052
2046
2042
2040
2041
2045
2048
2050
2048
2045
2043
2041
2041
2044
2043
2043
2044
2044
2046
2047
2047
2047
2047
2048
2047
2048
2047
2047
2047
2048
2049
2050
2050
2050
2049
2050
2055
2059
2062
2063
2061
2059
2056
2056
2058
2060
2060
2060
2061
2061
2061
2061
2060
2059
2059
2059
2058
2057
2055
2052
2051
2052
2049
2049
2047
2044
2045
2048
2052
2055
2052
2046
2040
2037
2041
2048
2053
2054
2049
2045
2041
2041
2043
2045
2045
2044
2044
2043
2043
2043
2043
2043
2044
2046
2045
2042
2039
2037
2038
2043
2048
2051
2050
2048
2044
2042
2040
2041
2042
2042
2041
2042
2042
2043
2043
2043
2044
2045
2045
2046
2047
2047
2049
2053
2057
2059
2059
2057
2056
2058
2061
2065
2066
2064
2058
2053
2050
2049
2050
2050
2051
2051
2050
2051
2050
2051
2049
2049
2048
2048
2049
2051
2053
2057
2059
2068
2077
2088
2094
2096
2093
2087
2080
2073
2065
2057
2049
2043
2038
2039
2038
2039
2039
2039
2037
2036
2034
2033
2035
2037
2039
2040
2040
2041
2041
2039
2044
2043
2044
2044
2043
2043
2044
2046
2047
2048
2047
2046
2045
2044
2047
2047
2049
2049
2050
2051
2052
2053
2053
2053
2053
2053
2053
2052
2051
2050
2048
2048
2047
2045
2041
2038
2036
2037
2041
2043
2044
2043
2040
2037
2035
2036
2036
2037
2036
2036
2037
2037
2037
2037
2037
2037
2037
2038
2038
2038
2038
2038
2039
2040
2039
2038
2036
2035
2035
2039
2043
2045
2045
2042
2040
2040
2040
2042
2041
2040
2039
2038
2038
2039
2038
2038
2037
2036
2035
2035
2034
2034
2034
2034
2036
2036
2034
2033
2031
2031
2033
2036
2039
2039
2037
2034
2032
2030
2032
2033
2033
2034
2034
2034
2035
2035
2035
2036
2037
2038
2038
2038
2037
2036
2033
2035
2036
2035
2032
2027
2025
2027
2034
2042
2046
2044
2038
2034
2030
2033
2038
2043
2049
2056
2066
2077
2086
2090
2086
2076
2063
2052
2046
2042
2041
2040
2040
2040
2037
2034
2030
2030
2032
2037
2043
2044
2041
2037
2033
2033
2033
2037
2036
2036
2036
2037
2038
2038
2039
2039
2039
2039
2040
2040
2040
2040
2041
2043
2046
2046
2046
2043
2042
2043
2047
2053
2057
2058
2056
2052
2049
2048
2050
2051
2053
2053
2052
2051
2049
2048
2048
2047
2046
2044
2044
2043
2042
2041
2042
2041
2041
2039
2038
2037
2038
2039
2040
2040
2039
2039
2040
2040
2041
2041
2041
2040
2041
2041
2041
2040
2039
2037
2037
2039
2041
2043
2043
2042
2038
2038
2039
2038
2039
2035
2032
2031
2035
2041
2047
2048
2046
2041
2037
2034
2035
2037
2039
2039
2038
2038
2038
2038
2039
2039
2039
2039
2039
2039
2040
2041
2041
2043
2044
2044
2042
2038
2035
2036
2040
2046
2049
2049
2046
2041
2037
2038
2039
2042
2041
2040
2039
2039
2042
2047
2052
2060
2069
2079
2088
2094
2095
2089
2079
2068
2057
2050
2044
2039
2039
2042
2047
2049
2049
2046
2042
2039
2038
2040
2039
2041
2039
2039
2039
2040
2040
2041
2042
2042
2042
2041
2040
2041
2041
2042
2045
2046
2046
2044
2041
2041
2044
2049
2055
2058
2057
2054
2051
2049
2051
2053
2056
2056
2057
2057
2057
2057
2057
2057
2057
2057
2056
2055
2053
2051
2047
2048
2048
2047
2042
2037
2034
2036
2043
2049
2053
2051
2047
2043
2038
2039
2041
2040
2041
2041
2041
2043
2042
2042
2042
2043
2043
2043
2043
2043
2044
2043
2044
2045
2045
2043
2040
2037
2039
2044
2050
2055
2054
2049
2044
2040
2039
2040
2042
2042
2042
2041
2041
2041
2040
2040
2040
2040
2040
2040
2040
2040
2040
2040
2045
2046
2046
2042
2037
2035
2039
2047
2052
2054
2049
2044
2040
2036
2039
2039
2041
2041
2040
2040
2039
2039
2040
2043
2047
2051
2058
2067
2077
2088
2096
2098
2093
2079
2064
2050
2043
2043
2047
2051
2050
2048
2043
2038
2037
2037
2038
2039
2038
2039
2037
2040
2039
2038
2037
2037
2039
2041
2043
2044
2043
2040
2040
2040
2039
2041
2039
2038
2041
2046
2050
2054
2052
2049
2048
2045
2048
2049
2051
2052
2052
2052
2050
2052
2053
2055
2053
2049
2046
2046
2050
2058
2063
2063
2056
2048
2038
2034
2033
2038
2043
2047
2048
2048
2043
2038
2035
2035
2036
2038
2038
2037
2037
2037
2038
2038
2039
2039
2038
2038
2038
2039
2040
2040
2040
2040
2039
2038
2034
2032
2033
2038
2044
2048
2049
2047
2043
2039
2038
2038
2038
2038
2038
2038
2038
2039
2039
2039
2040
2041
2039
2039
2038
2039
2041
2044
2048
2045
2044
2035
2028
2024
2027
2037
2047
2054
2053
2048
2039
2034
2035
2036
2042
2042
2042
2042
2043
2042
2042
2042
2041
2040
2040
2040
2041
2040
2039
2042
2040
2040
2037
2035
2034
2036
2041
2047
2051
2053
2056
2061
2068
2081
2090
2094
2090
2078
2064
2054
2047
2045
2043
2043
2041
2039
2039
2038
2038
2037
2037
2038
2037
2037
2034
2033
2034
2037
2041
2043
2043
2040
2038
2037
2036
2039
2038
2039
2039
2039
2040
2041
2042
2042
2043
2043
2044
2044
2044
2045
2045
2047
2049
2051
2052
2050
2049
2049
2050
2053
2055
2055
2054
2051
2049
2048
2048
2048
2047
2046
2045
2044
2043
2042
2041
2041
2041
2040
2041
2040
2040
2040
2040
2040
2041
2039
2038
2036
2036
2038
2041
2044
2046
2044
2041
2039
2038
2039
2041
2041
2041
2041
2040
2039
2041
2040
2039
2038
2037
2038
2039
2042
2043
2041
2042
2039
2037
2035
2036
2036
2039
2043
2045
2044
2041
2039
2037
2036
2039
2039
2039
2039
2039
2039
2038
2038
2038
2038
2038
2038
2038
2038
2038
2038
2038
2038
2039
2038
2036
2034
2034
2035
2038
2041
2043
2043
2040
2038
2038
2038
2041
2041
2041
2040
2040
2039
2039
2038
2038
2038
2038
2038
2038
2038
2039
2039
2039
2039
2037
2036
2034
2034
2037
2043
2051
2059
2068
2076
2083
2089
2089
2084
2071
2059
2049
2044
2043
2042
2042
2040
2039
2038
2037
2037
2036
2036
2036
2037
2040
2040
2041
2038
2033
2031
2032
2036
2043
2048
2048
2046
2041
2036
2037
2036
2039
2040
2041
2042
2041
2042
2042
2043
2044
2045
2046
2047
2048
2048
2047
2051
2050
2051
2050
2048
2047
2048
2052
2057
2059
2057
2053
2049
2046
2047
2046
2045
2044
2042
2041
2041
2040
2040
2040
2039
2039
2039
2039
2038
2038
2038
2039
2041
2039
2036
2033
2031
2035
2041
2046
2048
2046
2043
2038
2037
2037
2039
2038
2039
2039
2039
2039
2040
2039
2040
2039
2040
2040
2040
2041
2040
2040
2041
2042
2042
2039
2037
2036
2038
2043
2048
2049
2048
2043
2039
2037
2039
2041
2042
2042
2041
2041
2042
2041
2042
2042
2043
2043
2043
2043
2043
2043
2043
2042
2045
2044
2042
2040
2037
2037
2042
2048
2052
2052
2049
2048
2044
2044
2047
2047
2047
2047
2047
2046
2046
2045
2045
2047
2046
2046
2045
2043
2044
2044
2046
2048
2047
2045
2043
2045
2048
2057
2068
2079
2090
2096
2099
2095
2085
2075
2064
2056
2051
2049
2048
2047
2046
2045
2044
2043
2043
2043
2043
2042
2042
2041
2042
2044
2043
2042
2040
2039
2040
2044
2047
2048
2048
2046
2044
2043
2044
2045
2045
2046
2046
2047
2047
2047
2048
2048
2050
2051
2052
2053
2053
2055
2055
2056
2058
2057
2057
2054
2052
2052
2054
2059
2062
2062
2059
2055
2051
2049
2050
2048
2048
2047
2045
2045
2045
2045
2044
2044
2043
2042
2042
2041
2041
2042
2042
2044
2045
2045
2043
2041
2040
2042
2045
2048
2049
2048
2046
2044
2042
2043
2045
2046
2046
2046
2046
2046
2045
2045
2045
2046
2046
2045
2045
2044
2044
2043
2046
2046
2045
2042
2038
2037
2039
2046
2051
2053
2052
2048
2045
2041
2043
2044
2043
2044
2044
2045
2046
2045
2045
2044
2044
2045
2045
2046
2046
2047
2047
2048
2049
2048
2048
2045
2044
2045
2048
2050
2048
2045
2042
2043
2048
2054
2057
2054
2048
2044
2041
2043
2046
2048
2052
2057
2063
2071
2082
2092
2098
2098
2091
2083
2070
2060
2050
2045
2043
2046
2051
2055
2056
2052
2047
2044
2040
2044
2044
2046
2046
2045
2045
2045
2046
2047
2047
2048
2048
2048
2048
2048
2048
2048
2049
2050
2050
2048
2048
2048
2049
2054
2058
2060
2060
2057
2055
2055
2056
2059
2060
2061
2061
2062
2062
2062
2062
2061
2062
2062
2061
2059
2057
2055
2054
2056
2055
2054
2051
2048
2047
2047
2050
2051
2052
2050
2048
2046
2044
2046
2046
2048
2048
2048
2048
2047
2047
2047
2047
2047
2048
2048
2048
2048
2048
2048
2048
2048
2048
2045
2042
2041
2042
2047
2050
2053
2051
2048
2045
2044
2044
2046
2046
2046
2045
2045
2044
2044
2044
2044
2044
2044
2044
2044
2044
2044
2043
2044
2045
2043
2042
2039
2037
2038
2042
2047
2049
2049
2048
2045
2043
2043
2044
2042
2042
2041
2040
2041
2042
2042
2042
2042
2042
2042
2043
2043
2044
2044
2044
2047
2046
2048
2042
2036
2032
2034
2041
2051
2058
2057
2051
2043
2037
2037
2037
2041
2041
2041
2043
2046
2049
2055
2063
2072
2083
2090
2093
2088
2077
2064
2055
2048
2045
2042
2040
2038
2039
2043
2046
2047
2046
2042
2040
2037
2038
2039
2039
2040
2040
2040
2041
2041
2041
2041
2041
2042
2042
2043
2043
2044
2043
2044
2046
2045
2045
2044
2043
2045
2048
2053
2055
2056
2054
2052
2053
2053
2055
2055
2055
2055
2056
2056
2056
2057
2056
2056
2054
2053
2052
2050
2048
2048
2047
2048
2048
2047
2044
2041
2039
2040
2044
2047
2048
2046
2042
2040
2039
2040
2042
2042
2042
2042
2041
2041
2041
2042
2042
2042
2042
2042
2042
2042
2043
2042
2043
2043
2041
2039
2038
2038
2040
2044
2046
2047
2045
2042
2040
2038
2039
2041
2040
2041
2040
2041
2040
2040
2039
2040
2039
2041
2040
2040
2039
2038
2037
2041
2042
2042
2040
2037
2036
2038
2040
2044
2043
2041
2039
2038
2037
2041
2040
2041
2040
2041
2040
2040
2040
2040
2040
2041
2041
2041
2041
2041
2041
2041
2042
2043
2043
2041
2040
2039
2040
2044
2048
2049
2049
2046
2043
2042
2041
2042
2043
2042
2042
2041
2041
2041
2041
2041
2042
2042
2041
2041
2042
2044
2046
2050
2055
2062
2070
2079
2087
2093
2094
2088
2078
2067
2056
2050
2047
2047
2046
2045
2044
2043
2043
2043
2044
2044
2044
2045
2045
2044
2044
2043
2043
2044
2045
2047
2048
2048
2046
2043
2043
2047
2053
2061
2068
2072
2075
2077
2079
2083
2086
2088
2087
2087
2086
2084
2083
2081
2081
2080
2080
2080
2080
2080
2080
2079
2081
2081
2081
2078
2075
2071
2072
2076
2080
2082
2080
2074
2070
2065
2066
2065
2065
2065
2065
2065
2065
2064
2064
2063
2063
2063
2062
2063
2063
2063
2062
2064
2064
2062
2060
2057
2057
2059
2063
2068
2068
2066
2062
2058
2057
2056
2057
2057
2057
2057
2057
2057
2057
2057
2056
2056
2056
2057
2057
2057
2057
2058
2058
2061
2062
2060
2056
2051
2050
2054
2061
2067
2069
2064
2058
2053
2050
2054
2055
2055
2055
2054
2054
2053
2053
2053
2052
2052
2051
2051
2051
2051
2050
2051
2053
2052
2050
2048
2046
2048
2051
2056
2059
2058
2055
2051
2050
2050
2053
2055
2054
2055
2054
2053
2052
2052
2051
2051
2051
2050
2051
2050
2049
2048
2047
2050
2049
2049
2045
2040
2039
2044
2054
2066
2079
2087
2094
2101
2104
2105
2097
2084
2071
2059
2052
2049
2047
2046
2044
2042
2042
2042
2043
2042
2042
2041
2041
2043
2043
2042
2040
2040
2041
2044
2048
2049
2049
2047
2045
2045
2045
2047
2047
2046
2045
2046
2046
2048
2048
2046
2043
2041
2041
2046
2051
2057
2057
2054
2049
2048
2046
2046
2047
2048
2049
2051
2053
2054
2051
2049
2048
2047
2047
2047
2046
2044
2042
2039
2037
2036
2036
2036
2036
2035
2033
2032
2030
2030
2030
2031
2031
2031
2028
2025
2024
2025
2029
2034
2037
2036
2034
2031
2028
2030
2029
2031
2030
2031
2030
2031
2031
2031
2032
2032
2032
2033
2034
2035
2034
2032
2035
2034
2035
2034
2031
2030
2031
2035
2039
2042
2042
2040
2038
2033
2035
2034
2034
2036
2037
2037
2038
2037
2037
2037
2037
2039
2039
2040
2041
2041
2041
2043
2044
2042
2040
2036
2035
2037
2042
2046
2047
2044
2040
2036
2035
2036
2037
2037
2036
2034
2034
2034
2036
2040
2046
2052
2060
2072
2085
2096
2101
2096
2086
2069
2053
2040
2030
2025
2023
2026
2031
2034
2034
2030
2023
2016
2013
2011
2011
2013
2015
2017
2019
2020
2020
2020
2019
2019
2020
2023
2025
2028
2031
2034
2043
2047
2052
2057
2066
2082
2104
2131
2157
2176
2189
2198
2206
2215
2227
2235
2244
2249
2257
2262
2268
2272
2274
2277
2278
2279
2279
2282
2283
2282
2280
2281
2279
2280
2278
2277
2275
2276
2279
2281
2283
2281
2278
2274
2271
2274
2273
2275
2276
2276
2276
2275
2274
2273
2272
2272
2271
2271
2271
2270
2268
2267
2267
2270
2268
2265
2260
2255
2255
2259
2266
2270
2270
2265
2258
2254
2251
2253
2253
2252
2251
2250
2249
2249
2248
2249
2248
2246
2245
2243
2241
2238
2236
2235
2234
2235
2234
2232
2233
2235
2239
2244
2247
2249
2248
2244
2239
2235
2230
2224
2216
2207
2197
2190
2185
2183
2183
2185
2184
2179
2170
2155
2139
2122
2108
2098
2089
2080
2070
2060
2053
2052
2054
2059
2064
2068
2075
2083
2088
2090
2083
2070
2055
2045
2037
2033
2030
2026
2022
2017
2013
2009
2006
2002
1998
1992
1991
1990
1990
1987
1983
1980
1981
1985
1990
1992
1989
1981
1977
1975
1976
1975
1965
1953
1939
1931
1933
1939
1949
1956
1959
1960
1961
1963
1964
1965
1967
1974
1987
1999
2012
2019
2023
2024
2023
2021
2016
2009
2002
1996
1992
1990
1990
1988
1987
1986
1985
1984
1981
1978
1974
1970
1968
1968
1969
1970
1971
1971
1971
1975
1976
1977
1976
1975
1976
1982
1991
2000
2006
2006
2003
2001
1997
1998
1996
1995
1993
1992
1992
1993
1994
1995
1995
1997
1996
1997
1997
1998
1999
1998
2003
2003
2004
2003
2000
2000
2002
2007
2012
2014
2013
2009
2005
2001
2003
2004
2004
2004
2005
2004
2004
2003
2003
2004
2005
2005
2005
2004
2004
2004
2002
2005
2004
2005
2002
1999
1998
2000
2005
2009
2012
2012
2009
2008
2004
2006
2005
2005
2005
2003
2002
2001
2001
2002
2002
2002
2002
2002
2002
2001
2000
1996
1997
1998
1999
2002
2005
2013
2025
2042
2059
2071
2073
2065
2050
2033
2023
2016
2012
2011
2009
2006
2002
1999
1997
1996
1997
1998
2000
2000
1998
1995
1990
1990
1989
1990
1992
1992
1993
1995
1998
2000
2001
1999
1996
1993
1989
1989
1987
1986
1984
1982
1980
1978
1976
1974
1973
1971
1970
1970
1967
1965
1963
1959
1959
1959
1957
1958
1952
1947
1942
1941
1944
1949
1950
1948
1941
1932
1925
1922
1917
1918
1913
1910
1907
1903
1900
1896
1893
1889
1886
1883
1879
1876
1873
1868
1869
1867
1864
1858
1851
1846
1847
1852
1857
1859
1855
1849
1843
1838
1840
1839
1839
1838
1837
1837
1837
1836
1836
1836
1835
1835
1835
1835
1835
1835
1835
1837
1839
1837
1835
1831
1828
1830
1836
1844
1850
1850
1848
1845
1844
1845
1846
1846
1844
1843
1844
1848
1855
1863
1872
1882
1895
1910
1925
1939
1949
1956
1959
1964
1966
1966
1966
1966
1967
1969
1974
1977
1980
1982
1985
1989
1988
1990
1986
1984
1983
1984
1988
1988
1990
1991
1993
1997
2001
2006
2013
2020
2030
2042
2054
2063
2066
2061
2049
2038
2028
2025
2025
2027
2027
2026
2026
2027
2029
2034
2036
2038
2039
2040
2040
2041
2042
2044
2047
2048
2049
2049
2050
2050
2052
2055
2056
2059
2059
2058
2057
2056
2056
2055
2054
2053
2055
2059
2064
2071
2073
2077
2078
2078
2078
2079
2079
2079
2079
2079
2079
2078
2077
2076
2074
2072
2073
2073
2073
2071
2068
2066
2065
2067
2070
2071
2069
2065
2061
2058
2057
2058
2059
2059
2058
2057
2056
2055
2055
2055
2056
2056
2056
2055
2054
2053
2052
2051
2051
2048
2048
2046
2045
2045
2047
2048
2047
2045
2042
2041
2040
2040
2042
2039
2037
2034
2032
2029
2028
2026
2024
2023
2021
2020
2017
2015
2013
2011
2010
2011
2011
2011
2008
2004
2002
2004
2009
2015
2019
2019
2017
2015
2013
2016
2018
2022
2024
2028
2033
2037
2041
2043
2045
2046
2047
2048
2050
2053
2057
2060
2068
2073
2079
2082
2084
2085
2086
2087
2088
2088
2087
2086
2088
2093
2105
2115
2123
2127
2123
2111
2096
2080
2068
2061
2059
2059
2060
2059
2055
2050
2044
2039
2036
2034
2031
2027
2023
2024
2028
2037
2044
2047
2045
2041
2038
2037
2041
2045
2048
2048
2050
2052
2053
2055
2056
2058
2059
2060
2060
2061
2061
2062
2065
2066
2068
2066
2062
2060
2059
2064
2070
2074
2073
2068
2062
2055
2054
2053
2052
2052
2050
2048
2047
2045
2043
2041
2040
2038
2037
2036
2035
2033
2032
2028
2032
2030
2029
2026
2020
2018
2021
2028
2036
2041
2039
2034
2027
2021
2022
2022
2023
2024
2023
2022
2023
2023
2022
2020
2017
2014
2010
2006
2004
2002
2002
2001
2001
2001
1997
1993
1990
1989
1991
1994
1994
1992
1985
1979
1973
1972
1971
1973
1972
1971
1971
1971
1971
1972
1972
1972
1971
1969
1967
1965
1964
1962
1961
1961
1960
1958
1954
1953
1954
1958
1962
1964
1962
1958
1956
1958
1964
1973
1984
1996
2008
2019
2025
2023
2012
1997
1983
1972
1966
1963
1963
1962
1961
1961
1962
1961
1959
1955
1954
1954
1958
1964
1968
1969
1966
1962
1960
1959
1962
1963
1965
1966
1969
1973
1977
1983
1987
1991
1995
1998
2002
2005
2009
2013
2016
2025
2029
2033
2034
2034
2035
2040
2047
2054
2057
2054
2049
2045
2040
2043
2044
2047
2046
2045
2044
2041
2038
2035
2032
2031
2030
2030
2030
2031
2032
2030
2034
2035
2036
2033
2029
2026
2028
2034
2043
2048
2047
2042
2037
2031
2033
2035
2036
2038
2038
2037
2038
2038
2039
2040
2041
2042
2042
2043
2043
2045
2044
2045
2046
2045
2043
2039
2036
2037
2042
2048
2053
2053
2049
2045
2040
2039
2039
2039
2039
2038
2037
2036
2036
2035
2035
2035
2036
2037
2037
2037
2035
2034
2033
2037
2040
2041
2037
2031
2028
2031
2041
2050
2055
2051
2044
2036
2029
2033
2035
2042
2048
2055
2066
2079
2093
2106
2114
2114
2105
2091
2079
2069
2065
2064
2066
2067
2066
2063
2059
2057
2060
2065
2069
2070
2068
2062
2058
2057
2058
2060
2062
2062
2062
2061
2062
2062
2062
2062
2062
2062
2062
2062
2063
2062
2061
2063
2065
2066
2067
2065
2065
2066
2072
2080
2088
2091
2089
2084
2075
2072
2070
2068
2070
2068
2068
2065
2062
2058
2054
2049
2045
2040
2036
2032
2029
2023
2019
2011
2000
1988
1976
1969
1967
1970
1973
1974
1970
1962
1957
1955
1961
1973
1986
1999
2010
2019
2027
2035
2042
2048
2052
2054
2054
2055
2056
2059
2061
2062
2067
2066
2064
2061
2059
2060
2063
2068
2070
2070
2068
2067
2067
2068
2072
2073
2075
2077
2081
2085
2087
2083
2077
2071
2067
2069
2072
2075
2074
2069
2062
2060
2059
2061
2062
2060
2058
2059
2062
2068
2071
2071
2067
2062
2056
2055
2053
2051
2052
2052
2052
2053
2054
2053
2052
2051
2050
2051
2054
2058
2064
2068
2079
2089
2101
2111
2113
2108
2097
2085
2076
2069
2065
2060
2056
2050
2049
2047
2045
2044
2041
2038
2037
2035
2035
2034
2035
2036
2036
2037
2037
2038
2037
2038
2039
2038
2037
2034
2033
2034
2038
2043
2046
2047
2045
2043
2042
2042
2043
2043
2043
2043
2044
2045
2046
2047
2048
2049
2049
2049
2049
2049
2050
2051
2050
2051
2050
2047
2040
2034
2031
2033
2039
2043
2044
2039
2032
2027
2022
2025
2025
2025
2024
2024
2024
2024
2024
2024
2023
2023
2022
2022
2022
2022
2023
2023
2024
2023
2022
2021
2018
2019
2020
2024
2027
2027
2025
2022
2020
2017
2019
2020
2020
2020
2020
2020
2020
2020
2020
2019
2020
2019
2020
2020
2020
2020
2018
2021
2020
2018
2018
2014
2013
2014
2018
2023
2027
2027
2025
2022
2018
2019
2019
2019
2021
2020
2022
2024
2025
2027
2028
2029
2030
2029
2029
2028
2028
2026
2027
2029
2032
2033
2032
2030
2027
2024
2023
2019
2015
2011
2009
2010
2015
2023
2031
2041
2053
2066
2078
2084
2084
2076
2064
2053
2046
2043
2042
2043
2044
2044
2043
2042
2041
2039
2039
2041
2045
2049
2055
2058
2060
2060
2059
2060
2062
2063
2064
2063
2063
2062
2062
2062
2063
2064
2066
2068
2070
2072
2074
2075
2076
2080
2082
2083
2081
2079
2078
2080
2086
2092
2096
2095
2093
2089
2086
2089
2089
2091
2090
2090
2087
2085
2083
2081
2079
2077
2075
2073
2072
2070
2069
2066
2068
2066
2065
2063
2059
2056
2055
2057
2058
2058
2056
2054
2056
2057
2064
2066
2065
2065
2063
2062
2064
2067
2070
2071
2073
2072
2070
2069
2068
2067
2065
2069
2071
2070
2069
2066
2064
2065
2070
2075
2077
2075
2070
2066
2063
2065
2067
2067
2069
2070
2073
2075
2077
2079
2081
2083
2085
2087
2088
2089
2091
2092
2093
2098
2103
2104
2101
2096
2094
2098
2109
2120
2128
2129
2124
2121
2118
2125
2128
2133
2137
2139
2143
2145
2148
2150
2153
2156
2159
2163
2166
2170
2175
2178
2182
2183
2182
2182
2184
2191
2202
2217
2232
2245
2258
2268
2277
2281
2277
2267
2252
2239
2229
2224
2221
2220
2218
2215
2214
2212
2210
2208
2207
2205
2202
2201
2198
2197
2194
2189
2189
2187
2187
2187
2187
2185
2183
2179
2173
2172
2167
2165
2162
2158
2157
2154
2151
2149
2146
2143
2141
2139
2138
2137
2136
2134
2134
2134
2133
2130
2128
2126
2126
2128
2130
2130
2127
2121
2116
2114
2111
2111
2110
2107
2105
2102
2100
2099
2099
2099
2099
2098
2098
2098
2097
2097
2096
2095
2095
2093
2092
2091
2092
2094
2097
2103
2105
2107
2107
2108
2110
2111
2116
2117
2119
2122
2125
2128
2131
2134
2136
2138
2140
2141
2142
2142
2143
2144
2145
2147
2149
2149
2147
2143
2143
2146
2150
2156
2158
2157
2156
2155
2156
2161
2165
2170
2173
2177
2182
2188
2193
2197
2201
2203
2204
2206
2208
2211
2213
2214
2218
2218
2220
2217
2215
2212
2212
2215
2220
2226
2229
2231
2233
2238
2250
2259
2268
2269
2261
2245
2226
2207
2194
2186
2182
2179
2175
2171
2168
2165
2162
2161
2163
2161
2156
2149
2142
2140
2144
2150
2154
2153
2147
2141
2136
2135
2136
2138
2138
2138
2138
2138
2138
2138
2138
2138
2138
2138
2138
2138
2138
2139
2141
2143
2144
2143
2139
2134
2130
2126
2124
2122
2121
2121
2124
2128
2130
2131
2125
2119
2110
2103
2097
2090
2085
2079
2073
2066
2058
2050
2042
2034
2026
2016
2012
2004
1996
1989
1985
1983
1982
1981
1978
1974
1970
1969
1971
1969
1969
1963
1958
1954
1954
1953
1953
1951
1949
1947
1944
1941
1938
1937
1936
1935
1934
1934
1933
1933
1931
1930
1930
1931
1934
1936
1939
1939
1940
1941
1940
1943
1942
1943
1942
1942
1944
1945
1945
1946
1947
1949
1952
1956
1960
1965
1970
1973
1976
1978
1978
1977
1974
1971
1970
1971
1973
1975
1975
1972
1969
1966
1963
1964
1963
1966
1968
1973
1980
1990
2003
2016
2025
2026
2018
2004
1987
1974
1965
1961
1959
1956
1954
1949
1943
1938
1935
1934
1935
1935
1933
1931
1928
1926
1926
1925
1926
1925
1925
1926
1927
1929
1930
1931
1932
1933
1933
1933
1934
1935
1936
1940
1943
1944
1943
1942
1942
1946
1952
1957
1960
1959
1958
1957
1956
1960
1961
1962
1963
1964
1963
1963
1962
1961
1961
1960
1959
1957
1956
1954
1953
1950
1952
1950
1949
1948
1943
1939
1937
1938
1940
1943
1943
1939
1934
1925
1920
1915
1911
1910
1909
1907
1906
1904
1902
1900
1899
1900
1902
1906
1910
1915
1917
1918
1919
1918
1919
1920
1926
1934
1943
1952
1957
1960
1961
1962
1965
1968
1974
1976
1980
1984
1989
1994
1999
2004
2007
2010
2012
2015
2017
2018
2020
2021
2022
2027
2027
2026
2019
2011
2008
2013
2024
2035
2040
2035
2026
2019
2012
2016
2016
2018
2018
2019
2021
2023
2023
2024
2024
2026
2026
2026
2026
2025
2026
2027
2032
2036
2042
2048
2055
2067
2080
2093
2098
2092
2077
2059
2045
2034
2032
2031
2030
2028
2025
2023
2021
2019
2017
2016
2014
2013
2012
2010
2009
2007
2003
2003
2001
2001
2000
1998
1998
1998
2002
2004
2005
2003
2000
1999
1997
2000
2001
2001
2000
1998
1998
1998
2000
2000
2001
2002
2003
2004
2005
2005
2005
2005
2005
2007
2007
2006
2003
2000
1999
2000
2004
2006
2005
2002
1999
1997
1996
1997
1999
1999
2000
2002
2003
2005
2006
2007
2006
2004
2002
2002
2002
2004
2007
2010
2013
2014
2014
2017
2026
2042
2063
2084
2097
2097
2087
2071
2058
2052
2052
2057
2062
2066
2069
2072
2075
2078
2081
2084
2085
2084
2081
2077
2072
2068
2065
2065
2064
2063
2060
2058
2058
2062
2069
2078
2081
2079
2076
2072
2067
2065
2056
2048
2039
2036
2038
2045
2051
2056
2059
2056
2053
2050
2048
2047
2048
2048
2051
2050
2051
2049
2048
2047
2048
2052
2058
2063
2063
2058
2051
2043
2042
2046
2056
2068
2078
2085
2089
2092
2099
2109
2119
2126
2125
2117
2103
2089
2076
2072
2071
2068
2066
2060
2057
2057
2061
2066
2068
2067
2065
2062
2060
2063
2064
2064
2064
2064
2064
2064
2064
2064
2063
2062
2062
2061
2061
2059
2058
2058
2057
2059
2059
2060
2057
2053
2051
2052
2058
2064
2068
2067
2063
2059
2054
2057
2057
2058
2060
2060
2060
2060
2060
2060
2058
2058
2056
2055
2054
2052
2050
2048
2049
2047
2044
2040
2036
2036
2039
2046
2049
2050
2048
2042
2038
2035
2038
2038
2039
2039
2040
2041
2041
2041
2041
2040
2040
2039
2039
2039
2039
2041
2040
2046
2046
2047
2048
2048
2048
2051
2055
2062
2063
2061
2054
2048
2042
2043
2044
2045
2047
2046
2044
2042
2038
2036
2032
2027
2022
2017
2013
2009
2007
2003
2000
1998
1992
1986
1979
1973
1968
1965
1965
1962
1959
1955
1952
1949
1947
1946
1943
1939
1934
1930
1927
1923
1921
1919
1917
1915
1913
1911
1909
1907
1904
1902
1901
1901
1903
1906
1911
1918
1929
1941
1949
1950
1942
1926
1909
1892
1883
1876
1873
1871
1868
1867
1865
1863
1862
1861
1861
1861
1861
1861
1861
1861
1862
1864
1865
1865
1863
1861
1861
1863
1867
1871
1872
1870
1869
1868
1867
1872
1877
1881
1887
1891
1892
1888
1882
1879
1883
1895
1914
1932
1946
1955
1960
1962
1972
1980
1988
1990
1989
1988
1989
1994
2000
2004
2006
2004
2003
2000
2003
2005
2010
2016
2023
2029
2033
2032
2030
2028
2027
2028
2030
2033
2035
2037
2037
2038
2040
2039
2038
2035
2032
2031
2033
2038
2043
2048
2048
2048
2047
2046
2046
2045
2046
2048
2048
2049
2050
2050
2050
2051
2052
2054
2055
2056
2057
2057
2058
2060
2063
2061
2054
2048
2045
2048
2058
2068
2072
2067
2059
2052
2048
2049
2053
2053
2054
2054
2055
2055
2055
2055
2055
2055
2055
2054
2053
2053
2053
2052
2054
2055
2054
2053
2049
2048
2049
2053
2059
2065
2071
2077
2086
2097
2111
2121
2123
2116
2103
2087
2074
2066
2063
2063
2063
2062
2061
2059
2058
2056
2054
2054
2052
2053
2050
2049
2048
2048
2050
2052
2054
2055
2054
2052
2049
2050
2049
2051
2052
2053
2052
2050
2049
2048
2048
2048
2048
2049
2048
2048
2048
2048
2047
2048
2048
2047
2045
2044
2044
2046
2048
2049
2048
2045
2040
2036
2033
2032
2029
2028
2024
2021
2017
2014
2011
2008
2006
2005
2004
2003
2000
1995
1989
1983
1979
1976
1978
1979
1981
1984
1989
1997
2007
2016
2022
2028
2031
2035
2041
2044
2047
2046
2043
2041
2039
2038
2038
2037
2037
2037
2036
2036
2034
2034
2033
2036
2038
2038
2038
2035
2033
2034
2039
2045
2048
2048
2046
2043
2038
2039
2039
2038
2040
2041
2041
2042
2042
2041
2040
2038
2035
2031
2029
2028
2030
2032
2039
2041
2043
2045
2044
2045
2048
2052
2058
2061
2063
2062
2061
2058
2059
2059
2058
2059
2057
2054
2054
2051
2052
2053
2056
2060
2067
2077
2089
2102
2114
2119
2118
2105
2090
2073
2061
2057
2058
2062
2064
2063
2060
2056
2054
2053
2054
2054
2056
2057
2057
2057
2056
2054
2052
2050
2050
2050
2050
2049
2050
2051
2052
2057
2057
2055
2051
2048
2047
2049
2056
2061
2062
2059
2054
2051
2049
2054
2056
2059
2061
2061
2062
2061
2062
2062
2062
2063
2062
2062
2061
2060
2060
2058
2059
2057
2055
2052
2048
2048
2048
2050
2053
2053
2052
2048
2046
2042
2044
2044
2044
2045
2045
2045
2045
2045
2045
2046
2046
2047
2047
2048
2048
2049
2047
2050
2048
2048
2047
2043
2041
2042
2047
2051
2053
2051
2048
2044
2040
2040
2039
2038
2039
2039
2040
2040
2038
2037
2035
2034
2035
2034
2033
2033
2032
2031
2030
2032
2031
2030
2028
2026
2027
2029
2032
2033
2032
2029
2026
2024
2023
2025
2026
2027
2027
2027
2025
2023
2019
2013
2005
1995
1983
1972
1964
1962
1967
1978
1995
2011
2024
2031
2033
2030
2027
2025
2024
2023
2021
2018
2015
2015
2018
2022
2029
2038
2048
2060
2074
2084
2089
2086
2075
2060
2046
2035
2028
2026
2025
2026
2026
2026
2023
2021
2019
2021
2025
2031
2033
2032
2030
2026
2023
2025
2025
2026
2026
2027
2028
2029
2031
2032
2034
2035
2035
2035
2035
2036
2037
2037
2041
2040
2041
2039
2037
2038
2040
2047
2052
2055
2056
2053
2052
2049
2050
2051
2052
2053
2052
2051
2051
2049
2048
2048
2047
2046
2045
2045
2044
2043
2042
2042
2042
2040
2038
2034
2032
2034
2039
2045
2046
2045
2040
2036
2034
2034
2035
2035
2036
2036
2037
2037
2037
2037
2037
2038
2038
2038
2039
2039
2039
2038
2039
2041
2042
2041
2034
2028
2026
2031
2041
2048
2052
2048
2039
2031
2028
2032
2033
2036
2037
2037
2038
2039
2040
2040
2040
2040
2039
2038
2037
2036
2034
2035
2036
2035
2033
2030
2028
2029
2032
2037
2041
2040
2038
2035
2033
2033
2034
2035
2036
2035
2035
2035
2035
2035
2035
2035
2036
2037
2037
2038
2039
2039
2039
2040
2038
2036
2035
2033
2035
2034
2034
2034
2034
2037
2039
2043
2041
2036
2030
2027
2029
2035
2045
2050
2057
2064
2074
2085
2091
2095
2088
2076
2062
2050
2043
2041
2039
2038
2035
2033
2032
2034
2037
2038
2037
2034
2032
2030
2029
2031
2031
2032
2032
2032
2032
2033
2033
2033
2034
2034
2035
2036
2036
2037
2038
2038
2040
2037
2034
2032
2033
2038
2046
2052
2054
2054
2051
2049
2050
2050
2053
2053
2053
2053
2053
2054
2054
2054
2053
2053
2051
2049
2048
2046
2044
2043
2042
2044
2043
2042
2038
2033
2030
2031
2035
2042
2045
2044
2040
2035
2031
2033
2034
2037
2036
2036
2036
2036
2036
2036
2037
2036
2037
2037
2038
2038
2038
2035
2038
2037
2039
2037
2034
2031
2032
2036
2042
2045
2045
2042
2038
2034
2035
2035
2036
2036
2035
2035
2036
2035
2036
2035
2035
2035
2035
2035
2035
2035
2035
2035
2036
2036
2035
2031
2027
2027
2032
2039
2044
2045
2043
2038
2035
2034
2036
2038
2039
2039
2039
2039
2039
2038
2037
2037
2037
2037
2036
2036
2036
2037
2038
2041
2042
2040
2034
2030
2028
2033
2043
2053
2062
2067
2073
2080
2087
2093
2092
2084
2072
2059
2050
2046
2044
2043
2043
2042
2041
2040
2039
2038
2038
2037
2039
2041
2039
2034
2029
2027
2031
2040
2050
2055
2052
2045
2038
2033
2035
2039
2040
2040
2041
2041
2042
2043
2043
2044
2045
2046
2047
2048
2049
2050
2048
2052
2051
2055
2053
2049
2047
2047
2050
2058
2065
2067
2062
2056
2048
2050
2048
2049
2048
2045
2043
2044
2045
2046
2045
2043
2041
2040
2039
2041
2040
2039
2040
2041
2042
2040
2037
2035
2036
2040
2045
2048
2048
2045
2041
2038
2037
2038
2041
2041
2041
2042
2041
2041
2041
2041
2042
2041
2042
2041
2041
2041
2040
2041
2042
2042
2040
2036
2034
2035
2039
2045
2048
2048
2046
2042
2037
2038
2039
2039
2040
2039
2039
2040
2041
2041
2040
2040
2039
2039
2040
2039
2039
2037
2039
2042
2043
2043
2040
2035
2033
2035
2041
2048
2051
2049
2046
2041
2037
2040
2041
2044
2044
2044
2044
2043
2043
2042
2043
2042
2042
2042
2041
2040
2040
2039
2043
2042
2042
2038
2033
2032
2037
2047
2058
2067
2072
2076
2082
2088
2094
2094
2085
2072
2058
2048
2045
2044
2044
2043
2041
2040
2038
2039
2038
2039
2039
2039
2042
2042
2040
2033
2027
2026
2033
2045
2054
2057
2052
2044
2036
2033
2036
2039
2041
2042
2043
2044
2044
2044
2044
2046
2049
2052
2053
2052
2049
2048
2047
2050
2052
2053
2050
2048
2049
2052
2058
2061
2062
2058
2053
2050
2048
2050
2050
2048
2048
2046
2045
2044
2043
2042
2041
2041
2041
2041
2041
2040
2040
2040
2040
2041
2040
2039
2038
2038
2039
2042
2044
2045
2044
2042
2040
2039
2040
2042
2042
2042
2042
2042
2042
2041
2041
2041
2041
2041
2042
2042
2042
2042
2041
2041
2040
2041
2040
2039
2039
2040
2041
2044
2045
2045
2043
2041
2039
2040
2040
2041
2040
2040
2041
2042
2043
2043
2042
2040
2040
2040
2040
2041
2041
2040
2040
2041
2042
2042
2041
2041
2042
2044
2047
2048
2048
2045
2043
2041
2040
2040
2041
2041
2041
2041
2040
2040
2040
2040
2039
2039
2040
2042
2046
2051
2057
2066
2077
2086
2092
2093
2088
2078
2068
2060
2052
2048
2044
2042
2040
2039
2041
2039
2039
2038
2038
2038
2037
2037
2037
2037
2038
2038
2037
2037
2036
2035
2035
2038
2039
2040
2039
2036
2034
2035
2040
2046
2048
2048
2047
2044
2041
2043
2043
2046
2047
2048
2049
2050
2051
2051
2052
2052
2053
2053
2053
2054
2054
2051
2054
2052
2051
2048
2044
2042
2042
2044
2048
2049
2048
2043
2039
2036
2037
2038
2039
2040
2040
2036
2033
2030
2031
2035
2042
2046
2047
2044
2039
2035
2035
2036
2041
2039
2036
2032
2029
2032
2039
2048
2051
2049
2045
2039
2036
2036
2040
2041
2040
2039
2039
2039
2039
2039
2039
2039
2039
2040
2039
2038
2038
2037
2039
2043
2042
2039
2034
2031
2031
2036
2044
2048
2048
2044
2039
2034
2033
2037
2037
2038
2039
2040
2041
2042
2042
2042
2042
2042
2041
2041
2040
2040
2040
2041
2042
2042
2041
2038
2036
2036
2038
2042
2046
2048
2050
2052
2057
2065
2077
2088
2095
2095
2088
2075
2061
2050
2045
2043
2042
2042
2041
2040
2040
2040
2039
2040
2038
2039
2036
2035
2035
2038
2042
2045
2046
2044
2041
2039
2036
2040
2039
2041
2040
2039
2040
2041
2043
2044
2044
2044
2043
2044
2044
2046
2046
2048
2048
2049
2050
2050
2049
2049
2050
2053
2056
2058
2057
2055
2053
2051
2050
2051
2051
2049
2048
2047
2045
2043
2042
2042
2041
2041
2040
2040
2039
2038
2038
2038
2039
2037
2037
2036
2035
2036
2038
2041
2042
2041
2039
2037
2037
2036
2038
2037
2037
2037
2037
2038
2038
2038
2038
2038
2037
2036
2036
2035
2035
2035
2035
2036
2038
2037
2036
2032
2030
2032
2036
2041
2044
2042
2040
2036
2033
2034
2035
2036
2036
2036
2036
2037
2038
2038
2038
2037
2037
2036
2037
2038
2038
2039
2039
2039
2039
2039
2038
2037
2038
2040
2044
2047
2047
2046
2043
2041
2040
2039
2040
2040
2040
2040
2040
2041
2041
2041
2040
2039
2038
2038
2038
2040
2045
2049
2056
2062
2070
2079
2085
2091
2091
2084
2074
2061
2051
2045
2042
2041
2040
2040
2039
2039
2039
2039
2038
2037
2036
2035
2035
2034
2033
2033
2031
2031
2030
2031
2033
2035
2031
2027
2026
2028
2037
2045
2049
2048
2044
2039
2035
2037
2039
2043
2044
2045
2047
2047
2048
2048
2050
2052
2053
2054
2054
2053
2054
2053
2056
2056
2055
2052
2049
2049
2049
2053
2056
2056
2054
2049
2047
2044
2045
2046
2046
2046
2046
2046
2046
2046
2045
2046
2046
2046
2046
2046
2046
2046
2045
2048
2048
2048
2046
2043
2043
2045
2048
2053
2054
2053
2050
2048
2046
2048
2046
2048
2048
2048
2047
2047
2047
2048
2050
2051
2050
2048
2048
2047
2047
2048
2048
2048
2048
2047
2044
2043
2045
2048
2052
2053
2052
2049
2046
2044
2044
2044
2045
2045
2045
2045
2045
2045
2046
2046
2046
2047
2048
2049
2049
2050
2049
2049
2049
2048
2047
2045
2043
2044
2047
2049
2051
2051
2049
2047
2043
2044
2043
2043
2045
2047
2050
2056
2062
2070
2080
2090
2098
2099
2094
2082
2069
2056
2052
2051
2051
2050
2046
2041
2039
2042
2047
2051
2053
2050
2048
2044
2041
2043
2043
2045
2045
2045
2045
2046
2046
2047
2047
2048
2048
2048
2048
2048
2049
2049
2051
2050
2052
2050
2048
2049
2050
2055
2059
2061
2061
2059
2057
2056
2057
2057
2059
2059
2059
2059
2058
2057
2057
2056
2055
2053
2051
2050
2049
2049
2048
2048
2048
2046
2044
2041
2039
2039
2041
2045
2047
2046
2044
2041
2039
2038
2038
2039
2039
2040
2041
2041
2041
2041
2041
2041
2041
2041
2041
2041
2041
2041
2041
2043
2042
2040
2037
2035
2035
2038
2042
2045
2047
2045
2042
2040
2038
2040
2038
2038
2038
2038
2039
2039
2039
2038
2038
2038
2038
2038
2038
2038
2039
2038
2040
2039
2039
2037
2034
2034
2035
2039
2042
2043
2042
2039
2037
2035
2038
2039
2040
2040
2039
2039
2038
2037
2037
2036
2036
2036
2036
2036
2036
2036
2034
2036
2036
2036
2037
2038
2044
2052
2065
2080
2090
2095
2093
2085
2073
2061
2052
2045
2041
2041
2039
2039
2036
2035
2034
2034
2035
2035
2036
2035
2034
2034
2034
2036
2035
2034
2033
2033
2033
2032
2033
2033
2037
2042
2047
2048
2046
2041
2037
2035
2037
2039
2042
2042
2043
2044
2045
2047
2048
2048
2049
2050
2050
2049
2052
2051
2051
2048
2048
2048
2051
2055
2057
2057
2054
2049
2046
2042
2044
2041
2041
2040
2039
2039
2038
2038
2037
2036
2037
2036
2036
2035
2035
2035
2035
2037
2037
2037
2035
2034
2034
2036
2039
2042
2043
2041
2038
2036
2034
2035
2036
2037
2036
2037
2037
2037
2037
2037
2037
2037
2037
2036
2037
2037
2037
2036
2036
2035
2037
2035
2034
2034
2032
2035
2037
2039
2040
2038
2036
2034
2033
2033
2035
2036
2036
2038
2038
2038
2038
2038
2038
2037
2037
2037
2036
2037
2037
2038
2037
2036
2034
2032
2030
2032
2036
2040
2042
2042
2043
2044
2048
2056
2066
2077
2086
2091
2088
2079
2067
2054
2047
2042
2041
2041
2040
2039
2037
2035
2035
2038
2037
2036
2033
2030
2030
2033
2040
2044
2047
2044
2040
2035
2033
2036
2035
2037
2037
2037
2038
2039
2039
2040
2040
2041
2042
2043
2044
2045
2045
2046
2048
2048
2048
2047
2045
2046
2048
2055
2059
2059
2057
2052
2049
2048
2049
2049
2048
2048
2047
2046
2044
2043
2042
2041
2040
2039
2039
2038
2038
2038
2036
2039
2037
2036
2034
2031
2032
2035
2040
2045
2046
2044
2040
2038
2035
2037
2037
2036
2038
2038
2038
2038
2037
2037
2036
2037
2038
2039
2040
2038
2038
2037
2037
2039
2039
2037
2034
2032
2033
2036
2040
2042
2042
2039
2036
2035
2035
2036
2037
2037
2036
2036
2036
2035
2035
2035
2036
2036
2036
2036
2036
2036
2036
2036
2040
2039
2039
2036
2034
2035
2037
2043
2047
2048
2044
2039
2036
2033
2036
2036
2036
2036
2036
2036
2036
2036
2036
2039
2042
2046
2052
2058
2068
2078
2087
2093
2091
2080
2066
2052
2044
2042
2044
2048
2047
2044
2040
2036
2034
2035
2036
2036
2036
2036
2037
2037
2037
2037
2036
2037
2037
2038
2038
2038
2038
2036
2039
2038
2039
2038
2036
2037
2038
2043
2047
2048
2048
2047
2046
2044
2047
2047
2048
2049
2049
2050
2050
2051
2051
2051
2051
2051
2050
2050
2050
2049
2048
2048
2048
2045
2043
2040
2037
2037
2039
2042
2043
2042
2040
2037
2035
2035
2036
2036
2036
2036
2036
2036
2037
2037
2037
2036
2037
2038
2038
2038
2037
2037
2037
2040
2040
2039
2037
2035
2035
2036
2041
2043
2045
2043
2041
2039
2036
2038
2038
2039
2039
2039
2040
2039
2039
2039
2039
2040
2039
2040
2040
2039
2040
2038
2040
2040
2039
2038
2036
2036
2037
2041
2045
2046
2045
2041
2038
2036
2038
2040
2040
2040
2040
2040
2041
2041
2042
2043
2043
2043
2043
2043
2042
2042
2040
2042
2041
2041
2039
2036
2036
2039
2044
2048
2048
2046
2042
2041
2042
2047
2054
2060
2069
2079
2088
2095
2094
2086
2073
2060
2050
2045
2045
2046
2046
2045
2043
2042
2041
2039
2036
2035
2036
2041
2047
2048
2047
2043
2039
2038
2039
2040
2041
2041
2042
2042
2042
2042
2042
2043
2043
2044
2045
2046
2046
2047
2045
2047
2048
2048
2048
2047
2047
2048
2052
2057
2061
2061
2058
2055
2052
2052
2054
2053
2054
2053
2052
2050
2049
2048
2048
2047
2046
2045
2044
2043
2041
2040
2040
2043
2043
2042
2038
2034
2032
2036
2043
2049
2051
2048
2044
2039
2035
2038
2038
2039
2039
2040
2040
2040
2040
2039
2040
2040
2040
2040
2040
2041
2041
2041
2041
2041
2041
2040
2038
2036
2038
2041
2044
2046
2045
2043
2040
2039
2039
2039
2040
2040
2040
2040
2040
2040
2040
2041
2040
2040
2040
2040
2039
2039
2040
2040
2042
2041
2039
2038
2035
2037
2041
2045
2048
2048
2047
2044
2042
2040
2043
2043
2044
2041
2037
2033
2034
2039
2046
2051
2052
2048
2041
2036
2034
2036
2040
2046
2052
2060
2064
2069
2076
2084
2094
2098
2095
2081
2065
2050
2041
2041
2040
2042
2040
2038
2039
2037
2037
2037
2037
2037
2037
2037
2037
2037
2037
2036
2038
2039
2037
2036
2035
2036
2038
2042
2045
2045
2044
2041
2040
2038
2041
2043
2043
2044
2045
2046
2047
2048
2048
2048
2049
2050
2051
2052
2053
2053
2052
2055
2053
2053
2051
2048
2048
2049
2051
2054
2054
2051
2047
2044
2040
2040
2039
2038
2039
2037
2037
2037
2036
2036
2037
2037
2036
2035
2035
2035
2037
2038
2038
2038
2036
2035
2034
2032
2034
2036
2039
2040
2040
2038
2036
2034
2034
2035
2036
2036
2036
2036
2035
2035
2035
2035
2035
2035
2035
2035
2035
2035
2034
2034
2034
2034
2034
2033
2032
2032
2033
2035
2037
2038
2036
2034
2031
2030
2031
2032
2033
2033
2033
2034
2035
2036
2037
2037
2037
2036
2035
2034
2033
2032
2032
2035
2036
2037
2035
2033
2030
2031
2034
2039
2042
2043
2043
2044
2046
2054
2064
2076
2085
2090
2087
2077
2064
2051
2044
2039
2038
2038
2038
2037
2036
2035
2034
2033
2033
2032
2030
2030
2031
2034
2038
2039
2039
2036
2034
2032
2033
2033
2034
2035
2035
2036
2036
2036
2037
2037
2038
2038
2039
2040
2041
2042
2043
2045
2046
2045
2044
2043
2042
2046
2049
2054
2056
2055
2053
2049
2048
2048
2048
2048
2048
2047
2045
2044
2043
2042
2041
2040
2039
2039
2037
2036
2035
2035
2036
2039
2038
2036
2032
2029
2031
2035
2041
2044
2044
2040
2037
2034
2033
2036
2035
2036
2037
2036
2037
2037
2036
2036
2036
2037
2037
2037
2036
2036
2035
2035
2037
2037
2036
2034
2032
2032
2035
2040
2043
2043
2040
2037
2033
2032
2034
2035
2036
2036
2036
2036
2036
2035
2035
2035
2035
2035
2036
2036
2036
2036
2035
2035
2038
2037
2034
2030
2028
2030
2037
2045
2049
2049
2045
2041
2037
2036
2038
2038
2038
2037
2037
2037
2037
2037
2037
2037
2039
2038
2038
2036
2035
2035
2037
2043
2047
2049
2050
2055
2065
2080
2096
2102
2098
2084
2067
2053
2045
2043
2042
2042
2041
2039
2038
2037
2037
2037
2037
2038
2038
2038
2037
2037
2037
2035
2038
2037
2037
2035
2035
2035
2038
2043
2045
2048
2046
2043
2041
2038
2042
2042
2043
2044
2044
2046
2046
2048
2048
2048
2049
2050
2051
2050
2051
2051
2051
2054
2054
2054
2053
2051
2050
2052
2053
2055
2054
2050
2048
2045
2042
2042
2042
2041
2041
2041
2041
2040
2040
2039
2038
2037
2037
2037
2038
2039
2040
2039
2040
2039
2039
2037
2035
2035
2035
2039
2044
2046
2046
2043
2040
2037
2037
2037
2037
2039
2038
2039
2039
2038
2038
2037
2037
2038
2037
2038
2038
2038
2038
2039
2040
2038
2037
2035
2034
2035
2038
2042
2044
2043
2041
2038
2036
2036
2037
2038
2038
2038
2038
2038
2038
2038
2038
2038
2039
2039
2039
2039
2038
2038
2038
2041
2041
2040
2038
2035
2035
2038
2044
2048
2050
2049
2046
2043
2039
2042
2041
2042
2041
2040
2040
2039
2039
2039
2039
2040
2040
2040
2040
2039
2039
2037
2039
2041
2043
2046
2048
2055
2065
2080
2094
2101
2099
2087
2072
2057
2049
2045
2042
2039
2039
2039
2041
2042
2043
2043
2042
2041
2041
2040
2039
2039
2038
2040
2041
2041
2039
2036
2034
2036
2041
2047
2050
2050
2047
2043
2041
2043
2043
2044
2045
2046
2046
2048
2048
2048
2049
2050
2051
2052
2053
2054
2053
2053
2053
2053
2055
2054
2052
2050
2051
2055
2060
2064
2062
2058
2050
2045
2043
2042
2043
2044
2043
2043
2042
2041
2040
2040
2040
2040
2041
2040
2040
2038
2040
2043
2041
2038
2034
2032
2034
2039
2047
2050
2049
2045
2040
2035
2037
2039
2040
2039
2039
2039
2039
2039
2040
2040
2040
2040
2040
2039
2040
2039
2038
2038
2037
2041
2042
2042
2038
2033
2031
2034
2041
2048
2051
2048
2044
2038
2035
2036
2037
2038
2037
2037
2038
2038
2039
2038
2038
2038
2038
2039
2039
2039
2039
2037
2041
2040
2040
2037
2033
2031
2034
2040
2047
2050
2049
2046
2042
2039
2040
2040
2039
2040
2039
2039
2039
2039
2039
2038
2038
2038
2038
2039
2039
2039
2038
2037
2038
2041
2043
2045
2048
2056
2069
2085
2098
2103
2097
2083
2068
2055
2048
2044
2042
2041
2040
2040
2040
2039
2038
2038
2037
2036
2036
2035
2036
2036
2037
2041
2041
2039
2035
2030
2028
2033
2041
2048
2051
2048
2045
2040
2036
2040
2041
2043
2044
2045
2046
2046
2047
2047
2048
2048
2049
2050
2051
2051
2053
2051
2055
2055
2056
2054
2051
2050
2051
2056
2062
2063
2060
2053
2048
2043
2044
2044
2045
2044
2043
2041
2040
2039
2039
2039
2040
2040
2041
2040
2040
2039
2038
2041
2041
2041
2039
2034
2032
2034
2041
2048
2053
2052
2047
2041
2037
2037
2039
2039
2041
2040
2040
2041
2041
2042
2041
2040
2040
2040
2040
2039
2038
2040
2040
2040
2040
2038
2036
2035
2037
2042
2047
2049
2048
2044
2040
2038
2037
2037
2038
2039
2039
2038
2039
2039
2038
2039
2039
2039
2040
2039
2039
2039
2039
2039
2043
2043
2043
2039
2036
2036
2039
2045
2049
2050
2048
2042
2039
2035
2038
2039
2040
2039
2039
2038
2038
2037
2038
2040
2043
2047
2051
2057
2066
2077
2087
2095
2096
2088
2072
2056
2045
2042
2046
2052
2055
2052
2046
2038
2032
2031
2033
2035
2035
2037
2037
2038
2037
2037
2038
2038
2039
2039
2039
2039
2039
2039
2040
2040
2041
2040
2039
2039
2040
2043
2047
2048
2050
2048
2048
2047
2048
2048
2049
2051
2052
2053
2053
2053
2053
2053
2054
2054
2054
2055
2055
2054
2054
2054
2052
2050
2048
2045
2043
2044
2046
2048
2049
2048
2045
2041
2038
2039
2039
2040
2040
2040
2040
2040
2040
2040
2040
2040
2040
2040
2040
2041
2040
2040
2040
2042
2043
2043
2039
2034
2032
2036
2044
2051
2056
2053
2048
2040
2036
2037
2038
2040
2040
2039
2040
2040
2040
2040
2040
2041
2041
2041
2041
2041
2040
2040
2041
2040
2040
2038
2037
2038
2041
2046
2048
2048
2045
2041
2038
2037
2039
2040
2041
2041
2041
2041
2041
2040
2040
2041
2041
2041
2041
2042
2042
2042
2040
2044
2042
2042
2040
2037
2037
2040
2047
2051
2053
2051
2048
2044
2041
2043
2042
2041
2042
2041
2042
2042
2042
2042
2042
2042
2042
2041
2041
2040
2042
2046
2049
2055
2060
2067
2076
2086
2094
2098
2096
2085
2071
2058
2048
2046
2044
2045
2045
2043
2042
2041
2041
2041
2041
2041
2041
2042
2041
2042
2041
2042
2042
2042
2042
2041
2042
2040
2041
2042
2044
2048
2049
2050
2048
2047
2046
2045
2047
2048
2048
2049
2050
2051
2052
2052
2053
2054
2055
2055
2056
2056
2056
2056
2056
2058
2059
2058
2057
2054
2052
2054
2056
2059
2058
2054
2050
2047
2045
2045
2045
2045
2045
2044
2044
2044
2043
2043
2043
2043
2044
2044
2044
2044
2044
2042
2044
2044
2044
2043
2041
2041
2041
2045
2048
2049
2049
2046
2044
2041
2042
2043
2043
2044
2043
2043
2043
2043
2043
2042
2042
2042
2042
2043
2043
2043
2043
2043
2044
2043
2042
2040
2039
2039
2041
2045
2047
2047
2045
2043
2042
2042
2043
2043
2043
2043
2043
2043
2043
2044
2043
2043
2043
2044
2043
2043
2042
2042
2043
2045
2045
2045
2043
2041
2041
2042
2046
2049
2050
2049
2048
2045
2045
2048
2048
2047
2043
2039
2039
2043
2048
2053
2053
2050
2045
2041
2041
2042
2045
2042
2044
2043
2043
2043
2046
2050
2059
2072
2086
2096
2101
2099
2093
2081
2072
2061
2053
2048
2048
2047
2047
2046
2044
2044
2043
2043
2042
2042
2042
2042
2041
2043
2043
2044
2042
2040
2039
2041
2044
2047
2049
2048
2047
2044
2042
2045
2045
2048
2048
2048
2048
2049
2049
2049
2050
2051
2052
2054
2055
2056
2056
2056
2057
2061
2060
2058
2054
2050
2051
2056
2063
2069
2069
2065
2059
2052
2048
2049
2048
2048
2048
2047
2046
2046
2045
2045
2044
2044
2044
2043
2043
2043
2042
2043
2046
2045
2043
2039
2036
2037
2042
2048
2053
2054
2050
2046
2042
2040
2043
2043
2044
2044
2044
2045
2045
2044
2044
2044
2044
2044
2044
2043
2043
2042
2043
2045
2046
2044
2043
2040
2040
2043
2047
2050
2050
2048
2044
2041
2040
2040
2042
2042
2042
2042
2042
2042
2042
2042
2042
2042
2042
2043
2044
2045
2045
2045
2047
2046
2047
2045
2042
2040
2041
2044
2048
2049
2048
2045
2043
2041
2042
2042
2043
2043
2042
2041
2041
2041
2044
2047
2052
2058
2065
2075
2084
2092
2096
2094
2087
2073
2061
2050
2045
2045
2048
2050
2050
2048
2046
2043
2041
2040
2041
2041
2041
2041
2042
2042
2043
2043
2043
2043
2042
2043
2043
2042
2042
2042
2042
2046
2048
2048
2045
2042
2040
2043
2049
2056
2059
2057
2053
2051
2048
2052
2054
2056
2056
2056
2056
2057
2057
2057
2057
2058
2057
2057
2057
2055
2055
2053
2053
2054
2050
2047
2042
2039
2041
2047
2053
2054
2050
2045
2040
2038
2039
2043
2042
2041
2041
2041
2041
2042
2041
2042
2042
2042
2043
2043
2043
2043
2041
2042
2044
2044
2042
2038
2035
2036
2041
2048
2052
2052
2048
2043
2039
2038
2042
2042
2043
2042
2042
2042
2042
2043
2042
2042
2042
2041
2042
2041
2042
2042
2042
2043
2044
2043
2041
2040
2038
2038
2041
2044
2047
2047
2045
2043
2040
2040
2041
2041
2042
2042
2042
2042
2043
2044
2045
2045
2046
2046
2046
2046
2044
2044
2043
2043
2043
2042
2041
2041
2042
2044
2046
2047
2045
2043
2040
2040
2042
2045
2049
2053
2059
2068
2079
2090
2097
2098
2091
2080
2066
2055
2048
2046
2045
2047
2047
2046
2043
2040
2037
2039
2042
2047
2049
2048
2046
2042
2039
2040
2040
2042
2042
2043
2043
2043
2044
2043
2044
2044
2045
2045
2046
2047
2048
2048
2049
2049
2051
2049
2048
2046
2048
2052
2059
2064
2065
2062
2057
2055
2055
2055
2058
2058
2058
2058
2058
2057
2056
2055
2054
2052
2051
2050
2048
2048
2047
2047
2047
2045
2043
2040
2039
2040
2044
2048
2048
2048
2045
2042
2040
2041
2042
2042
2042
2043
2043
2043
2043
2043
2043
2043
2043
2043
2043
2042
2042
2041
2044
2045
2044
2044
2040
2038
2039
2042
2047
2048
2048
2046
2043
2041
2041
2043
2042
2043
2042
2042
2042
2042
2042
2042
2042
2043
2043
2044
2043
2043
2042
2041
2043
2044
2042
2039
2035
2035
2039
2046
2051
2052
2049
2045
2040
2038
2039
2041
2042
2042
2043
2043
2044
2044
2045
2046
2046
2047
2046
2045
2045
2043
2043
2045
2044
2044
2041
2040
2039
2042
2046
2048
2049
2047
2044
2042
2042
2047
2051
2058
2066
2075
2085
2094
2097
2094
2084
2071
2060
2052
2048
2048
2047
2046
2044
2046
2044
2041
2038
2037
2038
2042
2047
2049
2048
2046
2043
2042
2040
2042
2042
2041
2041
2043
2043
2044
2044
2044
2044
2044
2045
2045
2047
2047
2048
2048
2049
2049
2051
2050
2050
2051
2053
2057
2060
2061
2060
2058
2057
2054
2057
2056
2058
2057
2057
2056
2056
2055
2054
2053
2051
2050
2049
2048
2046
2042
2039
2041
2046
2050
2052
2049
2046
2044
2044
2048
2049
2049
2046
2042
2041
2041
2043
2044
2043
2044
2043
2043
2043
2043
2044
2044
2044
2044
2044
2044
2044
2043
2044
2043
2044
2043
2042
2040
2041
2044
2047
2048
2048
2047
2044
2042
2042
2042
2043
2043
2044
2043
2044
2044
2043
2043
2043
2043
2043
2043
2043
2042
2043
2043
2045
2044
2043
2042
2041
2041
2043
2045
2047
2047
2045
2044
2043
2043
2045
2046
2046
2047
2047
2047
2046
2046
2045
2045
2044
2044
2043
2043
2043
2043
2043
2046
2046
2045
2041
2038
2038
2042
2049
2057
2065
2071
2076
2083
2089
2096
2096
2089
2078
2066
2057
2050
2048
2046
2046
2046
2044
2044
2043
2042
2043
2041
2042
2043
2042
2041
2039
2039
2040
2044
2048
2048
2047
2044
2043
2042
2044
2046
2046
2045
2046
2047
2048
2048
2048
2049
2050
2051
2052
2052
2054
2054
2054
2056
2060
2060
2058
2055
2052
2054
2060
2067
2071
2070
2064
2060
2057
2056
2059
2057
2056
2054
2052
2051
2049
2048
2048
2048
2047
2046
2046
2045
2045
2045
2046
2047
2046
2045
2042
2041
2042
2045
2048
2050
2049
2047
2044
2043
2045
2047
2047
2047
2046
2045
2045
2046
2046
2046
2046
2047
2047
2047
2046
2046
2046
2044
2047
2045
2046
2043
2042
2043
2045
2048
2050
2051
2049
2047
2046
2042
2046
2044
2045
2045
2045
2046
2045
2045
2045
2044
2044
2044
2045
2045
2045
2046
2046
2048
2049
2050
2048
2047
2046
2047
2048
2050
2051
2049
2048
2046
2045
2046
2046
2047
2046
2046
2046
2048
2049
2052
2058
2065
2074
2085
2095
2103
2103
2096
2086
2072
2062
2054
2049
2048
2048
2051
2052
2053
2052
2049
2048
2047
2047
2047
2048
2048
2048
2048
2048
2048
2048
2048
2048
2048
2048
2049
2049
2050
2050
2050
2052
2051
2052
2051
2051
2051
2054
2058
2061
2062
2061
2059
2059
2059
2061
2062
2063
2064
2064
2065
2066
2066
2066
2066
2065
2065
2064
2063
2062
2061
2061
2061
2059
2058
2055
2052
2051
2052
2055
2057
2058
2056
2053
2051
2048
2051
2050
2051
2051
2051
2052
2052
2052
2052
2052
2052
2052
2052
2052
2052
2053
2051
2054
2054
2053
2051
2049
2049
2050
2055
2059
2059
2057
2055
2053
2051
2054
2054
2054
2052
2052
2052
2052
2053
2053
2054
2054
2054
2054
2054
2054
2054
2054
2055
2055
2055
2054
2053
2052
2053
2056
2059
2061
2060
2058
2055
2053
2054
2054
2055
2056
2056
2055
2055
2055
2055
2056
2057
2058
2059
2060
2061
2060
2060
2058
2061
2061
2058
2054
2050
2049
2053
2060
2067
2069
2066
2060
2054
2051
2052
2055
2057
2060
2063
2067
2073
2080
2091
2102
2110
2114
2109
2099
2085
2074
2066
2064
2063
2062
2059
2055
2053
2055
2058
2062
2063
2062
2059
2056
2054
2056
2056
2057
2057
2057
2057
2058
2058
2059
2059
2060
2061
2061
2061
2060
2061
2060
2065
2066
2067
2064
2061
2059
2061
2066
2074
2078
2078
2075
2072
2068
2070
2071
2073
2073
2074
2074
2074
2073
2072
2072
2070
2069
2068
2067
2066
2065
2062
2062
2060
2060
2058
2056
2054
2054
2056
2059
2061
2061
2059
2056
2053
2053
2053
2054
2054
2054
2054
2054
2054
2054
2054
2054
2055
2054
2054
2054
2054
2055
2055
2056
2056
2054
2052
2050
2051
2053
2056
2058
2058
2056
2054
2053
2052
2053
2053
2053
2053
2054
2053
2053
2053
2053
2053
2053
2052
2052
2052
2052
2052
2052
2053
2054
2055
2051
2049
2048
2048
2053
2057
2060
2058
2055
2051
2048
2049
2050
2052
2052
2051
2052
2051
2052
2052
2052
2052
2052
2052
2052
2052
2052
2052
2054
2054
2052
2049
2047
2048
2051
2057
2061
2064
2062
2059
2053
2049
2049
2050
2054
2058
2061
2060
2056
2051
2048
2049
2050
2053
2053
2052
2051
2050
2049
2052
2055
2059
2064
2069
2075
2086
2098
2109
2114
2109
2096
2080
2065
2058
2054
2053
2055
2054
2052
2051
2050
2050
2050
2050
2050
2050
2050
2050
2050
2050
2050
2054
2052
2050
2047
2044
2046
2051
2057
2061
2061
2057
2053
2049
2049
2052
2053
2055
2057
2058
2058
2058
2058
2059
2061
2061
2062
2062
2062
2064
2064
2066
2067
2065
2065
2063
2063
2063
2065
2067
2068
2068
2064
2061
2057
2054
2055
2053
2054
2052
2052
2051
2050
2050
2049
2049
2049
2048
2048
2048
2048
2048
2048
2051
2052
2052
2049
2046
2043
2044
2049
2057
2061
2059
2054
2049
2046
2048
2048
2050
2049
2049
2049
2050
2049
2049
2049
2048
2049
2049
2049
2050
2049
2048
2049
2048
2048
2048
2046
2045
2046
2048
2051
2053
2053
2050
2048
2046
2047
2048
2048
2048
2048
2048
2048
2048
2048
2048
2048
2048
2048
2048
2048
2048
2048
2048
2048
2048
2048
2047
2046
2045
2047
2049
2051
2051
2050
2049
2049
2049
2050
2050
2050
2049
2049
2049
2048
2048
2048
2047
2047
2047
2047
2047
2048
2048
2047
2048
2046
2048
2048
2052
2059
2067
2079
2090
2100
2104
2102
2095
2082
2073
2062
2056
2053
2051
2051
2049
2048
2048
2048
2048
2047
2047
2047
2047
2047
2045
2048
2048
2048
2046
2043
2043
2044
2048
2052
2054
2053
2051
2049
2048
2050
2051
2051
2051
2052
2052
2053
2054
2055
2056
2057
2058
2059
2059
2060
2061
2061
2063
2064
2065
2063
2062
2059
2060
2064
2068
2072
2070
2066
2061
2057
2057
2057
2058
2056
2054
2053
2052
2051
2050
2050
2050
2050
2050
2051
2051
2050
2050
2050
2052
2052
2050
2048
2048
2048
2051
2055
2057
2055
2053
2051
2049
2049
2049
2048
2048
2049
2050
2052
2052
2050
2049
2048
2048
2049
2048
2048
2048
2048
2047
2049
2048
2048
2046
2042
2041
2042
2047
2051
2054
2053
2050
2048
2043
2046
2045
2044
2046
2045
2047
2046
2046
2046
2046
2045
2045
2044
2044
2044
2044
2044
2048
2048
2048
2047
2045
2045
2048
2050
2053
2053
2049
2047
2044
2043
2045
2045
2046
2045
2046
2046
2046
2044
2044
2044
2047
2050
2054
2061
2069
2078
2087
2098
2102
2098
2086
2069
2055
2048
2048
2052
2056
2056
2051
2047
2043
2041
2043
2042
2044
2044
2044
2044
2044
2044
2044
2044
2043
2044
2045
2045
2045
2042
2041
2041
2042
2043
2044
2045
2047
2050
2055
2058
2059
2055
2051
2049
2049
2051
2054
2054
2055
2056
2056
2057
2058
2059
2060
2061
2060
2060
2058
2056
2056
2055
2056
2056
2055
2051
2047
2045
2046
2051
2055
2057
2053
2048
2044
2040
2042
2043
2044
2043
2043
2043
2042
2043
2043
2044
2043
2043
2043
2043
2043
2044
2041
2044
2044
2043
2041
2037
2037
2038
2043
2048
2051
2050
2047
2043
2039
2042
2042
2043
2043
2042
2042
2042
2042
2042
2042
2042
2042
2042
2042
2042
2042
2041
2042
2041
2043
2042
2037
2034
2033
2037
2044
2051
2053
2050
2045
2039
2038
2039
2040
2042
2041
2041
2041
2041
2041
2042
2041
2041
2041
2042
2042
2042
2041
2041
2043
2044
2043
2039
2035
2034
2039
2048
2057
2060
2056
2047
2040
2038
2039
2041
2041
2040
2040
2041
2044
2045
2044
2042
2040
2040
2038
2042
2044
2048
2051
2058
2068
2076
2084
2089
2091
2089
2083
2075
2066
2056
2049
2045
2042
2043
2042
2042
2040
2041
2041
2041
2041
2041
2042
2042
2042
2042
2041
2040
2039
2038
2042
2044
2046
2044
2040
2038
2039
2043
2048
2052
2052
2049
2046
2043
2045
2046
2047
2048
2048
2049
2050
2052
2053
2053
2055
2056
2057
2053
2050
2049
2050
2058
2065
2069
2065
2057
2049
2045
2048
2053
2057
2055
2051
2048
2044
2043
2043
2043
2043
2043
2042
2042
2041
2041
2041
2042
2042
2043
2043
2043
2043
2043
2042
2044
2044
2043
2041
2038
2037
2040
2046
2050
2051
2049
2045
2041
2039
2039
2042
2042
2042
2043
2042
2042
2041
2042
2042
2042
2042
2041
2040
2039
2039
2040
2042
2043
2044
2040
2037
2034
2036
2042
2048
2051
2049
2046
2041
2036
2038
2038
2040
2041
2041
2041
2041
2041
2040
2041
2040
2041
2040
2040
2041
2041
2040
2043
2042
2042
2038
2035
2034
2037
2044
2051
2054
2053
2049
2046
2042
2045
2044
2044
2042
2041
2041
2041
2042
2042
2043
2043
2043
2043
2042
2042
2041
2040
2044
2048
2051
2055
2058
2065
2076
2091
2103
2106
2098
2083
2066
2051
2047
2044
2044
2045
2043
2042
2042
2042
2044
2045
2046
2043
2040
2037
2036
2037
2038
2038
2042
2041
2040
2037
2034
2034
2037
2043
2048
2050
2049
2047
2044
2042
2043
2046
2046
2046
2046
2046
2048
2050
2053
2055
2055
2054
2052
2053
2052
2055
2056
2058
2057
2058
2055
2054
2053
2055
2057
2058
2058
2055
2052
2048
2045
2046
2044
2045
2043
2042
2041
2041
2041
2041
2041
2040
2040
2039
2039
2039
2039
2038
2042
2042
2043
2040
2035
2032
2034
2039
2047
2051
2049
2045
2040
2036
2037
2039
2041
2041
2041
2041
2041
2041
2040
2041
2040
2040
2041
2041
2041
2041
2039
2041
2040
2041
2039
2037
2036
2037
2040
2044
2046
2045
2042
2040
2037
2039
2038
2038
2039
2039
2040
2040
2040
2040
2039
2039
2040
2041
2042
2043
2044
2044
2043
2044
2043
2042
2039
2038
2038
2040
2044
2045
2046
2043
2041
2040
2039
2039
2039
2039
2040
2044
2048
2055
2063
2072
2081
2089
2093
2092
2085
2074
2062
2053
2049
2047
2045
2042
2038
2036
2038
2044
2047
2048
2046
2042
2039
2036
2038
2040
2041
2041
2040
2041
2040
2040
2041
2041
2042
2042
2043
2043
2043
2044
2043
2046
2047
2047
2045
2043
2043
2045
2050
2056
2058
2057
2054
2052
2051
2054
2055
2055
2055
2055
2056
2057
2057
2057
2056
2056
2055
2053
2052
2050
2048
2048
2048
2047
2047
2044
2042
2040
2040
2043
2045
2047
2045
2043
2040
2038
2040
2040
2041
2042
2041
2041
2041
2041
2041
2041
2041
2041
2042
2042
2042
2042
2042
2042
2045
2044
2042
2039
2037
2037
2041
2046
2049
2049
2046
2042
2040
2038
2041
2041
2043
2042
2041
2040
2040
2041
2043
2045
2045
2044
2042
2041
2040
2040
2041
2041
2040
2041
2040
2038
2038
2039
2042
2045
2047
2046
2044
2041
2038
2039
2039
2041
2041
2040
2040
2040
2040
2041
2042
2043
2044
2044
2044
2043
2042
2040
2044
2044
2045
2043
2037
2033
2031
2035
2043
2051
2054
2052
2046
2037
2037
2036
2041
2048
2053
2059
2067
2078
2088
2096
2096
2089
2077
2065
2054
2048
2045
2047
2046
2046
2043
2040
2037
2036
2038
2042
2046
2048
2046
2044
2040
2039
2039
2039
2042
2042
2042
2042
2041
2042
2041
2042
2042
2043
2044
2045
2046
2046
2047
2048
2048
2048
2047
2046
2046
2048
2053
2056
2059
2059
2057
2055
2054
2055
2055
2057
2057
2057
2057
2056
2056
2055
2054
2053
2052
2051
2049
2048
2048
2047
2047
2047
2046
2043
2040
2039
2040
2045
2048
2049
2048
2044
2041
2038
2040
2042
2043
2042
2042
2043
2043
2043
2044
2043
2043
2043
2043
2044
2044
2045
2043
2045
2044
2042
2041
2039
2039
2041
2043
2047
2048
2047
2045
2042
2040
2041
2042
2042
2043
2043
2042
2042
2042
2042
2042
2042
2042
2042
2042
2042
2042
2041
2043
2043
2043
2042
2040
2038
2039
2040
2046
2048
2048
2043
2037
2033
2035
2042
2048
2053
2051
2046
2041
2037
2039
2041
2043
2043
2043
2044
2044
2046
2046
2046
2047
2046
2045
2042
2040
2040
2042
2046
2048
2048
2046
2044
2042
2042
2043
2043
2043
2044
2044
2047
2049
2054
2062
2072
2084
2094
2100
2098
2089
2077
2062
2057
2050
2048
2045
2042
2040
2040
2045
2048
2049
2048
2044
2042
2039
2042
2041
2042
2042
2041
2043
2043
2043
2043
2043
2044
2043
2043
2043
2043
2043
2043
2046
2048
2048
2047
2045
2046
2048
2050
2054
2055
2054
2053
2052
2052
2054
2054
2055
2056
2056
2058
2058
2057
2057
2057
2057
2058
2057
2056
2054
2052
2050
2050
2050
2049
2047
2042
2039
2039
2043
2048
2051
2051
2048
2044
2042
2041
2043
2042
2043
2043
2043
2044
2043
2044
2043
2044
2044
2043
2044
2043
2044
2044
2045
2046
2045
2043
2041
2039
2040
2042
2047
2048
2048
2046
2043
2042
2041
2043
2043
2043
2043
2043
2043
2042
2043
2043
2043
2043
2042
2042
2042
2041
2041
2042
2044
2043
2045
2042
2040
2038
2039
2044
2048
2050
2048
2046
2042
2040
2040
2041
2043
2043
2043
2043
2042
2042
2042
2042
2042
2043
2043
2043
2043
2044
2042
2045
2045
2045
2044
2042
2042
2044
2046
2049
2050
2049
2047
2044
2041
2042
2043
2042
2043
2043
2043
2043
2042
2041
2042
2043
2046
2050
2056
2063
2071
2080
2090
2095
2096
2089
2077
2063
2053
2048
2048
2050
2050
2048
2046
2043
2042
2041
2041
2042
2041
2040
2040
2041
2041
2042
2041
2042
2041
2042
2042
2042
2042
2043
2044
2044
2044
2042
2041
2041
2044
2048
2051
2053
2051
2049
2048
2048
2049
2051
2053
2053
2054
2055
2055
2056
2056
2056
2057
2058
2060
2061
2060
2059
2057
2058
2057
2056
2051
2048
2046
2047
2050
2054
2055
2052
2047
2043
2039
2041
2042
2042
2042
2042
2042
2043
2043
2042
2043
2042
2042
2042
2042
2042
2043
2041
2044
2044
2044
2043
2041
2040
2042
2044
2047
2048
2046
2044
2042
2040
2042
2044
2044
2044
2044
2044
2043
2043
2043
2042
2043
2043
2043
2043
2043
2043
2041
2043
2043
2043
2041
2036
2034
2035
2040
2046
2049
2049
2046
2043
2041
2040
2042
2042
2043
2044
2045
2046
2046
2046
2045
2044
2044
2043
2043
2043
2043
2043
2044
2046
2044
2044
2041
2038
2038
2041
2047
2051
2056
2059
2063
2070
2080
2091
2096
2096
2089
2078
2065
2056
2050
2048
2047
2047
2045
2044
2043
2042
2042
2042
2043
2042
2044
2041
2040
2039
2039
2043
2045
2048
2047
2045
2043
2041
2042
2043
2044
2044
2044
2045
2045
2046
2046
2047
2048
2048
2049
2050
2050
2051
2050
2053
2055
2055
2054
2053
2053
2055
2059
2063
2064
2063
2060
2058
2055
2056
2057
2055
2054
2053
2051
2049
2048
2048
2048
2046
2046
2044
2043
2044
2043
2042
2042
2043
2043
2042
2040
2037
2037
2040
2045
2048
2048
2046
2042
2041
2041
2044
2043
2044
2042
2041
2042
2041
2042
2042
2042
2042
2042
2043
2042
2042
2042
2042
2043
2043
2042
2039
2038
2038
2040
2045
2047
2047
2044
2041
2040
2039
2041
2041
2042
2041
2042
2041
2041
2041
2040
2040
2040
2042
2044
2045
2044
2043
2040
2042
2041
2041
2039
2035
2034
2035
2041
2047
2050
2050
2048
2046
2041
2044
2043
2042
2043
2042
2042
2042
2042
2042
2042
2042
2042
2043
2042
2042
2041
2039
2042
2045
2048
2053
2056
2063
2073
2087
2099
2105
2100
2087
2071
2056
2048
2047
2045
2046
2045
2044
2043
2042
2041
2041
2041
2041
2041
2042
2042
2042
2040
2042
2043
2043
2041
2037
2035
2036
2041
2047
2050
2051
2048
2047
2043
2043
2045
2045
2047
2048
2048
2048
2048
2048
2050
2052
2054
2052
2050
2048
2050
2055
2062
2067
2066
2062
2054
2049
2050
2053
2059
2061
2061
2058
2053
2050
2048
2048
2047
2047
2046
2045
2045
2045
2044
2044
2043
2043
2042
2043
2042
2042
2042
2042
2044
2046
2045
2043
2041
2040
2041
2046
2048
2050
2048
2046
2043
2041
2042
2043
2044
2044
2044
2044
2044
2043
2043
2043
2043
2043
2043
2043
2043
2044
2043
2045
2044
2043
2041
2039
2039
2041
2045
2048
2049
2048
2045
2042
2040
2043
2044
2043
2043
2043
2042
2042
2043
2043
2044
2043
2044
2044
2043
2044
2043
2042
2043
2045
2045
2042
2039
2035
2037
2042
2049
2054
2054
2050
2048
2045
2046
2048
2047
2047
2045
2044
2045
2045
2045
2044
2044
2044
2044
2045
2045
2045
2043
2042
2047
2048
2049
2050
2052
2060
2074
2091
2105
2108
2101
2087
2071
2058
2055
2050
2048
2048
2048
2046
2047
2045
2044
2043
2042
2043
2045
2047
2047
2046
2045
2045
2045
2045
2045
2043
2042
2044
2047
2049
2050
2050
2048
2048
2047
2048
2049
2050
2050
2051
2051
2052
2053
2054
2055
2055
2056
2057
2058
2058
2059
2057
2061
2063
2064
2062
2060
2057
2056
2058
2062
2065
2064
2061
2057
2052
2051
2050
2049
2049
2049
2048
2048
2048
2048
2048
2048
2048
2046
2046
2047
2048
2047
2048
2047
2047
2046
2045
2045
2045
2048
2050
2051
2051
2048
2047
2045
2045
2046
2047
2047
2047
2047
2047
2047
2047
2047
2047
2047
2046
2046
2046
2046
2045
2045
2046
2046
2045
2044
2043
2043
2045
2048
2049
2049
2048
2046
2045
2044
2045
2045
2045
2046
2046
2046
2046
2046
2045
2045
2045
2045
2045
2045
2045
2045
2045
2046
2046
2048
2048
2047
2047
2046
2048
2050
2052
2052
2049
2047
2044
2044
2043
2046
2046
2046
2047
2047
2047
2045
2044
2043
2044
2047
2050
2057
2064
2071
2083
2091
2096
2098
2091
2081
2069
2061
2058
2056
2055
2053
2050
2046
2045
2045
2044
2044
2044
2044
2044
2044
2044
2044
2044
2044
2044
2044
2045
2045
2044
2048
2047
2048
2045
2043
2042
2044
2048
2052
2056
2055
2053
2050
2048
2050
2051
2054
2055
2055
2056
2057
2058
2059
2059
2060
2061
2061
2062
2062
2062
2063
2061
2065
2063
2060
2055
2050
2048
2051
2056
2061
2061
2058
2052
2048
2044
2046
2045
2045
2046
2046
2046
2047
2047
2046
2046
2045
2045
2046
2047
2048
2048
2048
2048
2047
2047
2045
2045
2044
2045
2048
2049
2050
2049
2048
2046
2044
2047
2046
2047
2047
2047
2047
2047
2047
2047
2047
2047
2046
2046
2045
2045
2045
2045
2048
2049
2049
2046
2040
2038
2040
2048
2056
2061
2059
2053
2047
2043
2044
2047
2048
2048
2048
2048
2048
2049
2049
2049
2049
2050
2051
2052
2053
2054
2053
2055
2053
2054
2051
2049
2049
2049
2052
2055
2057
2057
2055
2053
2050
2050
2048
2049
2051
2053
2058
2064
2069
2077
2086
2096
2104
2105
2100
2088
2075
2063
2056
2055
2054
2053
2050
2048
2048
2049
2052
2054
2054
2051
2049
2049
2048
2050
2050
2050
2051
2051
2052
2052
2052
2051
2052
2053
2053
2054
2054
2054
2054
2055
2057
2059
2059
2058
2057
2056
2058
2062
2066
2068
2068
2066
2064
2063
2064
2066
2067
2068
2068
2068
2068
2068
2068
2067
2066
2065
2064
2062
2061
2060
2058
2058
2057
2055
2053
2050
2050
2052
2054
2057
2058
2056
2053
2051
2049
2050
2051
2051
2051
2052
2052
2052
2052
2052
2052
2052
2052
2052
2052
2052
2052
2050
2053
2052
2053
2052
2049
2048
2048
2050
2054
2057
2056
2053
2050
2048
2049
2050
2050
2050
2048
2048
2048
2048
2049
2049
2048
2048
2048
2048
2048
2048
2048
2048
2049
2049
2048
2047
2045
2045
2048
2052
2054
2051
2047
2042
2042
2046
2053
2057
2055
2052
2047
2043
2044
2045
2048
2048
2048
2048
2048
2049
2051
2051
2052
2054
2050
2049
2045
2040
2042
2045
2050
2056
2058
2054
2050
2048
2045
2047
2046
2047
2048
2050
2055
2061
2068
2076
2085
2095
2102
2103
2097
2086
2074
2062
2058
2055
2053
2051
2048
2047
2048
2052
2055
2055
2052
2049
2048
2047
2048
2048
2049
2049
2049
2050
2050
2049
2049
2049
2050
2051
2051
2052
2052
2051
2050
2052
2053
2054
2051
2048
2047
2048
2056
2063
2066
2066
2062
2059
2057
2057
2059
2060
2061
2062
2062
2064
2063
2064
2064
2064
2064
2063
2063
2062
2062
2061
2061
2060
2057
2055
2051
2050
2050
2053
2056
2056
2054
2051
2048
2046
2047
2048
2047
2047
2047
2047
2048
2047
2047
2046
2046
2046
2045
2045
2045
2045
2044
2044
2046
2045
2045
2043
2042
2041
2042
2045
2047
2048
2046
2043
2041
2038
2040
2039
2040
2040
2039
2038
2037
2037
2037
2037
2037
2037
2037
2037
2037
2038
2036
2038
2038
2037
2035
2033
2032
2034
2037
2041
2042
2041
2038
2036
2035
2036
2037
2037
2037
2038
2038
2038
2039
2039
2040
2039
2039
2038
2037
2037
2036
2036
2038
2038
2039
2038
2036
2033
2032
2033
2036
2041
2044
2048
2052
2057
2067
2076
2086
2091
2090
2083
2071
2059
2050
2045
2043
2042
2043
2042
2041
2039
2039
2037
2041
2040
2038
2035
2032
2032
2036
2042
2047
2048
2045
2041
2038
2036
2040
2040
2041
2042
2042
2043
2043
2044
2044
2046
2046
2046
2046
2046
2047
2049
2052
2054
2055
2054
2052
2050
2048
2053
2057
2061
2064
2064
2062
2058
2053
2053
2052
2055
2056
2057
2057
2055
2053
2051
2050
2048
2048
2047
2045
2044
2042
2040
2044
2046
2047
2044
2039
2035
2037
2043
2050
2054
2053
2048
2043
2038
2041
2041
2042
2043
2043
2044
2044
2044
2043
2043
2043
2043
2044
2043
2044
2043
2042
2043
2044
2045
2043
2040
2038
2038
2042
2047
2049
2048
2045
2042
2040
2041
2043
2044
2044
2042
2042
2042
2042
2044
2043
2044
2044
2043
2043
2043
2044
2044
2044
2046
2046
2044
2042
2040
2041
2043
2048
2050
2050
2048
2045
2043
2042
2045
2047
2047
2048
2048
2048
2048
2047
2046
2046
2046
2046
2046
2046
2044
2043
2045
2047
2048
2047
2043
2040
2040
2045
2052
2061
2067
2071
2076
2083
2091
2098
2097
2089
2077
2064
2055
2050
2048
2048
2048
2047
2045
2045
2045
2045
2046
2045
2046
2045
2043
2041
2038
2039
2042
2048
2052
2054
2052
2048
2045
2043
2044
2046
2046
2047
2047
2047
2048
2048
2048
2049
2050
2051
2051
2053
2054
2055
2055
2057
2060
2060
2058
2053
2051
2052
2060
2070
2076
2075
2068
2061
2056
2055
2058
2058
2057
2055
2054
2052
2051
2051
2050
2049
2048
2048
2048
2047
2048
2048
2048
2049
2048
2046
2043
2040
2041
2045
2051
2055
2055
2051
2048
2044
2045
2046
2046
2046
2046
2046
2047
2047
2048
2047
2048
2047
2047
2047
2047
2048
2049
2049
2054
2052
2050
2045
2040
2036
2043
2050
2058
2062
2059
2052
2047
2043
2045
2047
2048
2048
2048
2048
2048
2048
2048
2048
2048
2048
2048
2047
2046
2047
2046
2049
2050
2050
2047
2043
2039
2040
2044
2050
2054
2055
2053
2049
2047
2047
2048
2048
2049
2050
2052
2055
2058
2060
2063
2064
2064
2063
2061
2060
2059
2057
2058
2059
2060
2057
2054
2052
2053
2056
2061
2064
2063
2060
2058
2059
2063
2070
2078
2087
2097
2105
2110
2106
2097
2084
2072
2064
2059
2058
2057
2056
2055
2054
2055
2055
2053
2050
2048
2047
2049
2054
2058
2058
2056
2052
2050
2049
2051
2052
2053
2052
2052
2051
2051
2052
2053
2053
2050
2047
2046
2048
2055
2063
2068
2067
2062
2057
2052
2054
2058
2064
2068
2070
2069
2066
2062
2061
2061
2063
2064
2065
2064
2064
2063
2062
2061
2059
2058
2057
2056
2056
2055
2054
2053
2050
2052
2051
2050
2048
2047
2045
2047
2049
2052
2053
2051
2049
2048
2047
2048
2049
2048
2048
2048
2048
2048
2048
2048
2048
2047
2047
2047
2046
2047
2046
2045
2047
2047
2047
2046
2043
2040
2040
2043
2048
2051
2051
2048
2046
2043
2045
2046
2046
2047
2045
2044
2044
2043
2044
2044
2043
2043
2043
2044
2043
2043
2043
2043
2045
2045
2044
2042
2040
2040
2043
2047
2048
2048
2046
2043
2042
2041
2043
2044
2045
2046
2046
2047
2047
2047
2047
2047
2047
2047
2046
2044
2044
2042
2044
2048
2049
2048
2045
2040
2038
2041
2046
2054
2058
2060
2062
2066
2071
2084
2091
2097
2097
2090
2080
2067
2057
2051
2049
2048
2048
2047
2045
2044
2044
2043
2046
2046
2044
2042
2039
2039
2042
2046
2049
2050
2048
2045
2042
2041
2042
2043
2043
2043
2044
2044
2045
2046
2047
2047
2048
2048
2048
2048
2049
2050
2050
2052
2053
2053
2051
2048
2048
2051
2058
2065
2067
2066
2061
2057
2054
2053
2055
2054
2054
2053
2051
2050
2048
2048
2046
2045
2044
2043
2043
2042
2041
2041
2041
2041
2040
2038
2036
2035
2036
2039
2044
2045
2044
2041
2038
2036
2037
2039
2039
2039
2039
2039
2039
2039
2040
2039
2040
2039
2039
2039
2038
2038
2038
2039
2040
2041
2041
2038
2036
2034
2035
2039
2043
2045
2044
2041
2038
2036
2036
2037
2038
2038
2037
2037
2037
2037
2037
2038
2038
2038
2038
2038
2039
2040
2039
2042
2042
2041
2039
2035
2034
2036
2039
2043
2045
2043
2040
2037
2034
2037
2038
2037
2037
2036
2035
2036
2038
2043
2049
2056
2065
2075
2083
2090
2090
2083
2074
2062
2052
2045
2039
2035
2036
2038
2041
2044
2042
2039
2036
2034
2035
2037
2037
2037
2035
2035
2036
2035
2036
2037
2037
2037
2037
2038
2037
2038
2038
2038
2040
2040
2040
2038
2036
2036
2039
2045
2048
2049
2048
2046
2045
2045
2048
2048
2049
2050
2050
2051
2051
2052
2052
2053
2052
2052
2051
2049
2048
2047
2044
2047
2046
2045
2041
2036
2033
2034
2039
2043
2045
2042
2038
2035
2031
2035
2034
2034
2034
2034
2035
2035
2035
2035
2035
2035
2035
2035
2034
2034
2034
2034
2037
2037
2037
2035
2032
2031
2033
2036
2040
2041
2039
2036
2034
2033
2034
2035
2035
2034
2034
2034
2034
2034
2034
2034
2034
2033
2033
2033
2034
2034
2033
2034
2035
2034
2032
2028
2028
2029
2034
2040
2043
2042
2037
2033
2031
2031
2033
2034
2036
2036
2037
2037
2036
2036
2035
2034
2034
2033
2034
2033
2034
2034
2034
2036
2035
2034
2031
2029
2030
2034
2041
2047
2051
2055
2061
2071
2080
2088
2088
2081
2068
2055
2047
2041
2039
2038
2037
2036
2035
2034
2033
2033
2031
2033
2034
2035
2035
2032
2031
2031
2033
2036
2038
2038
2037
2034
2033
2033
2034
2035
2036
2035
2035
2036
2036
2037
2038
2038
2039
2040
2041
2041
2042
2044
2044
2046
2047
2046
2045
2043
2044
2047
2050
2054
2055
2052
2048
2046
2044
2044
2045
2044
2044
2042
2041
2040
2038
2036
2035
2035
2034
2034
2034
2034
2034
2033
2035
2034
2034
2033
2030
2030
2031
2035
2039
2041
2041
2038
2036
2033
2034
2034
2034
2036
2035
2035
2036
2035
2035
2036
2036
2036
2036
2036
2036
2036
2036
2037
2039
2037
2035
2030
2028
2029
2034
2041
2043
2043
2039
2036
2033
2033
2036
2036
2035
2035
2035
2035
2036
2037
2037
2037
2036
2037
2035
2036
2035
2035
2034
2036
2037
2038
2037
2035
2035
2037
2040
2042
2040
2038
2036
2037
2040
2046
2044
2042
2036
2032
2033
2034
2036
2036
2036
2036
2036
2035
2036
2037
2041
2045
2054
2063
2073
2081
2083
2080
2075
2069
2065
2061
2056
2050
2044
2037
2034
2033
2034
2036
2036
2037
2036
2036
2035
2036
2036
2036
2037
2037
2038
2038
2038
2039
2039
2039
2038
2035
2034
2035
2040
2044
2047
2048
2045
2044
2042
2043
2043
2044
2046
2046
2047
2048
2048
2049
2049
2050
2051
2051
2052
2053
2053
2053
2053
2054
2054
2053
2050
2047
2046
2047
2050
2053
2053
2050
2046
2043
2041
2041
2042
2042
2041
2041
2041
2041
2040
2041
2041
2041
2042
2042
2042
2041
2041
2041
2042
2043
2042
2041
2040
2040
2041
2045
2046
2047
2045
2042
2041
2040
2041
2042
2042
2041
2041
2041
2041
2042
2041
2041
2041
2041
2042
2042
2042
2042
2040
2040
2040
2039
2038
2038
2038
2039
2042
2044
2044
2043
2040
2040
2038
2039
2041
2041
2041
2041
2041
2040
2040
2040
2040
2041
2041
2042
2043
2044
2045
2043
2046
2044
2044
2042
2040
2039
2039
2041
2044
2046
2045
2044
2042
2039
2040
2038
2039
2040
2042
2045
2049
2056
2064
2074
2083
2091
2094
2090
2081
2069
2058
2049
2047
2045
2043
2040
2037
2037
2039
2043
2046
2045
2044
2040
2038
2037
2039
2039
2039
2039
2040
2040
2041
2041
2042
2043
2042
2043
2042
2043
2044
2042
2043
2046
2045
2045
2044
2043
2043
2048
2052
2056
2058
2055
2054
2053
2052
2057
2056
2058
2057
2057
2058
2058
2058
2058
2058
2057
2056
2056
2054
2052
2051
2049
2051
2049
2048
2044
2040
2040
2042
2046
2049
2050
2047
2044
2041
2041
2042
2043
2043
2043
2043
2043
2043
2043
2043
2043
2044
2044
2044
2045
2045
2045
2044
2045
2046
2045
2042
2038
2037
2039
2046
2052
2054
2053
2048
2044
2040
2040
2042
2043
2044
2044
2044
2043
2043
2043
2043
2043
2044
2043
2043
2042
2043
2043
2044
2046
2045
2043
2040
2039
2042
2046
2051
2052
2051
2048
2043
2040
2041
2043
2043
2043
2043
2043
2044
2044
2043
2042
2042
2042
2044
2047
2051
2057
2064
2072
2085
2093
2098
2094
2084
2072
2062
2058
2057
2057
2053
2048
2043
2038
2042
2041
2043
2043
2042
2042
2041
2041
2042
2042
2043
2043
2043
2043
2042
2043
2041
2044
2045
2045
2044
2042
2041
2043
2047
2050
2052
2052
2049
2048
2047
2048
2049
2050
2052
2053
2054
2054
2055
2055
2055
2056
2056
2057
2058
2059
2059
2057
2057
2057
2056
2054
2050
2049
2049
2051
2053
2054
2051
2048
2045
2043
2045
2045
2045
2045
2043
2042
2043
2043
2043
2044
2044
2044
2044
2044
2043
2044
2044
2044
2046
2045
2044
2042
2040
2041
2042
2047
2048
2048
2047
2044
2043
2042
2044
2044
2044
2044
2043
2043
2043
2044
2043
2043
2043
2043
2043
2043
2043
2043
2043
2046
2044
2044
2040
2037
2038
2042
2048
2050
2052
2048
2045
2041
2039
2042
2041
2042
2042
2043
2045
2046
2046
2047
2047
2048
2047
2047
2045
2044
2044
2042
2045
2046
2046
2044
2042
2041
2042
2044
2047
2048
2046
2045
2045
2048
2053
2061
2070
2080
2090
2096
2097
2091
2079
2066
2056
2049
2047
2047
2047
2046
2044
2043
2043
2043
2040
2037
2036
2036
2042
2048
2050
2049
2046
2043
2040
2040
2042
2042
2043
2043
2043
2044
2044
2045
2044
2045
2045
2045
2046
2047
2048
2048
2049
2051
2051
2051
2050
2050
2051
2052
2056
2058
2059
2058
2056
2056
2056
2058
2058
2058
2057
2055
2055
2054
2053
2052
2050
2049
2048
2047
2046
2045
2044
2045
2046
2046
2045
2041
2039
2038
2040
2045
2048
2048
2048
2044
2041
2040
2041
2041
2042
2043
2043
2042
2043
2044
2044
2041
2038
2035
2037
2042
2048
2051
2050
2047
2042
2037
2036
2035
2037
2039
2043
2046
2046
2044
2041
2038
2037
2038
2040
2040
2041
2040
2041
2040
2039
2039
2039
2039
2040
2040
2040
2041
2041
2040
2041
2039
2039
2038
2035
2034
2037
2041
2047
2049
2049
2047
2043
2041
2041
2043
2043
2043
2041
2040
2041
2040
2041
2042
2042
2042
2042
2041
2040
2040
2041
2044
2049
2053
2056
2059
2064
2075
2089
2101
2103
2094
2077
2060
2048
2044
2045
2046
2044
2043
2042
2041
2041
2041
2041
2041
2041
2041
2041
2041
2041
2041
2041
2043
2043
2043
2041
2039
2038
2039
2041
2045
2048
2049
2048
2046
2043
2045
2044
2047
2048
2048
2048
2049
2050
2050
2052
2052
2053
2054
2054
2054
2055
2053
2058
2059
2059
2056
2052
2049
2049
2054
2060
2063
2061
2055
2048
2044
2042
2044
2044
2044
2043
2042
2042
2042
2041
2042
2041
2041
2040
2040
2040
2041
2040
2042
2041
2042
2040
2038
2037
2037
2041
2045
2048
2048
2045
2043
2040
2040
2040
2041
2041
2041
2042
2042
2042
2042
2041
2041
2040
2039
2040
2040
2041
2041
2040
2041
2040
2040
2039
2038
2037
2038
2041
2042
2043
2041
2039
2039
2038
2039
2039
2039
2039
2039
2039
2039
2039
2039
2039
2039
2040
2040
2041
2042
2042
2042
2044
2043
2043
2041
2040
2039
2039
2040
2041
2043
2042
2041
2040
2038
2038
2037
2038
2039
2043
2048
2054
2063
2073
2082
2089
2091
2089
2080
2069
2058
2049
2045
2042
2041
2040
2038
2037
2037
2039
2040
2041
2040
2037
2036
2035
2035
2036
2036
2037
2037
2037
2037
2037
2037
2037
2038
2038
2039
2039
2040
2040
2040
2042
2042
2043
2043
2041
2041
2043
2047
2051
2054
2054
2051
2049
2048
2050
2052
2054
2055
2054
2053
2053
2052
2053
2054
2053
2052
2051
2050
2048
2048
2047
2045
2047
2046
2043
2038
2033
2031
2034
2042
2048
2048
2046
2040
2037
2034
2036
2039
2038
2038
2038
2038
2039
