2040
2040
2041
2041
2041
2041
2041
2041
2041
2041
2041
2042
2043
2043
2043
2043
2043
2043
2043
2043
2044
2044
2045
2045
2046
2046
2046
2045
2045
2045
2045
2046
2047
2048
2048
2048
2047
2047
2047
2047
2048
2048
2048
2048
2047
2046
2045
2045
2046
2048
2049
2049
2049
2048
2046
2045
2045
2045
2045
2044
2043
2042
2043
2046
2049
2053
2055
2056
2055
2053
2051
2049
2048
2047
2046
2045
2045
2045
2045
2045
2046
2047
2046
2043
2041
2041
2050
2072
2100
2125
2136
2137
2133
2136
2140
2132
2098
2038
1969
1917
1904
1930
1976
2022
2049
2062
2064
2064
2064
2065
2067
2068
2070
2071
2071
2071
2071
2071
2072
2073
2074
2075
2076
2077
2078
2079
2079
2080
2081
2082
2084
2086
2089
2091
2093
2094
2096
2098
2100
2103
2106
2109
2111
2114
2116
2119
2122
2125
2128
2130
2132
2132
2132
2130
2127
2125
2123
2120
2118
2115
2111
2107
2101
2095
2089
2083
2077
2072
2067
2063
2060
2058
2055
2053
2052
2050
2049
2048
2048
2048
2048
2048
2048
2048
2048
2048
2048
2048
2048
2048
2048
2048
2048
2049
2050
2050
2050
2049
2048
2048
2048
2048
2048
2048
2047
2046
2045
2044
2043
2043
2043
2043
2043
2043
2043
2043
2042
2042
2042
2042
2042
2043
2043
2043
2043
2043
2042
2042
2042
2043
2043
2044
2043
2043
2042
2042
2042
2041
2041
2041
2042
2042
2043
2044
2044
2044
2043
2043
2042
2043
2044
2045
2046
2046
2046
2046
2045
2045
2045
2045
2046
2047
2047
2047
2046
2047
2046
2046
2046
2046
2046
2046
2047
2048
2048
2048
2048
2047
2047
2047
2048
2048
2050
2051
2051
2050
2049
2048
2048
2048
2048
2048
2047
2046
2048
2050
2053
2057
2059
2059
2058
2057
2055
2054
2052
2050
2049
2048
2048
2048
2048
2049
2051
2052
2051
2048
2045
2045
2053
2074
2101
2126
2140
2143
2142
2145
2149
2141
2108
2047
1978
1925
1909
1933
1978
2023
2051
2063
2065
2065
2065
2066
2067
2068
2070
2071
2072
2073
2073
2073
2074
2075
2077
2078
2079
2079
2080
2080
2081
2083
2084
2086
2087
2089
2090
2092
2093
2095
2097
2099
2102
2105
2109
2111
2114
2116
2119
2122
2125
2127
2129
2131
2132
2133
2134
2134
2133
2131
2128
2125
2122
2118
2114
2109
2103
2097
2091
2085
2081
2077
2073
2070
2067
2063
2060
2058
2056
2054
2053
2052
2052
2053
2053
2054
2054
2054
2054
2055
2056
2057
2057
2058
2059
2059
2059
2059
2058
2057
2056
2055
2055
2055
2054
2054
2054
2053
2053
2053
2053
2053
2052
2052
2051
2051
2051
2051
2050
2049
2048
2048
2047
2048
2048
2048
2047
2045
2044
2042
2041
2041
2041
2042
2042
2042
2042
2043
2044
2045
2046
2046
2046
2045
2045
2045
2046
2046
2047
2047
2047
2047
2047
2048
2048
2048
2048
2048
2048
2048
2048
2048
2048
2048
2048
2048
2048
2049
2050
2050
2050
2050
2051
2051
2051
2051
2052
2052
2053
2052
2052
2051
2051
2052
2053
2052
2051
2049
2048
2048
2052
2056
2060
2062
2063
2062
2060
2058
2055
2053
2051
2051
2051
2052
2053
2054
2055
2055
2056
2054
2051
2048
2049
2061
2086
2117
2146
2162
2168
2173
2182
2187
2172
2125
2049
1972
1918
1907
1936
1982
2025
2050
2061
2065
2066
2067
2068
2069
2070
2071
2073
2073
2074
2074
2075
2076
2077
2079
2081
2082
2083
2084
2085
2087
2089
2090
2091
2092
2093
2095
2096
2098
2100
2102
2104
2106
2108
2111
2112
2114
2116
2119
2122
2126
2129
2132
2133
2134
2133
2132
2132
2131
2130
2128
2124
2121
2117
2113
2109
2104
2098
2092
2086
2080
2075
2071
2068
2065
2061
2058
2055
2053
2052
2051
2051
2051
2051
2051
2050
2049
2048
2048
2048
2049
2049
2050
2050
2049
2048
2048
2047
2046
2046
2047
2048
2048
2048
2048
2048
2048
2048
2047
2046
2046
2046
2046
2046
2045
2045
2044
2043
2043
2042
2041
2041
2041
2041
2042
2042
2041
2040
2039
2038
2038
2038
2039
2040
2040
2040
2040
2040
2040
2041
2041
2041
2040
2039
2039
2038
2038
2039
2039
2040
2041
2042
2042
2041
2040
2038
2037
2037
2038
2038
2039
2039
2039
2039
2040
2040
2041
2041
2041
2041
2041
2042
2042
2042
2040
2038
2038
2038
2040
2043
2047
2049
2052
2053
2053
2051
2048
2045
2044
2044
2045
2046
2047
2047
2048
2048
2048
2048
2046
2043
2044
2055
2082
2118
2150
2169
2174
2176
2178
2175
2156
2106
2031
1953
1899
1887
1914
1961
2007
2038
2053
2060
2064
2065
2066
2067
2068
2069
2070
2072
2074
2076
2077
2078
2079
2079
2080
2082
2084
2085
2087
2088
2089
2091
2092
2093
2094
2095
2097
2099
2101
2104
2106
2108
2110
2112
2115
2118
2121
2125
2128
2131
2133
2135
2136
2137
2137
2136
2135
2135
2134
2132
2129
2125
2121
2115
2110
2105
2100
2096
2091
2086
2081
2077
2073
2070
2068
2066
2065
2063
2062
2061
2060
2060
2060
2060
2061
2061
2061
2061
2061
2061
2061
2061
2061
2062
2063
2063
2063
2063
2063
2063
2063
2064
2064
2063
2062
2061
2061
2060
2061
2061
2061
2060
2059
2058
2057
2056
2055
2054
2054
2054
2054
2054
2054
2053
2053
2053
2053
2052
2052
2052
2052
2053
2053
2054
2054
2054
2053
2053
2053
2053
2053
2053
2053
2053
2052
2051
2051
2051
2051
2051
2052
2053
2053
2054
2053
2053
2052
2052
2052
2052
2052
2051
2049
2047
2044
2043
2044
2047
2050
2054
2057
2058
2057
2055
2051
2048
2046
2045
2044
2044
2045
2045
2045
2044
2044
2041
2037
2035
2039
2054
2081
2111
2131
2136
2131
2129
2132
2133
2115
2068
1999
1932
1894
1898
1935
1983
2022
2042
2048
2049
2048
2048
2048
2049
2050
2052
2054
2055
2057
2057
2057
2057
2057
2057
2057
2057
2057
2058
2059
2060
2062
2063
2064
2064
2065
2066
2067
2068
2070
2072
2073
2075
2077
2079
2080
2082
2084
2087
2089
2090
2092
2093
2094
2094
2093
2093
2092
2091
2089
2086
2082
2077
2072
2066
2059
2053
2048
2042
2036
2031
2026
2021
2017
2012
2009
2006
2004
2003
2002
2001
2000
2000
1999
1999
1998
1998
1997
1996
1995
1994
1994
1994
1994
1993
1993
1992
1991
1990
1990
1989
1989
1988
1988
1987
1986
1985
1984
1983
1982
1982
1981
1981
1981
1980
1978
1977
1976
1976
1976
1976
1976
1975
1974
1974
1973
1972
1971
1971
1970
1970
1970
1970
1969
1969
1969
1968
1968
1968
1968
1967
1967
1968
1968
1968
1967
1967
1966
1966
1966
1967
1968
1967
1967
1966
1965
1965
1965
1965
1963
1961
1958
1957
1958
1960
1963
1967
1971
1974
1976
1975
1973
1970
1967
1965
1965
1966
1966
1967
1968
1969
1970
1969
1965
1962
1964
1976
2000
2029
2052
2061
2060
2057
2059
2062
2051
2014
1951
1884
1838
1832
1863
1911
1954
1979
1989
1990
1989
1990
1991
1993
1994
1995
1996
1997
1997
1998
1999
2000
2001
2003
2004
2005
2006
2006
2007
2008
2009
2010
2013
2015
2017
2019
2021
2022
2024
2026
2028
2031
2034
2037
2040
2043
2046
2048
2051
2053
2056
2058
2059
2060
2061
2061
2061
2060
2058
2056
2053
2050
2047
2043
2038
2033
2028
2022
2017
2013
2009
2006
2004
2001
2000
1998
1997
1996
1996
1996
1996
1997
1997
1998
1998
1998
1998
1999
1999
1999
1999
2000
2000
2001
2001
2002
2002
2001
2001
2001
2001
2001
2001
2001
2002
2002
2001
2001
2000
2000
2001
2001
2002
2002
2002
2001
2001
2001
2001
2001
2002
2002
2003
2003
2003
2003
2003
2003
2003
2004
2005
2005
2006
2007
2008
2008
2008
2008
2008
2009
2009
2011
2012
2013
2014
2014
2015
2015
2015
2016
2016
2018
2019
2020
2021
2022
2022
2022
2021
2020
2019
2017
2015
2015
2016
2019
2022
2026
2030
2033
2035
2035
2034
2031
2029
2027
2027
2028
2029
2030
2031
2033
2035
2035
2032
2030
2031
2042
2063
2091
2117
2129
2131
2130
2133
2135
2125
2087
2025
1956
1907
1897
1926
1973
2017
2045
2055
2057
2057
2057
2059
2060
2062
2064
2066
2067
2068
2069
2069
2070
2071
2072
2074
2075
2076
2078
2079
2080
2080
2081
2083
2085
2087
2089
2091
2093
2095
2096
2098
2100
2103
2107
2110
2114
2117
2119
2121
2123
2125
2126
2128
2129
2130
2130
2130
2128
2127
2124
2121
2118
2115
2111
2107
2102
2097
2091
2086
2081
2077
2074
2071
2068
2065
2064
2062
2062
2061
2061
2061
2060
2061
2061
2061
2061
2061
2061
2061
2061
2061
2061
2062
2063
2064
2064
2063
2063
2062
2062
2062
2062
2062
2061
2061
2061
2061
2061
2061
2060
2059
2059
2059
2059
2059
2059
2059
2059
2058
2058
2058
2057
2056
2056
2056
2056
2056
2057
2057
2057
2057
2056
2056
2056
2056
2056
2056
2056
2056
2057
2057
2058
2059
2059
2060
2060
2061
2061
2062
2062
2061
2061
2061
2062
2063
2063
2062
2061
2058
2055
2054
2055
2057
2060
2064
2068
2071
2073
2072
2070
2067
2065
2063
2064
2065
2066
2067
2068
2068
2069
2068
2066
2063
2062
2068
2087
2115
2143
2161
2167
2166
2168
2171
2164
2134
2074
2003
1943
1919
1937
1981
2029
2062
2079
2083
2083
2083
2084
2085
2085
2086
2088
2089
2090
2091
2092
2093
2094
2095
2095
2096
2096
2096
2097
2097
2099
2100
2102
2104
2106
2107
2108
2110
2112
2114
2117
2119
2121
2123
2125
2127
2129
2132
2134
2137
2139
2141
2142
2142
2142
2141
2140
2139
2137
2135
2133
2130
2126
2122
2116
2111
2106
2102
2097
2093
2089
2085
2081
2078
2076
2074
2072
2071
2070
2069
2069
2069
2069
2068
2068
2067
2067
2067
2068
2069
2069
2069
2069
2069
2068
2067
2067
2066
2067
2067
2067
2067
2066
2065
2064
2064
2063
2062
2062
2062
2062
2062
2062
2061
2061
2060
2059
2059
2058
2058
2058
2058
2058
2057
2057
2056
2056
2056
2056
2057
2057
2058
2058
2058
2057
2057
2056
2056
2057
2057
2058
2058
2058
2058
2058
2058
2058
2058
2059
2059
2060
2061
2061
2060
2059
2057
2054
2052
2051
2051
2052
2055
2058
2062
2065
2067
2068
2067
2064
2061
2059
2058
2059
2060
2061
2061
2062
2062
2063
2062
2060
2058
2059
2070
2093
2121
2145
2158
2162
2164
2168
2167
2150
2104
2035
1965
1920
1917
1950
1999
2043
2066
2076
2077
2077
2076
2077
2078
2079
2081
2083
2084
2085
2085
2086
2086
2087
2088
2089
2090
2091
2092
2093
2094
2095
2096
2097
2098
2100
2102
2103
2105
2107
2108
2110
2112
2114
2117
2119
2122
2125
2127
2130
2131
2132
2132
2133
2133
2133
2132
2131
2130
2127
2125
2122
2118
2114
2110
2105
2100
2096
2091
2087
2082
2077
2073
2070
2067
2066
2064
2063
2063
2062
2061
2061
2061
2061
2061
2061
2061
2061
2061
2061
2061
2061
2060
2060
2059
2059
2059
2059
2059
2059
2059
2058
2058
2057
2056
2056
2055
2055
2055
2055
2054
2053
2052
2051
2051
2051
2051
2052
2051
2051
2050
2049
2048
2048
2048
2048
2048
2048
2048
2048
2049
2048
2048
2048
2048
2049
2049
2050
2051
2052
2052
2052
2052
2052
2052
2053
2053
2054
2054
2054
2054
2054
2053
2051
2048
2046
2046
2046
2048
2051
2054
2057
2060
2062
2063
2062
2060
2057
2055
2055
2055
2055
2055
2055
2056
2057
2058
2056
2053
2051
2055
2070
2096
2126
2148
2159
2161
2164
2167
2161
2133
2076
2003
1939
1908
1920
1961
2010
2048
2066
2071
2071
2071
2071
2072
2073
2075
2076
2078
2078
2079
2079
2080
2080
2080
2081
2082
2083
2084
2085
2086
2087
2088
2089
2090
2091
2093
2095
2096
2098
2100
2102
2104
2106
2109
2111
2114
2116
2119
2121
2122
2124
2125
2125
2125
2125
2125
2124
2123
2121
2118
2115
2111
2107
2102
2097
2092
2087
2083
2078
2073
2068
2064
2060
2057
2055
2053
2051
2050
2048
2047
2047
2046
2047
2047
2047
2047
2047
2047
2047
2048
2048
2047
2047
2047
2047
2047
2046
2045
2044
2044
2043
2043
2043
2043
2042
2042
2041
2041
2040
2040
2039
2039
2038
2037
2037
2037
2037
2035
2032
2029
2027
2027
2029
2031
2033
2034
2035
2035
2035
2035
2034
2034
2033
2033
2032
2032
2032
2033
2033
2034
2034
2033
2032
2030
2030
2030
2030
2030
2028
2025
2022
2020
2021
2022
2025
2029
2033
2037
2039
2038
2035
2031
2028
2026
2025
2026
2027
2028
2028
2029
2030
2029
2027
2024
2022
2029
2048
2074
2104
2124
2135
2140
2144
2143
2126
2083
2014
1938
1882
1866
1891
1940
1991
2025
2040
2042
2041
2039
2040
2043
2046
2048
2049
2050
2050
2051
2051
2052
2052
2053
2054
2055
2056
2058
2059
2061
2063
2065
2067
2068
2068
2069
2069
2070
2072
2076
2079
2083
2086
2089
2090
2091
2091
2092
2094
2097
2101
2103
2103
2101
2099
2098
2099
2100
2100
2097
2092
2087
2084
2082
2080
2077
2072
2067
2062
2058
2055
2051
2048
2042
2038
2036
2035
2036
2037
2038
2038
2038
2039
2040
2040
2039
2040
2041
2041
2041
2040
2040
2040
2041
2043
2044
2045
2044
2043
2042
2041
2039
2038
2036
2036
2037
2037
2037
2036
2034
2032
2032
2031
2032
2032
2031
2030
2030
2030
2029
2029
2029
2027
2026
2025
2024
2024
2024
2024
2024
2024
2024
2024
2024
2024
2025
2026
2027
2028
2028
2028
2028
2028
2027
2024
2021
2019
2018
2018
2020
2024
2027
2031
2034
2036
2035
2033
2030
2028
2027
2027
2027
2028
2028
2029
2029
2029
2029
2025
2022
2019
2021
2036
2059
2089
2115
2133
2143
2151
2153
2140
2102
2037
1961
1898
1871
1886
1929
1979
2017
2037
2043
2044
2043
2043
2044
2046
2048
2050
2053
2055
2056
2056
2056
2057
2059
2062
2064
2065
2066
2067
2069
2070
2072
2074
2075
2076
2077
2078
2080
2082
2085
2087
2090
2093
2095
2098
2100
2102
2105
2108
2110
2112
2113
2113
2112
2112
2111
2110
2109
2107
2106
2104
2102
2100
2096
2092
2087
2082
2078
2074
2070
2066
2063
2060
2058
2057
2058
2058
2059
2059
2060
2059
2059
2058
2056
2054
2053
2053
2053
2054
2055
2055
2055
2055
2055
2054
2055
2055
2056
2057
2057
2056
2055
2053
2052
2052
2052
2053
2053
2053
2053
2053
2052
2052
2050
2049
2049
2048
2049
2049
2050
2049
2048
2048
2048
2048
2048
2048
2048
2048
2048
2048
2048
2049
2049
2049
2049
2050
2051
2051
2051
2050
2048
2045
2042
2041
2041
2044
2047
2050
2054
2058
2060
2060
2057
2054
2050
2048
2048
2049
2050
2051
2052
2053
2053
2054
2053
2050
2048
2050
2064
2086
2115
2139
2156
2167
2178
2185
2178
2144
2080
2002
1934
1902
1913
1954
2003
2041
2059
2064
2065
2064
2065
2065
2066
2066
2067
2068
2069
2070
2071
2071
2072
2072
2072
2073
2073
2074
2076
2077
2078
2079
2080
2081
2082
2084
2085
2086
2088
2089
2091
2093
2094
2095
2096
2098
2100
2102
2104
2106
2108
2108
2107
2106
2104
2103
2101
2099
2097
2094
2092
2089
2085
2081
2076
2072
2068
2064
2060
2056
2052
2048
2046
2043
2040
2038
2036
2035
2034
2034
2033
2033
2032
2031
2031
2030
2030
2030
2030
2031
2031
2031
2031
2030
2030
2030
2030
2030
2030
2030
2030
2029
2028
2026
2025
2024
2024
2024
2024
2024
2023
2022
2021
2020
2019
2018
2017
2017
2017
2016
2016
2015
2015
2014
2013
2013
2012
2013
2013
2014
2014
2014
2014
2014
2014
2014
2014
2013
2011
2008
2006
2005
2006
2007
2009
2011
2014
2018
2020
2021
2020
2016
2013
2010
2009
2010
2011
2012
2013
2014
2014
2014
2012
2009
2007
2011
2027
2051
2080
2102
2117
2126
2137
2143
2133
2094
2027
1950
1889
1866
1886
1931
1978
2009
2023
2025
2025
2024
2025
2026
2027
2029
2030
2030
2031
2032
2033
2033
2034
2035
2037
2038
2039
2040
2041
2042
2043
2045
2047
2048
2049
2051
2052
2054
2055
2056
2058
2060
2062
2064
2067
2069
2072
2073
2075
2076
2077
2078
2079
2079
2079
2078
2077
2075
2072
2070
2068
2067
2066
2065
2062
2058
2053
2048
2044
2040
2037
2033
2030
2028
2025
2024
2022
2022
2021
2021
2021
2022
2022
2023
2023
2023
2024
2024
2023
2024
2024
2025
2026
2027
2027
2026
2025
2024
2024
2024
2024
2024
2024
2024
2023
2023
2023
2023
2022
2021
2020
2019
2018
2018
2019
2019
2019
2018
2017
2018
2018
2020
2021
2022
2022
2022
2022
2022
2022
2022
2022
2022
2023
2022
2021
2019
2018
2017
2018
2020
2024
2028
2032
2034
2034
2032
2029
2026
2023
2023
2024
2026
2027
2029
2030
2031
2032
2030
2026
2023
2027
2044
2072
2107
2136
2155
2169
2183
2191
2183
2144
2071
1984
1910
1875
1888
1931
1982
2021
2042
2050
2054
2055
2055
2056
2057
2058
2059
2060
2061
2062
2063
2063
2064
2065
2067
2068
2069
2069
2069
2069
2069
2068
2069
2069
2071
2072
2073
2074
2075
2076
2078
2080
2083
2086
2088
2090
2092
2094
2096
2098
2100
2102
2103
2103
2102
2100
2098
2096
2094
2093
2091
2089
2087
2084
2081
2077
2072
2067
2063
2059
2056
2053
2051
2049
2047
2045
2043
2041
2040
2040
2041
2042
2042
2042
2042
2041
2040
2041
2042
2043
2044
2045
2045
2045
2044
2043
2043
2044
2045
2046
2046
2046
2044
2043
2042
2041
2041
2041
2041
2041
2040
2040
2039
2040
2041
2043
2044
2044
2043
2042
2042
2043
2045
2046
2046
2043
2041
2038
2038
2038
2039
2039
2038
2037
2035
2033
2031
2030
2030
2030
2032
2035
2038
2043
2048
2052
2054
2053
2050
2047
2045
2043
2042
2042
2042
2044
2045
2047
2045
2042
2038
2037
2045
2065
2093
2121
2139
2149
2156
2166
2173
2163
2124
2054
1977
1918
1901
1926
1972
2019
2048
2060
2062
2062
2062
2063
2063
2063
2064
2066
2067
2068
2069
2069
2070
2070
2070
2070
2070
2071
2072
2074
2076
2078
2079
2080
2081
2082
2084
2086
2088
2091
2093
2095
2097
2098
2100
2101
2103
2106
2108
2111
2112
2113
2112
2111
2110
2109
2108
2106
2105
2103
2101
2099
2096
2093
2089
2084
2080
2077
2074
2071
2069
2067
2065
2061
2057
2054
2051
2049
2048
2048
2047
2046
2045
2044
2044
2046
2048
2048
2048
2048
2048
2048
2048
2049
2049
2049
2048
2047
2046
2045
2045
2046
2046
2046
2046
2045
2045
2044
2044
2044
2044
2044
2043
2042
2041
2040
2040
2040
2040
2041
2041
2041
2040
2040
2039
2039
2039
2040
2040
2040
2041
2041
2041
2041
2040
2038
2035
2032
2030
2030
2031
2033
2037
2040
2044
2046
2046
2044
2041
2040
2040
2043
2046
2048
2048
2046
2044
2044
2045
2044
2042
2040
2043
2056
2079
2106
2129
2144
2154
2167
2180
2182
2158
2101
2025
1955
1917
1923
1960
2007
2043
2060
2063
2063
2062
2062
2063
2065
2067
2069
2070
2071
2072
2072
2072
2072
2073
2074
2075
2077
2078
2079
2080
2081
2082
2082
2083
2085
2086
2088
2090
2092
2093
2094
2095
2097
2098
2101
2103
2106
2108
2110
2111
2111
2111
2111
2111
2110
2110
2109
2108
2106
2104
2102
2099
2097
2093
2090
2087
2083
2079
2076
2072
2068
2064
2061
2058
2056
2054
2054
2054
2054
2054
2054
2054
2054
2055
2055
2055
2055
2055
2055
2055
2055
2055
2054
2054
2054
2055
2054
2054
2054
2053
2053
2052
2052
2052
2052
2052
2052
2051
2051
2050
2050
2049
2049
2048
2048
2048
2048
2048
2049
2049
2049
2049
2048
2048
2049
2049
2050
2050
2051
2050
2050
2050
2049
2048
2047
2045
2044
2044
2045
2047
2050
2053
2055
2057
2057
2056
2054
2051
2049
2049
2049
2049
2050
2051
2052
2053
2054
2052
2049
2047
2047
2059
2083
2116
2147
2172
2190
2209
2220
2215
2178
2106
2017
1938
1896
1901
1939
1988
2028
2049
2058
2062
2063
2063
2064
2066
2068
2069
2071
2072
2073
2073
2073
2074
2075
2076
2078
2079
2081
2082
2083
2084
2085
2086
2086
2088
2089
2091
2093
2095
2097
2098
2099
2100
2102
2104
2106
2108
2111
2112
2113
2114
2114
2114
2113
2113
2112
2112
2110
2108
2105
2103
2100
2097
2094
2090
2086
2083
2079
2075
2070
2066
2062
2059
2056
2054
2053
2051
2050
2049
2049
2048
2048
2048
2048
2048
2048
2048
2049
2049
2048
2048
2047
2047
2047
2048
2048
2049
2049
2049
2049
2048
2047
2046
2046
2046
2046
2046
2046
2045
2044
2043
2042
2042
2041
2041
2041
2041
2041
2040
2039
2039
2039
2039
2039
2040
2041
2041
2041
2041
2041
2041
2040
2039
2036
2033
2031
2030
2030
2032
2034
2037
2040
2043
2045
2046
2044
2042
2039
2037
2036
2036
2037
2038
2039
2040
2041
2042
2041
2038
2036
2038
2050
2072
2098
2120
2133
2141
2151
2161
2160
2134
2077
2003
1936
1902
1912
1952
2000
2036
2053
2057
2057
2056
2056
2058
2059
2060
2062
2063
2064
2064
2064
2065
2065
2066
2068
2069
2070
2071
2072
2073
2073
2074
2075
2076
2078
2081
2083
2084
2085
2086
2087
2089
2090
2093
2095
2098
2100
2102
2104
2104
2104
2105
2104
2105
2105
2105
2104
2102
2100
2098
2096
2094
2091
2088
2085
2081
2077
2073
2069
2064
2060
2057
2054
2052
2051
2050
2049
2048
2048
2048
2048
2048
2048
2048
2048
2048
2048
2049
2048
2048
2047
2047
2047
2048
2048
2048
2048
2048
2048
2047
2046
2046
2045
2045
2045
2045
2045
2045
2044
2043
2043
2043
2043
2044
2045
2045
2045
2045
2045
2045
2044
2044
2044
2044
2044
2044
2045
2045
2044
2043
2042
2041
2041
2040
2038
2035
2033
2032
2032
2034
2036
2039
2043
2047
2048
2048
2047
2044
2042
2041
2041
2041
2042
2042
2042
2043
2044
2045
2044
2041
2039
2045
2063
2092
2124
2149
2166
2181
2196
2203
2191
2145
2067
1982
1917
1895
1917
1962
2008
2038
2051
2056
2058
2058
2059
2060
2062
2063
2064
2065
2065
2066
2066
2067
2068
2069
2071
2072
2074
2075
2076
2077
2078
2079
2080
2081
2083
2085
2086
2088
2089
2090
2091
2093
2095
2098
2101
2104
2106
2107
2108
2110
2110
2111
2111
2110
2108
2106
2104
2102
2100
2098
2096
2093
2091
2088
2084
2081
2076
2072
2067
2062
2058
2055
2051
2048
2047
2045
2044
2043
2042
2042
2042
2042
2042
2043
2044
2044
2043
2043
2043
2044
2046
2048
2049
2050
2050
2049
2048
2048
2048
2048
2049
2050
2050
2050
2050
2049
2048
2047
2044
2042
2041
2041
2041
2040
2040
2038
2036
2034
2032
2031
2030
2031
2032
2033
2033
2032
2031
2031
2031
2032
2033
2033
2032
2030
2028
2026
2024
2024
2024
2026
2029
2033
2037
2039
2040
2038
2035
2031
2029
2028
2028
2029
2030
2030
2032
2033
2034
2032
2028
2025
2026
2040
2067
2102
2133
2153
2163
2173
2181
2177
2149
2088
2006
1928
1882
1881
1914
1961
2001
2026
2037
2043
2044
2045
2047
2048
2050
2051
2051
2052
2052
2054
2055
2057
2058
2058
2059
2059
2060
2061
2063
2064
2066
2068
2069
2071
2072
2072
2073
2075
2077
2080
2082
2085
2087
2089
2091
2093
2095
2096
2098
2099
2100
2101
2101
2101
2101
2099
2098
2096
2093
2091
2088
2085
2081
2077
2073
2069
2065
2060
2056
2052
2048
2046
2043
2041
2039
2037
2036
2034
2033
2033
2034
2034
2035
2036
2036
2036
2035
2036
2036
2037
2038
2038
2038
2038
2038
2037
2037
2037
2037
2037
2038
2039
2040
2040
2040
2039
2038
2038
2037
2037
2037
2037
2037
2038
2038
2037
2037
2036
2035
2035
2036
2037
2037
2037
2036
2035
2034
2035
2035
2036
2036
2037
2037
2037
2037
2036
2034
2032
2030
2029
2030
2032
2035
2038
2041
2045
2047
2048
2047
2045
2043
2042
2042
2043
2043
2042
2041
2042
2044
2047
2047
2044
2041
2041
2052
2074
2102
2127
2139
2144
2148
2158
2165
2155
2112
2043
1969
1917
1908
1937
1984
2026
2050
2059
2059
2060
2062
2066
2070
2074
2077
2078
2077
2075
2073
2070
2069
2069
2070
2071
2072
2072
2073
2073
2074
2075
2076
2078
2079
2081
2084
2086
2088
2090
2091
2092
2094
2096
2098
2102
2105
2109
2111
2113
2114
2115
2115
2115
2115
2114
2113
2111
2110
2108
2106
2103
2100
2095
2090
2085
2082
2079
2076
2073
2069
2065
2061
2057
2054
2052
2051
2049
2048
2048
2047
2046
2045
2044
2044
2045
2045
2046
2046
2046
2045
2045
2045
2045
2046
2047
2047
2047
2047
2047
2046
2045
2045
2044
2045
2046
2047
2048
2048
2049
2049
2048
2048
2046
2045
2043
2043
2043
2043
2043
2043
2043
2043
2044
2044
2045
2046
2047
2047
2046
2045
2043
2042
2040
2040
2040
2041
2041
2042
2042
2041
2041
2043
2045
2048
2048
2046
2041
2036
2032
2031
2032
2034
2037
2041
2045
2049
2053
2054
2053
2051
2048
2046
2045
2045
2045
2046
2046
2047
2047
2047
2046
2044
2044
2046
2055
2072
2095
2117
2130
2134
2133
2138
2148
2151
2130
2079
2012
1952
1924
1936
1976
2022
2053
2068
2069
2068
2068
2069
2070
2071
2073
2074
2075
2074
2074
2074
2074
2075
2077
2078
2079
2080
2081
2082
2083
2083
2084
2086
2087
2088
2089
2090
2091
2092
2093
2095
2096
2098
2099
2101
2102
2104
2107
2109
2111
2112
2114
2114
2114
2114
2113
2111
2110
2109
2107
2106
2103
2100
2096
2092
2088
2084
2080
2077
2073
2070
2067
2064
2062
2060
2058
2057
2056
2056
2056
2056
2055
2055
2055
2055
2055
2055
2056
2056
2056
2056
2056
2057
2056
2057
2056
2056
2055
2055
2056
2056
2057
2057
2056
2055
2054
2054
2054
2054
2054
2054
2054
2054
2054
2054
2053
2052
2052
2052
2052
2053
2054
2055
2055
2055
2054
2053
2053
2054
2054
2055
2055
2055
2055
2056
2056
2056
2056
2056
2057
2058
2058
2058
2057
2056
2056
2055
2055
2056
2056
2056
2057
2057
2057
2058
2057
2057
2057
2057
2058
2057
2055
2053
2050
2048
2049
2052
2056
2061
2065
2068
2069
2068
2066
2062
2058
2056
2055
2057
2060
2062
2065
2066
2066
2065
2062
2058
2055
2058
2072
2097
2126
2150
2164
2172
2183
2197
2204
2185
2131
2053
1978
1931
1929
1963
2009
2046
2065
2070
2071
2070
2070
2071
2072
2074
2075
2076
2076
2077
2078
2079
2080
2081
2082
2083
2083
2083
2084
2085
2086
2087
2089
2090
2091
2092
2094
2095
2097
2099
2101
2103
2105
2107
2110
2111
2113
2114
2116
2118
2120
2121
2121
2121
2120
2119
2118
2117
2116
2115
2113
2111
2108
2105
2101
2096
2091
2086
2081
2076
2072
2068
2064
2062
2059
2057
2055
2052
2050
2049
2048
2049
2049
2049
2049
2048
2048
2047
2047
2048
2048
2048
2048
2048
2047
2047
2047
2047
2047
2046
2045
2044
2044
2043
2043
2043
2043
2043
2043
2042
2041
2040
2040
2040
2039
2039
2038
2038
2037
2038
2038
2039
2039
2039
2038
2037
2035
2034
2035
2035
2036
2037
2037
2038
2038
2038
2038
2037
2037
2037
2039
2040
2040
2041
2040
2040
2039
2039
2040
2040
2041
2042
2043
2043
2042
2042
2042
2042
2042
2041
2038
2034
2032
2032
2034
2038
2043
2046
2048
2050
2051
2050
2048
2045
2042
2041
2041
2042
2043
2043
2042
2042
2043
2044
2043
2041
2039
2046
2065
2096
2129
2152
2166
2174
2184
2191
2182
2143
2072
1988
1920
1891
1906
1948
1995
2029
2047
2052
2054
2054
2054
2056
2059
2061
2062
2063
2063
2063
2063
2064
2065
2067
2068
2070
2070
2071
2071
2072
2073
2074
2075
2076
2078
2079
2080
2082
2083
2084
2086
2088
2090
2093
2095
2097
2099
2101
2103
2105
2106
2107
2107
2108
2107
2107
2106
2105
2103
2101
2098
2094
2090
2087
2083
2079
2074
2069
2064
2059
2055
2051
2048
2047
2044
2042
2040
2037
2036
2035
2034
2034
2035
2035
2035
2035
2035
2035
2035
2035
2035
2036
2037
2038
2038
2038
2038
2038
2037
2037
2036
2036
2037
2037
2037
2037
2037
2036
2035
2034
2034
2034
2034
2034
2034
2033
2033
2033
2032
2032
2032
2031
2031
2032
2032
2032
2032
2032
2032
2032
2032
2032
2033
2034
2034
2034
2033
2033
2032
2032
2032
2033
2033
2034
2034
2035
2035
2035
2035
2035
2035
2036
2036
2037
2037
2036
2034
2031
2029
2027
2027
2029
2033
2037
2040
2043
2045
2045
2043
2040
2037
2035
2035
2036
2037
2038
2038
2039
2039
2040
2039
2036
2034
2036
2050
2077
2109
2135
2149
2153
2158
2165
2166
2145
2092
2018
1943
1898
1895
1928
1976
2017
2042
2051
2054
2055
2055
2057
2058
2059
2060
2061
2062
2063
2064
2066
2067
2068
2069
2069
2070
2070
2071
2073
2074
2076
2077
2079
2079
2080
2081
2083
2084
2087
2089
2092
2095
2097
2099
2100
2102
2104
2107
2110
2112
2114
2115
2115
2114
2113
2111
2110
2108
2106
2104
2101
2097
2093
2088
2083
2078
2074
2070
2066
2062
2058
2054
2050
2048
2046
2044
2044
2043
2043
2042
2042
2041
2041
2041
2041
2041
2041
2042
2043
2044
2045
2045
2045
2044
2044
2044
2045
2045
2046
2046
2046
2046
2045
2044
2043
2042
2042
2042
2043
2043
2043
2043
2043
2042
2041
2040
2040
2039
2040
2040
2040
2040
2040
2039
2039
2039
2039
2039
2039
2039
2039
2039
2039
2039
2039
2040
2040
2041
2042
2042
2042
2042
2042
2042
2042
2043
2044
2044
2044
2043
2043
2042
2042
2042
2042
2042
2042
2042
2042
2043
2043
2043
2041
2038
2035
2034
2035
2037
2040
2044
2047
2049
2051
2051
2049
2047
2044
2042
2042
2042
2043
2043
2043
2044
2044
2044
2042
2039
2037
2040
2053
2076
2102
2121
2126
2123
2121
2129
2138
2132
2097
2036
1970
1924
1918
1949
1994
2034
2055
2062
2061
2059
2059
2059
2060
2061
2062
2063
2064
2065
2065
2065
2065
2065
2066
2067
2068
2069
2071
2073
2075
2077
2078
2079
2079
2080
2081
2082
2083
2084
2085
2087
2088
2090
2092
2094
2096
2099
2102
2104
2106
2107
2108
2109
2109
2110
2109
2108
2107
2104
2102
2099
2096
2092
2088
2084
2080
2076
2073
2069
2065
2061
2058
2056
2055
2055
2056
2057
2058
2059
2059
2058
2056
2054
2052
2050
2050
2050
2050
2050
2051
2051
2051
2051
2050
2050
2049
2050
2050
2050
2050
2049
2048
2048
2047
2047
2046
2047
2047
2047
2047
2047
2047
2046
2045
2044
2043
2043
2043
2043
2044
2043
2043
2042
2041
2041
2040
2041
2041
2042
2043
2043
2044
2044
2045
2046
2046
2047
2047
2047
2047
2047
2047
2047
2047
2047
2047
2047
2047
2047
2048
2048
2048
2048
2048
2048
2048
2048
2048
2049
2049
2049
2049
2048
2048
2048
2047
2045
2043
2043
2043
2046
2049
2053
2056
2058
2059
2058
2056
2053
2050
2048
2048
2048
2048
2049
2050
2051
2053
2054
2054
2051
2049
2049
2059
2078
2103
2126
2138
2142
2146
2154
2162
2153
2116
2052
1984
1934
1924
1951
1997
2038
2060
2068
2066
2063
2063
2064
2066
2067
2069
2071
2072
2072
2073
2073
2074
2075
2076
2078
2079
2080
2081
2082
2083
2084
2085
2086
2087
2089
2090
2091
2092
2094
2095
2096
2098
2100
2103
2105
2107
2109
2111
2113
2115
2116
2117
2118
2118
2118
2118
2117
2115
2113
2110
2107
2103
2100
2096
2092
2088
2084
2080
2076
2072
2069
2066
2063
2060
2058
2056
2055
2054
2053
2052
2051
2051
2052
2052
2053
2053
2053
2052
2052
2051
2051
2051
2052
2053
2053
2054
2053
2053
2052
2051
2051
2051
2051
2051
2052
2052
2051
2050
2050
2049
2049
2048
2048
2048
2048
2048
2048
2048
2047
2047
2046
2046
2046
2047
2047
2048
2048
2048
2048
2047
2046
2046
2046
2047
2048
2048
2048
2048
2048
2047
2047
2047
2047
2048
2048
2048
2048
2049
2049
2049
2049
2050
2050
2051
2051
2051
2052
2052
2052
2050
2048
2045
2044
2044
2047
2049
2053
2057
2059
2060
2060
2058
2055
2052
2051
2051
2051
2052
2053
2052
2053
2053
2054
2054
2052
2049
2050
2060
2083
2113
2142
2162
2175
2189
2204
2210
2194
2142
2062
1982
1927
1916
1944
1990
2032
2055
2064
2067
2066
2066
2067
2068
2070
2072
2074
2075
2075
2075
2074
2074
2075
2076
2078
2079
2080
2081
2082
2083
2084
2085
2086
2087
2089
2091
2092
2094
2095
2097
2098
2100
2102
2104
2106
2109
2111
2113
2115
2116
2117
2118
2118
2117
2117
2117
2116
2115
2114
2112
2109
2105
2102
2099
2095
2092
2087
2083
2078
2073
2069
2065
2062
2059
2057
2055
2054
2053
2053
2053
2052
2050
2049
2048
2048
2049
2050
2050
2050
2050
2050
2050
2050
2050
2050
2049
2049
2050
2050
2050
2049
2048
2047
2045
2043
2042
2041
2041
2040
2039
2038
2036
2035
2034
2033
2033
2034
2034
2035
2035
2035
2035
2035
2034
2035
2036
2036
2037
2036
2036
2035
2034
2034
2035
2035
2036
2037
2037
2038
2038
2039
2040
2040
2041
2041
2041
2042
2042
2041
2039
2037
2035
2034
2034
2035
2036
2038
2041
2044
2047
2048
2047
2045
2043
2041
2040
2041
2042
2042
2043
2043
2044
2045
2045
2042
2039
2038
2047
2069
2102
2136
2162
2176
2187
2196
2196
2176
2125
2047
1965
1907
1889
1912
1956
2001
2032
2048
2055
2059
2059
2060
2061
2063
2065
2066
2068
2070
2071
2072
2072
2072
2073
2074
2075
2076
2078
2079
2080
2082
2083
2085
2086
2087
2089
2090
2092
2094
2096
2097
2099
2100
2103
2105
2108
2110
2112
2114
2116
2117
2118
2117
2117
2116
2115
2114
2113
2111
2109
2106
2103
2099
2095
2091
2086
2082
2079
2075
2072
2068
2064
2060
2057
2054
2052
2051
2051
2050
2050
2049
2049
2048
2048
2048
2049
2049
2050
2051
2052
2052
2052
2052
2051
2051
2052
2054
2057
2059
2061
2060
2058
2055
2052
2050
2049
2049
2050
2049
2049
2048
2048
2048
2047
2046
2046
2045
2045
2045
2045
2045
2044
2044
2044
2044
2043
2044
2045
2046
2048
2048
2050
2050
2051
2053
2054
2055
2055
2056
2056
2056
2056
2055
2053
2051
2048
2048
2047
2046
2045
2043
2040
2038
2038
2040
2043
2047
2051
2054
2056
2056
2053
2050
2047
2046
2046
2048
2048
2049
2051
2051
2051
2050
2047
2044
2043
2051
2071
2098
2125
2141
2148
2152
2160
2167
2161
2127
2064
1993
1937
1921
1944
1988
2033
2060
2071
2072
2071
2071
2071
2072
2073
2074
2076
2078
2079
2080
2081
2082
2082
2083
2083
2084
2084
2085
2085
2086
2088
2089
2090
2091
2091
2092
2092
2093
2095
2097
2099
2102
2104
2106
2108
2110
2112
2113
2115
2117
2119
2120
2120
2119
2118
2116
2114
2113
2112
2110
2107
2104
2101
2097
2093
2089
2085
2081
2077
2073
2070
2067
2064
2061
2059
2057
2055
2054
2053
2053
2053
2053
2053
2053
2053
2053
2053
2053
2053
2054
2054
2055
2056
2056
2056
2055
2055
2055
2054
2055
2055
2055
2054
2054
2053
2052
2050
2050
2049
2049
2049
2049
2049
2048
2048
2048
2047
2046
2046
2046
2046
2046
2046
2046
2045
2045
2045
2045
2045
2046
2046
2046
2046
2046
2046
2045
2045
2045
2045
2045
2046
2047
2047
2047
2046
2046
2045
2043
2041
2039
2038
2038
2039
2041
2044
2048
2050
2053
2054
2052
2049
2047
2045
2044
2045
2045
2045
2046
2047
2048
2049
2048
2046
2044
2046
2057
2079
2106
2129
2144
2151
2159
2168
2170
2149
2097
2025
1956
1915
1918
1954
2002
2040
2059
2064
2063
2062
2062
2063
2064
2066
2068
2069
2070
2071
2071
2072
2072
2073
2074
2075
2076
2077
2078
2079
2079
2080
2081
2082
2084
2086
2088
2090
2091
2092
2093
2095
2096
2099
2101
2104
2106
2108
2110
2112
2113
2113
2114
2114
2114
2114
2113
2111
2109
2107
2104
2101
2097
2094
2090
2086
2083
2079
2074
2070
2066
2062
2059
2057
2056
2054
2053
2051
2050
2049
2048
2048
2048
2048
2048
2048
2048
2048
2048
2048
2048
2048
2048
2048
2048
2048
2048
2048
2047
2047
2047
2046
2046
2045
2046
2046
2046
2046
2045
2044
2043
2043
2042
2042
2042
2042
2042
2042
2042
2041
2041
2040
2040
2040
2040
2040
2040
2040
2040
2039
2039
2038
2037
2038
2038
2038
2039
2039
2039
2039
2038
2039
2039
2040
2041
2041
2041
2041
2041
2040
2038
2036
2033
2032
2032
2033
2036
2039
2043
2046
2048
2048
2047
2044
2041
2039
2038
2039
2040
2040
2041
2042
2043
2044
2043
2041
2038
2040
2050
2072
2100
2125
2141
2150
2158
2167
2169
2149
2099
2028
1956
1912
1910
1943
1990
2031
2053
2060
2060
2059
2059
2060
2061
2061
2063
2064
2065
2066
2066
2067
2067
2067
2067
2068
2069
2071
2072
2074
2075
2076
2076
2077
2078
2079
2081
2082
2084
2086
2088
2089
2091
2092
2094
2096
2098
2100
2103
2105
2107
2108
2108
2107
2105
2104
2103
2102
2101
2100
2098
2095
2092
2088
2084
2080
2077
2073
2070
2067
2063
2060
2056
2053
2050
2048
2047
2046
2046
2046
2046
2045
2045
2044
2044
2044
2044
2045
2045
2045
2045
2045
2045
2045
2045
2045
2045
2045
2045
2044
2044
2043
2042
2042
2042
2042
2042
2042
2040
2039
2037
2036
2035
2035
2034
2034
2034
2034
2034
2034
2034
2033
2033
2032
2032
2033
2033
2033
2033
2034
2034
2035
2035
2035
2035
2034
2034
2035
2035
2036
2037
2037
2037
2036
2036
2036
2036
2035
2033
2032
2030
2031
2032
2034
2038
2041
2044
2047
2047
2046
2043
2039
2037
2036
2037
2038
2040
2041
2042
2043
2044
2042
2039
2036
2039
2054
2082
2117
2147
2169
2186
2203
2214
2209
2171
2097
2008
1932
1894
1904
1944
1992
2028
2047
2053
2055
2055
2055
2057
2059
2061
2062
2063
2064
2064
2065
2066
2067
2068
2069
2070
2071
2072
2073
2073
2074
2075
2076
2078
2080
2082
2083
2084
2084
2085
2087
2090
2093
2096
2098
2100
2102
2103
2104
2106
2106
2107
2108
2108
2108
2107
2105
2102
2100
2098
2096
2094
2092
2088
2083
2077
2072
2066
2061
2057
2053
2049
2047
2043
2040
2037
2036
2034
2033
2032
2030
2029
2028
2028
2029
2029
2030
2030
2030
2030
2030
2031
2032
2032
2033
2033
2033
2032
2031
2031
2031
2031
2031
2032
2032
2032
2032
2031
2030
2030
2029
2029
2029
2029
2029
2029
2029
2029
2029
2029
2029
2029
2030
2030
2029
2029
2029
2028
2028
2028
2027
2026
2027
2028
2029
2031
2032
2032
2032
2032
2032
2033
2033
2033
2033
2031
2029
2027
2027
2028
2030
2032
2035
2038
2041
2043
2043
2041
2037
2034
2033
2034
2036
2037
2039
2039
2040
2040
2040
2037
2034
2031
2035
2053
2083
2120
2150
2169
2181
2192
2198
2188
2149
2077
1991
1918
1883
1894
1933
1980
2017
2038
2047
2051
2053
2054
2055
2055
2056
2057
2059
2061
2062
2063
2064
2065
2065
2066
2066
2067
2069
2070
2072
2073
2075
2076
2077
2077
2077
2079
2080
2082
2085
2087
2090
2091
2093
2094
2096
2098
2100
2102
2105
2106
2108
2108
2108
2107
2105
2103
2101
2099
2098
2096
2094
2090
2086
2081
2077
2073
2069
2065
2061
2057
2054
2051
2048
2046
2044
2041
2040
2039
2040
2040
2040
2040
2040
2040
2040
2040
2041
2041
2042
2043
2043
2043
2043
2043
2043
2043
2043
2044
2044
2044
2044
2043
2043
2042
2041
2041
2041
2041
2041
2041
2040
2040
2039
2038
2037
2037
2037
2037
2037
2036
2036
2036
2036
2036
2036
2036
2036
2036
2036
2036
2037
2038
2038
2038
2038
2038
2038
2038
2039
2040
2040
2041
2041
2041
2041
2041
2040
2038
2036
2033
2032
2032
2034
2036
2039
2043
2047
2049
2052
2052
2050
2048
2045
2045
2045
2047
2048
2048
2048
2048
2049
2048
2045
2040
2039
2047
2067
2095
2122
2138
2145
2150
2160
2167
2157
2115
2045
1969
1913
1900
1928
1975
2020
2047
2056
2057
2056
2056
2057
2058
2059
2061
2062
2063
2063
2064
2065
2066
2067
2069
2069
2070
2070
2069
2069
2070
2071
2073
2075
2077
2078
2079
2080
2081
2083
2085
2087
2089
2091
2094
2096
2098
2101
2103
2104
2106
2107
2108
2108
2108
2109
2109
2109
2108
2106
2103
2100
2097
2094
2090
2086
2082
2078
2073
2069
2065
2062
2059
2057
2056
2055
2054
2053
2051
2050
2049
2048
2048
2049
2050
2051
2051
2052
2052
2051
2051
2051
2052
2052
2052
2053
2052
2052
2052
2051
2051
2051
2051
2051
2051
2050
2050
2049
2048
2048
2048
2047
2047
2047
2047
2047
2046
2046
2045
2045
2044
2044
2044
2044
2044
2044
2044
2044
2044
2043
2043
2042
2042
2042
2042
2042
2043
2043
2043
2042
2042
2042
2043
2043
2044
2045
2045
2045
2044
2044
2044
2044
2045
2045
2045
2043
2041
2038
2037
2037
2039
2042
2047
2050
2054
2055
2054
2051
2048
2045
2043
2043
2044
2046
2047
2048
2048
2049
2049
2047
2044
2041
2045
2059
2083
2110
2131
2142
2145
2150
2158
2161
2142
2093
2023
1957
1919
1923
1959
2005
2042
2060
2064
2063
2062
2063
2064
2065
2066
2067
2068
2068
2069
2070
2071
2072
2072
2073
2073
2074
2075
2076
2077
2079
2080
2081
2083
2084
2085
2086
2087
2088
2090
2092
2094
2096
2098
2100
2102
2104
2106
2109
2111
2113
2115
2116
2117
2116
2116
2114
2113
2111
2109
2107
2104
2102
2098
2094
2089
2084
2080
2075
2071
2068
2064
2061
2059
2056
2054
2052
2050
2049
2049
2048
2048
2048
2049
2049
2049
2048
2048
2048
2048
2049
2049
2049
2049
2049
2048
2048
2048
2048
2047
2047
2047
2047
2047
2047
2047
2046
2046
2045
2045
2045
2045
2045
2045
2044
2043
2042
2041
2041
2041
2041
2041
2042
2041
2041
2041
2041
2041
2041
2041
2041
2042
2042
2042
2042
2042
2041
2041
2041
2041
2041
2042
2042
2042
2043
2043
2043
2043
2042
2043
2043
2044
2045
2045
2045
2045
2045
2045
2045
2045
2046
2045
2043
2040
2037
2036
2037
2039
2042
2046
2049
2052
2053
2052
2049
2047
2043
2041
2041
2042
2044
2045
2046
2047
2047
2048
2045
2042
2040
2044
2057
2082
2110
2132
2144
2149
2156
2165
2167
2148
2097
2027
1958
1918
1921
1955
2001
2038
2057
2062
2062
2061
2062
2063
2064
2064
2065
2066
2066
2067
2068
2069
2070
2071
2071
2072
2072
2073
2074
2075
2077
2078
2080
2081
2082
2083
2084
2086
2087
2089
2091
2093
2096
2097
2099
2101
2102
2105
2107
2110
2112
2113
2114
2114
2113
2112
2111
2110
2109
2107
2106
2103
2100
2097
2093
2089
2085
2080
2076
2072
2069
2066
2063
2060
2057
2054
2052
2050
2049
2048
2048
2048
2048
2048
2048
2048
2048
2047
2047
2047
2048
2048
2048
2048
2048
2048
2047
2047
2047
2047
2047
2048
2048
2048
2048
2048
2047
2046
2045
2045
2045
2045
2045
2044
2044
2044
2044
2043
2043
2043
2043
2043
2043
2042
2042
2042
2042
2042
2042
2042
2043
2043
2043
2043
2043
2043
2042
2042
2042
2042
2042
2043
2044
2044
2044
2044
2044
2044
2044
2045
2046
2046
2047
2046
2045
2044
2043
2043
2044
2045
2047
2047
2048
2048
2047
2047
2046
2044
2043
2041
2039
2040
2042
2045
2048
2051
2053
2054
2053
2050
2048
2046
2044
2044
2045
2045
2045
2045
2045
2046
2047
2047
2045
2041
2040
2048
2069
2101
2134
2159
2175
2190
2205
2211
2196
2146
2065
1978
1913
1892
1914
1958
2003
2032
2046
2051
2052
2053
2054
2056
2058
2059
2061
2062
2062
2062
2062
2063
2063
2064
2064
2065
2067
2068
2069
2070
2070
2071
2073
2074
2076
2078
2079
2080
2082
2084
2085
2087
2089
2091
2093
2096
2098
2101
2103
2105
2106
2107
2107
2107
2107
2106
2105
2103
2101
2099
2097
2094
2090
2087
2083
2079
2075
2071
2066
2062
2057
2054
2050
2048
2046
2044
2043
2041
2040
2039
2038
2038
2038
2038
2038
2038
2038
2038
2039
2039
2038
2038
2038
2038
2040
2041
2042
2042
2042
2041
2041
2040
2040
2041
2041
2041
2040
2040
2039
2038
2038
2037
2037
2037
2036
2036
2036
2035
2035
2035
2034
2034
2034
2035
2036
2036
2036
2035
2033
2031
2030
2030
2031
2032
2034
2034
2034
2034
2033
2032
2031
2030
2030
2030
2030
2031
2031
2032
2032
2032
2032
2031
2031
2031
2032
2032
2032
2033
2033
2034
2034
2034
2035
2036
2037
2038
2038
2036
2034
2032
2030
2031
2033
2037
2042
2046
2048
2048
2047
2044
2040
2038
2037
2037
2037
2038
2039
2039
2040
2040
2041
2040
2038
2036
2037
2047
2068
2096
2123
2138
2144
2148
2157
2164
2155
2115
2047
1972
1917
1905
1932
1978
2021
2047
2056
2058
2057
2057
2057
2058
2059
2060
2061
2062
2064
2065
2066
2067
2067
2067
2067
2068
2068
2070
2071
2073
2074
2075
2076
2077
2078
2080
2081
2083
2085
2087
2089
2091
2093
2094
2096
2098
2100
2103
2106
2108
2110
2111
2111
2111
2110
2109
2108
2107
2106
2104
2102
2099
2095
2091
2086
2082
2077
2073
2068
2065
2061
2058
2054
2051
2049
2047
2046
2045
2045
2044
2044
2044
2044
2044
2044
2044
2044
2044
2045
2045
2045
2045
2045
2045
2045
2044
2044
2044
2044
2044
2044
2044
2044
2043
2042
2042
2041
2041
2041
2041
2041
2040
2039
2038
2038
2037
2037
2037
2037
2037
2037
2036
2036
2035
2034
2034
2034
2034
2035
2035
2036
2036
2036
2035
2035
2035
2035
2035
2035
2036
2036
2036
2036
2036
2035
2036
2036
2036
2037
2037
2037
2037
2037
2037
2037
2037
2037
2037
2038
2039
2040
2041
2040
2040
2040
2040
2040
2039
2038
2036
2035
2034
2036
2040
2044
2048
2050
2052
2051
2049
2047
2044
2042
2041
2040
2041
2041
2042
2043
2044
2044
2045
2042
2039
2037
2041
2054
2079
2106
2127
2138
2142
2148
2157
2158
2137
2085
2014
1947
1910
1916
1954
2000
2037
2054
2058
2057
2057
2058
2059
2060
2062
2063
2064
2064
2065
2066
2067
2068
2068
2069
2070
2071
2072
2072
2073
2074
2076
2078
2079
2081
2082
2084
2085
2086
2088
2090
2092
2094
2097
2099
2101
2103
2105
2107
2109
2111
2113
2114
2115
2115
2114
2113
2112
2110
2108
2106
2103
2101
2097
2094
2089
2084
2079
2074
2070
2065
2062
2058
2055
2053
2051
2049
2048
2046
2046
2045
2045
2045
2045
2045
2045
2045
2044
2044
2045
2045
2045
2045
2045
2045
2045
2046
2045
2045
2045
2045
2045
2045
2045
2044
2044
2043
2042
2041
2041
2040
2040
2040
2039
2039
2039
2039
2038
2038
2037
2037
2037
2037
2037
2037
2036
2036
2035
2035
2034
2034
2035
2035
2036
2036
2036
2036
2036
2035
2035
2035
2035
2036
2036
2037
2037
2037
2037
2037
2037
2037
2037
2038
2039
2039
2039
2039
2038
2038
2039
2039
2040
2041
2041
2042
2042
2042
2042
2041
2039
2037
2035
2036
2039
2043
2047
2051
2053
2054
2053
2050
2048
2045
2043
2043
2044
2044
2044
2044
2045
2046
2047
2047
2045
2043
2041
2048
2065
2091
2119
2139
2152
2161
2173
2183
2178
2144
2077
1999
1935
1910
1927
1970
2016
2047
2060
2062
2061
2060
2060
2060
2061
2063
2065
2066
2067
2067
2067
2068
2068
2069
2070
2072
2074
2076
2077
2077
2078
2078
2079
2080
2082
2083
2085
2086
2087
2088
2090
2092
2094
2097
2100
2102
2105
2107
2108
2110
2111
2112
2113
2113
2113
2113
2112
2111
2110
2109
2107
2105
2102
2098
2094
2090
2085
2082
2077
2073
2068
2063
2059
2056
2054
2053
2052
2051
2050
2049
2048
2048
2048
2048
2048
2048
2048
2048
2048
2049
2049
2049
2048
2048
2048
2049
2049
2048
2048
2047
2046
2046
2046
2046
2046
2047
2046
2046
2045
2044
2044
2043
2042
2042
2042
2043
2043
2043
2043
2043
2042
2042
2042
2041
2042
2042
2042
2042
2041
2040
2039
2038
2038
2038
2040
2041
2043
2044
2043
2043
2041
2041
2040
2040
2041
2042
2043
2044
2045
2045
2045
2044
2044
2042
2040
2037
2035
2033
2032
2033
2036
2039
2042
2045
2046
2045
2042
2039
2036
2034
2034
2034
2035
2036
2037
2038
2038
2039
2036
2033
2030
2034
2051
2082
2119
2150
2171
2185
2198
2205
2193
2152
2078
1991
1918
1883
1892
1931
1978
2015
2035
2044
2048
2048
2049
2052
2054
2055
2057
2058
2059
2060
2060
2061
2062
2063
2064
2065
2066
2066
2067
2068
2069
2070
2072
2073
2074
2076
2078
2080
2081
2083
2085
2087
2089
2092
2094
2096
2098
2100
2102
2104
2106
2107
2108
2108
2108
2108
2107
2105
2103
2100
2098
2095
2093
2089
2085
2081
2076
2071
2067
2062
2058
2054
2051
2049
2047
2045
2043
2041
2039
2038
2038
2038
2039
2039
2040
2040
2040
2040
2040
2040
2040
2041
2042
2042
2043
2044
2044
2044
2044
2043
2043
2043
2043
2043
2042
2042
2042
2041
2041
2040
2039
2039
2038
2038
2038
2038
2037
2037
2036
2036
2035
2035
2036
2036
2037
2037
2036
2036
2036
2036
2036
2036
2036
2036
2037
2038
2039
2039
2039
2039
2039
2039
2039
2040
2041
2042
2042
2041
2039
2036
2034
2032
2032
2033
2035
2038
2041
2045
2048
2048
2048
2045
2042
2039
2038
2039
2040
2040
2041
2041
2042
2043
2042
2039
2037
2036
2045
2066
2094
2122
2140
2149
2157
2168
2175
2163
2120
2048
1970
1913
1899
1925
1971
2016
2044
2055
2057
2057
2056
2057
2058
2059
2060
2061
2063
2064
2065
2066
2066
2066
2067
2068
2070
2072
2074
2076
2077
2078
2078
2079
2080
2081
2083
2085
2087
2089
2091
2093
2095
2097
2100
2102
2104
2106
2108
2110
2112
2114
2114
2115
2115
2114
2113
2112
2112
2110
2108
2105
2101
2097
2092
2088
2083
2079
2075
2071
2067
2062
2058
2055
2052
2050
2048
2048
2047
2046
2046
2046
2046
2046
2046
2046
2046
2046
2047
2047
2047
2047
2047
2047
2047
2047
2048
2048
2048
2048
2048
2048
2048
2047
2046
2045
2045
2045
2045
2045
2044
2044
2043
2042
2042
2042
2041
2041
2040
2039
2039
2039
2040
2040
2040
2038
2037
2036
2036
2037
2037
2037
2036
2035
2035
2035
2036
2037
2038
2039
2039
2039
2039
2038
2037
2035
2033
2031
2029
2029
2031
2033
2036
2039
2043
2046
2048
2048
2046
2043
2040
2039
2039
2039
2040
2041
2043
2044
2045
2045
2042
2040
2040
2048
2065
2091
2116
2132
2140
2148
2159
2168
2160
2122
2054
1980
1923
1907
1931
1976
2020
2048
2058
2059
2058
2059
2060
2062
2062
2063
2063
2063
2064
2066
2068
2068
2069
2069
2070
2072
2074
2075
2076
2077
2078
2079
2081
2082
2084
2086
2087
2088
2088
2090
2092
2095
2097
2099
2101
2103
2105
2107
2109
2111
2112
2113
2113
2114
2115
2116
2116
2114
2111
2108
2105
2102
2098
2094
2089
2083
2077
2072
2068
2064
2060
2057
2054
2052
2050
2049
2048
2048
2048
2047
2047
2046
2047
2047
2048
2048
2048
2048
2047
2045
2044
2044
2046
2048
2050
2051
2050
2049
2047
2045
2044
2045
2045
2046
2046
2047
2047
2047
2047
2046
2045
2044
2043
2043
2043
2043
2042
2042
2041
2040
2040
2039
2039
2039
2039
2039
2039
2039
2039
2037
2036
2036
2037
2038
2038
2038
2038
2037
2036
2036
2036
2035
2032
2030
2028
2027
2028
2030
2033
2036
2039
2042
2044
2044
2043
2040
2037
2035
2035
2035
2035
2036
2037
2038
2038
2037
2035
2032
2033
2043
2062
2088
2112
2128
2138
2150
2164
2172
2157
2108
2034
1959
1912
1908
1942
1990
2030
2051
2056
2055
2054
2054
2055
2056
2057
2059
2060
2060
2060
2061
2062
2063
2065
2067
2068
2069
2070
2070
2071
2071
2072
2073
2075
2076
2078
2079
2080
2082
2083
2084
2086
2088
2090
2093
2095
2097
2098
2099
2101
2102
2103
2103
2102
2101
2100
2099
2099
2098
2096
2094
2090
2087
2083
2080
2076
2073
2069
2065
2061
2057
2054
2050
2048
2045
2043
2042
2041
2040
2040
2039
2039
2039
2040
2041
2041
2042
2042
2043
2043
2043
2043
2043
2044
2044
2045
2045
2045
2045
2044
2044
2043
2043
2044
2044
2044
2044
2043
2042
2042
2041
2040
2040
2040
2040
2039
2039
2039
2039
2039
2038
2038
2038
2038
2038
2039
2039
2039
2039
2039
2039
2039
2040
2040
2040
2040
2040
2039
2037
2035
2032
2031
2032
2034
2038
2042
2046
2049
2051
2050
2048
2046
2043
2042
2042
2044
2045
2045
2046
2047
2047
2047
2045
2043
2042
2048
2065
2090
2117
2136
2150
2164
2180
2192
2185
2145
2074
1994
1933
1913
1935
1979
2023
2050
2062
2064
2063
2063
2064
2064
2065
2066
2068
2069
2071
2072
2073
2073
2073
2073
2073
2073
2074
2075
2076
2077
2078
2079
2081
2082
2084
2085
2086
2088
2089
2090
2092
2094
2096
2097
2099
2101
2102
2104
2107
2110
2112
2113
2113
2111
2110
2108
2107
2107
2106
2104
2102
2099
2096
2092
2089
2085
2082
2078
2074
2071
2068
2065
2062
2059
2056
2054
2053
2053
2053
2053
2053
2053
2053
2053
2053
2053
2054
2054
2054
2054
2054
2054
2053
2052
2052
2052
2052
2052
2053
2052
2051
2050
2049
2048
2048
2048
2048
2048
2048
2047
2046
2044
2043
2043
2042
2043
2043
2043
2043
2043
2042
2042
2042
2042
2042
2042
2042
2041
2041
2042
2043
2044
2044
2044
2042
2040
2037
2036
2036
2037
2040
2043
2045
2048
2048
2049
2048
2047
2045
2044
2043
2044
2045
2045
2046
2047
2048
2048
2048
2047
2044
2044
2053
2077
2109
2143
2169
2188
2208
2222
2221
2190
2123
2032
1947
1895
1892
1928
1977
2021
2046
2055
2060
2061
2061
2062
2064
2065
2067
2068
2069
2069
2069
2070
2070
2071
2072
2072
2073
2074
2076
2077
2078
2079
2079
2081
2082
2084
2085
2087
2088
2090
2091
2094
2096
2098
2100
2102
2104
2106
2109
2111
2112
2113
2114
2114
2113
2113
2112
2111
2109
2107
2105
2102
2098
2094
2090
2087
2083
2079
2076
2072
2067
2063
2059
2056
2053
2052
2050
2050
2049
2049
2048
2048
2047
2047
2047
2047
2048
2048
2049
2049
2050
2050
2050
2051
2051
2051
2051
2052
2052
2053
2052
2052
2050
2049
2048
2048
2048
2049
2049
2049
2049
2048
2048
2048
2048
2048
2048
2048
2048
2048
2048
2047
2047
2047
2047
2047
2048
2048
2048
2049
2048
2048
2048
2049
2049
2049
2049
2048
2046
2043
2042
2042
2044
2047
2049
2054
2058
2060
2061
2059
2056
2052
2050
2050
2051
2053
2054
2055
2056
2057
2057
2055
2052
2051
2057
2075
2101
2131
2153
2168
2177
2189
2197
2190
2154
2086
2008
1944
1920
1938
1981
2027
2057
2072
2074
2074
2074
2075
2077
2077
2078
2079
2080
2081
2081
2082
2084
2085
2085
2085
2086
2086
2086
2087
2089
2090
2092
2093
2094
2095
2096
2098
2099
2100
2101
2102
2104
2105
2107
2109
2110
2112
2113
2114
2116
2116
2116
2114
2113
2111
2110
2109
2109
2109
2108
2107
2105
2102
2098
2094
2090
2086
2081
2077
2073
2070
2067
2064
2062
2059
2057
2055
2054
2054
2054
2054
2054
2054
2055
2054
2054
2054
2054
2054
2054
2055
2055
2055
2055
2055
2055
2054
2054
2053
2053
2053
2052
2051
2050
2048
2047
2046
2046
2047
2048
2048
2048
2047
2045
2043
2042
2041
2040
2040
2040
2040
2040
2040
2040
2040
2039
2039
2038
2038
2038
2039
2039
2040
2040
2040
2040
2038
2038
2036
2034
2032
2031
2030
2031
2033
2035
2038
2041
2043
2044
2043
2041
2038
2035
2033
2032
2033
2033
2033
2034
2035
2036
2036
2033
2029
2027
2035
2054
2084
2116
2140
2156
2173
2189
2196
2179
2126
2044
1958
1898
1884
1912
1959
2004
2030
2040
2043
2043
2043
2044
2046
2047
2048
2048
2049
2050
2051
2051
2052
2053
2054
2055
2057
2058
2058
2059
2059
2060
2060
2061
2062
2063
2065
2066
2068
2070
2072
2073
2075
2077
2079
2081
2083
2085
2086
2088
2089
2089
2090
2091
2091
2091
2091
2091
2090
2087
2084
2080
2077
2074
2071
2068
2065
2061
2056
2051
2048
2043
2040
2036
2034
2032
2030
2029
2028
2027
2025
2024
2024
2024
2025
2025
2026
2027
2027
2027
2027
2026
2025
2025
2024
2025
2025
2026
2027
2027
2027
2026
2024
2024
2024
2024
2025
2025
2025
2024
2023
2023
2022
2022
2022
2021
2021
2021
2021
2021
2021
2021
2021
2021
2021
2021
2021
2022
2022
2022
2022
2021
2021
2021
2021
2021
2020
2018
2017
2015
2015
2015
2017
2018
2020
2023
2026
2028
2029
2027
2024
2021
2019
2019
2020
2021
2022
2023
2024
2025
2026
2024
2020
2016
2019
2037
2066
2103
2133
2151
2162
2173
2179
2171
2133
2063
1976
1902
1865
1874
1913
1960
1998
2020
2030
2035
2037
2038
2040
2042
2044
2045
2046
2047
2048
2048
2050
2051
2051
2051
2051
2051
2052
2053
2054
2054
2055
2055
2056
2057
2058
2060
2063
2065
2067
2069
2071
2072
2074
2076
2078
2081
2084
2087
2089
2090
2091
2091
2091
2090
2088
2087
2085
2084
2082
2080
2078
2075
2071
2067
2062
2056
2050
2046
2042
2038
2035
2033
2030
2028
2026
2024
2023
2023
2022
2022
2023
2023
2023
2023
2023
2022
2023
2024
2025
2026
2026
2026
2025
2025
2025
2025
2026
2026
2026
2025
2025
2025
2025
2025
2025
2025
2024
2022
2021
2020
2020
2021
2021
2021
2020
2019
2019
2019
2020
2021
2022
2022
2022
2022
2021
2021
2021
2021
2022
2023
2024
2026
2026
2027
2026
2026
2025
2025
2024
2023
2022
2022
2022
2023
2024
2025
2028
2030
2033
2035
2034
2032
2029
2027
2026
2026
2027
2029
2030
2031
2033
2034
2033
2029
2026
2026
2038
2062
2093
2122
2139
2146
2154
2163
2166
2149
2100
2027
1951
1903
1897
1930
1977
2020
2045
2054
2057
2057
2058
2060
2062
2064
2065
2066
2067
2067
2068
2069
2069
2070
2070
2070
2070
2071
2072
2073
2074
2075
2076
2078
2079
2079
2080
2080
2081
2083
2085
2087
2089
2092
2094
2096
2099
2101
2103
2105
2107
2108
2109
2109
2109
2108
2107
2106
2104
2102
2099
2095
2092
2088
2084
2080
2076
2071
2067
2062
2058
2054
2052
2049
2048
2046
2045
2044
2042
2042
2041
2042
2043
2045
2047
2048
2048
2048
2048
2047
2047
2047
2047
2047
2047
2047
2046
2046
2045
2045
2045
2046
2046
2046
2046
2046
2046
2045
2044
2043
2043
2043
2043
2043
2043
2043
2043
2042
2042
2042
2041
2041
2041
2041
2041
2042
2042
2042
2042
2041
2041
2041
2041
2041
2041
2042
2042
2043
2043
2043
2043
2044
2044
2045
2044
2042
2040
2037
2035
2034
2035
2038
2043
2048
2052
2055
2055
2054
2051
2048
2046
2046
2047
2048
2049
2050
2052
2053
2053
2051
2048
2047
2048
2061
2085
2112
2135
2147
2150
2155
2163
2168
2154
2109
2041
1971
1926
1924
1957
2004
2045
2066
2073
2073
2073
2073
2074
2074
2075
2076
2077
2078
2079
2080
2080
2081
2081
2082
2083
2083
2084
2085
2086
2087
2089
2090
2091
2092
2092
2093
2094
2095
2097
2099
2101
2103
2105
2106
2108
2110
2112
2114
2116
2118
2119
2120
2120
2119
2118
2118
2117
2116
2114
2112
2109
2106
2102
2098
2093
2089
2084
2080
2076
2072
2069
2066
2063
2060
2058
2056
2055
2054
2054
2054
2054
2054
2053
2053
2053
2052
2052
2053
2053
2053
2054
2054
2053
2053
2052
2051
2051
2051
2051
2051
2051
2051
2050
2050
2049
2048
2048
2048
2048
2048
2048
2048
2048
2047
2046
2045
2045
2044
2045
2045
2045
2045
2045
2044
2044
2044
2044
2043
2043
2044
2044
2044
2044
2043
2043
2043
2043
2044
2044
2045
2045
2046
2045
2045
2045
2045
2045
2045
2046
2046
2047
2048
2048
2048
2048
2046
2043
2041
2040
2040
2041
2044
2048
2051
2054
2056
2057
2054
2051
2048
2047
2047
2047
2048
2048
2048
2048
2049
2050
2049
2047
2045
2045
2053
2072
2098
2122
2137
2144
2148
2157
2164
2156
2119
2054
1983
1930
1917
1942
1988
2031
2055
2065
2065
2063
2063
2064
2065
2066
2067
2069
2070
2071
2071
2072
2072
2072
2073
2074
2075
2077
2078
2080
2080
2081
2082
2083
2085
2086
2088
2089
2090
2091
2093
2094
2096
2097
2099
2101
2104
2106
2109
2111
2112
2114
2115
2115
2115
2114
2114
2112
2112
2110
2109
2107
2104
2100
2096
2092
2088
2084
2080
2075
2071
2067
2063
2060
2057
2056
2054
2053
2052
2051
2050
2050
2049
2049
2050
2050
2050
2051
2051
2051
2051
2051
2051
2051
2051
2051
2051
2052
2052
2052
2051
2051
2050
2049
2049
2049
2049
2048
2048
2048
2047
2047
2046
2046
2046
2046
2046
2046
2046
2045
2045
2045
2044
2044
2045
2045
2045
2045
2045
2045
2046
2046
2046
2045
2045
2045
2046
2046
2047
2047
2047
2046
2046
2046
2046
2047
2048
2048
2048
2048
2049
2048
2048
2048
2048
2049
2050
2051
2051
2051
2052
2052
2052
2051
2049
2048
2046
2045
2046
2048
2051
2055
2059
2061
2063
2062
2060
2057
2055
2053
2052
2053
2053
2054
2054
2056
2057
2059
2057
2052
2048
2048
2061
2085
2116
2144
2162
2172
2185
2199
2204
2185
2130
2051
1974
1925
1922
1955
2002
2041
2061
2067
2067
2066
2066
2067
2068
2070
2072
2073
2074
2074
2074
2075
2075
2077
2078
2080
2081
2082
2083
2083
2084
2085
2087
2088
2089
2091
2092
2094
2095
2097
2099
2100
2103
2105
2107
2109
2111
2113
2115
2116
2118
2119
2120
2120
2121
2121
2120
2118
2116
2113
2111
2110
2108
2105
2102
2099
2095
2091
2087
2083
2078
2074
2070
2067
2064
2062
2061
2059
2057
2056
2055
2055
2055
2055
2055
2056
2056
2056
2056
2055
2055
2055
2055
2055
2055
2055
2056
2056
2056
2056
2055
2054
2054
2054
2054
2054
2053
2053
2052
2052
2051
2051
2050
2049
2049
2048
2048
2048
2048
2047
2047
2047
2047
2048
2048
2048
2047
2047
2046
2046
2046
2046
2047
2048
2048
2048
2048
2048
2048
2048
2048
2048
2048
2048
2048
2048
2048
2048
2048
2048
2049
2049
2049
2049
2049
2049
2049
2050
2050
2050
2050
2050
2050
2050
2051
2051
2049
2048
2045
2044
2045
2047
2050
2054
2057
2059
2060
2059
2056
2053
2049
2048
2048
2048
2048
2049
2050
2051
2051
2052
2050
2048
2045
2045
2056
2081
2113
2143
2163
2174
2184
2193
2193
2169
2114
2035
1958
1908
1902
1933
1980
2022
2048
2057
2061
2062
2062
2063
2064
2065
2066
2067
2068
2069
2070
2071
2071
2072
2073
2073
2074
2075
2076
2077
2078
2079
2081
2082
2083
2085
2086
2088
2089
2091
2092
2094
2096
2097
2099
2100
2102
2105
2108
2110
2112
2113
2114
2114
2114
2113
2112
2111
2110
2108
2106
2103
2100
2096
2092
2088
2083
2078
2074
2070
2066
2063
2060
2056
2053
2050
2048
2047
2045
2045
2045
2045
2045
2045
2044
2044
2044
2044
2044
2045
2045
2046
2046
2046
2046
2045
2045
2045
2045
2045
2046
2046
2046
2045
2045
2044
2043
2042
2042
2042
2042
2042
2041
2041
2040
2039
2038
2038
2038
2038
2038
2038
2039
2038
2038
2037
2036
2036
2035
2035
2036
2036
2037
2037
2037
2037
2036
2036
2036
2036
2036
2037
2037
2037
2037
2037
2037
2037
2037
2037
2038
2038
2039
2039
2039
2038
2038
2037
2037
2037
2038
2039
2039
2040
2040
2040
2040
2040
2040
2040
2041
2041
2042
2042
2041
2040
2037
2036
2036
2038
2042
2047
2051
2054
2055
2053
2050
2048
2045
2043
2043
2043
2044
2044
2044
2044
2045
2045
2046
2044
2041
2039
2042
2055
2078
2105
2125
2136
2139
2147
2158
2163
2147
2098
2027
1957
1917
1919
1954
2002
2040
2058
2063
2062
2060
2060
2061
2062
2063
2065
2066
2067
2069
2069
2070
2070
2070
2071
2071
2073
2074
2076
2077
2079
2080
2081
2082
2084
2085
2087
2089
2091
2093
2094
2096
2098
2100
2102
2104
2107
2110
2112
2115
2116
2118
2118
2119
2119
2119
2118
2118
2117
2115
2113
2110
2107
2103
2099
2094
2090
2086
2081
2077
2073
2069
2065
2061
2058
2056
2055
2054
2054
2053
2053
2052
2051
2050
2050
2050
2050
2051
2052
2052
2052
2052
2052
2052
2052
2052
2052
2052
2053
2053
2053
2053
2053
2052
2052
2052
2052
2052
2052
2052
2052
2051
2051
2050
2049
2049
2049
2049
2049
2049
2049
2049
2048
2048
2047
2047
2047
2048
2048
2049
2049
2049
2049
2049
2048
2048
2049
2050
2051
2052
2052
2052
2052
2051
2052
2052
2053
2054
2054
2055
2055
2056
2056
2055
2055
2055
2056
2056
2057
2057
2057
2057
2057
2057
2058
2058
2058
2058
2058
2059
2059
2059
2059
2058
2059
2059
2060
2059
2059
2058
2058
2059
2062
2066
2069
2070
2071
2070
2068
2066
2063
2061
2060
2058
2058
2058
2059
2060
2061
2061
2062
2061
2058
2055
2054
2061
2081
2108
2137
2157
2168
2178
2191
2202
2198
2161
2092
2013
1949
1926
1944
1987
2031
2059
2071
2072
2072
2072
2073
2075
2076
2077
2078
2078
2078
2079
2079
2080
2081
2082
2083
2084
2084
2085
2085
2087
2088
2090
2091
2092
2093
2094
2095
2096
2098
2100
2102
2104
2107
2109
2111
2113
2115
2117
2119
2121
2123
2125
2126
2126
2126
2125
2124
2122
2121
2119
2117
2114
2111
2107
2102
2097
2092
2087
2082
2077
2073
2069
2066
2063
2060
2058
2056
2054
2052
2051
2050
2050
2050
2051
2051
2051
2050
2050
2049
2050
2050
2050
2051
2051
2050
2049
2048
2048
2048
2048
2048
2048
2048
2048
2048
2048
2047
2047
2046
2046
2046
2045
2045
2044
2044
2044
2043
2043
2042
2042
2042
2042
2042
2043
2042
2042
2041
2041
2041
2041
2041
2042
2042
2042
2042
2042
2042
2041
2041
2041
2041
2042
2042
2043
2043
2042
2042
2041
2041
2042
2043
2043
2044
2044
2044
2044
2044
2044
2044
2044
2044
2045
2045
2045
2045
2045
2044
2044
2045
2045
2045
2045
2046
2046
2047
2046
2044
2042
2041
2043
2046
2049
2053
2056
2056
2054
2052
2049
2048
2046
2044
2043
2043
2043
2043
2044
2045
2045
2045
2043
2040
2038
2038
2048
2067
2093
2119
2134
2142
2147
2156
2164
2156
2119
2053
1980
1924
1909
1933
1978
2022
2048
2058
2059
2057
2057
2057
2057
2058
2059
2061
2063
2064
2065
2065
2066
2066
2066
2067
2068
2069
2071
2072
2073
2074
2075
2076
2077
2078
2079
2081
2083
2084
2086
2088
2089
2091
2092
2094
2096
2099
2102
2104
2107
2108
2110
2110
2110
2110
2109
2109
2108
2107
2106
2104
2101
2097
2093
2088
2084
2079
2074
2070
2065
2061
2057
2053
2049
2047
2044
2043
2042
2041
2040
2040
2039
2039
2038
2038
2038
2038
2038
2039
2040
2040
2040
2040
2039
2039
2039
2039
2040
2040
2040
2040
2040
2039
2039
2039
2039
2039
2039
2038
2038
2037
2037
2036
2035
2034
2034
2034
2034
2034
2035
2034
2034
2033
2033
2032
2032
2032
2033
2033
2033
2033
2033
2033
2032
2032
2032
2032
2033
2034
2034
2034
2034
2034
2033
2033
2033
2034
2034
2035
2036
2036
2036
2036
2035
2035
2035
2036
2036
2037
2037
2037
2037
2037
2037
2037
2037
2037
2037
2038
2038
2038
2039
2039
2039
2038
2037
2036
2037
2041
2045
2048
2050
2050
2048
2047
2045
2043
2042
2041
2039
2039
2039
2039
2039
2040
2040
2041
2040
2038
2035
2034
2041
2059
2085
2112
2130
2141
2150
2161
2170
2163
2126
2058
1982
1922
1902
1924
1968
2013
2042
2054
2055
2054
2054
2054
2055
2056
2058
2059
2060
2061
2062
2063
2063
2064
2065
2066
2067
2068
2070
2071
2072
2072
2073
2074
2075
2077
2079
2081
2083
2084
2086
2087
2088
2090
2092
2095
2097
2100
2103
2105
2107
2108
2109
2110
2111
2111
2112
2111
2110
2109
2107
2104
2101
2098
2094
2090
2086
2082
2077
2072
2068
2063
2059
2055
2051
2048
2047
2046
2045
2043
2042
2041
2041
2040
2040
2041
2041
2042
2042
2042
2042
2042
2041
2042
2042
2042
2043
2043
2043
2043
2042
2042
2042
2042
2041
2041
2041
2041
2041
2041
2040
2040
2040
2039
2038
2038
2038
2038
2038
2038
2038
2037
2036
2036
2036
2036
2037
2037
2037
2037
2037
2036
2036
2036
2036
2037
2037
2037
2037
2037
2038
2038
2038
2038
2038
2039
2039
2039
2040
2040
2040
2040
2039
2039
2040
2040
2041
2042
2042
2042
2042
2042
2042
2043
2043
2044
2044
2045
2045
2045
2045
2045
2045
2045
2044
2043
2042
2043
2046
2049
2052
2055
2055
2055
2054
2052
2051
2049
2048
2047
2046
2046
2046
2047
2048
2048
2048
2048
2047
2044
2043
2048
2066
2093
2123
2145
2159
2169
2181
2188
2180
2142
2074
1996
1934
1909
1926
1968
2013
2044
2059
2064
2065
2066
2066
2067
2067
2068
2068
2069
2070
2071
2071
2072
2072
2072
2072
2073
2074
2075
2077
2079
2080
2080
2080
2081
2083
2086
2089
2091
2092
2093
2094
2096
2098
2100
2102
2103
2105
2107
2109
2110
2112
2113
2115
2117
2118
2119
2119
2118
2117
2115
2112
2107
2103
2098
2094
2091
2087
2082
2077
2071
2065
2060
2056
2053
2051
2050
2049
2048
2046
2043
2041
2040
2039
2040
2042
2044
2044
2044
2043
2042
2042
2043
2043
2041
2040
2039
2040
2042
2044
2044
2044
2043
2043
2043
2044
2044
2042
2039
2036
2034
2034
2036
2038
2041
2042
2041
2038
2036
2035
2034
2035
2035
2035
2034
2033
2033
2034
2036
2038
2039
2038
2037
2036
2035
2036
2037
2038
2037
2036
2034
2034
2035
2037
2038
2038
2037
2037
2037
2038
2038
2038
2038
2037
2037
2037
2036
2036
2037
2038
2040
2040
2040
2039
2040
2040
2040
2040
2038
2037
2037
2041
2047
2051
2055
2055
2053
2050
2048
2045
2044
2043
2043
2042
2041
2041
2041
2043
2044
2044
2043
2040
2038
2040
2051
2074
2102
2129
2147
2159
2170
2181
2184
2164
2111
2035
1960
1913
1911
1944
1991
2030
2050
2056
2056
2056
2058
2061
2064
2065
2065
2064
2064
2065
2068
2070
2071
2070
2070
2072
2073
2075
2075
2074
2074
2075
2077
2081
2084
2084
2084
2084
2084
2086
2089
2092
2095
2096
2097
2098
2100
2103
2107
2110
2113
2115
2116
2116
2116
2116
2115
2114
2112
2110
2108
2107
2106
2103
2098
2093
2087
2081
2077
2073
2069
2066
2062
2059
2055
2052
2050
2049
2048
2048
2048
2047
2046
2045
2044
2045
2047
2048
2048
2048
2048
2047
2048
2049
2052
2053
2053
2051
2050
2050
2049
2049
2048
2048
2047
2047
2048
2047
2047
2046
2047
2048
2048
2048
2048
2048
2046
2044
2043
2044
2045
2047
2047
2046
2044
2041
2039
2039
2039
2039
2039
2038
2038
2037
2038
2037
2037
2036
2034
2033
2033
2032
2032
2031
2030
2028
2026
2024
2023
2023
2024
2027
2030
2032
2033
2031
2027
2022
2019
2019
2022
2027
2033
2039
2042
2043
2040
2037
2033
2032
2032
2032
2032
2031
2031
2030
2029
2030
2032
2035
2036
2033
2029
2028
2039
2061
2090
2117
2137
2149
2163
2180
2189
2173
2121
2043
1965
1915
1911
1943
1990
2028
2048
2052
2052
2051
2051
2050
2049
2050
2053
2058
2063
2067
2068
2067
2067
2068
2070
2072
2073
2073
2073
2074
2075
2076
2077
2076
2076
2076
2079
2084
2088
2092
2093
2093
2092
2092
2093
2097
2101
2105
2108
2110
2112
2112
2112
2112
2112
2113
2114
2115
2115
2113
2110
2107
2104
2102
2098
2094
2089
2084
2080
2076
2072
2069
2065
2060
2056
2054
2053
2053
2054
2055
2054
2052
2050
2048
2048
2048
2050
2051
2052
2052
2050
2049
2049
2050
2050
2051
2052
2053
2053
2052
2051
2050
2049
2048
2049
2049
2049
2048
2048
2048
2048
2047
2046
2045
2044
2042
2041
2041
2040
2039
2038
2038
2038
2038
2040
2044
2047
2050
2051
2050
2048
2045
2043
2042
2041
2040
2039
2038
2038
2038
2038
2037
2036
2034
2033
2032
2033
2033
2035
2036
2035
2033
2030
2027
2026
2029
2034
2039
2043
2045
2046
2045
2045
2045
2045
2044
2043
2041
2040
2039
2040
2043
2046
2047
2047
2044
2040
2037
2039
2051
2074
2102
2129
2151
2169
2190
2210
2219
2202
2149
2069
1990
1937
1926
1953
1996
2034
2054
2060
2059
2057
2056
2056
2058
2059
2062
2064
2065
2065
2065
2064
2064
2066
2068
2071
2073
2075
2075
2076
2078
2081
2083
2085
2086
2087
2089
2091
2093
2095
2097
2099
2101
2103
2106
2109
2112
2115
2117
2119
2120
2121
2122
2123
2124
2124
2124
2125
2127
2128
2129
2127
2123
2117
2111
2104
2097
2091
2085
2079
2073
2068
2063
2059
2055
2053
2050
2048
2047
2045
2045
2045
2045
2045
2045
2045
2045
2046
2048
2049
2050
2050
2048
2047
2044
2044
2044
2045
2046
2047
2048
2047
2047
2046
2045
2045
2045
2045
2044
2042
2040
2039
2040
2041
2043
2044
2044
2042
2040
2038
2036
2035
2036
2036
2037
2037
2037
2037
2037
2038
2038
2038
2037
2037
2037
2038
2039
2041
2042
2042
2041
2041
2040
2039
2039
2040
2040
2040
2040
2038
2037
2037
2038
2041
2046
2049
2053
2056
2056
2053
2049
2046
2043
2042
2043
2045
2047
2048
2048
2048
2047
2046
2044
2040
2039
2047
2066
2096
2128
2155
2178
2199
2216
2218
2192
2131
2047
1965
1914
1908
1939
1986
2028
2051
2060
2063
2064
2063
2063
2063
2063
2063
2064
2065
2067
2068
2068
2068
2069
2069
2071
2072
2073
2074
2075
2075
2076
2077
2078
2081
2083
2086
2089
2092
2094
2096
2099
2102
2105
2108
2110
2113
2115
2117
2119
2122
2124
2125
2126
2126
2125
2124
2123
2121
2118
2115
2112
2109
2106
2102
2098
2092
2086
2080
2074
2068
2064
2060
2057
2054
2052
2049
2048
2046
2044
2043
2042
2041
2042
2041
2041
2041
2041
2041
2041
2042
2042
2042
2043
2042
2041
2040
2039
2039
2039
2040
2040
2041
2041
2040
2040
2040
2039
2038
2037
2035
2034
2033
2032
2031
2031
2031
2030
2030
2029
2029
2028
2028
2028
2027
2027
2027
2027
2027
2027
2027
2027
2027
2027
2027
2027
2028
2028
2027
2027
2026
2025
2024
2023
2021
2019
2017
2017
2018
2020
2024
2028
2032
2034
2034
2032
2029
2026
2023
2022
2022
2022
2022
2023
2024
2026
2026
2025
2022
2019
2020
2032
2054
2084
2112
2135
2155
2176
2192
2190
2156
2086
2000
1923
1883
1889
1928
1976
2014
2033
2040
2041
2042
2042
2043
2045
2046
2047
2048
2048
2049
2049
2050
2051
2052
2053
2053
2053
2053
2053
2054
2055
2057
2059
2061
2061
2061
2061
2061
2063
2066
2070
2074
2077
2079
2081
2083
2085
2087
2090
2092
2094
2096
2097
2097
2096
2096
2095
2094
2092
2090
2088
2086
2083
2080
2076
2072
2067
2063
2059
2054
2050
2046
2041
2037
2035
2033
2032
2029
2027
2025
2023
2024
2025
2028
2030
2031
2032
2031
2029
2027
2026
2026
2027
2028
2029
2030
2030
2030
2029
2030
2030
2031
2031
2031
2030
2029
2028
2027
2026
2025
2025
2024
2023
2020
2017
2014
2011
2008
2007
2006
2005
2004
2004
2003
2002
2001
2001
2000
2001
2001
2002
2003
2004
2005
2005
2004
2003
2000
1997
1995
1995
1997
2000
2005
2009
2013
2015
2015
2014
2012
2009
2008
2007
2009
2010
2011
2011
2012
2012
2014
2013
2010
2007
2007
2019
2045
2080
2116
2142
2161
2181
2197
2199
2171
2105
2013
1924
1868
1862
1896
1945
1988
2014
2024
2029
2031
2030
2031
2032
2034
2036
2039
2041
2043
2043
2043
2043
2043
2044
2046
2048
2048
2049
2050
2052
2053
2055
2056
2058
2059
2061
2063
2066
2068
2070
2072
2074
2076
2079
2082
2085
2088
2091
2093
2095
2097
2099
2100
2099
2099
2099
2098
2097
2097
2095
2092
2088
2083
2077
2071
2066
2061
2057
2051
2047
2042
2038
2034
2031
2028
2026
2025
2024
2023
2023
2022
2022
2022
2022
2022
2022
2022
2023
2023
2024
2025
2026
2026
2026
2026
2026
2026
2026
2027
2027
2027
2028
2028
2027
2027
2027
2027
2027
2027
2027
2026
2026
2025
2024
2023
2023
2024
2024
2025
2026
2026
2025
2024
2023
2022
2022
2023
2025
2026
2027
2028
2027
2027
2026
2025
2023
2021
2019
2017
2016
2017
2018
2022
2025
2030
2033
2034
2033
2030
2027
2024
2022
2021
2021
2021
2021
2023
2024
2025
2023
2019
2016
2017
2029
2050
2078
2101
2114
2119
2126
2135
2139
2121
2070
1996
1921
1874
1868
1899
1944
1984
2006
2015
2016
2016
2016
2017
2018
2021
2025
2028
2031
2033
2034
2035
2035
2036
2038
2039
2040
2041
2042
2043
2046
2049
2052
2054
2056
2058
2060
2064
2067
2071
2073
2074
2074
2075
2077
2080
2085
2091
2095
2096
2095
2093
2091
2090
2090
2090
2090
2089
2086
2083
2080
2077
2074
2070
2067
2063
2058
2053
2049
2045
2041
2037
2034
2031
2029
2028
2026
2024
2023
2022
2021
2022
2023
2024
2025
2025
2026
2026
2028
2029
2030
2031
2031
2031
2030
2030
2029
2029
2028
2027
2025
2024
2022
2020
2019
2017
2017
2017
2018
2019
2020
2019
2019
2019
2019
2018
2017
2016
2014
2013
2013
2014
2014
2015
2015
2016
2017
2017
2017
2017
2017
2018
2019
2021
2022
2024
2025
2025
2027
2028
2030
2032
2034
2036
2038
2041
2045
2048
2053
2058
2062
2064
2064
2061
2059
2058
2059
2062
2063
2063
2063
2063
2064
2065
2065
2063
2060
2062
2075
2099
2128
2154
2171
2182
2196
2215
2227
2214
2165
2087
2007
1952
1939
1963
2004
2040
2059
2064
2064
2064
2063
2064
2066
2068
2070
2072
2074
2073
2072
2072
2072
2074
2076
2078
2080
2081
2082
2082
2083
2085
2086
2088
2090
2091
2092
2093
2095
2096
2098
2100
2103
2105
2108
2111
2113
2116
2117
2119
2121
2123
2125
2127
2128
2128
2128
2128
2127
2126
2124
2121
2117
2113
2109
2105
2100
2095
2089
2083
2076
2070
2065
2062
2059
2057
2055
2054
2053
2053
2052
2052
2051
2050
2050
2050
2051
2052
2053
2054
2054
2055
2055
2056
2056
2056
2057
2057
2057
2056
2054
2053
2052
2052
2051
2052
2052
2052
2051
2051
2050
2050
2050
2051
2051
2052
2052
2051
2050
2048
2048
2047
2046
2046
2046
2046
2047
2047
2048
2048
2048
2048
2048
2047
2046
2044
2043
2041
2041
2041
2042
2043
2045
2048
2049
2051
2052
2051
2049
2047
2044
2043
2043
2043
2043
2043
2044
2045
2046
2045
2041
2037
2038
2051
2079
2115
2148
2168
2179
2187
2192
2184
2150
2084
2000
1924
1881
1884
1919
1967
2009
2035
2047
2053
2056
2056
2058
2059
2061
2062
2064
2064
2065
2066
2066
2067
2068
2069
2070
2071
2072
2072
2073
2074
2075
2077
2079
2080
2082
2083
2085
2086
2088
2090
2092
2095
2097
2100
2102
2105
2108
2110
2113
2115
2117
2119
2121
2121
2121
2120
2119
2118
2115
2112
2107
2102
2097
2091
2085
2078
2073
2068
2064
2061
2057
2052
2048
2045
2043
2042
2041
2040
2040
2039
2039
2039
2040
2040
2039
2039
2039
2040
2040
2041
2042
2042
2043
2043
2044
2044
2044
2043
2043
2043
2043
2043
2044
2044
2044
2044
2044
2043
2043
2043
2042
2042
2042
2042
2041
2041
2040
2040
2039
2039
2039
2039
2040
2041
2042
2043
2043
2043
2042
2042
2041
2042
2043
2044
2045
2044
2041
2038
2034
2033
2032
2034
2036
2040
2043
2046
2048
2048
2046
2044
2042
2041
2041
2041
2042
2042
2043
2044
2046
2045
2042
2039
2040
2048
2069
2095
2116
2118
2105
2085
2074
2074
2075
2060
2020
1964
1917
1901
1923
1969
2017
2050
2065
2066
2065
2064
2064
2066
2068
2070
2072
2074
2075
2075
2075
2075
2074
2073
2073
2074
2075
2077
2079
2080
2080
2080
2080
2080
2081
2082
2083
2084
2086
2087
2088
2089
2090
2090
2091
2093
2095
2097
2100
2103
2105
2106
2107
2108
2108
2108
2106
2105
2103
2101
2099
2097
2094
2091
2086
2081
2076
2072
2067
2062
2057
2053
2050
2048
2047
2046
2044
2043
2042
2041
2041
2041
2042
2042
2042
2042
2042
2042
2041
2041
2040
2040
2040
2040
2040
2039
2039
2039
2040
2042
2043
2043
2042
2039
2038
2037
2037
2038
2039
2040
2040
2039
2039
2039
2039
2039
2040
2039
2038
2037
2036
2036
2037
2038
2038
2039
2039
2039
2039
2039
2038
2037
2036
2036
2036
2037
2039
2040
2041
2041
2042
2043
2042
2041
2038
2035
2032
2030
2030
2032
2034
2037
2040
2042
2044
2046
2045
2043
2041
2039
2038
2037
2038
2039
2040
2041
2042
2043
2043
2040
2037
2036
2044
2060
2085
2106
2114
2108
2096
2090
2093
2092
2074
2030
1970
1919
1900
1919
1964
2013
2048
2064
2067
2065
2063
2064
2066
2070
2072
2073
2073
2072
2072
2074
2075
2077
2078
2079
2081
2082
2082
2082
2081
2082
2083
2085
2087
2088
2089
2090
2092
2094
2095
2096
2097
2099
2101
2103
2105
2107
2110
2113
2116
2118
2119
2119
2118
2117
2117
2118
2119
2120
2119
2116
2111
2105
2100
2096
2094
2092
2089
2085
2078
2072
2066
2063
2061
2062
2062
2061
2058
2055
2053
2054
2055
2057
2058
2058
2056
2055
2055
2056
2057
2058
2058
2058
2057
2056
2055
2054
2053
2053
2053
2053
2053
2053
2053
2054
2054
2054
2053
2051
2049
2049
2049
2050
2051
2052
2051
2051
2050
2049
2049
2048
2047
2046
2046
2046
2047
2048
2048
2048
2048
2047
2046
2046
2046
2046
2047
2047
2048
2048
2049
2050
2050
2050
2050
2051
2052
2052
2052
2051
2050
2050
2050
2051
2052
2051
2050
2048
2046
2045
2045
2047
2050
2055
2059
2063
2063
2060
2057
2054
2053
2053
2054
2055
2054
2054
2055
2057
2059
2059
2056
2053
2053
2064
2085
2111
2132
2139
2134
2127
2126
2129
2122
2091
2036
1973
1927
1920
1950
1997
2042
2067
2077
2076
2075
2075
2076
2077
2078
2079
2080
2081
2081
2082
2082
2082
2082
2082
2083
2084
2085
2085
2085
2085
2086
2086
2087
2089
2089
2090
2091
2092
2093
2094
2096
2097
2099
2100
2102
2103
2105
2107
2109
2111
2112
2112
2112
2112
2111
2109
2108
2106
2104
2102
2101
2100
2098
2095
2091
2086
2082
2078
2074
2070
2067
2065
2062
2059
2056
2054
2052
2051
2050
2050
2050
2050
2050
2050
2050
2049
2049
2049
2050
2050
2050
2049
2049
2049
2049
2050
2050
2049
2048
2047
2047
2047
2047
2048
2048
2047
2046
2046
2045
2044
2043
2042
2042
2042
2043
2043
2042
2041
2040
2040
2040
2040
2040
2040
2040
2039
2039
2038
2038
2038
2037
2037
2037
2038
2038
2038
2039
2039
2039
2039
2039
2038
2038
2037
2037
2037
2038
2038
2038
2038
2038
2039
2039
2040
2041
2042
2042
2041
2040
2037
2034
2032
2032
2033
2036
2039
2043
2047
2048
2049
2048
2045
2041
2039
2038
2038
2039
2040
2041
2042
2043
2044
2043
2040
2037
2037
2045
2063
2089
2114
2129
2133
2132
2134
2134
2123
2087
2026
1957
1906
1892
1918
1966
2014
2046
2059
2061
2061
2060
2061
2062
2064
2066
2067
2069
2070
2070
2071
2071
2072
2073
2074
2076
2077
2079
2079
2080
2080
2080
2081
2082
2083
2084
2085
2086
2088
2089
2091
2092
2094
2095
2097
2099
2101
2103
2104
2106
2108
2110
2111
2111
2110
2108
2106
2105
2102
2100
2098
2094
2091
2088
2085
2082
2079
2076
2072
2068
2064
2060
2057
2055
2053
2051
2050
2049
2048
2048
2047
2046
2046
2047
2048
2049
2050
2051
2052
2052
2052
2052
2051
2051
2050
2050
2049
2049
2048
2048
2048
2048
2048
2048
2048
2047
2046
2046
2046
2045
2045
2044
2043
2043
2044
2045
2046
2047
2047
2047
2048
2048
2050
2051
2050
2050
2048
2048
2048
2048
2047
2047
2046
2045
2045
2045
2045
2046
2047
2047
2048
2047
2047
2046
2045
2045
2045
2045
2046
2047
2047
2048
2048
2048
2049
2049
2050
2051
2051
2051
2049
2048
2048
2048
2050
2054
2058
2062
2064
2066
2064
2060
2056
2051
2050
2052
2055
2059
2062
2063
2065
2066
2067
2066
2063
2061
2061
2070
2091
2118
2143
2159
2166
2171
2179
2181
2166
2121
2051
1981
1932
1925
1956
2003
2046
2069
2078
2078
2077
2078
2079
2080
2080
2081
2083
2085
2087
2090
2092
2092
2093
2093
2093
2094
2095
2097
2098
2099
2099
2098
2097
2098
2099
2101
2104
2105
2105
2105
2106
2107
2108
2110
2113
2115
2117
2118
2119
2118
2117
2117
2117
2117
2118
2117
2116
2114
2112
2110
2106
2103
2101
2098
2096
2093
2090
2086
2082
2078
2074
2071
2069
2068
2067
2067
2066
2065
2064
2063
2063
2062
2061
2061
2061
2062
2062
2063
2062
2061
2060
2059
2058
2058
2058
2057
2058
2058
2059
2060
2060
2059
2057
2055
2053
2052
2051
2051
2052
2052
2051
2050
2048
2048
2046
2045
2045
2045
2045
2046
2047
2047
2047
2048
2048
2048
2048
2048
2048
2048
2048
2047
2046
2046
2047
2048
2048
2049
2049
2048
2048
2048
2048
2047
2045
2044
2043
2043
2044
2045
2045
2044
2043
2042
2042
2043
2044
2045
2045
2043
2041
2039
2039
2041
2045
2049
2054
2057
2057
2055
2049
2045
2041
2040
2039
2040
2042
2044
2046
2047
2047
2047
2043
2040
2038
2042
2057
2083
2113
2137
2153
2164
2176
2185
2179
2144
2077
1998
1932
1904
1918
1960
2007
2040
2055
2058
2058
2057
2058
2060
2063
2065
2068
2069
2070
2070
2069
2069
2069
2069
2070
2071
2072
2072
2073
2075
2077
2079
2081
2082
2083
2083
2084
2084
2085
2085
2085
2086
2088
2089
2090
2091
2093
2095
2097
2098
2099
2099
2099
2099
2098
2097
2096
2095
2093
2092
2090
2088
2086
2084
2080
2077
2073
2069
2064
2060
2057
2055
2054
2052
2051
2048
2046
2044
2042
2041
2041
2041
2040
2040
2039
2039
2038
2037
2036
2036
2036
2037
2038
2037
2036
2035
2034
2033
2033
2033
2033
2031
2030
2029
2028
2027
2025
2024
2023
2023
2023
2023
2022
2021
2020
2018
2017
2017
2017
2017
2018
2018
2018
2018
2019
2019
2019
2020
2020
2020
2020
2020
2020
2020
2020
2020
2021
2021
2021
2019
2018
2017
2016
2016
2017
2017
2017
2017
2017
2018
2019
2021
2023
2024
2023
2021
2017
2014
2012
2012
2014
2018
2023
2028
2031
2032
2031
2028
2025
2023
2022
2023
2023
2024
2025
2025
2026
2027
2028
2026
2023
2020
2020
2032
2053
2083
2113
2136
2154
2173
2190
2197
2177
2121
2040
1960
1907
1899
1928
1972
2012
2036
2045
2047
2046
2046
2046
2046
2047
2048
2049
2051
2051
2052
2052
2051
2051
2052
2053
2054
2057
2059
2061
2062
2063
2064
2066
2067
2069
2070
2072
2074
2077
2079
2082
2083
2084
2085
2086
2087
2089
2091
2093
2095
2096
2096
2095
2094
2092
2090
2089
2088
2088
2086
2084
2081
2077
2073
2069
2066
2064
2061
2058
2055
2050
2046
2042
2037
2034
2032
2031
2031
2031
2031
2031
2030
2030
2030
2031
2032
2033
2033
2033
2033
2033
2033
2034
2034
2035
2035
2034
2033
2032
2032
2032
2032
2031
2030
2029
2028
2028
2027
2028
2027
2026
2025
2023
2021
2019
2018
2016
2016
2017
2019
2022
2024
2024
2023
2021
2020
2020
2022
2024
2024
2024
2024
2024
2024
2026
2027
2027
2028
2029
2029
2029
2027
2026
2024
2024
2025
2027
2029
2031
2030
2030
2029
2030
2030
2033
2036
2041
2046
2048
2050
2049
2047
2042
2038
2035
2033
2033
2034
2036
2038
2039
2038
2036
2033
2029
2025
2025
2035
2055
2085
2116
2141
2161
2180
2197
2203
2182
2128
2048
1969
1917
1907
1933
1976
2015
2039
2048
2051
2051
2051
2052
2054
2055
2055
2056
2056
2056
2057
2058
2060
2060
2061
2062
2063
2064
2065
2067
2068
2069
2070
2070
2071
2072
2073
2073
2075
2077
2079
2081
2083
2085
2086
2088
2089
2092
2094
2097
2099
2099
2099
2099
2099
2098
2097
2096
2093
2090
2089
2087
2085
2082
2080
2077
2075
2072
2070
2066
2063
2060
2057
2055
2054
2052
2050
2049
2049
2049
2049
2051
2052
2052
2052
2051
2049
2048
2048
2048
2048
2048
2048
2049
2050
2050
2051
2051
2050
2049
2048
2048
2047
2047
2046
2045
2044
2043
2042
2041
2040
2040
2040
2040
2039
2037
2035
2034
2034
2034
2033
2033
2033
2034
2034
2034
2033
2031
2029
2027
2024
2021
2017
2013
2010
2008
2008
2008
2009
2011
2012
2013
2013
2013
2013
2013
2013
2012
2010
2009
2008
2009
2012
2016
2020
2024
2027
2028
2027
2025
2022
2020
2019
2019
2020
2021
2021
2022
2023
2025
2025
2024
2021
2018
2020
2034
2057
2088
2117
2143
2166
2188
2204
2200
2164
2093
2008
1936
1901
1907
1942
1983
2013
2028
2032
2033
2031
2031
2031
2031
2032
2033
2034
2035
2035
2035
2035
2035
2034
2034
2034
2035
2035
2036
2036
2036
2036
2037
2037
2039
2040
2041
2042
2043
2044
2045
2045
2046
2047
2048
2048
2050
2051
2053
2053
2053
2052
2052
2050
2049
2048
2048
2046
2044
2041
2038
2035
2033
2030
2027
2023
2019
2016
2012
2007
2003
1998
1994
1990
1987
1985
1983
1980
1979
1978
1976
1974
1973
1973
1973
1974
1975
1976
1977
1978
1980
1982
1984
1985
1985
1986
1986
1987
1986
1984
1982
1979
1977
1977
1977
1978
1979
1979
1978
1978
1977
1977
1978
1978
1979
1979
1978
1978
1977
1977
1976
1976
1976
1976
1976
1976
1976
1976
1976
1977
1978
1979
1979
1980
1981
1982
1983
1984
1985
1985
1986
1987
1988
1988
1987
1986
1985
1986
1988
1993
1998
2004
2008
2011
2011
2010
2007
2006
2005
2006
2008
2011
2012
2013
2015
2016
2019
2019
2019
2018
2020
2033
2056
2085
2113
2137
2157
2178
2197
2201
2177
2118
2041
1971
1933
1937
1971
2015
2048
2067
2072
2074
2074
2076
2078
2080
2082
2085
2086
2088
2089
2090
2092
2093
2096
2098
2100
2103
2105
2106
2108
2109
2111
2112
2113
2114
2115
2116
2117
2119
2120
2121
2122
2123
2125
2128
2130
2132
2134
2136
2136
2136
2137
2137
2137
2137
2136
2136
2135
2133
2131
2129
2128
2125
2123
2119
2114
2108
2101
2096
2091
2087
2084
2081
2078
2076
2074
2072
2071
2069
2068
2068
2067
2067
2068
2068
2068
2068
2068
2068
2068
2068
2068
2069
2069
2070
2069
2069
2068
2068
2067
2066
2064
2063
2062
2062
2062
2062
2062
2061
2061
2060
2060
2060
2060
2060
2061
2062
2063
2064
2064
2063
2063
2062
2061
2061
2061
2062
2063
2063
2064
2064
2065
2064
2063
2062
2061
2060
2059
2057
2055
2053
2052
2053
2056
2060
2064
2066
2067
2067
2065
2063
2060
2059
2059
2060
2060
2061
2061
2061
2061
2061
2058
2054
2054
2064
2090
2127
2164
2190
2202
2211
2216
2211
2186
2129
2048
1965
1910
1899
1927
1974
2020
2048
2063
2071
2076
2078
2080
2081
2082
2083
2085
2087
2088
2090
2090
2091
2092
2093
2095
2095
2094
2093
2093
2095
2097
2099
2101
2101
2102
2103
2105
2107
2108
2108
2108
2109
2111
2115
2119
2122
2123
2124
2126
2129
2131
2132
2131
2130
2128
2127
2126
2125
2124
2122
2119
2115
2110
2105
2099
2095
2090
2085
2081
2076
2071
2067
2063
2060
2057
2055
2052
2050
2048
2048
2047
2048
2047
2047
2047
2047
2047
2047
2047
2046
2046
2046
2046
2046
2046
2046
2045
2046
2046
2046
2045
2045
2045
2045
2046
2045
2044
2043
2041
2041
2041
2041
2041
2041
2040
2039
2038
2037
2037
2037
2037
2038
2039
2040
2040
2039
2037
2036
2035
2035
2035
2033
2032
2030
2030
2031
2033
2036
2040
2044
2048
2048
2047
2044
2040
2037
2036
2036
2037
2039
2040
2042
2042
2041
2036
2032
2032
2044
2070
2105
2136
2149
2147
2139
2132
2127
2110
2069
2004
1935
1887
1879
1909
1958
2007
2039
2055
2062
2065
2065
2066
2067
2069
2071
2072
2073
2072
2072
2073
2075
2077
2078
2078
2078
2078
2078
2080
2081
2082
2082
2082
2083
2084
2086
2088
2090
2092
2092
2093
2093
2095
2097
2100
2104
2107
2109
2111
2113
2114
2115
2115
2115
2115
2115
2114
2111
2107
2102
2098
2094
2091
2087
2083
2077
2071
2065
2059
2055
2052
2048
2046
2043
2040
2038
2037
2036
2036
2035
2034
2034
2034
2035
2036
2037
2037
2038
2038
2038
2038
2038
2038
2037
2037
2037
2038
2038
2039
2039
2039
2039
2038
2039
2039
2039
2038
2038
2037
2037
2038
2038
2038
2038
2038
2037
2037
2037
2037
2037
2037
2038
2038
2039
2040
2040
2040
2040
2040
2041
2042
2042
2041
2038
2035
2033
2032
2032
2033
2036
2040
2044
2047
2048
2048
2045
2042
2039
2037
2038
2039
2041
2043
2044
2045
2043
2039
2036
2036
2048
2072
2102
2127
2134
2125
2108
2097
2090
2076
2044
1988
1929
1889
1885
1917
1966
2014
2045
2059
2063
2065
2066
2067
2069
2071
2072
2073
2074
2075
2076
2078
2079
2080
2080
2080
2080
2080
2080
2081
2082
2083
2084
2085
2086
2087
2089
2090
2091
2093
2095
2097
2099
2100
2102
2104
2106
2109
2112
2114
2116
2117
2118
2118
2119
2119
2119
2117
2115
2113
2110
2107
2104
2100
2095
2090
2084
2077
2071
2066
2062
2058
2056
2053
2051
2049
2048
2047
2046
2045
2045
2044
2045
2045
2046
2046
2046
2046
2045
2044
2044
2045
2045
2046
2046
2046
2046
2046
2046
2046
2046
2046
2046
2047
2047
2047
2046
2046
2045
2044
2044
2044
2044
2044
2044
2043
2043
2042
2041
2041
2041
2041
2042
2042
2042
2042
2042
2042
2042
2042
2042
2042
2042
2043
2044
2045
2046
2044
2042
2038
2035
2033
2032
2033
2034
2037
2039
2043
2046
2048
2047
2045
2043
2041
2040
2040
2040
2040
2041
2041
2042
2042
2040
2038
2040
2051
2074
2100
2118
2119
2107
2089
2080
2080
2076
2053
2005
1948
1906
1900
1931
1981
2028
2056
2068
2067
2066
2066
2068
2070
2071
2072
2073
2073
2074
2074
2073
2073
2073
2074
2075
2076
2077
2077
2077
2077
2078
2079
2080
2081
2082
2083
2084
2085
2086
2087
2089
2090
2092
2094
2096
2098
2100
2103
2105
2107
2108
2108
2108
2108
2107
2107
2106
2105
2104
2103
2101
2098
2094
2089
2084
2080
2075
2071
2067
2063
2058
2055
2051
2049
2048
2046
2045
2044
2044
2043
2043
2043
2043
2043
2043
2043
2043
2043
2043
2043
2043
2044
2044
2044
2044
2044
2044
2043
2043
2043
2043
2043
2042
2042
2042
2042
2042
2042
2042
2042
2041
2041
2041
2041
2040
2040
2040
2040
2040
2040
2040
2039
2039
2039
2039
2039
2040
2040
2040
2040
2039
2039
2039
2040
2041
2041
2042
2042
2042
2042
2041
2039
2037
2035
2033
2033
2033
2033
2035
2038
2041
2044
2047
2048
2048
2045
2042
2039
2038
2038
2039
2040
2041
2042
2043
2044
2042
2039
2037
2039
2053
2079
2113
2141
2158
2166
2174
2179
2173
2140
2076
1994
1922
1885
1893
1934
1985
2025
2047
2055
2058
2058
2058
2059
2060
2063
2065
2067
2068
2069
2069
2069
2069
2069
2070
2071
2073
2075
2076
2077
2077
2078
2079
2081
2082
2083
2085
2086
2087
2089
2091
2093
2095
2096
2098
2100
2103
2105
2107
2109
2111
2112
2112
2112
2112
2111
2111
2110
2109
2107
2104
2102
2098
2093
2088
2083
2079
2074
2070
2066
2062
2058
2055
2052
2050
2048
2046
2044
2042
2041
2041
2041
2042
2042
2043
2043
2044
2044
2045
2045
2045
2044
2044
2044
2043
2043
2043
2044
2044
2045
2045
2044
2044
2043
2043
2043
2044
2044
2043
2043
2043
2042
2041
2040
2039
2039
2038
2039
2039
2039
2039
2039
2038
2038
2038
2039
2039
2040
2040
2039
2039
2038
2038
2039
2039
2040
2040
2040
2041
2041
2041
2041
2041
2041
2040
2041
2041
2041
2042
2042
2042
2042
2042
2042
2043
2043
2044
2044
2045
2045
2044
2042
2039
2036
2034
2034
2036
2040
2044
2047
2049
2051
2051
2049
2047
2044
2042
2041
2042
2043
2044
2044
2045
2046
2047
2046
2043
2040
2041
2052
2075
2106
2135
2155
2168
2181
2193
2195
2172
2115
2034
1956
1908
1905
1938
1986
2027
2049
2057
2060
2060
2060
2060
2061
2062
2064
2066
2068
2070
2071
2071
2071
2072
2072
2073
2074
2075
2076
2078
2079
2080
2081
2082
2083
2084
2085
2087
2089
2091
2093
2094
2096
2098
2100
2102
2104
2107
2110
2112
2114
2115
2115
2115
2114
2114
2114
2114
2113
2112
2110
2108
2105
2102
2099
2095
2091
2086
2081
2077
2072
2068
2064
2060
2057
2055
2053
2051
2049
2048
2048
2048
2048
2047
2046
2046
2046
2047
2048
2048
2048
2048
2047
2046
2046
2047
2048
2048
2048
2048
2048
2047
2047
2047
2047
2046
2046
2046
2045
2045
2045
2045
2044
2044
2043
2042
2042
2042
2042
2042
2042
2042
2042
2041
2042
2042
2042
2042
2042
2042
2043
2043
2043
2043
2042
2041
2041
2041
2042
2043
2043
2043
2043
2042
2042
2041
2042
2043
2044
2045
2045
2046
2046
2045
2045
2045
2045
2045
2046
2047
2047
2047
2046
2046
2046
2045
2044
2042
2040
2039
2039
2041
2043
2047
2050
2053
2055
2055
2053
2049
2046
2044
2043
2043
2044
2045
2045
2046
2047
2048
2048
2045
2042
2041
2048
2069
2100
2132
2155
2168
2179
2191
2195
2180
2132
2055
1974
1915
1899
1924
1969
2014
2043
2054
2058
2059
2059
2060
2062
2064
2065
2067
2067
2068
2069
2069
2070
2072
2073
2074
2075
2076
2076
2077
2078
2079
2081
2082
2083
2085
2086
2088
2089
2090
2092
2093
2095
2097
2100
2103
2106
2108
2109
2111
2112
2113
2114
2115
2116
2116
2116
2115
2114
2112
2110
2108
2105
2102
2098
2094
2090
2085
2080
2075
2069
2064
2060
2056
2053
2051
2049
2048
2046
2044
2043
2043
2042
2042
2043
2043
2043
2042
2042
2041
2042
2042
2043
2044
2045
2045
2045
2045
2045
2044
2044
2044
2044
2044
2044
2044
2044
2044
2044
2043
2043
2042
2041
2041
2040
2041
2041
2042
2042
2041
2040
2040
2040
2041
2042
2042
2042
2041
2041
2041
2041
2041
2041
2042
2042
2042
2042
2042
2041
2041
2042
2042
2042
2043
2043
2042
2042
2042
2041
2041
2041
2041
2041
2042
2042
2042
2042
2041
2040
2040
2040
2040
2041
2042
2043
2043
2044
2044
2045
2045
2045
2045
2045
2046
2047
2046
2045
2043
2041
2041
2042
2045
2048
2051
2054
2055
2055
2052
2049
2046
2044
2043
2043
2044
2045
2045
2045
2045
2045
2046
2045
2042
2040
2041
2052
2075
2105
2134
2150
2158
2165
2174
2176
2159
2109
2034
1957
1906
1898
1927
1974
2018
2044
2055
2060
2062
2062
2063
2064
2065
2067
2068
2069
2071
2072
2073
2074
2074
2074
2074
2075
2076
2077
2078
2079
2081
2083
2084
2085
2086
2087
2088
2089
2091
2093
2095
2097
2099
2101
2102
2104
2106
2109
2112
2115
2117
2118
2119
2118
2118
2117
2117
2116
2116
2115
2113
2110
2106
2101
2096
2091
2086
2081
2077
2072
2068
2063
2059
2056
2053
2050
2048
2047
2046
2045
2045
2044
2043
2043
2043
2043
2042
2042
2042
2043
2043
2044
2044
2044
2044
2043
2043
2043
2043
2044
2044
2044
2044
2044
2043
2043
2043
2042
2042
2042
2041
2040
2039
2039
2038
2038
2038
2038
2038
2038
2038
2038
2038
2037
2037
2037
2037
2037
2037
2037
2038
2038
2038
2038
2038
2038
2038
2038
2039
2039
2040
2040
2040
2039
2039
2039
2039
2040
2040
2041
2041
2040
2040
2040
2039
2039
2039
2040
2040
2041
2041
2041
2040
2040
2039
2039
2039
2039
2040
2041
2042
2042
2042
2042
2041
2041
2041
2042
2042
2042
2040
2038
2038
2040
2043
2047
2050
2052
2053
2052
2050
2048
2046
2044
2042
2041
2041
2041
2042
2042
2043
2044
2045
2044
2041
2038
2039
2048
2069
2096
2121
2134
2139
2145
2157
2170
2166
2131
2065
1990
1933
1917
1941
1985
2027
2051
2061
2061
2060
2061
2062
2063
2064
2065
2065
2066
2066
2068
2070
2072
2073
2073
2073
2073
2073
2074
2075
2077
2079
2080
2081
2082
2083
2084
2085
2086
2088
2090
2092
2094
2096
2097
2099
2101
2103
2106
2109
2111
2114
2116
2117
2118
2118
2118
2117
2116
2114
2113
2112
2110
2107
2103
2098
2092
2086
2081
2076
2071
2067
2063
2060
2056
2053
2050
2048
2045
2043
2043
2042
2043
2043
2043
2043
2043
2043
2042
2042
2041
2042
2042
2043
2044
2045
2045
2044
2043
2042
2041
2042
2042
2043
2043
2042
2041
2041
2040
2041
2041
2041
2041
2041
2040
2040
2039
2038
2038
2038
2039
2039
2040
2040
2039
2038
2038
2037
2037
2038
2038
2038
2039
2039
2039
2039
2039
2039
2039
2039
2039
2039
2039
2040
2040
2041
2041
2041
2041
2041
2042
2042
2043
2044
2044
2044
2043
2043
2043
2043
2043
2043
2043
2043
2044
2044
2044
2044
2045
2045
2045
2046
2047
2047
2047
2047
2046
2046
2047
2047
2047
2046
2044
2044
2044
2047
2050
2054
2056
2058
2057
2055
2053
2050
2048
2047
2046
2045
2045
2045
2046
2047
2048
2049
2049
2047
2043
2040
2046
2063
2090
2119
2139
2150
2157
2170
2183
2185
2158
2096
2016
1947
1914
1926
1966
2011
2043
2057
2060
2060
2060
2061
2062
2063
2064
2065
2066
2067
2068
2069
2070
2071
2072
2072
2072
2073
2074
2075
2077
2078
2080
2082
2083
2084
2085
2086
2087
2088
2090
2092
2094
2097
2099
2102
2104
2107
2110
2111
2113
2115
2117
2119
2121
2122
2121
2120
2119
2118
2117
2115
2114
2111
2107
2103
2097
2092
2086
2080
2075
2070
2066
2062
2058
2054
2051
2048
2047
2045
2043
2042
2042
2042
2042
2042
2042
2042
2041
2041
2041
2041
2042
2043
2044
2045
2045
2044
2043
2043
2042
2042
2042
2042
2042
2041
2041
2040
2040
2039
2038
2038
2038
2038
2038
2038
2037
2036
2034
2033
2033
2033
2033
2033
2033
2033
2033
2033
2033
2033
2033
2032
2032
2033
2033
2034
2034
2034
2034
2034
2034
2034
2035
2035
2036
2036
2036
2036
2036
2035
2035
2036
2036
2037
2037
2038
2038
2038
2038
2038
2037
2037
2038
2039
2040
2040
2040
2039
2039
2039
2039
2040
2040
2041
2042
2042
2042
2041
2040
2040
2040
2040
2040
2039
2038
2038
2039
2042
2046
2048
2050
2050
2050
2048
2047
2045
2043
2041
2040
2039
2040
2040
2041
2042
2042
2043
2041
2038
2036
2037
2049
2071
2099
2121
2131
2132
2135
2145
2155
2148
2109
2042
1970
1919
1910
1939
1986
2027
2049
2057
2057
2057
2057
2058
2059
2060
2062
2063
2064
2064
2065
2066
2067
2068
2068
2069
2070
2071
2071
2072
2073
2074
2075
2077
2079
2081
2082
2084
2085
2085
2087
2088
2091
2093
2096
2098
2101
2103
2105
2107
2109
2111
2112
2114
2114
2115
2114
2114
2113
2111
2109
2107
2105
2102
2099
2095
2090
2084
2079
2073
2068
2064
2060
2057
2054
2051
2049
2047
2046
2044
2043
2043
2043
2043
2043
2043
2043
2042
2042
2042
2042
2042
2042
2042
2043
2043
2043
2042
2042
2041
2040
2040
2039
2040
2040
2040
2039
2039
2038
2037
2037
2036
2036
2036
2036
2036
2036
2036
2035
2035
2034
2033
2033
2033
2033
2033
2033
2033
2032
2032
2032
2032
2032
2032
2032
2033
2033
2033
2033
2032
2032
2032
2032
2032
2033
2034
2034
2034
2034
2033
2033
2033
2033
2033
2034
2034
2034
2035
2035
2035
2035
2036
2036
2036
2037
2037
2037
2037
2037
2036
2036
2036
2037
2038
2039
2040
2040
2040
2039
2039
2038
2037
2036
2036
2037
2041
2045
2048
2050
2050
2049
2048
2046
2045
2043
2042
2041
2041
2041
2041
2042
2043
2044
2045
2044
2041
2038
2039
2048
2071
2101
2131
2152
2164
2177
2193
2205
2195
2148
2068
1983
1921
1904
1929
1975
2019
2045
2054
2057
2056
2056
2056
2057
2058
2060
2062
2064
2064
2064
2063
2063
2064
2065
2066
2068
2070
2071
2071
2072
2073
2074
2076
2077
2079
2080
2082
2084
2086
2087
2089
2090
2092
2094
2097
2101
2104
2107
2109
2110
2111
2113
2114
2115
2117
2117
2117
2116
2114
2112
2109
2106
2103
2100
2096
2092
2088
2082
2076
2070
2064
2059
2055
2051
2049
2047
2045
2044
2042
2041
2040
2039
2038
2038
2038
2039
2039
2039
2039
2039
2039
2039
2039
2039
2040
2040
2040
2040
2040
2039
2038
2038
2038
2038
2038
2038
2039
2038
2038
2037
2036
2036
2036
2036
2036
2036
2035
2034
2033
2033
2032
2032
2032
2033
2033
2033
2033
2033
2033
2033
2032
2032
2031
2031
2032
2032
2032
2032
2032
2031
2031
2031
2031
2032
2032
2032
2032
2032
2033
2033
2033
2033
2033
2033
2034
2034
2034
2035
2034
2034
2034
2035
2035
2036
2036
2037
2037
2037
2037
2037
2037
2036
2034
2033
2034
2037
2041
2045
2048
2048
2047
2045
2043
2041
2039
2038
2038
2037
2036
2036
2036
2037
2038
2040
2040
2037
2033
2032
2040
2060
2089
2119
2140
2151
2160
2172
2183
2176
2138
2068
1988
1924
1902
1923
1967
2012
2040
2050
2052
2051
2050
2052
2053
2055
2057
2057
2057
2057
2056
2056
2057
2057
2057
2057
2057
2057
2057
2057
2058
2058
2058
2058
2059
2059
2060
2061
2063
2064
2066
2068
2070
2072
2074
2077
2079
2082
2085
2087
2088
2090
2091
2092
2094
2095
2096
2096
2096
2095
2094
2092
2090
2087
2084
2081
2077
2073
2069
2065
2061
2057
2053
2049
2046
2043
2042
2041
2041
2041
2040
2039
2038
2038
2038
2039
2041
2041
2042
2041
2041
2040
2040
2040
2040
2041
2041
2041
2041
2040
2040
2039
2039
2039
2039
2039
2039
2038
2038
2039
2039
2040
2040
2040
2040
2039
2039
2039
2039
2039
2038
2037
2036
2036
2036
2036
2037
2038
2039
2038
2038
2037
2036
2036
2036
2036
2036
2037
2037
2037
2037
2037
2037
2037
2037
2037
2037
2037
2038
2038
2038
2038
2038
2038
2039
2040
2040
2040
2040
2040
2040
2041
2040
2040
2040
2040
2041
2042
2043
2042
2040
2038
2037
2038
2041
2045
2048
2051
2052
2052
2050
2048
2045
2043
2041
2041
2041
2042
2042
2043
2043
2043
2044
2043
2040
2037
2036
2045
2067
2098
2130
2153
2167
2181
2197
2206
2195
2149
2070
1985
1922
1903
1927
1972
2017
2044
2054
2058
2059
2060
2061
2062
2062
2063
2065
2067
2068
2068
2068
2069
2070
2071
2072
2073
2074
2075
2076
2078
2079
2081
2082
2083
2084
2085
2086
2088
2091
2093
2095
2097
2100
2102
2105
2108
2111
2114
2116
2119
2121
2123
2124
2124
2124
2124
2124
2123
2122
2121
2120
2117
2115
2111
2106
2102
2097
2093
2088
2082
2077
2072
2068
2064
2061
2059
2057
2055
2054
2054
2053
2053
2053
2053
2053
2054
2054
2055
2056
2057
2058
2059
2058
2058
2057
2057
2058
2059
2060
2061
2062
2062
2061
2060
2060
2060
2061
2062
2063
2063
2063
2062
2062
2061
2061
2061
2062
2062
2063
2063
2063
2063
2063
2063
2063
2064
2064
2065
2066
2066
2066
2066
2066
2066
2066
2067
2067
2068
2068
2069
2069
2069
2069
2069
2069
2070
2071
2072
2072
2072
2072
2073
2074
2075
2074
2072
2070
2068
2068
2070
2074
2079
2082
2085
2085
2084
2082
2079
2077
2076
2075
2075
2075
2074
2074
2075
2076
2077
2079
2077
2074
2071
2074
2090
2117
2149
2176
2192
2201
2211
2220
2216
2185
2121
2040
1969
1933
1942
1982
2031
2067
2086
2091
2092
2091
2091
2092
2094
2096
2097
2099
2099
2099
2100
2100
2100
2100
2101
2102
2104
2105
2105
2106
2106
2107
2109
2110
2111
2112
2114
2115
2117
2118
2119
2120
2121
2123
2126
2129
2132
2135
2137
2138
2140
2140
2141
2142
2142
2143
2142
2141
2139
2137
2134
2131
2127
2123
2118
2113
2107
2102
2097
2092
2087
2082
2077
2073
2069
2066
2064
2063
2062
2061
2060
2058
2057
2057
2057
2058
2058
2058
2057
2057
2056
2055
2055
2055
2055
2055
2055
2054
2054
2054
2053
2053
2052
2051
2051
2051
2051
2050
2049
2048
2048
2047
2047
2046
2044
2044
2043
2043
2042
2042
2041
2040
2039
2039
2039
2039
2039
2039
2039
2039
2038
2037
2037
2037
2037
2037
2038
2037
2037
2036
2035
2034
2034
2034
2034
2035
2036
2037
2038
2038
2038
2038
2037
2035
2034
2033
2031
2029
2027
2026
2026
2029
2033
2038
2041
2042
2042
2040
2037
2035
2033
2031
2030
2029
2029
2030
2031
2033
2034
2033
2029
2025
2022
2031
2053
2086
2121
2145
2157
2164
2168
2166
2146
2097
2022
1943
1886
1872
1897
1943
1989
2018
2033
2038
2040
2040
2040
2042
2043
2044
2045
2044
2044
2044
2044
2045
2047
2048
2048
2048
2049
2049
2050
2050
2052
2053
2055
2056
2057
2058
2059
2060
2061
2063
2065
2067
2070
2072
2074
2075
2077
2079
2081
2084
2086
2089
2090
2091
2091
2092
2091
2091
2089
2086
2083
2080
2076
2072
2068
2063
2058
2053
2048
2042
2036
2030
2026
2023
2020
2019
2017
2015
2014
2012
2011
2010
2011
2012
2012
2013
2012
2011
2010
2010
2010
2011
2013
2014
2015
2016
2015
2014
2013
2013
2014
2015
2015
2015
2015
2014
2013
2013
2013
2013
2013
2012
2011
2010
2010
2009
2009
2008
2008
2008
2009
2010
2010
2010
2009
2008
2007
2006
2006
2005
2004
2003
2003
2003
2003
2003
2002
2001
2001
2002
2003
2005
2005
2005
2004
2004
2004
2003
2002
2000
1998
1996
1996
1997
1999
2002
2005
2008
2011
2013
2013
2012
2011
2010
2008
2008
2007
2007
2007
2009
2012
2014
2015
2013
2010
2011
2023
2048
2080
2110
2125
2130
2132
2136
2134
2115
2066
1993
1919
1872
1868
1902
1952
1998
2026
2039
2045
2046
2046
2047
2048
2049
2051
2052
2053
2054
2054
2055
2056
2057
2059
2060
2060
2060
2060
2060
2061
2062
2063
2065
2067
2068
2070
2072
2074
2076
2078
2079
2080
2081
2083
2086
2089
2092
2095
2097
2100
2102
2104
2104
2105
2105
2105
2104
2103
2102
2100
2097
2093
2090
2085
2081
2076
2070
2063
2056
2050
2045
2041
2039
2038
2037
2037
2035
2032
2029
2027
2026
2027
2029
2031
2032
2032
2032
2031
2031
2030
2031
2031
2031
2031
2032
2031
2031
2030
2028
2027
2027
2029
2031
2033
2035
2036
2036
2035
2034
2033
2032
2031
2031
2031
2031
2032
2032
2032
2031
2030
2029
2029
2029
2029
2029
2030
2030
2030
2030
2030
2030
2030
2031
2031
2032
2032
2032
2032
2032
2031
2031
2031
2032
2033
2035
2036
2037
2035
2032
2029
2026
2025
2025
2027
2030
2034
2039
2044
2046
2046
2043
2039
2035
2035
2036
2038
2040
2040
2041
2041
2042
2041
2038
2035
2036
2047
2070
2100
2124
2131
2126
2115
2110
2107
2096
2061
2004
1941
1899
1896
1931
1982
2028
2052
2061
2059
2058
2059
2062
2066
2068
2071
2072
2073
2074
2074
2074
2074
2074
2075
2076
2076
2076
2077
2078
2079
2080
2080
2080
2080
2081
2082
2085
2086
2088
2089
2089
2089
2089
2090
2092
2095
2100
2105
2108
2111
2112
2112
2111
2110
2110
2109
2109
2108
2108
2107
2105
2101
2097
2093
2088
2083
2078
2073
2068
2063
2058
2054
2050
2047
2044
2042
2040
2039
2039
2039
2039
2039
2039
2039
2038
2037
2036
2036
2037
2039
2039
2040
2039
2039
2039
2039
2038
2038
2038
2038
2038
2037
2037
2037
2037
2036
2035
2035
2035
2035
2034
2034
2033
2033
2033
2034
2035
2036
2036
2035
2035
2036
2036
2035
2035
2034
2034
2035
2035
2036
2036
2036
2035
2034
2033
2034
2035
2036
2038
2039
2039
2038
2037
2036
2037
2038
2039
2039
2040
2040
2040
2040
2040
2039
2037
2035
2032
2031
2032
2034
2038
2041
2045
2048
2048
2049
2048
2046
2043
2041
2041
2040
2040
2040
2040
2042
2043
2044
2042
2039
2036
2038
2051
2076
2106
2132
2148
2156
2164
2171
2168
2139
2079
2001
1931
1895
1903
1943
1993
2032
2052
2059
2061
2060
2060
2060
2061
2063
2065
2068
2070
2069
2066
2063
2062
2063
2066
2071
2076
2078
2079
2079
2079
2080
2081
2082
2083
2084
2086
2088
2091
2094
2096
2097
2097
2098
2099
2101
2105
2110
2114
2117
2118
2118
2117
2117
2117
2117
2117
2118
2118
2116
2113
2109
2105
2101
2098
2094
2091
2087
2082
2077
2071
2064
2058
2054
2052
2052
2054
2055
2055
2053
2051
2048
2048
2048
2049
2050
2051
2051
2050
2049
2049
2049
2048
2048
2048
2047
2046
2046
2046
2046
2047
2047
2047
2046
2045
2044
2043
2043
2042
2041
2041
2041
2041
2040
2039
2038
2038
2038
2038
2037
2037
2035
2034
2034
2034
2034
2034
2034
2034
2034
2034
2033
2033
2033
2033
2033
2034
2034
2034
2033
2033
2033
2033
2033
2033
2034
2034
2034
2035
2035
2036
2036
2036
2036
2035
2036
2037
2037
2037
2035
2033
2032
2031
2033
2036
2041
2045
2048
2050
2049
2047
2043
2039
2037
2036
2037
2038
2039
2040
2040
2041
2041
2041
2038
2035
2032
2035
2049
2073
2101
2125
2141
2152
2164
2174
2172
2142
2081
2004
1937
1904
1914
1953
1999
2034
2051
2055
2055
2054
2054
2055
2056
2057
2058
2059
2059
2060
2061
2062
2063
2064
2064
2065
2066
2067
2068
2070
2071
2072
2074
2075
2076
2077
2079
2080
2082
2084
2086
2087
2089
2090
2092
2094
2097
2099
2102
2104
2106
2107
2108
2108
2108
2108
2108
2107
2106
2105
2103
2100
2098
2094
2090
2086
2081
2076
2071
2067
2063
2059
2055
2051
2048
2045
2043
2041
2040
2039
2038
2038
2037
2037
2037
2036
2036
2036
2037
2038
2038
2039
2040
2040
2039
2038
2038
2038
2038
2038
2039
2039
2039
2039
2039
2038
2038
2037
2036
2035
2035
2035
2035
2034
2034
2033
2032
2032
2031
2031
2031
2031
2031
2031
2031
2030
2030
2029
2029
2030
2030
2030
2030
2030
2029
2029
2029
2030
2030
2030
2031
2030
2030
2030
2030
2030
2030
2030
2031
2031
2032
2033
2034
2034
2033
2032
2032
2032
2032
2033
2032
2031
2030
2029
2031
2034
2038
2042
2045
2047
2046
2043
2040
2037
2034
2033
2033
2033
2033
2034
2035
2035
2036
2036
2034
2031
2028
2030
2042
2064
2093
2120
2139
2153
2168
2180
2180
2154
2094
2015
1940
1897
1898
1934
1981
2020
2041
2047
2048
2048
2048
2050
2051
2053
2054
2055
2055
2056
2057
2058
2059
2060
2061
2062
2062
2063
2064
2065
2066
2067
2069
2071
2072
2074
2075
2076
2077
2079
2081
2083
2086
2088
2090
2092
2094
2095
2097
2099
2101
2104
2105
2107
2107
2107
2106
2105
2103
2102
2100
2098
2095
2093
2089
2085
2080
2074
2069
2065
2060
2056
2052
2048
2045
2042
2040
2038
2036
2035
2034
2034
2034
2034
2034
2035
2035
2035
2035
2036
2036
2036
2037
2037
2036
2036
2036
2036
2036
2036
2036
2036
2036
2036
2036
2035
2035
2034
2034
2033
2033
2033
2033
2033
2032
2032
2031
2030
2030
2030
2030
2030
2030
2030
2029
2029
2029
2029
2029
2029
2029
2030
2030
2030
2030
2030
2030
2029
2029
2029
2030
2031
2032
2032
2033
2033
2032
2032
2032
2032
2032
2033
2034
2035
2036
2035
2034
2033
2033
2034
2035
2035
2034
2033
2032
2032
2033
2036
2040
2044
2047
2048
2047
2044
2040
2037
2035
2034
2034
2034
2035
2035
2036
2037
2038
2038
2036
2033
2030
2032
2045
2068
2099
2127
2146
2160
2175
2189
2191
2165
2104
2022
1946
1902
1903
1938
1985
2023
2044
2049
2051
2051
2051
2053
2054
2055
2056
2057
2057
2058
2059
2060
2061
2062
2063
2064
2065
2066
2067
2068
2069
2071
2073
2075
2076
2078
2079
2079
2081
2082
2085
2087
2090
2092
2094
2095
2097
2099
2102
2104
2106
2108
2110
2111
2111
2111
2111
2110
2109
2108
2106
2104
2101
2098
2094
2089
2084
2079
2074
2069
2065
2061
2057
2053
2050
2048
2046
2044
2042
2040
2040
2040
2040
2040
2040
2040
2039
2039
2039
2039
2040
2041
2042
2042
2042
2042
2041
2041
2040
2040
2041
2041
2041
2041
2041
2040
2039
2038
2038
2038
2038
2037
2037
2037
2036
2036
2035
2035
2034
2034
2034
2034
2034
2035
2035
2034
2034
2034
2034
2034
2034
2034
2035
2035
2034
2034
2034
2034
2034
2034
2034
2035
2035
2035
2035
2035
2034
2035
2035
2035
2036
2036
2037
2037
2037
2037
2037
2037
2037
2037
2037
2037
2037
2038
2038
2037
2035
2033
2033
2033
2036
2040
2045
2048
2049
2049
2048
2045
2041
2039
2037
2036
2036
2037
2038
2038
2038
2038
2038
2038
2036
2034
2033
2037
2052
2077
2106
2128
2142
2150
2163
2176
2178
2153
2093
2015
1944
1906
1914
1952
2000
2035
2052
2056
2056
2055
2055
2055
2057
2058
2060
2061
2062
2063
2064
2065
2065
2066
2066
2067
2067
2068
2070
2071
2072
2073
2073
2074
2075
2077
2079
2081
2082
2083
2084
2085
2087
2089
2091
2094
2096
2099
2101
2104
2106
2108
2109
2109
2109
2109
2109
2109
2109
2108
2107
2105
2102
2098
2093
2088
2084
2080
2076
2071
2066
2061
2057
2053
2050
2048
2046
2045
2044
2044
2043
2043
2042
2041
2041
2041
2041
2042
2042
2042
2042
2042
2042
2042
2042
2042
2042
2042
2042
2042
2042
2041
2041
2041
2040
2040
2039
2040
2040
2041
2040
2039
2038
2037
2037
2037
2037
2037
2037
2037
2036
2036
2036
2035
2035
2035
2036
2036
2036
2036
2036
2036
2036
2036
2036
2036
2036
2037
2037
2037
2037
2037
2037
2037
2037
2038
2038
2038
2038
2039
2039
2039
2038
2037
2037
2037
2038
2038
2039
2039
2039
2039
2039
2038
2036
2035
2035
2035
2037
2039
2042
2043
2044
2043
2041
2037
2033
2029
2025
2023
2021
2020
2018
2016
2013
2011
2010
2009
2006
2003
1999
1997
2003
2022
2048
2076
2097
2113
2129
2149
2163
2158
2118
2046
1962
1898
1874
1894
1937
1981
2009
2020
2020
2019
2019
2020
2021
2022
2023
2024
2025
2026
2026
2027
2028
2030
2031
2032
2034
2036
2038
2040
2041
2042
2043
2044
2046
2049
2052
2055
2057
2058
2059
2061
2063
2066
2070
2074
2078
2082
2086
2089
2091
2093
2096
2098
2101
2103
2104
2104
2103
2102
2101
2099
2097
2096
2093
2090
2087
2083
2078
2073
2069
2064
2060
2057
2054
2052
2050
2048
2047
2046
2045
2045
2045
2046
2048
2048
2048
2049
2049
2050
2051
2053
2054
2054
2055
2055
2056
2056
2055
2055
2055
2056
2057
2057
2057
2057
2057
2056
2055
2054
2053
2053
2053
2054
2054
2053
2052
2051
2050
2050
2051
2050
2050
2048
2048
2048
2048
2049
2048
2048
2046
2045
2044
2044
2043
2044
2043
2044
2044
2044
2043
2043
2043
2042
2043
2044
2044
2044
2043
2043
2042
2042
2042
2043
