1999
2022
2073
2154
2265
2394
2509
2576
2567
2479
2335
2187
2075
2020
2007
2015
2020
2014
2003
1997
1995
1993
1993
1993
1993
1994
1993
1996
1997
1999
1998
1995
1998
2001
2005
2011
2013
2013
2012
2015
2019
2025
2027
2028
2026
2028
2030
2035
2036
2037
2037
2037
2037
2036
2033
2030
2028
2027
2025
2025
2022
2020
2018
2015
2012
2010
2008
2005
2002
2001
2002
2004
2004
2004
2002
2000
2000
2001
2002
2005
2005
2005
2005
2005
2005
2006
2007
2008
2009
2009
2010
2009
2010
2009
2010
2009
2007
2006
2005
2006
2009
2011
2013
2013
2012
2010
2010
2009
2010
2011
2011
2012
2011
2010
2009
2009
2010
2011
2012
2013
2013
2013
2014
2016
2018
2020
2022
2022
2020
2017
2015
2016
2019
2023
2025
2024
2021
2021
2023
2024
2023
2012
2003
2001
2025
2079
2166
2286
2420
2534
2591
2567
2465
2316
2171
2069
2023
2017
2023
2024
2015
2004
2001
2001
2003
2003
2003
2002
2000
2000
2001
2002
2003
2003
2006
2008
2009
2012
2014
2016
2017
2019
2022
2024
2027
2030
2033
2036
2039
2041
2042
2042
2042
2043
2047
2049
2051
2048
2044
2039
2034
2032
2033
2031
2030
2028
2025
2023
2020
2016
2013
2011
2009
2009
2009
2009
2009
2010
2010
2009
2012
2010
2011
2008
2007
2007
2011
2016
2020
2020
2017
2015
2013
2011
2015
2014
2015
2014
2014
2015
2015
2015
2015
2014
2015
2015
2015
2016
2017
2017
2015
2016
2018
2017
2016
2015
2015
2016
2018
2021
2020
2019
2017
2016
2015
2019
2022
2024
2026
2026
2025
2024
2023
2022
2021
2022
2022
2023
2024
2026
2029
2029
2030
2023
2010
2003
2013
2054
2132
2245
2382
2506
2579
2575
2492
2355
2208
2098
2037
2021
2025
2030
2027
2017
2012
2009
2007
2006
2006
2008
2008
2008
2009
2010
2011
2013
2014
2015
2017
2020
2024
2029
2032
2033
2033
2033
2036
2041
2045
2048
2050
2053
2055
2058
2059
2060
2060
2059
2058
2055
2053
2050
2048
2047
2045
2044
2040
2038
2034
2031
2030
2029
2030
2029
2026
2024
2021
2020
2018
2020
2020
2020
2020
2020
2021
2021
2022
2022
2023
2025
2025
2026
2026
2026
2027
2026
2028
2029
2029
2027
2025
2024
2026
2029
2032
2034
2032
2030
2027
2025
2028
2029
2030
2030
2029
2029
2028
2029
2029
2030
2030
2031
2031
2031
2031
2033
2033
2039
2040
2039
2036
2032
2030
2030
2033
2037
2039
2038
2036
2035
2036
2039
2038
2031
2023
2019
2031
2071
2143
2247
2371
2481
2545
2535
2453
2325
2192
2094
2045
2033
2036
2038
2032
2021
2018
2019
2022
2022
2019
2017
2014
2014
2016
2017
2020
2021
2023
2024
2025
2027
2028
2030
2033
2035
2038
2040
2043
2046
2048
2050
2055
2055
2056
2056
2055
2057
2060
2063
2062
2059
2054
2050
2048
2046
2048
2046
2044
2042
2040
2038
2036
2034
2032
2029
2028
2027
2026
2026
2025
2025
2024
2025
2026
2025
2025
2024
2025
2027
2031
2033
2034
2032
2030
2027
2026
2029
2030
2032
2034
2034
2033
2033
2033
2032
2032
2032
2032
2032
2032
2032
2032
2031
2030
2026
2024
2022
2021
2023
2026
2029
2031
2031
2030
2028
2028
2030
2031
2033
2032
2030
2027
2025
2025
2026
2027
2027
2027
2027
2030
2032
2028
2022
2011
2007
2024
2069
2145
2254
2385
2508
2585
2585
2503
2361
2208
2092
2033
2020
2026
2031
2025
2013
2007
2004
2002
2002
2002
2003
2003
2004
2004
2005
2007
2008
2010
2013
2013
2014
2014
2014
2017
2021
2026
2030
2032
2032
2032
2033
2034
2040
2041
2043
2043
2043
2042
2041
2039
2038
2036
2035
2033
2032
2030
2028
2025
2021
2019
2016
2013
2009
2005
2003
2003
2005
2007
2008
2007
2005
2004
2003
2006
2006
2007
2006
2006
2006
2007
2008
2010
2010
2010
2010
2011
2011
2012
2012
2011
2013
2012
2011
2012
2010
2010
2011
2013
2016
2017
2018
2015
2013
2007
2004
2004
2004
2011
2015
2017
2016
2013
2011
2011
2015
2018
2020
2019
2018
2017
2016
2014
2017
2017
2016
2013
2010
2014
2021
2027
2026
2015
2001
2000
2029
2091
2193
2326
2460
2562
2594
2540
2414
2258
2124
2043
2014
2015
2023
2021
2011
2002
1999
1997
1996
1995
1995
1996
1996
1999
2001
2001
2003
2002
2003
2005
2006
2009
2010
2013
2015
2017
2019
2021
2024
2026
2029
2032
2034
2037
2039
2040
2041
2039
2038
2037
2034
2032
2029
2027
2027
2028
2028
2027
2024
2019
2015
2012
2011
2011
2010
2009
2008
2008
2007
2006
2006
2006
2006
2007
2008
2009
2010
2010
2010
2011
2012
2013
2012
2011
2010
2011
2013
2017
2018
2017
2014
2012
2011
2012
2014
2015
2015
2014
2013
2013
2013
2013
2014
2014
2014
2014
2015
2014
2014
2013
2015
2016
2019
2021
2021
2021
2021
2021
2022
2022
2021
2019
2017
2017
2018
2019
2022
2026
2029
2029
2021
2010
2005
2020
2065
2146
2262
2397
2514
2577
2558
2461
2317
2174
2075
2029
2021
2030
2034
2028
2020
2016
2013
2010
2009
2008
2009
2009
2010
2011
2012
2013
2014
2016
2017
2019
2020
2022
2022
2023
2023
2024
2025
2030
2035
2039
2040
2040
2041
2042
2045
2048
2050
2048
2047
2045
2041
2041
2039
2037
2035
2034
2033
2031
2029
2026
2023
2018
2014
2012
2009
2007
2005
2003
2004
2003
2003
2004
2002
2001
2002
2005
2009
2012
2013
2012
2009
2007
2007
2008
2007
2011
2011
2011
2012
2013
2014
2015
2015
2016
2015
2016
2016
2016
2016
2015
2017
2018
2016
2013
2010
2011
2016
2023
2029
2029
2025
2021
2020
2022
2026
2030
2029
2027
2025
2024
2024
2023
2024
2026
2026
2029
2033
2035
2035
2029
2020
2015
2027
2064
2132
2230
2349
2460
2529
2528
2455
2330
2197
2095
2042
2029
2034
2041
2038
2029
2025
2023
2021
2020
2020
2020
2021
2023
2024
2026
2028
2028
2030
2032
2033
2034
2036
2038
2042
2047
2051
2055
2056
2055
2056
2057
2061
2065
2067
2068
2068
2068
2067
2066
2065
2063
2062
2060
2059
2058
2056
2055
2052
2052
2050
2048
2045
2042
2041
2040
2041
2043
2042
2040
2038
2036
2036
2036
2037
2038
2037
2039
2038
2039
2039
2040
2041
2043
2044
2045
2045
2043
2042
2042
2042
2044
2043
2042
2041
2040
2042
2046
2048
2049
2048
2046
2046
2045
2048
2048
2048
2048
2047
2047
2046
2046
2047
2048
2051
2052
2052
2050
2048
2046
2044
2043
2043
2043
2043
2041
2042
2046
2049
2051
2046
2035
2025
2032
2067
2133
2236
2362
2490
2580
2600
2539
2412
2262
2137
2063
2039
2041
2048
2044
2035
2027
2022
2022
2020
2019
2018
2017
2019
2022
2025
2029
2031
2031
2030
2028
2027
2031
2032
2034
2037
2039
2041
2043
2046
2048
2049
2050
2052
2054
2054
2055
2055
2053
2053
2052
2050
2048
2044
2042
2041
2044
2046
2047
2044
2038
2034
2030
2028
2029
2027
2027
2026
2026
2026
2027
2027
2027
2027
2026
2027
2027
2029
2030
2031
2032
2032
2032
2031
2029
2029
2030
2033
2036
2038
2037
2034
2031
2029
2029
2030
2030
2031
2030
2030
2029
2029
2028
2027
2028
2027
2028
2029
2030
2029
2028
2029
2030
2031
2034
2035
2035
2034
2034
2035
2035
2035
2032
2030
2029
2027
2030
2033
2037
2038
2034
2023
2013
2015
2042
2100
2194
2320
2455
2562
2604
2559
2440
2288
2152
2063
2028
2025
2032
2035
2030
2025
2022
2016
2011
2007
2006
2009
2011
2012
2013
2014
2015
2016
2018
2018
2020
2021
2023
2025
2028
2030
2033
2034
2037
2039
2040
2042
2044
2048
2049
2053
2055
2054
2051
2048
2044
2041
2040
2039
2037
2037
2034
2034
2032
2029
2027
2024
2022
2023
2023
2022
2018
2014
2012
2014
2018
2023
2023
2020
2017
2015
2016
2020
2024
2024
2022
2021
2020
2023
2023
2024
2024
2023
2024
2024
2024
2024
2024
2024
2024
2024
2025
2024
2024
2023
2025
2024
2024
2022
2020
2020
2021
2024
2026
2026
2026
2023
2023
2025
2028
2031
2031
2031
2029
2028
2027
2026
2026
2027
2027
2028
2028
2030
2033
2034
2031
2020
2012
2010
2031
2080
2162
2279
2417
2535
2596
2573
2468
2316
2170
2069
2030
2024
2033
2035
2028
2018
2014
2012
2010
2010
2010
2010
2011
2012
2013
2013
2013
2017
2020
2021
2021
2020
2021
2023
2030
2035
2039
2040
2038
2038
2040
2043
2048
2049
2050
2050
2049
2049
2049
2048
2047
2044
2041
2039
2038
2037
2037
2036
2035
2034
2031
2028
2025
2022
2021
2021
2023
2023
2021
2019
2016
2015
2016
2017
2018
2018
2019
2019
2020
2021
2021
2021
2021
2021
2021
2021
2021
2021
2022
2021
2024
2022
2022
2019
2017
2018
2020
2025
2028
2027
2024
2022
2022
2021
2025
2024
2024
2024
2024
2026
2026
2025
2025
2025
2027
2029
2032
2034
2033
2032
2028
2029
2029
2028
2027
2025
2026
2027
2030
2035
2038
2038
2032
2021
2010
2010
2033
2084
2169
2286
2414
2515
2555
2516
2410
2270
2144
2062
2031
2028
2036
2035
2029
2020
2016
2012
2009
2008
2010
2015
2021
2023
2023
2020
2020
2022
2025
2029
2031
2032
2032
2034
2037
2040
2042
2045
2047
2048
2051
2055
2059
2061
2061
2059
2057
2054
2050
2048
2045
2045
2045
2047
2046
2044
2039
2035
2034
2035
2035
2034
2031
2027
2022
2019
2016
2013
2010
2008
2006
2003
2003
2001
2001
2001
2001
2003
2003
2003
2002
2002
2004
2007
2011
2013
2015
2013
2013
2013
2013
2016
2016
2017
2017
2018
2018
2018
2017
2017
2017
2018
2018
2019
2018
2017
2017
2018
2020
2021
2022
2020
2018
2018
2020
2025
2028
2029
2027
2023
2020
2017
2018
2017
2018
2018
2019
2019
2020
2023
2026
2027
2022
2016
2012
2022
2058
2123
2215
2332
2438
2503
2500
2432
2316
2192
2098
2048
2031
2032
2033
2028
2016
2012
2010
2007
2006
2006
2003
2002
1999
1997
1996
1996
1999
2000
2001
2002
2002
2003
2003
2007
2005
2004
2002
2001
2005
2013
2020
2023
2020
2015
2010
2007
2008
2010
2007
2006
2002
1998
1994
1990
1987
1985
1984
1982
1979
1976
1973
1970
1965
1964
1960
1956
1954
1950
1948
1947
1949
1950
1949
1946
1941
1937
1934
1933
1935
1934
1935
1935
1934
1934
1933
1933
1933
1934
1934
1935
1935
1935
1936
1936
1934
1939
1939
1938
1935
1932
1931
1935
1941
1946
1948
1945
1942
1941
1939
1945
1946
1948
1950
1953
1956
1959
1961
1961
1962
1961
1961
1963
1964
1967
1967
1967
1971
1973
1978
1980
1978
1972
1964
1966
1987
2035
2110
2210
2328
2432
2493
2485
2408
2284
2157
2063
2017
2005
2012
2015
2010
2001
1997
1996
1997
2000
2002
2003
2003
2004
2003
2003
2005
2006
2011
2017
2022
2023
2022
2022
2023
2026
2029
2033
2037
2040
2044
2046
2048
2052
2054
2056
2057
2057
2057
2056
2056
2054
2053
2053
2050
2049
2045
2043
2041
2042
2044
2044
2043
2039
2035
2032
2031
2032
2031
2034
2034
2035
2037
2040
2043
2046
2047
2048
2048
2051
2055
2062
2068
2074
2079
2083
2086
2089
2091
2092
2095
2099
2101
2103
2101
2100
2099
2098
2101
2103
2104
2102
2101
2101
2101
2102
2103
2104
2105
2105
2105
2104
2105
2106
2106
2110
2110
2109
2106
2102
2101
2101
2105
2108
2110
2111
2109
2109
2110
2110
2105
2092
2083
2084
2109
2165
2249
2363
2489
2596
2650
2625
2525
2379
2238
2138
2093
2086
2091
2091
2081
2068
2063
2064
2065
2068
2065
2063
2057
2054
2055
2059
2065
2070
2071
2070
2066
2064
2062
2065
2068
2071
2072
2074
2075
2077
2080
2083
2086
2088
2089
2088
2087
2085
2086
2086
2085
2084
2079
2075
2071
2067
2067
2064
2064
2061
2058
2055
2053
2051
2049
2048
2047
2046
2045
2045
2045
2044
2043
2045
2043
2041
2039
2037
2038
2042
2047
2048
2048
2044
2041
2038
2037
2039
2038
2037
2035
2034
2034
2033
2033
2032
2031
2031
2030
2030
2029
2029
2026
2024
2024
2023
2023
2022
2020
2020
2023
2027
2030
2031
2030
2027
2024
2025
2027
2028
2029
2027
2024
2022
2022
2023
2025
2031
2033
2031
2022
2008
2001
2013
2053
2127
2233
2360
2482
2561
2569
2501
2371
2226
2109
2043
2019
2019
2023
2017
2009
2003
2002
1999
1999
1999
1998
1998
1998
2000
2001
2002
2004
2005
2006
2005
2008
2010
2013
2015
2015
2017
2020
2024
2030
2034
2036
2035
2034
2034
2036
2038
2039
2039
2038
2036
2034
2032
2030
2027
2026
2024
2022
2020
2017
2015
2013
2010
2009
2008
2007
2004
2002
2000
2002
2005
2007
2009
2007
2005
2003
2001
2002
2003
2004
2003
2005
2007
2008
2008
2008
2008
2008
2008
2009
2009
2010
2010
2009
2011
2010
2010
2008
2005
2005
2006
2010
2014
2015
2013
2009
2007
2005
2007
2010
2011
2012
2012
2013
2015
2016
2017
2018
2018
2018
2016
2016
2016
2015
2016
2016
2018
2018
2019
2020
2020
2019
2013
2007
2007
2024
2068
2145
2257
2383
2492
2543
2519
2422
2286
2157
2067
2028
2024
2031
2033
2027
2019
2016
2016
2014
2014
2012
2009
2008
2004
2003
2006
2010
2016
2022
2023
2021
2019
2018
2018
2023
2027
2032
2035
2038
2042
2045
2048
2050
2051
2053
2055
2056
2057
2057
2056
2052
2054
2052
2051
2048
2044
2042
2044
2048
2051
2050
2044
2038
2031
2026
2028
2026
2024
2021
2019
2017
2015
2015
2014
2015
2015
2014
2013
2011
2009
2006
2003
2005
2005
2006
2005
2004
2004
2005
2009
2012
2014
2013
2011
2008
2008
2011
2013
2014
2014
2014
2014
2014
2013
2014
2013
2018
2020
2021
2021
2022
2023
2027
2030
2036
2036
2034
2030
2028
2030
2038
2047
2052
2053
2050
2048
2047
2049
2055
2054
2051
2044
2043
2058
2099
2170
2267
2380
2477
2530
2516
2437
2319
2198
2110
2066
2055
2057
2058
2052
2045
2042
2044
2044
2043
2040
2037
2034
2034
2035
2037
2039
2040
2041
2042
2043
2043
2045
2046
2048
2049
2051
2052
2054
2055
2057
2060
2063
2065
2065
2065
2065
2067
2069
2069
2066
2061
2056
2051
2049
2050
2051
2051
2050
2048
2048
2047
2045
2044
2042
2041
2038
2036
2036
2035
2035
2034
2037
2037
2036
2035
2032
2031
2032
2035
2038
2039
2038
2035
2034
2032
2034
2035
2035
2036
2037
2038
2038
2038
2038
2036
2036
2036
2035
2035
2034
2034
2035
2036
2037
2035
2035
2032
2031
2033
2038
2046
2050
2050
2047
2040
2033
2032
2033
2032
2036
2036
2036
2037
2039
2041
2041
2036
2026
2020
2028
2058
2119
2206
2321
2440
2530
2566
2524
2417
2277
2152
2071
2037
2034
2037
2035
2026
2017
2016
2013
2013
2013
2012
2013
2013
2014
2015
2016
2017
2018
2019
2020
2022
2023
2024
2027
2031
2031
2030
2030
2031
2037
2045
2051
2054
2052
2048
2047
2044
2046
2047
2045
2043
2041
2040
2038
2037
2035
2034
2033
2031
2030
2028
2026
2024
2022
2023
2021
2021
2020
2018
2018
2019
2022
2026
2027
2027
2024
2021
2021
2022
2024
2026
2026
2025
2026
2026
2026
2027
2028
2028
2029
2028
2027
2026
2026
2028
2029
2031
2031
2028
2023
2020
2020
2024
2029
2033
2032
2030
2028
2027
2031
2033
2035
2035
2032
2032
2030
2029
2029
2029
2030
2030
2031
2030
2032
2033
2031
2025
2020
2019
2038
2083
2164
2277
2410
2523
2580
2556
2456
2312
2173
2075
2033
2024
2031
2032
2025
2014
2010
2007
2006
2005
2005
2005
2006
2006
2007
2009
2009
2010
2011
2013
2013
2015
2016
2019
2024
2027
2030
2030
2031
2033
2033
2038
2040
2043
2043
2044
2045
2044
2043
2041
2039
2037
2035
2034
2033
2032
2030
2028
2029
2027
2025
2021
2017
2015
2015
2017
2018
2018
2016
2013
2012
2011
2013
2014
2015
2015
2016
2016
2016
2016
2017
2016
2016
2018
2018
2019
2020
2020
2020
2020
2021
2020
2019
2017
2016
2017
2018
2021
2022
2020
2018
2017
2017
2018
2020
2018
2019
2020
2024
2027
2027
2026
2024
2023
2021
2022
2022
2022
2021
2021
2022
2025
2027
2029
2023
2012
2001
2005
2033
2089
2179
2299
2430
2537
2582
2548
2435
2288
2149
2059
2024
2022
2030
2030
2020
2011
2006
2004
2003
2003
2003
2003
2006
2006
2006
2004
2004
2005
2010
2017
2022
2023
2021
2019
2019
2019
2025
2027
2030
2032
2034
2037
2040
2042
2044
2045
2046
2046
2045
2043
2042
2039
2036
2036
2033
2031
2027
2025
2025
2027
2031
2032
2031
2027
2022
2018
2017
2018
2019
2020
2020
2019
2018
2018
2019
2020
2020
2021
2021
2020
2023
2022
2022
2022
2022
2025
2025
2025
2022
2021
2022
2025
2030
2032
2031
2026
2022
2020
2021
2024
2024
2024
2024
2025
2025
2024
2024
2025
2027
2028
2030
2031
2030
2029
2026
2026
2025
2024
2024
2023
2023
2024
2028
2034
2035
2031
2019
2007
2003
2023
2071
2155
2275
2411
2527
2584
2556
2449
2299
2159
2065
2027
2023
2031
2031
2022
2011
2008
2006
2004
2002
2001
2000
2003
2007
2011
2013
2011
2009
2008
2007
2011
2014
2017
2019
2020
2023
2025
2027
2029
2032
2035
2037
2040
2042
2044
2045
2044
2045
2044
2042
2038
2035
2032
2031
2032
2034
2034
2032
2027
2024
2020
2019
2018
2018
2016
2014
2014
2013
2012
2012
2012
2012
2011
2011
2011
2012
2013
2014
2015
2017
2017
2016
2014
2014
2016
2020
2023
2025
2023
2021
2018
2017
2017
2020
2020
2020
2019
2019
2018
2018
2018
2018
2019
2018
2018
2017
2016
2017
2018
2019
2023
2022
2021
2016
2012
2011
2014
2017
2019
2019
2016
2014
2017
2020
2024
2019
2009
1998
2000
2028
2087
2181
2308
2437
2529
2551
2490
2363
2215
2096
2027
2009
2014
2020
2016
2003
1995
1993
1994
1996
1996
1995
1993
1992
1992
1995
1997
1998
1999
2000
2002
2004
2006
2008
2010
2012
2015
2018
2020
2024
2027
2028
2032
2036
2037
2038
2036
2035
2036
2038
2041
2041
2037
2032
2028
2027
2027
2029
2027
2024
2021
2018
2017
2015
2014
2012
2010
2008
2006
2005
2004
2004
2003
2003
2003
2004
2005
2005
2005
2006
2008
2011
2012
2011
2008
2007
2006
2008
2009
2010
2010
2009
2009
2010
2011
2012
2013
2013
2012
2011
2011
2011
2012
2012
2011
2016
2014
2015
2014
2014
2017
2019
2024
2024
2022
2017
2013
2013
2012
2017
2016
2018
2021
2022
2021
2016
2008
2005
2018
2058
2127
2227
2345
2447
2501
2485
2401
2276
2151
2062
2020
2013
2020
2026
2022
2013
2008
2004
2000
1998
1999
1999
2001
2001
2002
2004
2004
2005
2006
2007
2009
2011
2013
2014
2017
2019
2021
2026
2028
2030
2031
2032
2035
2039
2044
2047
2048
2045
2041
2038
2034
2034
2032
2031
2030
2029
2029
2027
2026
2024
2022
2020
2018
2016
2014
2013
2011
2010
2012
2011
2010
2006
2004
2003
2007
2012
2016
2019
2017
2014
2012
2010
2011
2011
2011
2011
2010
2009
2008
2007
2006
2006
2007
2007
2007
2006
2005
2003
2000
2000
2001
1998
1997
1993
1990
1989
1993
2001
2006
2007
2002
1996
1992
1991
1997
2000
2002
2000
1996
1994
1994
1999
2001
1999
1988
1977
1975
1996
2045
2127
2239
2371
2484
2539
2515
2414
2271
2134
2041
2001
1996
2003
2003
1994
1983
1980
1980
1979
1978
1979
1981
1982
1983
1984
1985
1985
1987
1988
1991
1993
1995
1995
1998
2001
2003
2004
2003
2004
2008
2015
2022
2027
2028
2025
2022
2022
2022
2024
2025
2023
2021
2018
2017
2016
2016
2016
2015
2014
2012
2010
2008
2006
2006
2005
2005
2003
2001
1997
1995
1996
2001
2006
2008
2008
2005
2003
2002
2003
2007
2007
2007
2008
2008
2009
2008
2008
2009
2009
2010
2011
2011
2011
2011
2010
2008
2011
2009
2010
2008
2006
2007
2008
2013
2017
2020
2020
2019
2018
2016
2018
2016
2016
2014
2013
2013
2013
2013
2014
2016
2020
2020
2017
2010
2000
1999
2017
2062
2138
2240
2354
2449
2494
2471
2383
2259
2139
2055
2017
2010
2015
2018
2012
2004
2000
1998
1997
1997
1997
1997
1998
1998
1999
2000
2000
2001
2002
2001
2004
2006
2008
2009
2010
2012
2014
2020
2026
2033
2038
2041
2044
2046
2049
2053
2055
2056
2056
2055
2052
2050
2048
2047
2045
2044
2043
2041
2040
2037
2037
2037
2035
2034
2030
2027
2026
2026
2029
2031
2034
2033
2032
2029
2029
2031
2031
2032
2033
2034
2035
2036
2037
2038
2038
2039
2038
2038
2038
2038
2038
2038
2038
2040
2038
2039
2035
2033
2033
2036
2040
2042
2042
2039
2037
2038
2040
2045
2045
2045
2042
2040
2038
2038
2039
2039
2040
2040
2041
2043
2047
2046
2041
2028
2020
2024
2052
2111
2200
2317
2442
2538
2575
2531
2420
2275
2147
2066
2037
2037
2045
2045
2036
2027
2023
2021
2019
2019
2019
2020
2021
2023
2024
2026
2025
2028
2029
2030
2029
2028
2029
2034
2041
2048
2050
2048
2046
2045
2045
2049
2054
2056
2057
2056
2056
2056
2055
2053
2051
2049
2048
2046
2046
2044
2043
2041
2040
2041
2038
2036
2031
2027
2026
2029
2035
2038
2037
2034
2030
2026
2026
2031
2030
2032
2032
2033
2034
2034
2035
2036
2036
2037
2037
2037
2036
2037
2035
2037
2037
2037
2036
2034
2034
2033
2035
2037
2037
2037
2035
2035
2034
2037
2040
2041
2045
2046
2046
2046
2045
2044
2043
2042
2040
2039
2039
2038
2039
2041
2044
2046
2043
2034
2020
2014
2029
2074
2153
2263
2392
2504
2567
2556
2466
2330
2190
2089
2040
2031
2039
2042
2035
2024
2020
2017
2016
2016
2016
2016
2017
2017
2019
2021
2021
2019
2019
2019
2021
2027
2032
2036
2037
2036
2036
2036
2039
2043
2046
2048
2048
2051
2052
2054
2054
2054
2052
2050
2048
2048
2046
2045
2043
2044
2044
2043
2040
2037
2034
2033
2034
2035
2035
2032
2028
2026
2024
2025
2027
2026
2026
2026
2027
2028
2028
2029
2029
2029
2028
2029
2030
2031
2031
2030
2029
2032
2031
2032
2029
2027
2027
2031
2036
2038
2037
2031
2026
2024
2023
2028
2028
2028
2027
2027
2029
2031
2032
2033
2033
2032
2030
2029
2028
2028
2028
2027
2030
2031
2030
2031
2030
2029
2026
2020
2017
2024
2054
2115
2207
2323
2437
2511
2517
2452
2334
2203
2098
2041
2023
2025
2031
2029
2020
2014
2013
2010
2008
2008
2007
2008
2008
2008
2009
2011
2015
2020
2023
2024
2023
2022
2023
2025
2029
2032
2035
2035
2037
2039
2041
2045
2047
2049
2049
2049
2048
2047
2046
2045
2042
2040
2036
2035
2033
2031
2031
2032
2033
2034
2032
2028
2024
2019
2017
2017
2016
2018
2017
2018
2018
2019
2019
2020
2020
2020
2020
2019
2019
2020
2020
2023
2025
2026
2026
2025
2025
2025
2027
2030
2031
2031
2029
2029
2027
2027
2029
2028
2030
2030
2031
2031
2032
2030
2031
2031
2032
2031
2031
2031
2033
2036
2038
2036
2033
2027
2023
2020
2021
2025
2031
2034
2035
2029
2019
2010
2008
2027
2072
2144
2239
2348
2441
2491
2478
2402
2285
2165
2077
2033
2023
2027
2032
2027
2022
2017
2013
2009
2006
2006
2009
2013
2016
2016
2014
2012
2013
2013
2018
2019
2019
2020
2022
2024
2026
2029
2031
2034
2035
2037
2038
2038
2040
2040
2041
2042
2043
2042
2040
2035
2032
2031
2033
2037
2040
2040
2036
2031
2026
2024
2025
2025
2026
2025
2024
2023
2022
2021
2020
2021
2021
2021
2022
2022
2023
2022
2024
2026
2028
2027
2022
2018
2018
2024
2032
2039
2041
2036
2028
2023
2021
2025
2027
2029
2029
2029
2029
2028
2026
2025
2024
2025
2026
2027
2028
2028
2028
2027
2031
2034
2035
2036
2034
2033
2032
2034
2036
2036
2035
2033
2032
2031
2037
2041
2040
2033
2022
2018
2032
2072
2140
2234
2345
2452
2526
2540
2484
2371
2236
2122
2054
2030
2030
2036
2035
2028
2023
2023
2022
2019
2017
2016
2016
2018
2020
2022
2024
2025
2026
2027
2028
2029
2031
2034
2038
2041
2042
2043
2045
2048
2049
2054
2057
2059
2056
2054
2054
2058
2065
2072
2072
2067
2059
2051
2047
2046
2046
2048
2045
2045
2044
2042
2041
2039
2038
2036
2035
2035
2034
2034
2034
2035
2037
2038
2039
2036
2033
2032
2035
2041
2046
2048
2045
2040
2037
2034
2038
2039
2039
2039
2038
2038
2038
2037
2037
2037
2037
2036
2036
2036
2037
2037
2034
2034
2032
2031
2030
2029
2029
2030
2032
2034
2035
2035
2035
2034
2032
2033
2032
2032
2030
2029
2030
2029
2029
2030
2031
2034
2036
2034
2026
2015
2010
2022
2065
2135
2233
2349
2461
2537
2551
2491
2371
2231
2114
2045
2022
2024
2032
2029
2020
2012
2009
2007
2007
2007
2007
2007
2008
2009
2010
2011
2012
2012
2013
2015
2016
2019
2019
2020
2022
2024
2028
2033
2036
2037
2038
2037
2039
2040
2041
2043
2042
2041
2040
2037
2035
2032
2029
2027
2025
2024
2024
2024
2023
2023
2021
2021
2017
2017
2015
2014
2015
2016
2019
2020
2019
2017
2014
2014
2013
2017
2017
2019
2019
2019
2019
2019
2019
2020
2020
2021
2021
2021
2022
2021
2021
2020
2021
2023
2021
2017
2013
2012
2016
2022
2030
2031
2026
2020
2015
2014
2017
2020
2020
2019
2018
2018
2019
2020
2020
2020
2020
2022
2024
2024
2025
2023
2021
2021
2018
2018
2016
2014
2015
2016
2021
2026
2031
2030
2022
2008
1997
1999
2026
2082
2174
2294
2421
2518
2550
2505
2392
2250
2125
2048
2018
2017
2023
2022
2014
2008
2003
1998
1997
1995
1998
2003
2007
2010
2009
2007
2005
2004
2004
2009
2010
2012
2014
2016
2017
2019
2022
2024
2028
2030
2033
2036
2037
2039
2038
2041
2042
2041
2039
2034
2032
2029
2029
2029
2028
2027
2023
2022
2020
2019
2019
2016
2015
2013
2011
2009
2008
2007
2007
2006
2006
2005
2006
2006
2006
2004
2002
2004
2005
2007
2007
2007
2006
2007
2009
2012
2014
2013
2012
2010
2008
2010
2010
2011
2012
2013
2015
2017
2018
2018
2018
2017
2018
2018
2018
2018
2019
2018
2020
2019
2019
2018
2017
2017
2018
2020
2022
2024
2024
2023
2022
2022
2024
2026
2028
2029
2029
2028
2027
2027
2026
2026
2026
2026
2026
2026
2029
2033
2035
2033
2026
2014
2011
2028
2076
2159
2274
2402
2509
2558
2530
2433
2296
2165
2075
2034
2026
2032
2034
2027
2018
2014
2012
2010
2008
2007
2009
2012
2015
2018
2018
2020
2018
2018
2017
2017
2019
2024
2032
2037
2040
2040
2038
2038
2039
2044
2048
2050
2051
2052
2053
2053
2053
2052
2050
2048
2046
2044
2041
2040
2038
2036
2038
2039
2037
2031
2025
2020
2022
2026
2029
2024
2014
2006
2004
2008
2017
2020
2016
2009
2004
2001
2004
2007
2009
2008
2007
2007
2007
2008
2009
2010
2009
2011
2012
2013
2011
2009
2008
2009
2014
2020
2023
2023
2019
2016
2014
2016
2017
2019
2018
2017
2018
2019
2019
2019
2019
2019
2019
2020
2021
2023
2024
2024
2025
2025
2026
2027
2025
2025
2023
2024
2027
2029
2029
2028
2027
2026
2028
2031
2033
2035
2031
2026
2016
2016
2037
2085
2166
2272
2392
2490
2539
2518
2430
2301
2180
2088
2045
2031
2032
2035
2033
2031
2032
2030
2025
2019
2016
2014
2020
2020
2021
2022
2022
2024
2026
2028
2029
2031
2033
2035
2037
2040
2041
2044
2045
2050
2053
2057
2056
2054
2054
2057
2063
2068
2071
2067
2062
2056
2051
2051
2049
2050
2049
2048
2048
2047
2046
2043
2041
2040
2038
2037
2036
2035
2035
2032
2034
2033
2032
2030
2026
2026
2028
2036
2043
2047
2045
2040
2035
2032
2033
2036
2038
2039
2040
2041
2042
2043
2043
2044
2045
2047
2048
2049
2049
2050
2050
2052
2055
2057
2058
2058
2057
2058
2061
2066
2068
2067
2063
2059
2056
2057
2060
2060
2060
2060
2061
2062
2065
2067
2066
2065
2063
2061
2059
2058
2058
2058
2057
2060
2061
2064
2060
2054
2046
2041
2048
2077
2133
2212
2316
2432
2528
2580
2557
2465
2328
2193
2095
2048
2039
2044
2046
2039
2030
2026
2024
2023
2023
2019
2022
2022
2024
2022
2020
2019
2022
2027
2033
2036
2035
2033
2031
2030
2035
2037
2041
2041
2043
2045
2047
2049
2052
2055
2056
2057
2058
2057
2057
2055
2052
2050
2049
2046
2043
2038
2034
2035
2039
2043
2046
2042
2035
2027
2022
2021
2023
2023
2023
2022
2020
2020
2020
2020
2021
2022
2023
2023
2023
2023
2023
2024
2025
2026
2025
2023
2019
2018
2019
2023
2027
2029
2028
2024
2022
2023
2028
2032
2032
2031
2027
2024
2023
2022
2023
2024
2026
2027
2026
2027
2026
2025
2023
2022
2026
2026
2025
2023
2021
2022
2026
2034
2037
2037
2033
2028
2026
2023
2025
2025
2024
2024
2024
2025
2027
2030
2033
2032
2025
2014
2009
2023
2065
2139
2242
2366
2484
2564
2576
2512
2386
2242
2121
2049
2024
2024
2028
2024
2014
2008
2005
2005
2003
2003
2004
2004
2006
2006
2007
2008
2009
2010
2011
2012
2014
2016
2020
2022
2024
2024
2024
2026
2029
2034
2038
2041
2043
2043
2044
2044
2046
2047
2047
2046
2044
2042
2040
2038
2036
2034
2033
2031
2030
2028
2026
2024
2023
2021
2020
2018
2016
2014
2013
2013
2014
2016
2017
2017
2015
2014
2014
2015
2016
2016
2017
2018
2018
2019
2019
2019
2019
2018
2018
2018
2019
2018
2019
2019
2018
2020
2020
2020
2019
2019
2021
2024
2027
2028
2026
2023
2020
2020
2018
2022
2022
2023
2022
2021
2020
2019
2018
2019
2019
2021
2022
2023
2023
2024
2025
2025
2028
2030
2028
2024
2020
2019
2022
2026
2032
2031
2028
2024
2023
2025
2028
2027
2018
2008
2011
2038
2094
2182
2298
2424
2530
2580
2554
2453
2310
2169
2070
2026
2017
2025
2026
2017
2007
2003
2004
2005
2007
2007
2005
2002
2002
2003
2005
2008
2009
2010
2011
2013
2015
2017
2019
2022
2023
2025
2027
2028
2030
2033
2035
2040
2042
2042
2041
2041
2042
2048
2051
2051
2047
2040
2034
2031
2031
2034
2034
2031
2028
2027
2025
2024
2023
2021
2021
2019
2018
2017
2016
2016
2015
2016
2017
2016
2017
2016
2017
2017
2019
2021
2022
2023
2022
2022
2021
2021
2023
2022
2023
2022
2022
2022
2023
2023
2024
2024
2024
2024
2024
2023
2024
2023
2023
2023
2024
2025
2024
2023
2023
2024
2026
2028
2030
2028
2026
2025
2023
2024
2025
2026
2026
2026
2027
2026
2028
2029
2031
2029
2028
2028
2029
2034
2037
2038
2036
2031
2028
2025
2026
2027
2031
2035
2037
2036
2026
2017
2023
2053
2117
2214
2336
2458
2543
2562
2505
2386
2245
2126
2053
2028
2028
2033
2030
2020
2013
2008
2009
2006
2003
2001
2000
2001
2005
2009
2011
2010
2009
2007
2008
2010
2014
2016
2018
2021
2023
2026
2028
2031
2033
2035
2038
2040
2043
2045
2048
2049
2050
2050
2048
2048
2045
2042
2042
2041
2043
2043
2042
2041
2037
2036
2032
2033
2031
2030
2027
2023
2020
2018
2016
2016
2015
2016
2016
2016
2016
2017
2019
2018
2022
2021
2020
2018
2016
2018
2021
2026
2030
2029
2027
2025
2024
2023
2027
2026
2026
2026
2026
2027
2027
2028
2028
2027
2027
2027
2027
2027
2028
2028
2027
2028
2028
2029
2028
2027
2025
2025
2028
2032
2035
2036
2033
2031
2029
2031
2035
2039
2043
2045
2045
2044
2042
2041
2039
2039
2039
2039
2039
2040
2041
2045
2046
2046
2037
2027
2025
2044
2094
2178
2290
2412
2512
2561
2541
2453
2323
2195
2098
2048
2035
2038
2042
2036
2029
2024
2022
2021
2020
2020
2019
2020
2020
2021
2025
2025
2026
2024
2024
2024
2028
2033
2037
2040
2039
2040
2040
2039
2045
2046
2048
2050
2052
2054
2056
2057
2057
2057
2056
2054
2052
2049
2047
2044
2040
2040
2041
2040
2036
2032
2028
2029
2032
2036
2037
2033
2028
2023
2021
2021
2023
2024
2023
2023
2023
2023
2024
2024
2025
2025
2025
2027
2027
2028
2028
2028
2029
2029
2029
2028
2027
2026
2026
2028
2030
2032
2031
2028
2025
2022
2020
2020
2019
2020
2019
2019
2019
2020
2019
2020
2021
2022
2024
2025
2026
2025
2024
2024
2024
2025
2025
2023
2022
2022
2025
2030
2034
2035
2034
2030
2027
2027
2026
2027
2027
2026
2026
2026
2026
2027
2030
2032
2031
2024
2015
2012
2030
2075
2151
2257
2382
2497
2567
2566
2491
2361
2219
2106
2044
2023
2024
2028
2021
2013
2008
2006
2004
2002
2003
2004
2004
2006
2007
2008
2009
2010
2011
2012
2014
2013
2018
2020
2021
2021
2021
2023
2027
2032
2037
2039
2040
2040
2040
2041
2044
2046
2046
2045
2043
2041
2039
2036
2033
2031
2030
2028
2027
2026
2025
2023
2021
2020
2021
2019
2017
2014
2012
2013
2016
2020
2022
2021
2018
2014
2013
2013
2017
2018
2019
2018
2017
2018
2018
2018
2019
2019
2020
2020
2020
2019
2019
2017
2018
2018
2017
2015
2013
2012
2014
2017
2022
2024
2022
2018
2015
2013
2016
2019
2020
2020
2019
2017
2016
2014
2013
2015
2016
2017
2018
2019
2018
2019
2020
2020
2027
2026
2025
2023
2020
2020
2021
2026
2029
2030
2027
2023
2022
2021
2028
2024
2016
2008
2004
2023
2069
2148
2258
2388
2507
2578
2576
2494
2356
2207
2092
2033
2017
2023
2028
2020
2008
2003
2002
2004
2005
2004
2002
2000
1999
2000
2002
2005
2006
2009
2011
2013
2015
2017
2019
2020
2022
2024
2027
2029
2031
2033
2036
2038
2040
2042
2043
2044
2045
2046
2046
2046
2043
2039
2036
2032
2030
2028
2027
2026
2025
2024
2023
2021
2019
2018
2016
2015
2014
2013
2013
2012
2012
2012
2014
2013
2012
2010
2010
2011
2014
2016
2017
2016
2014
2012
2013
2013
2014
2015
2014
2015
2015
2015
2015
2015
2015
2015
2016
2016
2016
2016
2016
2016
2016
2018
2016
2015
2014
2014
2016
2019
2021
2021
2019
2016
2015
2015
2014
2018
2018
2019
2020
2021
2023
2025
2026
2026
2026
2024
2023
2022
2023
2023
2023
2021
2022
2021
2022
2022
2021
2016
2010
2004
2008
2033
2083
2164
2271
2388
2481
2517
2481
2381
2248
2126
2046
2012
2007
2013
2014
2006
1998
1994
1992
1990
1989
1991
1990
1990
1990
1989
1992
1995
2000
2000
2001
2001
2003
2010
2017
2022
2022
2019
2018
2017
2022
2027
2032
2034
2037
2040
2042
2043
2043
2042
2041
2039
2036
2036
2033
2030
2026
2024
2024
2027
2030
2031
2027
2026
2022
2020
2020
2021
2021
2020
2020
2021
2021
2021
2022
2022
2022
2024
2025
2027
2028
2030
2030
2031
2033
2034
2035
2036
2038
2039
2044
2048
2050
2050
2048
2047
2045
2043
2047
2046
2046
2045
2045
2044
2044
2044
2045
2046
2047
2048
2048
2048
2047
2047
2045
2048
2047
2049
2047
2044
2044
2047
2052
2060
2065
2062
2056
2050
2044
2045
2045
2048
2048
2048
2048
2049
2052
2052
2049
2040
2033
2039
2068
2126
2214
2327
2451
2550
2594
2559
2454
2309
2175
2084
2046
2041
2047
2046
2037
2025
2023
2021
2020
2020
2020
2020
2020
2021
2021
2022
2024
2024
2025
2026
2028
2029
2031
2033
2036
2037
2039
2039
2040
2042
2047
2051
2055
2057
2057
2055
2054
2053
2052
2052
2049
2047
2044
2042
2040
2038
2037
2035
2034
2033
2032
2030
2030
2029
2027
2027
2025
2025
2024
2023
2023
2024
2027
2029
2030
2029
2028
2026
2025
2027
2027
2030
2029
2029
2029
2029
2029
2029
2029
2029
2028
2028
2028
2028
2028
2027
2029
2029
2027
2028
2026
2026
2027
2030
2032
2033
2031
2028
2026
2025
2026
2027
2027
2028
2027
2027
2027
2029
2032
2034
2036
2036
2035
2033
2031
2030
2029
2029
2031
2031
2031
2029
2030
2032
2037
2038
2032
2024
2025
2049
2107
2201
2331
2462
2566
2601
2553
2433
2281
2146
2061
2028
2027
2034
2033
2023
2014
2011
2009
2009
2008
2007
2006
2006
2008
2011
2016
2020
2019
2018
2014
2018
2019
2023
2025
2025
2027
2030
2033
2036
2039
2040
2042
2043
2045
2048
2048
2048
2048
2047
2046
2044
2041
2037
2034
2033
2032
2034
2034
2032
2029
2026
2024
2022
2023
2021
2020
2019
2018
2018
2018
2018
2018
2018
2018
2018
2019
2020
2020
2020
2020
2022
2023
2024
2025
2023
2022
2023
2024
2027
2029
2027
2026
2024
2023
2024
2024
2025
2024
2024
2024
2025
2025
2025
2025
2025
2025
2024
2022
2022
2023
2024
2025
2026
2026
2025
2024
2025
2027
2032
2035
2036
2034
2029
2026
2023
2024
2026
2026
2027
2026
2028
2031
2033
2031
2022
2010
2007
2025
2074
2158
2274
2408
2524
2584
2564
2465
2320
2177
2077
2032
2025
2032
2034
2024
2012
2007
2006
2005
2005
2005
2006
2007
2007
2008
2008
2009
2011
2012
2015
2017
2019
2020
2022
2023
2026
2026
2029
2030
2032
2035
2040
2045
2048
2048
2047
2045
2044
2041
2043
2041
2040
2037
2034
2033
2031
2030
2030
2028
2028
2026
2025
2023
2021
2020
2016
2018
2018
2016
2015
2013
2013
2014
2017
2020
2020
2019
2018
2017
2016
2018
2019
2019
2020
2021
2020
2020
2021
2021
2021
2021
2022
2023
2023
2025
2024
2023
2024
2023
2021
2020
2020
2021
2022
2026
2027
2026
2025
2024
2023
2023
2024
2025
2025
2026
2028
2030
2031
2030
2029
2027
2026
2026
2025
2024
2024
2024
2024
2029
2033
2033
2026
2014
2006
2013
2048
2114
2207
2321
2432
2509
2523
2472
2360
2227
2114
2048
2025
2027
2033
2031
2021
2012
2009
2008
2008
2009
2010
2009
2008
2012
2011
2010
2010
2009
2011
2014
2020
2025
2028
2027
2025
2025
2024
2031
2032
2034
2038
2040
2043
2045
2046
2047
2047
2046
2045
2043
2040
2037
2035
2031
2033
2032
2031
2031
2027
2024
2025
2025
2027
2027
2024
2021
2018
2016
2016
2015
2014
2016
2015
2015
2016
2017
2017
2018
2018
2019
2020
2021
2022
2022
2023
2025
2025
2024
2023
2021
2020
2023
2027
2031
2032
2030
2027
2024
2022
2022
2023
2022
2022
2023
2023
2027
2029
2030
2027
2025
2025
2028
2035
2042
2046
2043
2038
2033
2029
2029
2029
2030
2031
2032
2035
2037
2040
2041
2036
2026
2015
2011
2028
2073
2150
2260
2390
2511
2586
2585
2503
2365
2216
2101
2041
2025
2031
2035
2029
2017
2011
2008
2007
2007
2008
2010
2011
2011
2011
2010
2011
2011
2014
2015
2018
2020
2021
2022
2024
2026
2028
2030
2032
2034
2036
2039
2042
2044
2045
2045
2046
2045
2043
2042
2040
2038
2037
2036
2034
2031
2028
2026
2024
2024
2024
2024
2022
2021
2020
2019
2018
2018
2018
2017
2017
2017
2018
2018
2019
2019
2021
2020
2020
2019
2018
2019
2021
2024
2027
2028
2026
2023
2021
2019
2019
2020
2021
2021
2020
2020
2020
2019
2020
2021
2020
2020
2019
2019
2018
2019
2019
2018
2021
2022
2022
2021
2022
2025
2029
2035
2037
2033
2027
2022
2019
2021
2024
2025
2025
2026
2031
2033
2030
2019
2008
2008
2034
2093
2187
2313
2447
2551
2591
2553
2436
2284
2146
2056
2023
2025
2038
2040
2029
2015
2007
2003
2001
2006
2006
2007
2007
2007
2008
2010
2011
2013
2013
2014
2015
2016
2017
2019
2021
2023
2026
2028
2028
2029
2030
2032
2036
2039
2042
2043
2041
2039
2035
2032
2031
2029
2029
2028
2027
2026
2024
2022
2019
2016
2012
2009
2005
2002
2000
1998
1996
1995
1994
1992
1989
1987
1985
1985
1988
1991
1993
1994
1994
1993
1991
1991
1991
1990
1992
1992
1992
1993
1994
1994
1995
1995
1995
1996
1996
1997
1997
1998
1998
1998
1997
1997
1995
1995
1997
2000
2004
2006
2006
2004
2003
2004
2006
2008
2011
2011
2009
2008
2008
2007
2007
2008
2008
2008
2009
2012
2016
2016
2011
2000
1994
1999
2031
2095
2192
2314
2435
2518
2533
2472
2353
2214
2100
2032
2012
2011
2016
2014
2005
1999
1996
1995
1993
1992
1993
1993
1995
1996
1997
1999
1999
2000
2003
2004
2005
2006
2008
2011
2015
2020
2025
2027
2028
2028
2029
2031
2035
2038
2040
2041
2041
2039
2037
2035
2033
2031
2029
2028
2027
2026
2026
2025
2025
2023
2021
2019
2017
2016
2017
2019
2021
2022
2020
2017
2014
2013
2014
2017
2019
2020
2020
2020
2021
2021
2022
2025
2027
2032
2036
2039
2042
2043
2044
2044
2046
2046
2043
2041
2039
2041
2047
2054
2059
2059
2054
2049
2047
2047
2048
2048
2048
2047
2048
2048
2050
2053
2054
2055
2055
2055
2053
2052
2051
2049
2048
2050
2049
2049
2046
2045
2047
2053
2059
2058
2048
2033
2030
2052
2106
2200
2319
2453
2564
2618
2593
2489
2339
2194
2092
2046
2037
2044
2047
2038
2028
2023
2021
2019
2018
2018
2018
2018
2018
2018
2020
2022
2025
2027
2029
2030
2031
2031
2033
2034
2036
2038
2039
2042
2044
2047
2048
2049
2050
2050
2052
2052
2052
2051
2049
2048
2042
2038
2035
2033
2036
2039
2041
2038
2034
2029
2026
2024
2024
2025
2024
2024
2024
2024
2023
2024
2023
2022
2022
2022
2022
2022
2024
2026
2027
2029
2029
2028
2024
2021
2021
2025
2031
2037
2037
2033
2028
2023
2021
2023
2025
2025
2025
2024
2024
2024
2024
2025
2025
2025
2024
2024
2024
2023
2023
2023
2024
2024
2024
2024
2025
2027
2032
2035
2037
2037
2032
2028
2025
2023
2025
2026
2027
2028
2031
2034
2034
2026
2014
2005
2011
2046
2112
2213
2343
2477
2576
2607
2553
2426
2269
2133
2050
2022
2025
2035
2033
2020
2009
2003
2000
2001
2002
2004
2003
2004
2004
2005
2006
2007
2008
2010
2012
2014
2016
2018
2020
2022
2023
2024
2026
2028
2029
2031
2036
2042
2048
2050
2049
2046
2042
2040
2039
2037
2035
2033
2030
2028
2028
2027
2026
2024
2023
2021
2021
2020
2019
2017
2016
2015
2016
2015
2012
2011
2010
2013
2015
2018
2020
2020
2021
2023
2023
2023
2022
2018
2016
2017
2019
2022
2022
2023
2023
2022
2021
2021
2022
2022
2023
2020
2021
2023
2023
2023
2020
2019
2019
2022
2028
2030
2030
2026
2021
2018
2016
2021
2023
2025
2025
2024
2024
2024
2026
2028
2029
2030
2029
2028
2027
2026
2025
2024
2026
2027
2027
2026
2023
2024
2030
2035
2035
2029
2022
2028
2062
2132
2237
2366
2483
2556
2554
2477
2346
2205
2096
2039
2022
2026
2032
2027
2017
2012
2010
2008
2010
2009
2008
2005
2005
2007
2013
2019
2022
2021
2015
2012
2011
2013
2017
2018
2021
2023
2026
2029
2033
2036
2038
2040
2042
2043
2045
2046
2046
2046
2043
2042
2040
2037
2034
2031
2030
2032
2034
2035
2033
2030
2025
2022
2021
2021
2021
2020
2019
2018
2017
2018
2017
2018
2019
2019
2019
2019
2020
2021
2022
2023
2024
2025
2025
2023
2021
2022
2025
2029
2033
2034
2031
2029
2026
2025
2027
2028
2030
2030
2029
2028
2027
2027
2028
2028
2030
2030
2030
2030
2030
2032
2032
2032
2031
2028
2026
2025
2027
2030
2034
2036
2037
2037
2037
2037
2037
2036
2036
2035
2034
2033
2033
2033
2033
2034
2035
2038
2039
2037
2030
2019
2015
2028
2069
2142
2244
2367
2478
2547
2547
2474
2350
2214
2107
2047
2028
2030
2034
2032
2023
2018
2015
2013
2012
2011
2011
2012
2013
2014
2014
2015
2016
2017
2019
2019
2022
2024
2025
2024
2024
2026
2031
2039
2046
2047
2046
2043
2042
2043
2047
2049
2050
2048
2048
2045
2043
2042
2040
2039
2037
2036
2033
2032
2032
2028
2027
2027
2023
2021
2019
2017
2017
2018
2020
2021
2021
2018
2016
2015
2013
2017
2017
2018
2018
2018
2018
2018
2018
2018
2019
2018
2018
2018
2018
2020
2021
2021
2024
2024
2024
2022
2021
2021
2024
2027
2029
2030
2026
2023
2022
2021
2024
2023
2023
2023
2023
2023
2022
2022
2020
2020
2020
2021
2022
2022
2022
2022
2024
2026
2027
2030
2029
2028
2027
2027
2029
2029
2028
2027
2024
2023
2023
2027
2031
2032
2026
2016
2010
2019
2055
2121
2217
2338
2463
2557
2589
2541
2424
2275
2144
2058
2025
2022
2027
2027
2020
2015
2014
2012
2009
2006
2004
2004
2006
2007
2009
2010
2012
2013
2014
2016
2017
2018
2019
2021
2023
2025
2027
2030
2031
2035
2038
2039
2041
2042
2044
2047
2049
2051
2050
2047
2043
2039
2036
2034
2034
2032
2031
2029
2027
2025
2023
2021
2018
2017
2016
2014
2013
2013
2013
2013
2012
2015
2013
2013
2012
2012
2013
2016
2018
2018
2015
2012
2010
2010
2012
2014
2014
2015
2015
2015
2014
2014
2014
2014
2014
2014
2014
2015
2015
2016
2016
2016
2017
2016
2016
2014
2014
2015
2017
2020
2024
2024
2022
2018
2015
2013
2014
2015
2016
2017
2017
2017
2017
2018
2019
2021
2024
2025
2026
2025
2023
2021
2021
2022
2023
2023
2022
2020
2020
2023
2029
2033
2031
2019
2007
2008
2036
2096
2191
2312
2440
2541
2583
2543
2432
2283
2147
2058
2022
2020
2028
2029
2019
2009
2004
2003
2003
2002
2000
2000
2001
2004
2009
2012
2014
2013
2013
2013
2014
2020
2021
2024
2025
2027
2029
2032
2036
2039
2042
2045
2047
2048
2049
2050
2049
2048
2049
2048
2046
2044
2039
2036
2037
2041
2045
2048
2043
2036
2027
2021
2017
2014
2012
2011
2009
2009
2009
2010
2009
2009
2008
2009
2010
2010
2011
2012
2013
2013
2015
2015
2014
2012
2012
2013
2017
2021
2023
2022
2020
2018
2017
2017
2020
2019
2020
2020
2020
2021
2021
2021
2021
2021
2021
2022
2023
2023
2023
2023
2023
2024
2025
2023
2021
2019
2020
2023
2028
2032
2032
2029
2026
2024
2026
2029
2033
2033
2032
2032
2031
2030
2026
2023
2023
2025
2030
2037
2040
2041
2036
2030
2020
2014
2018
2042
2093
2176
2288
2410
2508
2551
2519
2421
2286
2159
2074
2035
2029
2034
2036
2030
2021
2017
2014
2013
2012
2013
2014
2015
2016
2016
2017
2018
2020
2021
2021
2023
2024
2027
2031
2035
2038
2039
2039
2040
2043
2046
2050
2053
2055
2057
2059
2060
2059
2058
2056
2055
2053
2051
2050
2049
2048
2046
2046
2042
2040
2037
2033
2031
2031
2033
2035
2033
2029
2025
2021
2020
2022
2022
2022
2021
2020
2021
2022
2023
2025
2025
2025
2026
2026
2027
2027
2027
2027
2028
2029
2030
2029
2027
2027
2029
2033
2037
2039
2036
2032
2030
2028
2030
2032
2032
2031
2030
2029
2031
2031
2031
2030
2029
2030
2032
2033
2032
2032
2029
2029
2032
2030
2032
2029
2029
2032
2038
2042
2043
2041
2036
2033
2030
2029
2032
2032
2033
2032
2033
2035
2038
2037
2033
2026
2021
2028
2059
2121
2211
2324
2436
2515
2535
2484
2371
2236
2120
2051
2030
2035
2045
2043
2031
2017
2012
2010
2011
2013
2013
2014
2015
2016
2017
2018
2019
2020
2021
2022
2022
2024
2026
2028
2031
2034
2037
2038
2039
2041
2044
2048
2053
2056
2057
2057
2056
2055
2055
2055
2053
2050
2048
2047
2046
2045
2044
2043
2040
2038
2035
2032
2031
2029
2027
2025
2023
2022
2020
2019
2018
2019
2020
2022
2023
2023
2022
2021
2020
2020
2021
2022
2023
2023
2024
2024
2024
2024
2024
2024
2025
2026
2027
2028
2029
2029
2029
2029
2028
2027
2027
2027
2027
2029
2029
2028
2026
2023
2021
2020
2019
2019
2018
2019
2019
2020
2021
2021
2020
2019
2020
2023
2026
2030
2032
2033
2031
2029
2028
2027
2026
2026
2026
2027
2029
2032
2036
2036
2032
2022
2014
2016
2042
2094
2174
2281
2403
2511
2574
2565
2482
2347
2203
2093
2036
2021
2025
2030
2024
2014
2008
2005
2004
2002
2002
2004
2007
2011
2012
2012
2010
2009
2009
2011
2014
2016
2018
2018
2020
2022
2024
2027
2029
2031
2034
2037
2039
2041
2043
2045
2045
2048
2048
2046
2042
2038
2036
2037
2039
2040
2036
2031
2026
2023
2020
2020
2018
2014
2012
2011
2010
2011
2010
2010
2009
2009
2009
2010
2011
2012
2011
2009
2012
2012
2013
2014
2013
2013
2015
2018
2019
2020
2018
2016
2014
2012
2015
2015
2016
2016
2016
2016
2017
2017
2017
2018
2018
2019
2019
2018
2018
2017
2016
2018
2018
2018
2016
2015
2015
2017
2022
2026
2028
2026
2024
2023
2024
2026
2027
2028
2026
2023
2022
2021
2022
2023
2024
2025
2027
2031
2031
2028
2018
2008
2008
2030
2084
2172
2292
2425
2535
2586
2555
2448
2298
2157
2062
2021
2018
2026
2029
2022
2013
2010
2009
2009
2009
2009
2010
2010
2010
2012
2013
2015
2017
2018
2021
2021
2020
2020
2021
2026
2033
2039
2043
2042
2040
2038
2038
2043
2048
2051
2055
2056
2058
2056
2055
2053
2051
2049
2048
2046
2044
2043
2041
2038
2038
2036
2033
2030
2025
2021
2019
2021
2022
2022
2021
2017
2016
2013
2013
2015
2015
2017
2017
2018
2018
2018
2017
2018
2018
2019
2019
2019
2019
2020
2020
2021
2022
2023
2022
2020
2019
2020
2022
2026
2028
2027
2024
2021
2019
2020
2020
2022
2022
2022
2021
2021
2021
2020
2021
2022
2022
2022
2023
2024
2025
2028
2029
2030
2029
2027
2026
2024
2024
2025
2027
2029
2029
2028
2026
2028
2029
2029
2023
2013
2009
2021
2060
2133
2234
2355
2465
2532
2531
2458
2333
2198
2093
2036
2019
2024
2028
2023
2011
2004
2003
2004
2008
2009
2008
2005
2004
2003
2004
2008
2009
2010
2010
2013
2015
2016
2019
2020
2022
2024
2027
2031
2034
2037
2038
2039
2043
2045
2045
2047
2048
2048
2048
2046
2043
2042
2041
2043
2043
2039
2037
2031
2027
2026
2025
2025
2022
2020
2018
2017
2015
2014
2013
2013
2012
2012
2011
2013
2012
2015
2015
2012
2011
2011
2015
2021
2026
2026
2023
2019
2016
2015
2015
2015
2015
2014
2016
2018
2020
2020
2020
2019
2019
2019
2018
2018
2018
2018
2019
2017
2017
2015
2013
2012
2012
2014
2016
2017
2016
2015
2013
2012
2014
2016
2018
2020
2021
2021
2020
2019
2019
2018
2018
2018
2019
2019
2019
2020
2022
2023
2020
2011
2001
2002
2025
2078
2164
2278
2406
2514
2570
2550
2457
2315
2175
2072
2022
2011
2017
2020
2014
2003
1999
1996
1995
1995
1995
1996
1997
1998
1998
1999
2000
2001
2001
2002
2004
2007
2012
2015
2017
2017
2018
2019
2020
2024
2027
2029
2031
2034
2037
2039
2040
2040
2038
2037
2035
2033
2031
2029
2027
2025
2024
2023
2020
2017
2014
2012
2012
2012
2012
2011
2009
2006
2003
2003
2004
2005
2006
2007
2007
2008
2009
2008
2009
2009
2010
2010
2011
2011
2011
2011
2010
2011
2011
2011
2013
2013
2013
2013
2013
2014
2015
2015
2014
2013
2011
2011
2011
2011
2012
2011
2010
2011
2010
2011
2010
2010
2011
2011
2012
2012
2012
2013
2014
2017
2019
2020
2019
2018
2019
2020
2023
2024
2021
2018
2016
2015
2016
2019
2022
2024
2023
2018
2007
2000
2008
2044
2109
2210
2337
2465
2557
2581
2521
2395
2244
2114
2038
2010
2012
2023
2023
2015
2007
2003
1999
1997
1995
1995
1998
1998
1999
2000
2001
2002
2004
2006
2008
2009
2011
2012
2014
2016
2018
2019
2022
2026
2030
2032
2034
2035
2036
2039
2044
2048
2048
2046
2041
2037
2033
2031
2030
2028
2028
2026
2025
2022
2020
2016
2012
2009
2006
2005
2004
2004
2003
2003
2002
2002
2002
2001
2000
2000
2002
2006
2009
2011
2010
2008
2006
2005
2007
2009
2009
2009
2009
2009
2010
2010
2010
2010
2010
2010
2010
2010
2011
2011
2011
2011
2013
2012
2012
2011
2011
2013
2015
2017
2017
2016
2014
2011
2011
2011
2013
2015
2016
2018
2020
2021
2022
2022
2021
2021
2020
2020
2021
2022
2022
2022
2023
2024
2027
2030
2029
2024
2015
2008
2014
2044
2105
2199
2321
2445
2534
2557
2500
2381
2239
2120
2050
2027
2029
2035
2032
2021
2012
2009
2008
2008
2008
2009
2011
2012
2013
2014
2015
2016
2019
2022
2026
2028
2028
2028
2028
2031
2034
2039
2042
2045
2045
2046
2046
2045
2046
2047
2048
2049
2049
2048
2047
2043
2040
2038
2036
2034
2033
2032
2031
2031
2032
2032
2030
2028
2026
2023
2022
2022
2023
2022
2021
2019
2016
2013
2010
2007
2005
2003
2000
1997
1994
1993
1992
1994
1996
1997
1997
1996
1994
1994
1997
2000
2004
2006
2005
2003
2001
2003
2003
2007
2009
2010
2009
2011
2011
2011
2012
2013
2015
2015
2016
2016
2016
2017
2018
2019
2024
2025
2028
2026
2026
2025
2028
2030
2031
2033
2032
2032
2032
2032
2037
2041
2047
2046
2042
2035
2032
2043
2080
2147
2243
2361
2474
2550
2560
2499
2384
2254
2147
2088
2068
2068
2072
2071
2066
2066
2068
2066
2061
2056
2053
2054
2058
2062
2065
2065
2065
2065
2065
2065
2065
2065
2066
2067
2069
2072
2074
2077
2079
2080
2080
2080
2081
2083
2087
2091
2092
2090
2087
2082
2079
2075
2074
2073
2072
2070
2069
2068
2066
2064
2061
2059
2057
2054
2052
2050
2048
2047
2046
2047
2046
2045
2043
2041
2040
2042
2045
2048
2048
2047
2045
2042
2043
2043
2043
2044
2044
2044
2043
2043
2042
2041
2040
2038
2038
2037
2037
2036
2036
2035
2034
2033
2031
2029
2026
2026
2027
2031
2035
2037
2037
2035
2035
2035
2036
2039
2039
2037
2036
2034
2032
2029
2027
2026
2028
2033
2038
2043
2042
2037
2026
2012
2010
2024
2065
2138
2244
2377
2506
2592
2603
2528
2389
2233
2108
2040
2021
2025
2031
2027
2016
2009
2006
2004
2003
2003
2003
2003
2004
2005
2007
2010
2011
2012
2012
2013
2015
2016
2018
2021
2025
2029
2032
2033
2032
2033
2033
2036
2039
2041
2044
2044
2043
2043
2041
2040
2038
2036
2034
2033
2031
2029
2028
2026
2023
2022
2021
2018
2014
2011
2010
2012
2015
2017
2016
2012
2010
2008
2007
2008
2008
2007
2006
2007
2008
2009
2011
2011
2012
2011
2012
2011
2010
2010
2010
2009
2012
2012
2013
2012
2012
2012
2015
2016
2019
2019
2017
2016
2014
2013
2016
2015
2017
2017
2017
2018
2020
2021
2023
2024
2023
2022
2021
2020
2019
2017
2017
2019
2020
2020
2022
2024
2024
2022
2015
2006
2005
2024
2072
2155
2271
2400
2505
2548
2515
2410
2270
2141
2056
2021
2019
2027
2028
2021
2012
2009
2008
2007
2006
2007
2006
2004
2001
1998
1998
2000
2005
2009
2011
2010
2010
2009
2011
2013
2014
2018
2019
2021
2024
2025
2028
2030
2033
2036
2037
2038
2037
2037
2036
2033
2034
2032
2031
2029
2027
2027
2029
2030
2030
2025
2020
2013
2009
2005
2006
2006
2006
2005
2005
2005
2006
2006
2007
2008
2009
2010
2011
2012
2012
2013
2013
2015
2015
2017
2017
2017
2017
2020
2022
2025
2026
2026
2025
2024
2023
2025
2025
2026
2025
2025
2026
2027
2029
2031
2031
2032
2032
2033
2035
2038
2039
2038
2038
2037
2034
2032
2030
2029
2029
2031
2033
2035
2036
2037
2036
2030
2021
2014
2017
2046
2103
2192
2306
2422
2508
2533
2485
2376
2242
2127
2056
2031
2030
2037
2035
2025
2017
2012
2012
2014
2016
2019
2019
2018
2015
2014
2012
2016
2017
2017
2019
2020
2021
2022
2023
2024
2026
2030
2035
2041
2043
2046
2047
2048
2052
2054
2055
2053
2048
2047
2047
2049
2052
2053
2049
2045
2040
2036
2035
2034
2031
2030
2026
2025
2023
2021
2020
2018
2017
2016
2017
2016
2019
2019
2017
2017
2018
2018
2020
2019
2018
2018
2020
2024
2026
2026
2025
2020
2016
2014
2016
2016
2017
2017
2016
2015
2014
2013
2012
2011
2010
2008
2007
2008
2008
2008
2007
2010
2011
2014
2016
2014
2012
2012
2015
2020
2023
2021
2016
2011
2008
2008
2010
2012
2017
2016
2014
2005
1994
1990
2007
2051
2126
2232
2357
2471
2538
2533
2451
2316
2175
2067
2013
2000
2008
2016
2014
2006
1999
1993
1988
1985
1985
1987
1989
1990
1992
1993
1995
1996
1997
1998
1999
2002
2004
2006
2009
2011
2013
2015
2018
2021
2021
2023
2024
2028
2033
2040
2043
2042
2038
2031
2027
2024
2024
2025
2023
2022
2021
2019
2018
2015
2013
2010
2008
2006
2005
2004
2003
2002
2000
2000
2000
2000
1998
1997
1998
2001
2006
2009
2011
2008
2005
2003
2002
2005
2007
2008
2008
2007
2007
2007
2007
2008
2007
2008
2008
2008
2009
2009
2009
2008
2009
2007
2006
2006
2007
2009
2011
2014
2015
2015
2014
2015
2015
2016
2017
2015
2013
2013
2013
2012
2012
2012
2012
2014
2018
2020
2018
2009
1998
1993
2007
2049
2123
2229
2359
2478
2553
2552
2473
2338
2192
2082
2024
2009
2014
2019
2014
2005
2001
1998
1996
1995
1995
1995
1996
1998
2000
2002
2003
2004
2005
2007
2009
2011
2012
2013
2012
2012
2015
2021
2027
2033
2036
2036
2036
2037
2039
2043
2044
2045
2043
2041
2039
2037
2036
2034
2034
2032
2030
2028
2024
2024
2020
2016
2016
2014
2012
2008
2006
2004
2005
2010
2014
2015
2010
2008
2004
2001
2005
2008
2010
2010
2010
2011
2011
2011
2012
2013
2013
2013
2013
2012
2012
2012
2012
2014
2017
2016
2013
2011
2009
2010
2011
2014
2016
2015
2016
2018
2017
2015
2013
2009
2008
2012
2016
2020
2022
2022
2021
2019
2017
2016
2015
2015
2015
2014
2016
2018
2024
2025
2022
2013
1999
1994
2006
2046
2114
2216
2342
2460
2542
2548
2476
2344
2199
2087
2028
2012
2018
2025
2020
2008
2002
2000
1999
1999
1999
2003
2003
2004
2003
2001
2002
2005
2009
2014
2016
2016
2015
2014
2014
2017
2020
2024
2026
2029
2032
2035
2039
2042
2045
2046
2046
2046
2045
2044
2043
2042
2041
2040
2037
2036
2033
2031
2030
2029
2029
2027
2023
2018
2014
2012
2010
2011
2009
2008
2007
2006
2006
2007
2008
2008
2009
2009
2010
2011
2011
2012
2012
2013
2015
2014
2013
2012
2011
2011
2013
2016
2017
2015
2013
2012
2011
2012
2016
2015
2015
2015
2015
2014
2013
2013
2013
2014
2015
2015
2016
2016
2017
2019
2020
2023
2023
2022
2022
2020
2018
2019
2021
2023
2024
2024
2022
2021
2022
2026
2027
2023
2014
2007
2014
2047
2110
2205
2322
2434
2507
2515
2452
2335
2204
2099
2041
2024
2026
2031
2026
2015
2009
2008
2009
2010
2009
2007
2006
2006
2006
2008
2009
2009
2009
2012
2013
2015
2018
2019
2022
2024
2028
2031
2034
2037
2042
2044
2048
2052
2055
2056
2057
2058
2059
2063
2062
2061
2057
2051
2049
2046
2047
2047
2045
2044
2041
2039
2036
2034
2032
2030
2028
2027
2026
2024
2023
2023
2023
2024
2027
2027
2025
2021
2020
2022
2028
2034
2038
2036
2032
2028
2027
2028
2032
2033
2033
2033
2034
2034
2034
2033
2034
2033
2033
2033
2032
2031
2030
2030
2030
2029
2028
2026
2025
2025
2026
2029
2031
2033
2033
2033
2034
2034
2036
2036
2035
2033
2031
2030
2030
2031
2031
2032
2032
2034
2037
2037
2033
2023
2014
2018
2044
2100
2186
2299
2424
2528
2578
2552
2452
2307
2169
2073
2031
2025
2034
2037
2029
2020
2016
2014
2013
2012
2012
2013
2013
2014
2015
2016
2017
2018
2019
2021
2022
2024
2025
2026
2027
2031
2036
2040
2043
2045
2046
2047
2048
2052
2053
2056
2057
2057
2056
2055
2053
2051
2049
2048
2046
2045
2043
2042
2039
2035
2033
2031
2028
2025
2022
2020
2020
2021
2022
2023
2021
2018
2016
2016
2017
2019
2019
2020
2020
2021
2021
2022
2022
2023
2023
2024
2024
2024
2024
2024
2023
2024
2024
2023
2023
2021
2019
2020
2022
2025
2027
2028
2027
2025
2023
2022
2023
2022
2023
2022
2023
2024
2024
2025
2026
2028
2030
2033
2034
2034
2033
2030
2031
2031
2033
2031
2028
2027
2027
2033
2042
2047
2042
2028
2013
2009
2030
2081
2164
2277
2408
2525
2590
2577
2486
2342
2196
2089
2038
2026
2032
2036
2029
2020
2016
2012
2011
2009
2009
2010
2014
2017
2018
2019
2019
2018
2017
2017
2019
2019
2020
2026
2028
2031
2033
2035
2038
2041
2043
2046
2049
2052
2054
2057
2057
2060
2060
2057
2055
2050
2048
2048
2050
2053
2054
2050
2044
2039
2034
2031
2030
2026
2025
2023
2022
2021
2020
2018
2017
2015
2013
2013
2013
2013
2013
2014
2015
2017
2018
2018
2016
2015
2016
2019
2023
2024
2024
2021
2018
2017
2017
2017
2016
2017
2017
2018
2018
2017
2017
2017
2017
2018
2018
2018
2019
2018
2018
2016
2017
2016
2016
2016
2016
2017
2019
2022
2024
2025
2025
2024
2023
2021
2022
2021
2020
2020
2021
2021
2022
2022
2022
2025
2028
2027
2023
2013
2006
2011
2040
2099
2188
2304
2420
2507
2533
2487
2381
2247
2130
2055
2026
2024
2029
2030
2021
2015
2012
2011
2010
2010
2010
2010
2011
2013
2014
2016
2018
2019
2020
2021
2022
2023
2023
2023
2023
2025
2028
2033
2038
2041
2043
2044
2046
2048
2051
2053
2057
2058
2057
2054
2050
2048
2048
2050
2052
2053
2049
2045
2040
2035
2034
2032
2030
2026
2024
2022
2020
2020
2021
2022
2021
2020
2018
2016
2016
2017
2018
2019
2019
2020
2020
2021
2022
2023
2024
2024
2025
2026
2025
2025
2026
2026
2027
2028
2029
2029
2026
2024
2023
2025
2028
2031
2029
2026
2025
2023
2023
2024
2023
2021
2019
2019
2019
2021
2023
2023
2023
2023
2024
2025
2026
2029
2029
2028
2029
2027
2026
2024
2022
2021
2023
2026
2029
2033
2036
2036
2031
2020
2013
2011
2031
2079
2155
2260
2381
2488
2550
2541
2459
2327
2190
2087
2035
2022
2027
2033
2031
2021
2017
2011
2007
2007
2010
2016
2021
2022
2019
2016
2013
2014
2018
2019
2023
2023
2025
2027
2030
2031
2033
2036
2038
2041
2043
2046
2048
2050
2055
2057
2057
2056
2053
2052
2053
2055
2056
2054
2050
2047
2043
2040
2039
2037
2034
2032
2029
2027
2025
2022
2020
2018
2017
2017
2017
2017
2017
2017
2018
2019
2020
2020
2019
2018
2017
2019
2022
2026
2028
2027
2025
2022
2022
2023
2024
2025
2025
2025
2025
2025
2024
2024
2024
2024
2024
2024
2024
2023
2024
2024
2023
2023
2022
2023
2022
2022
2022
2022
2023
2024
2025
2024
2024
2023
2020
2022
2022
2025
2027
2031
2033
2035
2034
2032
2030
2029
2028
2029
2029
2030
2030
2029
2032
2035
2035
2030
2019
2011
2016
2047
2106
2195
2310
2434
2536
2583
2551
2447
2301
2164
2070
2030
2024
2031
2032
2023
2014
2010
2008
2007
2007
2007
2006
2007
2008
2009
2010
2011
2012
2014
2017
2019
2019
2019
2020
2021
2024
2028
2031
2032
2034
2037
2039
2043
2046
2048
2050
2052
2052
2052
2051
2049
2048
2047
2045
2043
2042
2040
2037
2034
2031
2029
2029
2027
2024
2020
2015
2014
2013
2013
2013
2011
2009
2008
2008
2009
2010
2009
2009
2008
2008
2009
2009
2009
2008
2005
2007
2005
2006
2005
2004
2004
2005
2008
2010
2012
2012
2010
2008
2003
2006
2004
2003
2004
2003
2004
2004
2005
2005
2005
2006
2005
2006
2006
2006
2006
2005
2008
2008
2005
2006
2003
2004
2006
2009
2013
2015
2016
2015
2015
2014
2015
2015
2013
2014
2014
2013
2013
2013
2014
2014
2014
2016
2020
2022
2020
2013
2004
2003
2025
2072
2151
2260
2384
2491
2549
2530
2438
2299
2161
2063
2016
2009
2017
2019
2014
2004
2000
1999
1998
1998
1998
1998
1998
1999
2000
2001
2003
2005
2007
2009
2011
2012
2013
2014
2017
2022
2027
2032
2035
2036
2036
2038
2040
2044
2048
2050
2052
2054
2053
2052
2050
2048
2047
2044
2042
2041
2040
2039
2037
2032
2031
2025
2023
2017
2012
2009
2008
2009
2009
2009
2006
2004
2002
1999
2002
2002
2005
2006
2006
2007
2008
2008
2007
2008
2009
2011
2014
2016
2018
2019
2019
2022
2025
2024
2022
2020
2019
2022
2028
2033
2035
2032
2029
2026
2025
2026
2028
2027
2028
2028
2028
2027
2028
2027
2027
2027
2026
2026
2025
2026
2028
2028
2031
2030
2029
2030
2030
2032
2035
2040
2042
2041
2039
2034
2032
2030
2033
2034
2035
2037
2039
2040
2039
2034
2026
2021
2031
2065
2129
2220
2334
2445
2520
2533
2475
2362
2228
2115
2048
2024
2026
2035
2036
2028
2020
2015
2011
2009
2009
2010
2011
2011
2013
2013
2014
2016
2017
2018
2019
2021
2023
2025
2028
2029
2031
2035
2036
2039
2041
2042
2046
2049
2055
2057
2059
2059
2059
2058
2055
2056
2052
2049
2048
2045
2044
2042
2041
2039
2037
2034
2031
2029
2026
2023
2021
2018
2020
2020
2019
2016
2011
2009
2010
2015
2021
2026
2025
2022
2018
2013
2015
2015
2015
2017
2016
2015
2014
2013
2013
2013
2013
2013
2013
2014
2014
2015
2014
2017
2016
2017
2015
2014
2014
2017
2022
2025
2027
2024
2020
2018
2016
2018
2018
2019
2018
2017
2017
2017
2019
2020
2021
2021
2021
2022
2023
2026
2029
2031
2031
2030
2028
2024
2021
2020
2021
2024
2028
2030
2031
2032
2031
2030
2021
2015
2016
2037
2087
2166
2274
2397
2507
2571
2562
2479
2342
2200
2091
2035
2021
2024
2030
2022
2011
2002
1996
1995
1997
2003
2009
2011
2009
2006
2004
2003
2007
2010
2011
2012
2013
2015
2016
2018
2020
2023
2026
2029
2032
2035
2038
2041
2042
2046
2049
2049
2050
2049
2049
2050
2052
2053
2051
2048
2043
2039
2037
2036
2036
2033
2030
2027
2024
2022
2020
2019
2018
2018
2017
2017
2016
2015
2014
2012
2012
2013
2014
2018
2020
2022
2023
2026
2028
2029
2030
2029
2027
2028
2028
2029
2028
2028
2027
2027
2028
2029
2030
2030
2030
2030
2030
2030
2030
2030
2031
2031
2032
2032
2032
2031
2029
2029
2030
2033
2034
2034
2031
2029
2028
2029
2031
2033
2033
2033
2033
2035
2037
2039
2040
2039
2038
2036
2035
2034
2034
2034
2033
2036
2034
2038
2040
2039
2036
2029
2024
2030
2058
2114
2200
2312
2427
2517
2544
2502
2396
2260
2140
2062
2030
2026
2032
2033
2025
2017
2014
2011
2010
2008
2012
2012
2011
2014
2011
2010
2011
2014
2019
2024
2025
2026
2025
2023
2026
2027
2028
2034
2036
2039
2042
2045
2048
2050
2052
2053
2055
2056
2056
2055
2052
2052
2051
2048
2045
2041
2039
2038
2041
2042
2042
2037
2031
2026
2022
2022
2021
2019
2019
2018
2018
2018
2018
2018
2018
2017
2017
2018
2018
2019
2020
2020
2021
2023
2022
2022
2020
2019
2019
2022
2025
2028
2029
2028
2026
2023
2022
2023
2024
2025
2024
2025
2024
2024
2024
2024
2025
2024
2024
2024
2024
2024
2023
2022
2024
2022
2022
2021
2021
2022
2025
2029
2031
2031
2029
2030
2030
2030
2033
2031
2031
2029
2028
2028
2028
2028
2028
2028
2029
2033
2035
2035
2028
2019
2015
2034
2078
2152
2254
2377
2493
2570
2578
2506
2375
2226
2106
2039
2019
2026
2033
2029
2020
2012
2009
2007
2007
2006
2008
2009
2010
2011
2012
2013
2014
2015
2016
2018
2019
2021
2021
2023
2025
2030
2035
2038
2040
2040
2040
2041
2044
2048
2049
2051
2051
2051
2050
2048
2048
2046
2044
2041
2038
2035
2032
2030
2028
2026
2025
2022
2020
2016
2012
2010
2010
2012
2015
2015
2013
2011
2010
2008
2011
2012
2013
2013
2015
2015
2016
2016
2016
2017
2017
2017
2017
2017
2017
2017
2016
2019
2018
2019
2016
2014
2013
2014
2018
2019
2021
2019
2017
2017
2015
2019
2017
2017
2017
2017
2017
2017
2018
2018
2017
2016
2016
2016
2017
2017
2018
2017
2020
2021
2022
2023
2022
2021
2023
2025
2028
2030
2029
2026
2023
2021
2021
2022
2024
2029
2030
2029
2023
2013
2010
2025
2068
2144
2252
2378
2491
2555
2546
2462
2327
2188
2084
2031
2019
2026
2034
2031
2023
2016
2011
2007
2004
2005
2007
2007
2010
2010
2012
2015
2018
2020
2022
2023
2023
2023
2023
2024
2026
2029
2030
2035
2037
2038
2038
2039
2042
2048
2054
2060
2061
2058
2053
2050
2048
2048
2047
2046
2043
2042
2039
2037
2035
2033
2031
2028
2025
2023
2021
2020
2018
2015
2016
2014
2014
2012
2011
2010
2012
2013
2015
2015
2013
2011
2009
2007
2009
2008
2010
2011
2012
2013
2013
2014
2014
2014
2014
2015
2016
2016
2017
2017
2016
2017
2018
2016
2015
2014
2014
2016
2020
2022
2023
2020
2017
2014
2014
2016
2019
2022
2023
2025
2025
2026
2028
2029
2032
2033
2033
2032
2031
2030
2029
2028
2031
2030
2030
2030
2030
2033
2035
2037
2034
2027
2024
2038
2079
2154
2261
2386
2492
2551
2531
2442
2310
2179
2086
2042
2031
2033
2032
2023
2012
2010
2009
2009
2009
2008
2007
2005
2004
2005
2009
2014
2019
2020
2019
2018
2016
2016
2020
2022
2025
2027
2030
2032
2034
2037
2040
2043
2045
2047
2048
2049
2049
2048
2048
2049
2047
2045
2040
2037
2036
2036
2039
2039
2036
2030
2024
2021
2016
2019
2017
2016
2015
2012
2011
2010
2009
2010
2010
2010
2011
2012
2013
2013
2014
2013
2018
2018
2017
2018
2014
2013
2015
2017
2021
2023
2022
2020
2018
2014
2016
2016
2015
2017
2017
2018
2018
2018
2017
2018
2017
2017
2017
2016
2015
2015
2015
2015
2018
2018
2016
2014
2013
2014
2020
2025
2029
2029
2025
2022
2019
2020
2022
2021
2022
2022
2022
2023
2026
2029
2028
2021
2012
2006
2018
2055
2123
2222
2345
2470
2557
2577
2515
2389
2241
2118
2047
2024
2026
2031
2026
2014
2005
2004
2003
2003
2003
2004
2005
2006
2006
2008
2009
2010
2011
2013
2014
2016
2018
2019
2022
2022
2022
2021
2022
2027
2034
2043
2048
2050
2048
2045
2044
2042
2044
2044
2044
2042
2039
2037
2035
2033
2032
2030
2029
2027
2026
2024
2021
2020
2017
2017
2016
2014
2011
2008
2006
2008
2012
2018
2021
2021
2018
2014
2013
2013
2014
2014
2015
2015
2016
2016
2017
2017
2016
2016
2016
2016
2017
2017
2017
2016
2016
2016
2015
2015
2014
2013
2013
2016
2019
2021
2020
2017
2013
2011
2012
2014
2016
2018
2017
2017
2018
2019
2021
2023
2024
2024
2022
2020
2019
2018
2019
2020
2021
2022
2020
2019
2022
2024
2022
2015
2007
2003
2022
2071
2157
2277
2415
2529
2582
2552
2446
2297
2155
2059
2017
2013
2021
2024
2016
2006
2002
1999
1997
1999
1999
2000
1999
1999
1999
2002
2007
2011
2014
2011
2012
2010
2009
2013
2016
2021
2024
2028
2031
2031
2033
2034
2037
2040
2045
2046
2047
2046
2044
2040
2040
2039
2038
2037
2034
2032
2031
2033
2036
2038
2035
2030
2024
2019
2017
2016
2014
2013
2012
2012
2012
2014
2013
2014
2013
2013
2013
2012
2012
2012
2011
2016
2018
2019
2017
2014
2012
2013
2017
2023
2026
2025
2022
2019
2016
2018
2019
2020
2021
2021
2022
2021
2021
2021
2020
2019
2020
2019
2020
2021
2022
2023
2022
2025
2025
2025
2024
2022
2023
2026
2033
2037
2038
2033
2027
2023
2020
2023
2026
2028
2032
2031
2025
2014
2005
2009
2039
2098
2189
2305
2418
2493
2505
2444
2333
2201
2095
2031
2007
2009
2016
2017
2010
2002
1995
1988
1983
1979
1981
1980
1981
1980
1979
1979
1978
1979
1980
1981
1983
1985
1986
1989
1991
1994
1995
2000
2003
2006
2007
2007
2009
2013
2019
2025
2028
2026
2022
2017
2013
2013
2013
2013
2012
2012
2012
2011
2010
2008
2007
2005
2005
2005
2004
2004
2002
2000
2000
2000
2001
2001
1999
1998
1999
2004
2009
2012
2012
2010
2007
2006
2008
2011
2012
2013
2013
2013
2013
2013
2013
2014
2015
2017
2018
2019
2021
2022
2023
2025
2026
2025
2025
2021
2018
2018
2022
2029
2036
2038
2037
2036
2036
2040
2048
2054
2060
2061
2061
2060
2058
2058
2058
2059
2060
2060
2059
2058
2060
2060
2057
2052
2042
2039
2048
2090
2165
2275
2410
2534
2611
2610
2527
2388
2238
2124
2061
2046
2049
2053
2049
2041
2035
2032
2029
2028
2027
2026
2028
2027
2027
2026
2030
2031
2030
2032
2029
2030
2032
2037
2042
2048
2048
2048
2048
2047
2048
2050
2051
2056
2057
2058
2058
2057
2056
2055
2052
2050
2048
2046
2044
2043
2042
2041
2042
2039
2036
2032
2028
2027
2030
2032
2035
2033
2029
2026
2024
2024
2027
2026
2027
2027
2027
2028
2029
2030
2030
2029
2029
2028
2029
2030
2029
2026
2024
2025
2027
2032
2035
2034
2031
2028
2028
2028
2030
2030
2028
2026
2024
2025
2025
2025
2025
2025
2026
2026
2026
2027
2029
2031
2033
2035
2035
2033
2031
2028
2029
2027
2028
2026
2026
2026
2029
2035
2039
2040
2031
2017
2005
2008
2045
2110
2216
2350
2485
2583
2607
2544
2412
2255
2125
2049
2025
2028
2037
2033
2021
2014
2013
2010
2007
2004
2002
2003
2008
2012
2015
2015
2013
2011
2011
2013
2015
2016
2018
2020
2022
2024
2026
2027
2030
2032
2035
2038
2040
2042
2042
2041
2044
2042
2042
2040
2038
2036
2035
2036
2037
2036
2033
2029
2025
2022
2020
2016
2011
2005
1998
1994
1992
1990
1990
1989
1987
1986
1985
1984
1984
1985
1985
1985
1984
1984
1984
1982
1982
1984
1987
1990
1994
1995
1994
1992
1990
1989
1989
1989
1991
1991
1995
1997
2000
2003
2005
2007
2009
2013
2018
2022
2026
2027
2028
2032
2034
2038
2038
2039
2040
2042
2047
2048
2049
2046
2043
2041
2040
2044
2047
2050
2051
2048
2041
2031
2027
2042
2082
2156
2258
2381
2490
2549
2541
2457
2331
2198
2100
2048
2032
2036
2041
2040
2036
2035
2031
2026
2020
2015
2017
2018
2019
2022
2022
2024
2025
2026
2027
2029
2030
2031
2033
2034
2037
2039
2041
2043
2046
2048
2048
2048
2049
2050
2054
2057
2060
2058
2054
2050
2047
2045
2044
2042
2041
2040
2040
2039
2038
2036
2034
2032
2030
2028
2027
2026
2025
2025
2024
2028
2027
2024
2021
2019
2019
2024
2031
2036
2037
2033
2028
2026
2026
2030
2033
2035
2036
2037
2036
2036
2035
2034
2035
2034
2034
2033
2032
2032
2031
2029
2030
2027
2027
2025
2024
2023
2026
2028
2030
2032
2032
2033
2034
2033
2035
2032
2032
2030
2030
2029
2030
2030
2030
2031
2033
2037
2038
2033
2023
2011
2010
2036
2092
2182
2303
2436
2546
2597
2566
2458
2308
2165
2068
2027
2022
2031
2033
2024
2014
2010
2008
2006
2005
2005
2005
2006
2007
2008
2010
2011
2012
2013
2014
2016
2018
2019
2020
2021
2023
2026
2032
2035
2038
2038
2037
2038
2040
2042
2042
2043
2042
2040
2038
2036
2034
2031
2030
2028
2027
2026
2025
2024
2023
2021
2021
2020
2018
2016
2014
2013
2013
2016
2017
2017
2016
2014
2014
2015
2017
2019
2020
2020
2020
2020
2019
2020
2020
2021
2022
2022
2022
2021
2021
2021
2019
2021
2019
2020
2018
2017
2018
2018
2020
2021
2021
2020
2018
2018
2016
2019
2018
2017
2021
2020
2023
2025
2026
2026
2026
2026
2025
2023
2022
2020
2021
2019
2024
2023
2025
2029
2025
2017
2005
1997
2009
2048
2118
2222
2353
2481
2573
2588
2518
2385
2230
2106
2037
2017
2021
2028
2023
2012
2006
2003
2001
2000
1999
2000
2001
2002
2002
2002
2001
2002
2005
2009
2014
2016
2015
2015
2015
2016
2018
2020
2023
2025
2028
2032
2035
2037
2039
2041
2041
2041
2039
2038
2035
2032
2028
2029
2026
2023
2019
2016
2015
2018
2020
2022
2020
2016
2011
2007
2003
2005
2004
2005
2006
2007
2008
2009
2009
2010
2011
2011
2011
2012
2012
2013
2013
2012
2014
2015
2015
2012
2010
2009
2012
2018
2022
2023
2019
2015
2013
2010
2015
2017
2016
2015
2014
2014
2013
2013
2014
2014
2015
2016
2016
2016
2017
2019
2020
2023
2025
2023
2021
2018
2017
2017
2019
2023
2023
2022
2019
2019
2022
2023
2021
2011
2001
2002
2027
2082
2172
2291
2415
2509
2541
2494
2383
2243
2121
2046
2018
2019
2026
2026
2016
2007
2004
2004
2006
2006
2006
2003
2001
2000
1999
2001
2000
2000
1998
1997
1997
1997
1999
2000
2002
2004
2006
2006
2007
2006
2007
2006
2008
2010
2012
2012
2012
2012
2013
2013
2014
2010
2007
2003
2000
1996
1995
1995
1997
2000
2001
1998
1992
1985
1981
1979
1981
1981
1982
1980
1981
1980
1981
1982
1982
1984
1984
1985
1986
1988
1991
1994
1995
1995
1995
1995
1994
1997
1998
1999
1998
2001
2001
2001
2001
2001
2001
2003
2005
2007
2007
2005
2004
2002
2003
2007
2008
2009
2008
2007
2008
2012
2017
2023
2024
2022
2018
2014
2013
2012
2014
2015
2015
2017
2017
2018
2021
2024
2023
2017
2007
2000
2008
2043
2108
2207
2331
2449
2528
2539
2473
2352
2216
2106
2045
2024
2023
2027
2022
2013
2008
2006
2006
2007
2009
2011
2013
2014
2015
2015
2015
2015
2016
2018
2019
2021
2023
2026
2030
2029
2028
2027
2028
2035
2045
2052
2055
2052
2048
2045
2045
2047
2048
2048
2044
2042
2040
2038
2036
2034
2033
2032
2032
2031
2030
2028
2026
2023
2024
2024
2023
2018
2014
2012
2014
2021
2027
2029
2025
2019
2016
2014
2018
2023
2024
2025
2025
2025
2025
2025
2026
2026
2026
2027
2027
2029
2033
2038
2042
2048
2051
2052
2052
2051
2052
2053
2055
2057
2056
2054
2052
2051
2052
2052
2054
2054
2053
2054
2056
2058
2059
2059
2057
2056
2054
2053
2053
2052
2053
2052
2053
2054
2058
2059
2055
2045
2032
2027
2044
2088
2164
2271
2401
2525
2605
2608
2530
2391
2238
2120
2058
2041
2046
2050
2045
2034
2027
2025
2022
2021
2020
2020
2022
2023
2023
2022
2022
2024
2026
2030
2033
2033
2033
2032
2033
2036
2039
2042
2043
2045
2046
2048
2049
2052
2053
2054
2055
2054
2053
2051
2049
2047
2045
2044
2040
2039
2035
2033
2033
2033
2035
2034
2032
2029
2026
2023
2022
2023
2022
2022
2021
2023
2022
2022
2021
2021
2022
2024
2025
2026
2025
2024
2023
2021
2023
2025
2026
2024
2023
2022
2024
2030
2035
2039
2038
2036
2033
2031
2030
2029
2030
2029
2028
2028
2027
2026
2025
2026
2026
2027
2028
2028
2029
2030
2032
2036
2038
2038
2035
2030
2027
2026
2030
2034
2037
2036
2032
2031
2033
2036
2036
2026
2015
2011
2030
2083
2171
2293
2429
2543
2598
2569
2464
2314
2173
2074
2033
2029
2034
2035
2024
2012
2009
2010
2013
2014
2012
2010
2007
2007
2007
2011
2014
2015
2017
2019
2021
2022
2024
2026
2027
2029
2030
2032
2034
2036
2038
2037
2040
2038
2038
2034
2031
2031
2033
2036
2038
2035
2030
2023
2020
2016
2018
2017
2016
2014
2011
2008
2005
2000
1997
1993
1990
1986
1982
1979
1976
1976
1975
1978
1980
1981
1981
1979
1979
1980
1984
1989
1991
1992
1990
1988
1986
1987
1988
1989
1991
1992
1993
1994
1994
1995
1995
1996
1998
1999
2000
2000
2000
1999
1999
2001
2001
2002
2001
2000
2002
2007
2014
2019
2019
2017
2013
2011
2009
2013
2012
2012
2011
2011
2012
2013
2015
2020
2022
2022
2016
2007
2000
2010
2048
2117
2218
2339
2450
2518
2519
2451
2333
2206
2106
2049
2030
2029
2033
2029
2021
2015
2013
2011
2010
2011
2012
2013
2014
2015
2017
2017
2019
2020
2022
2024
2025
2028
2028
2031
2035
2039
2044
2049
2055
2059
2062
2064
2065
2066
2065
2067
2066
2066
2065
2062
2062
2058
2056
2054
2053
2053
2053
2053
2050
2048
2043
2039
2039
2038
2037
2033
2030
2028
2029
2032
2035
2036
2033
2029
2025
2023
2025
2026
2028
2029
2029
2030
2030
2031
2031
2032
2032
2032
2033
2032
2034
2034
2035
2036
2036
2036
2034
2032
2031
2031
2034
2037
2039
2037
2033
2030
2028
2029
2033
2033
2033
2032
2032
2033
2035
2036
2036
2034
2032
2030
2029
2029
2029
2029
2029
2031
2030
2033
2033
2031
2025
2017
2014
2025
2061
2128
2224
2349
2471
2562
2584
2527
2404
2256
2130
2054
2028
2029
2037
2037
2029
2023
2019
2016
2014
2014
2022
2029
2034
2031
2025
2021
2023
2030
2038
2040
2038
2034
2033
2033
2039
2041
2043
2045
2047
2048
2050
2052
2054
2055
2057
2057
2056
2055
2053
2051
2048
2048
2047
2043
2040
2037
2035
2036
2039
2040
2038
2034
2028
2024
2023
2023
2023
2023
2022
2021
2021
2021
2021
2022
2023
2024
2025
2026
2027
2028
2028
2028
2028
2029
2027
2026
2023
2022
2024
2028
2032
2033
2031
2027
2025
2023
2025
2031
2030
2031
2030
2029
2029
2029
2028
2028
2027
2028
2028
2029
2029
2029
2028
2031
2033
2035
2036
2034
2032
2031
2032
2034
2035
2035
2033
2030
2028
2030
2033
2037
2037
2030
2018
2009
2016
2050
2117
2220
2350
2483
2581
2609
2553
2425
2269
2136
2053
2025
2025
2033
2031
2022
2014
2012
2010
2008
2007
2006
2006
2008
2008
2009
2010
2010
2010
2015
2016
2018
2019
2021
2023
2026
2030
2032
2033
2033
2035
2038
2041
2044
2045
2045
2047
2048
2051
2051
2049
2046
2041
2038
2037
2037
2037
2036
2034
2033
2031
2028
2026
2025
2023
2022
2020
2018
2018
2017
2017
2018
2020
2019
2018
2015
2015
2016
2020
2025
2028
2027
2023
2020
2018
2017
2021
2021
2022
2021
2021
2020
2020
2019
2019
2019
2020
2021
2022
2021
2021
2021
2020
2022
2022
2021
2019
2016
2016
2017
2022
2025
2026
2024
2022
2021
2020
2024
2026
2028
2029
2029
2028
2026
2025
2024
2023
2023
2023
2024
2025
2027
2031
2029
2030
2020
2010
2007
2026
2077
2162
2277
2400
2495
2530
2491
2388
2250
2128
2046
2010
2006
2012
2013
2006
1996
1992
1989
1987
1986
1985
1984
1982
1981
1979
1979
1980
1979
1978
1975
1975
1977
1982
1989
1993
1996
1996
1997
1998
2001
2005
2008
2010
2013
2015
2017
2017
2017
2016
2014
2013
2012
2010
2009
2008
2007
2006
2008
2006
2004
2001
1998
1998
2000
2004
2005
2002
1997
1993
1992
1991
1995
1994
1994
1994
1994
1996
1997
1998
2000
2001
2003
2004
2005
2006
2006
2009
2010
2014
2016
2018
2016
2015
2015
2019
2026
2033
2038
2040
2039
2040
2039
2045
2047
2048
2048
2047
2046
2045
2046
2047
2048
2049
2048
2048
2048
2049
2052
2055
2060
2059
2060
2056
2053
2052
2052
2055
2056
2056
2055
2054
2056
2056
2056
2048
2039
2036
2049
2093
2167
2269
2393
2512
2591
2601
2532
2403
2255
2135
2063
2043
2044
2050
2045
2033
2025
2024
2025
2028
2029
2027
2024
2022
2021
2023
2024
2028
2028
2029
2030
2032
2033
2035
2037
2038
2040
2042
2044
2046
2048
2049
2051
2054
2055
2054
2051
2050
2050
2052
2054
2053
2049
2044
2040
2036
2036
2038
2036
2035
2032
2030
2029
2028
2026
2024
2023
2022
2021
2022
2022
2023
2022
2023
2025
2024
2024
2022
2022
2023
2026
2031
2032
2031
2029
2027
2026
2026
2029
2028
2028
2028
2028
2028
2028
2028
2029
2028
2028
2028
2028
2028
2029
2029
2027
2030
2028
2027
2024
2021
2021
2024
2029
2033
2033
2031
2028
2027
2028
2032
2034
2034
2033
2031
2031
2030
2030
2030
2030
2030
2031
2033
2037
2039
2036
2025
2015
2013
2033
2084
2168
2287
2423
2541
2603
2582
2480
2328
2181
2077
2031
2024
2032
2036
2028
2018
2013
2010
2009
2008
2008
2009
2009
2010
2011
2012
2014
2014
2017
2017
2018
2017
2018
2022
2028
2034
2037
2038
2036
2034
2037
2038
2045
2046
2048
2047
2046
2044
2042
2040
2037
2035
2034
2032
2030
2028
2026
2024
2021
2020
2019
2016
2013
2010
2008
2008
2009
2010
2009
2007
2005
2005
2005
2006
2007
2007
2007
2007
2008
2009
2010
2010
2011
2012
2012
2013
2013
2014
2013
2013
2014
2013
2014
2013
2013
2013
2013
2015
2017
2020
2020
2018
2014
2010
2011
2014
2020
2023
2021
2017
2012
2011
2012
2019
2022
2023
2021
2021
2023
2026
2029
2031
2030
2027
2024
2021
2019
2022
2025
2029
2032
2031
2031
2032
2030
2026
2016
2006
2010
2041
2104
2203
2329
2451
2533
2546
2482
2361
2222
2109
2044
2023
2024
2032
2029
2017
2007
2002
2001
2005
2011
2014
2013
2009
2004
2003
2003
2009
2009
2011
2012
2013
2015
2016
2017
2018
2018
2020
2022
2026
2029
2032
2034
2035
2039
2040
2040
2038
2035
2033
2034
2036
2035
2032
2025
2018
2014
2010
2011
2009
2007
2003
1999
1996
1993
1989
1985
1984
1982
1983
1984
1985
1986
1985
1983
1986
1985
1985
1983
1981
1982
1987
1994
1999
2001
1997
1991
1988
1986
1989
1990
1990
1990
1990
1991
1993
1994
1995
1994
1995
1995
1995
1995
1996
1996
1996
1998
1998
1999
1997
1994
1994
1996
2002
2009
2013
2014
2012
2008
2006
2006
2006
2007
2007
2008
2009
2010
2011
2012
2014
2017
2018
2015
2008
2000
1999
2020
2068
2152
2260
2379
2472
2511
2480
2389
2264
2146
2063
2022
2013
2015
2018
2016
2007
2004
2001
2000
2000
2001
2001
2001
2002
2002
2004
2006
2008
2010
2011
2014
2016
2017
2017
2018
2019
2023
2030
2038
2045
2047
2046
2045
2044
2047
2049
2050
2050
2048
2045
2044
2042
2040
2039
2037
2036
2037
2037
2035
2033
2030
2027
2026
2024
2025
2022
2019
2018
2018
2021
2024
2026
2023
2021
2019
2018
2022
2023
2025
2025
2025
2028
2030
2035
2038
2040
2044
2043
2043
2043
2044
2045
2046
2048
2048
2049
2047
2044
2042
2042
2047
2048
2049
2047
2044
2039
2038
2040
2042
2043
2041
2041
2042
2044
2047
2048
2048
2048
2047
2047
2046
2046
2047
2048
2048
2050
2051
2052
2051
2048
2042
2034
2030
2042
2078
2148
2256
2398
2540
2645
2666
2597
2455
2289
2153
2075
2049
2052
2060
2055
2044
2035
2031
2027
2026
2026
2029
2029
2030
2028
2026
2027
2030
2036
2042
2043
2042
2038
2036
2034
2040
2043
2048
2049
2051
2053
2056
2058
2060
2061
2062
2063
2063
2062
2061
2059
2055
2056
2053
2052
2047
2043
2041
2044
2048
2051
2050
2045
2037
2032
2028
2029
2029
2029
2028
2028
2028
2029
2029
2030
2030
2030
2030
2029
2030
2031
2032
2031
2033
2033
2033
2031
2027
2025
2026
2031
2037
2041
2040
2034
2027
2023
2024
2026
2028
2028
2027
2026
2025
2025
2025
2026
2026
2027
2027
2028
2029
2031
2032
2032
2034
2031
2029
2025
2024
2026
2030
2035
2036
2035
2033
2033
2032
2028
2020
2006
2003
2026
2083
2181
2314
2456
2565
2605
2558
2436
2280
2143
2056
2025
2024
2033
2032
2020
2009
2003
2000
2001
2003
2006
2007
2006
2005
2005
2003
2006
2006
2007
2007
2007
2008
2008
2010
2011
2014
2017
2021
2024
2027
2030
2031
2032
2037
2036
2039
2038
2038
2038
2038
2040
2039
2037
2033
2029
2026
2023
2023
2019
2016
2012
2007
2005
2002
2000
1998
1996
1993
1994
1993
1993
1992
1992
1992
1995
1996
1997
1994
1990
1988
1991
1996
2003
2005
2003
2000
1997
1996
1998
1999
2002
2002
2002
2003
2004
2004
2003
2002
2002
2002
2003
2003
2004
2005
2004
2007
2008
2009
2010
2009
2008
2009
2013
2017
2019
2018
2014
2012
2012
2013
2018
2020
2024
2024
2021
2014
2007
2010
2036
2092
2182
2299
2420
2510
2537
2489
2383
2251
2133
2058
2027
2023
2030
2032
2029
2024
2020
2015
2010
2008
2007
2010
2011
2012
2015
2016
2018
2019
2020
2021
2022
2024
2026
2028
2030
2033
2035
2036
2041
2044
2046
2046
2045
2046
2050
2058
2064
2065
2062
2054
2049
2046
2045
2047
2046
2045
2044
2042
2040
2037
2033
2030
2029
2027
2025
2021
2017
2016
2018
2023
2028
2027
2023
2016
2013
2013
2019
2024
2026
2025
2022
2020
2020
2021
2023
2024
2024
2024
2025
2025
2025
2025
2026
2025
2025
2025
2024
2024
2025
2025
2025
2026
2024
2023
2021
2022
2027
2033
2039
2040
2037
2031
2026
2024
2023
2027
2027
2027
2026
2027
2032
2033
2031
2021
2010
2007
2026
2075
2157
2268
2396
2505
2563
2545
2453
2314
2177
2078
2033
2025
2033
2035
2027
2015
2010
2008
2008
2007
2007
2007
2007
2008
2009
2010
2011
2012
2014
2015
2017
2019
2020
2022
2023
2027
2027
2031
2033
2035
2038
2042
2046
2048
2050
2050
2049
2048
2047
2047
2045
2045
2043
2041
2040
2039
2038
2036
2034
2032
2029
2027
2024
2021
2018
2016
2015
2016
2018
2018
2017
2015
2015
2016
2018
2019
2018
2018
2017
2017
2018
2019
2021
2021
2021
2023
2025
2027
2028
2029
2028
2028
2027
2027
2026
2026
2024
2024
2023
2023
2021
2018
2017
2019
2023
2029
2032
2032
2028
2025
2023
2022
2024
2023
2022
2021
2021
2022
2024
2028
2030
2028
2019
2007
2001
2012
2052
2123
2227
2359
2481
2562
2570
2496
2364
2221
2108
2046
2026
2026
2027
2021
2011
2007
2005
2002
2000
2000
2001
2003
2004
2004
2005
2006
2008
2009
2011
2013
2014
2016
2021
2022
2024
2024
2025
2027
2032
2038
2044
2047
2047
2047
2046
2046
2048
2046
2047
2046
2044
2043
2041
2039
2037
2035
2033
2031
2029
2026
2024
2021
2019
2017
2015
2012
2009
2007
2007
2011
2017
2020
2020
2015
2011
2007
2006
2006
2008
2010
2012
2014
2016
2018
2019
2019
2019
2018
2018
2017
2017
2018
2017
2016
2015
2013
2011
2009
2007
2007
2008
2011
2015
2016
2016
2015
2013
2013
2017
2019
2019
2019
2016
2014
2014
2013
2014
2015
2015
2016
2019
2022
2022
2017
2004
1994
1998
2029
2089
2186
2314
2447
2549
2583
2534
2410
2255
2122
2040
2012
2014
2023
2021
2010
2003
1999
1997
1996
1996
1996
1996
1997
1998
1998
1999
1999
1999
2001
2000
2003
2003
2004
2004
2005
2006
2008
2011
2012
2014
2014
2014
2017
2017
2019
2018
2017
2016
2015
2015
2015
2014
2014
2013
2011
2007
2007
2004
2000
1997
1994
1993
1990
1987
1984
1983
1982
1983
1984
1980
1979
1975
1973
1972
1973
1976
1976
1977
1979
1979
1980
1981
1982
1983
1983
1984
1984
1985
1986
1987
1989
1990
1989
1988
1987
1987
1988
1992
1995
1996
1996
1993
1991
1992
1993
1997
1996
1998
1997
1999
2001
2005
2006
2006
2005
2004
2004
2004
2005
2006
2006
2005
2008
2009
2011
2012
2007
1999
1992
1994
2015
2060
2135
2239
2360
2462
2518
2500
2410
2280
2153
2062
2020
2012
2016
2020
2014
2005
2001
1999
1997
1997
1996
1999
1998
2001
1999
1999
1999
2001
2004
2008
2011
2010
2008
2005
2003
2004
2004
2009
2011
2014
2017
2020
2022
2024
2024
2024
2023
2022
2021
2020
2018
2016
2014
2014
2012
2008
2004
2001
2003
2007
2009
2008
2002
1995
1988
1984
1982
1983
1981
1979
1979
1979
1980
1982
1982
1983
1983
1984
1985
1986
1988
1989
1990
1991
1992
1994
1995
1996
1997
1999
2004
2009
2013
2015
2013
2010
2009
2012
2016
2021
2024
2026
2028
2030
2030
2031
2030
2030
2031
2032
2035
2037
2039
2043
2044
2047
2050
2053
2055
2057
2060
2064
2069
2074
2074
2072
2069
2066
2064
2067
2072
2074
2072
2066
2056
2051
2065
2108
2182
2287
2412
2528
2601
2605
2531
2403
2262
2148
2086
2065
2067
2072
2070
2062
2056
2052
2048
2045
2044
2046
2048
2049
2053
2053
2053
2054
2054
2056
2057
2058
2060
2061
2062
2063
2065
2067
2071
2074
2078
2080
2082
2085
2087
2091
2093
2094
2093
2088
2082
2075
2076
2076
2079
2081
2078
2074
2069
2066
2065
2065
2064
2061
2058
2055
2053
2052
2051
2051
2050
2049
2048
2047
2045
2045
2047
2049
2052
2052
2051
2048
2048
2048
2050
2053
2053
2053
2052
2051
2051
2049
2048
2047
2045
2045
2044
2043
2043
2042
2039
2040
2040
2038
2035
2032
2029
2031
2035
2041
2043
2039
2033
2028
2027
2029
2034
2034
2033
2031
2032
2034
2036
2038
2038
2037
2036
2034
2033
2032
2031
2031
2030
2032
2031
2035
2036
2036
2030
2022
2015
2021
2052
2112
2204
2322
2450
2552
2590
2551
2438
2289
2153
2063
2027
2023
2030
2030
2022
2014
2011
2009
2007
2006
2005
2008
2007
2007
2006
2006
2010
2015
2020
2023
2021
2019
2018
2018
2021
2026
2029
2030
2033
2035
2038
2041
2044
2047
2048
2049
2049
2050
2050
2049
2048
2048
2046
2045
2043
2040
2038
2036
2036
2035
2034
2030
2024
2018
2014
2011
2011
2010
2008
2007
2006
2006
2006
2006
2006
2006
2006
2007
2007
2007
2008
2008
2006
2010
2010
2010
2007
2005
2006
2009
2014
2018
2017
2012
2009
2006
2004
2010
2010
2012
2012
2013
2014
2013
2013
2012
2012
2011
2012
2012
2012
2013
2011
2011
2013
2013
2014
2014
2014
2014
2015
2018
2021
2024
2024
2024
2023
2023
2024
2024
2027
2028
2029
2029
2028
2027
2026
2025
2025
2026
2026
2026
2027
2028
2033
2033
2030
2023
2013
2015
2039
2092
2177
2286
2404
2497
2538
2507
2412
2277
2151
2065
2025
2018
2023
2022
2013
2000
1993
1988
1985
1984
1982
1981
1980
1980
1980
1981
1981
1981
1981
1983
1986
1992
1997
2001
2004
2003
2004
2006
2008
2015
2016
2018
2018
2019
2021
2022
2023
2024
2024
2024
2023
2022
2020
2019
2018
2016
2018
2017
2014
2010
2005
2002
2003
2005
2006
2002
1995
1988
1985
1984
1988
1990
1990
1989
1989
1990
1991
1992
1993
1994
1995
1997
1999
2000
2001
2001
2001
2004
2004
2005
2002
2000
2001
2006
2013
2018
2019
2014
2010
2008
2010
2013
2017
2019
2021
2021
2021
2021
2022
2023
2023
2024
2024
2024
2025
2025
2026
2027
2029
2030
2029
2027
2025
2026
2029
2034
2038
2038
2036
2033
2031
2032
2036
2040
2044
2045
2044
2043
2041
2040
2039
2039
2040
2040
2040
2041
2043
2045
2046
2043
2038
2034
2044
2075
2136
2225
2337
2455
2545
2579
2540
2438
2305
2185
2106
2070
2066
2070
2069
2062
2053
2051
2049
2048
2048
2048
2047
2047
2047
2046
2048
2048
2050
2049
2048
2048
2050
2055
2061
2065
2066
2065
2064
2065
2068
2072
2075
2077
2077
2079
2081
2082
2082
2082
2081
2079
2077
2075
2073
2071
2069
2067
2067
2063
2060
2055
2051
2049
2047
2045
2044
2041
2038
2035
2033
2031
2032
2030
2032
2030
2031
2031
2032
2032
2033
2033
2033
2034
2034
2033
2033
2033
2033
2033
2034
2035
2034
2034
2033
2033
2034
2036
2038
2037
2036
2034
2033
2034
2035
2036
2039
2039
2038
2038
2038
2038
2038
2039
2039
2038
2038
2037
2038
2039
2040
2040
2039
2037
2034
2032
2031
2034
2038
2040
2040
2037
2035
2034
2034
2038
2039
2041
2040
2039
2037
2036
2035
2035
2035
2036
2036
2037
2037
2040
2042
2039
2035
2027
2025
2043
2086
2160
2264
2389
2504
2576
2577
2501
2370
2225
2112
2049
2029
2031
2037
2033
2023
2017
2014
2012
2011
2011
2012
2012
2013
2013
2013
2014
2017
2018
2017
2016
2017
2022
2030
2039
2045
2046
2045
2045
2046
2050
2056
2060
2062
2064
2067
2069
2070
2071
2071
2070
2069
2067
2065
2062
2061
2058
2056
2054
2051
2048
2042
2039
2036
2035
2035
2033
2029
2024
2020
2019
2019
2021
2022
2021
2021
2022
2022
2022
2022
2024
2025
2023
2020
2018
2017
2022
2027
2030
2030
2027
2021
2019
2018
2021
2025
2028
2028
2027
2024
2021
2020
2018
2020
2022
2021
2020
2020
2021
2022
2023
2023
2023
2023
2022
2023
2025
2027
2029
2030
2032
2032
2031
2030
2029
2029
2029
2031
2032
2032
2031
2029
2028
2028
2029
2032
2033
2035
2037
2038
2037
2035
2033
2031
2031
2032
2033
2033
2033
2032
2034
2035
2032
2025
2015
2011
2026
2066
2137
2238
2360
2477
2554
2563
2493
2365
2220
2103
2038
2019
2022
2028
2025
2015
2008
2005
2004
2003
2003
2003
2004
2005
2006
2008
2010
2011
2011
2011
2012
2015
2019
2024
2025
2026
2026
2025
2028
2031
2034
2039
2043
2047
2049
2052
2054
2056
2057
2058
2057
2056
2054
2053
2051
2051
2050
2047
2042
2036
2031
2028
2027
2026
2023
2019
2013
2008
2006
2004
2007
2006
2005
2005
2005
2007
2007
2008
2008
2009
2010
2011
2012
2013
2014
2014
2015
2018
2017
2015
2012
2010
2011
2016
2022
2026
2024
2019
2015
2013
2013
2016
2019
2019
2018
2018
2017
2017
2017
2018
2019
2018
2019
2018
2018
2019
2020
2020
2022
2020
2021
2019
2018
2018
2020
2022
2024
2025
2023
2022
2020
2019
2022
2022
2024
2025
2025
2027
2029
2031
2031
2030
2029
2028
2027
2027
2028
2028
2029
2030
2033
2034
2031
2024
2015
2014
2027
2063
2126
2213
2321
2427
2502
2516
2462
2352
2222
2113
2048
2024
2024
2027
2025
2015
2008
2006
2004
2004
2002
2002
2001
2000
2000
2000
2000
2001
2003
2008
2013
2016
2017
2015
2013
2014
2016
2020
2024
2028
2032
2035
2040
2043
2045
2046
2047
2047
2046
2044
2043
2041
2040
2038
2038
2036
2034
2030
2028
2027
2027
2028
2026
2023
2017
2012
2009
2006
2007
2007
2007
2008
2008
2010
2010
2010
2010
2010
2011
2011
2013
2014
2015
2016
2017
2019
2018
2019
2019
2019
2021
2023
2026
2026
2026
2025
2024
2025
2025
2027
2026
2027
2026
2026
2028
2029
2029
2029
2029
2028
2028
2028
2028
2028
2029
2029
2030
2032
2032
2036
2035
2034
2034
2033
2036
2039
2040
2040
2038
2036
2036
2038
2042
2044
2045
2044
2043
2042
2040
2039
2038
2038
2038
2039
2040
2042
2044
2043
2038
2028
2024
2035
2074
2143
2243
2365
2482
2561
2574
2510
2386
2241
2124
2052
2030
2032
2038
2036
2027
2020
2017
2015
2015
2015
2016
2016
2017
2018
2018
2021
2020
2021
2020
2018
2021
2025
2032
2036
2037
2037
2036
2037
2039
2045
2047
2049
2051
2054
2058
2060
2062
2063
2063
2063
2062
2061
2058
2056
2053
2051
2051
2048
2045
2039
2035
2031
2032
2032
2031
2029
2023
2019
2016
2015
2016
2015
2017
2017
2017
2018
2018
2019
2018
2018
2017
2018
2019
2020
2021
2022
2022
2022
2023
2020
2017
2016
2017
2024
2032
2038
2039
2036
2032
2028
2026
2028
2031
2030
2029
2029
2029
2030
2030
2030
2030
2030
2030
2031
2030
2032
2031
2030
2029
2028
2027
2027
2026
2027
2029
2032
2036
2037
2038
2037
2035
2033
2033
2034
2034
2033
2031
2031
2032
2032
2033
2033
2036
2038
2037
2032
2022
2017
2030
2069
2141
2245
2373
2494
2575
2586
2519
2393
2246
2126
2052
2026
2026
2031
2032
2022
2016
2012
2010
2009
2009
2009
2009
2010
2011
2012
2013
2014
2015
2016
2018
2021
2023
2025
2024
2025
2027
2031
2037
2042
2045
2046
2045
2046
2048
2051
2053
2057
2058
2058
2057
2055
2052
2049
2047
2044
2042
2040
2037
2035
2030
2026
2023
2021
2019
2016
2011
2007
2004
2003
2004
2005
2003
2002
1998
1997
1997
1999
2002
2003
2004
2004
2004
2006
2006
2006
2006
2006
2007
2007
2007
2008
2008
2009
2009
2009
2006
2003
2001
2002
2008
2013
2015
2012
2007
2004
2006
2011
2017
2017
2013
2008
2006
2007
2009
2010
2010
2008
2007
2007
2008
2009
2011
2011
2010
2013
2012
2016
2015
2013
2013
2015
2019
2024
2026
2023
2016
2010
2006
2011
2012
2019
2023
2022
2018
2009
2003
2012
2045
2108
2201
2319
2438
2523
2544
2488
2374
2234
2113
2038
2009
2010
2018
2023
2018
2012
2006
1999
1995
1993
1994
1995
1996
1997
1999
2001
2004
2006
2008
2008
2010
2012
2014
2015
2016
2017
2018
2022
2025
2027
2028
2027
2028
2030
2033
2038
2036
2029
2021
2011
2006
2004
2004
2004
2001
1997
1993
1988
1985
1982
1979
1976
1974
1971
1969
1967
1964
1962
1960
1961
1961
1960
1958
1957
1957
1960
1964
1967
1968
1966
1963
1962
1962
1967
1970
1972
1972
1973
1973
1973
1974
1975
1975
1977
1978
1979
1980
1982
1983
1983
1983
1985
1985
1985
1985
1988
1991
1996
2001
2002
2000
1997
1994
1993
1996
1999
2000
2001
2003
2004
2006
2008
2012
2015
2018
2020
2020
2020
2020
2020
2022
2024
2024
2025
2024
2024
2027
2034
2039
2040
2032
2022
2023
2048
2106
2198
2313
2434
2525
2556
2516
2413
2279
2158
2078
2045
2041
2045
2045
2039
2031
2029
2028
2028
2030
2031
2031
2032
2036
2041
2048
2056
2061
2065
2066
2067
2072
2076
2083
2085
2091
2093
2095
2097
2099
2101
2103
2104
2106
2107
2109
2111
2113
2116
2116
2114
2110
2104
2101
2102
2105
2108
2109
2106
2100
2094
2089
2086
2085
2082
2080
2077
2077
2077
2078
2079
2080
2080
2079
2078
2075
2074
2074
2073
2073
2074
2072
2069
2067
2065
2066
2068
2071
2071
2067
2063
2059
2057
2055
2057
2055
2054
2053
2053
2053
2051
2050
2048
2048
2047
2047
2046
2045
2044
2042
2040
2040
2037
2037
2035
2035
2035
2037
2039
2041
2043
2043
2042
2039
2037
2037
2035
2036
2035
2035
2034
2033
2033
2033
2036
2040
2040
2034
2023
2017
2027
2064
2131
2234
2361
2491
2588
2617
2563
2438
2282
2146
2060
2029
2028
2035
2032
2024
2015
2011
2009
2009
2008
2008
2007
2008
2010
2012
2013
2013
2014
2015
2017
2019
2021
2021
2022
2023
2026
2031
2036
2040
2043
2044
2043
2043
2045
2046
2050
2051
2053
2052
2050
2049
2048
2047
2045
2045
2043
2041
2039
2035
2033
2030
2026
2027
2023
2018
2012
2007
2004
2004
2006
2009
2008
2005
2002
2000
1997
2001
2001
2000
2000
2000
2000
1999
1999
1999
1999
1998
1998
1998
1997
1998
1998
1999
2001
2001
2001
1999
1999
1998
2000
2003
2005
2005
2003
2001
1999
1999
2000
2000
2002
2002
2002
2002
2002
2004
2007
2010
2013
2014
2014
2012
2011
2010
2010
2010
2010
2012
2012
2014
2020
2023
2024
2019
2009
2001
2010
2047
2114
2213
2333
2449
2524
2533
2470
2349
2212
2100
2037
2014
2015
2021
2018
2010
2003
2001
2000
2000
2000
2000
2000
2000
2001
2004
2007
2010
2011
2010
2010
2010
2012
2014
2017
2020
2022
2025
2028
2031
2033
2035
2038
2040
2042
2045
2047
2047
2048
2046
2047
2045
2042
2038
2036
2034
2036
2038
2039
2036
2032
2027
2023
2018
2019
2017
2015
2012
2011
2010
2009
2008
2008
2007
2007
2008
2009
2010
2010
2011
2012
2013
2015
2014
2011
2009
2008
2012
2018
2022
2022
2018
2013
2011
2010
2013
2015
2014
2014
2013
2013
2013
2012
2012
2011
2011
2011
2011
2011
2011
2011
2010
2012
2011
2012
2013
2014
2018
2021
2024
2025
2022
2019
2015
2014
2014
2016
2017
2017
2020
2023
2023
2017
2006
1998
2006
2039
2103
2199
2322
2449
2548
2584
2538
2425
2275
2140
2050
2014
2011
2020
2025
2018
2010
2003
1998
1996
1993
1998
1998
1999
1999
1999
2001
2002
2004
2006
2006
2005
2004
2006
2010
2016
2022
2024
2024
2022
2021
2020
2023
2027
2032
2037
2039
2039
2036
2033
2031
2030
2031
2029
2027
2024
2022
2021
2020
2020
2019
2018
2016
2014
2012
2010
2009
2008
2006
2007
2007
2008
2007
2006
2006
2006
2008
2010
2012
2011
2010
2009
2008
2010
2010
2012
2011
2011
2011
2011
2012
2012
2012
2011
2011
2011
2011
2011
2011
2011
2011
2012
2012
2011
2010
2008
2009
2011
2013
2014
2012
2010
2010
2013
2016
2019
2021
2019
2017
2016
2015
2015
2014
2015
2015
2016
2016
2018
2022
2022
2017
2005
1996
1997
2025
2085
2182
2310
2450
2559
2602
2558
2438
2281
2139
2048
2013
2011
2019
2019
2011
2002
1998
1996
1995
1994
1994
1994
1995
1997
1998
2000
2000
2002
2003
2003
2003
2004
2007
2011
2016
2020
2022
2022
2022
2023
2024
2029
2033
2035
2036
2037
2038
2039
2038
2037
2035
2032
2030
2028
2027
2025
2023
2020
2021
2018
2016
2013
2010
2007
2007
2009
2010
2011
2008
2006
2005
2005
2008
2008
2007
2007
2006
2006
2007
2009
2010
2011
2012
2012
2013
2014
2013
2014
2013
2013
2014
2013
2013
2011
2011
2013
2016
2019
2020
2019
2016
2014
2013
2012
2014
2014
2016
2016
2017
2016
2016
2017
2019
2021
2023
2024
2024
2023
2022
2021
2019
2022
2021
2022
2020
2019
2021
2028
2034
2034
2022
2006
1999
2019
2073
2169
2295
2432
2542
2590
2556
2446
2295
2154
2059
2019
2014
2021
2022
2013
2003
1997
1998
1997
1998
1996
1996
1996
1998
2003
2007
2008
2006
2004
2003
2002
2006
2008
2010
2012
2014
2017
2019
2022
2024
2027
2030
2032
2034
2035
2037
2037
2036
2038
2034
2033
2030
2026
2023
2021
2024
2027
2028
2027
2023
2018
2013
2010
2009
2007
2009
2007
2007
2006
2004
2002
2000
1999
1997
1997
1997
1997
1996
1994
1995
1994
1995
1994
1992
1992
1995
1998
1999
2003
1999
1995
1991
1989
1991
1993
1997
1998
1998
1997
1996
1996
1995
1996
1995
1997
1998
1999
2000
2000
2001
2002
2005
2006
2009
2008
2007
2006
2006
2007
2009
2010
2009
2008
2006
2007
2010
2013
2016
2012
2004
1995
1994
2015
2066
2149
2261
2383
2482
2525
2493
2395
2260
2137
2053
2016
2010
2015
2017
2013
2007
2006
2005
2002
1999
1998
1997
2001
2004
2006
2007
2008
2008
2009
2011
2013
2015
2017
2019
2023
2027
2032
2036
2038
2043
2044
2047
2048
2048
2050
2053
2055
2057
2057
2052
2048
2045
2041
2042
2041
2039
2040
2038
2037
2035
2034
2033
2031
2030
2029
2028
2027
2026
2025
2024
2025
2025
2024
2024
2023
2024
2027
2031
2036
2038
2039
2038
2039
2040
2042
2045
2045
2045
2045
2045
2045
2044
2044
2044
2044
2045
2045
2045
2045
2045
2043
2039
2040
2038
2037
2037
2037
2038
2040
2044
2047
2047
2046
2044
2044
2041
2044
2043
2042
2041
2040
2041
2041
2041
2043
2045
2048
2047
2040
2029
2023
2034
2071
2143
2246
2372
2495
2580
2597
2533
2406
2256
2131
2057
2031
2034
2040
2039
2030
2023
2019
2017
2016
2015
2015
2015
2016
2017
2017
2018
2019
2021
2022
2022
2028
2028
2030
2030
2030
2031
2034
2040
2044
2046
2046
2045
2045
2045
2048
2048
2048
2047
2045
2044
2042
2039
2038
2036
2035
2034
2033
2033
2032
2031
2030
2028
2028
2028
2027
2025
2024
2024
2025
2028
2031
2030
2028
2025
2024
2025
2028
2032
2031
2031
2030
2029
2029
2029
2030
2030
2030
2029
2029
2029
2029
2030
2030
2030
2030
2028
2028
2027
2027
2029
2029
2029
2028
2027
2026
2026
2026
2028
2028
2029
2031
2033
2035
2036
2035
2034
2032
2030
2029
2028
2029
2029
2029
2029
2032
2035
2036
2032
2023
2014
2014
2032
2078
2157
2266
2392
2498
2549
2524
2426
2287
2155
2066
2029
2025
2032
2034
2028
2017
2012
2008
2006
2005
2004
2003
2006
2005
2005
2005
2004
2005
2008
2012
2016
2020
2020
2019
2020
2021
2025
2027
2029
2034
2035
2036
2037
2035
2033
2029
2025
2021
2017
2014
2011
2009
2004
2004
2002
1999
1997
1995
1994
1995
1996
1997
1994
1990
1985
1981
1980
1981
1982
1982
1983
1983
1984
1985
1986
1987
1988
1988
1990
1991
1993
1993
1995
1995
1995
1998
1998
1999
1998
1998
2002
2007
2014
2017
2018
2015
2012
2011
2010
2014
2014
2013
2013
2013
2015
2016
2018
2020
2023
2026
2031
2036
2040
2043
2044
2043
2044
2042
2040
2038
2038
2041
2046
2050
2054
2057
2055
2050
2043
2032
2031
2047
2090
2166
2273
2398
2509
2572
2561
2477
2344
2208
2107
2056
2046
2051
2055
2053
2043
2037
2032
2028
2027
2028
2034
2040
2043
2042
2039
2037
2037
2038
2041
2041
2043
2044
2046
2048
2049
2051
2052
2054
2056
2058
2059
2060
2061
2061
2063
2063
2063
2061
2058
2055
2053
2052
2053
2052
2050
2047
2044
2042
2040
2040
2042
2041
2040
2038
2036
2035
2033
2031
2032
2031
2031
2031
2032
2032
2034
2033
2034
2035
2034
2034
2033
2033
2033
2035
2035
2035
2033
2030
2029
2029
2031
2032
2033
2033
2033
2033
2033
2032
2031
2029
2029
2028
2028
2029
2030
2031
2030
2032
2031
2031
2032
2032
2034
2037
2039
2040
2037
2033
2029
2027
2026
2029
2030
2033
2036
2038
2036
2026
2014
2009
2026
2072
2153
2267
2402
2523
2594
2584
2497
2351
2203
2091
2036
2023
2032
2039
2034
2024
2016
2011
2008
2006
2009
2009
2010
2011
2010
2012
2012
2013
2015
2016
2018
2021
2023
2025
2026
2027
2028
2031
2033
2035
2036
2037
2039
2042
2045
2048
2047
2045
2042
2038
2035
2034
2033
2031
2030
2028
2028
2027
2026
2025
2024
2022
2021
2020
2020
2019
2018
2017
2015
2017
2018
2018
2016
2015
2016
2020
2026
2029
2028
2025
2021
2020
2019
2024
2024
2023
2022
2021
2022
2022
2023
2023
2023
2023
2023
2023
2023
2023
2023
2020
2021
2021
2020
2019
2019
2020
2022
2025
2027
2028
2027
2025
2026
2025
2027
2027
2026
2025
2023
2022
2022
2023
2023
2024
2027
2030
2031
2027
2016
2004
2003
2031
2086
2180
2305
2439
2547
2590
2552
2438
2286
2147
2055
2020
2017
2027
2029
2020
2012
2008
2007
2006
2006
2007
2007
2008
2009
2009
2010
2011
2012
2014
2016
2018
2019
2020
2019
2020
2024
2028
2032
2035
2033
2034
2033
2034
2035
2037
2039
2039
2039
2037
2033
2029
2024
2021
2018
2017
2015
2012
2009
2006
2002
1997
1992
1988
1983
1978
1974
1972
1971
1972
1973
1973
1972
1970
1970
1970
1971
1973
1975
1976
1977
1979
1980
1981
1982
1983
1983
1984
1985
1986
1986
1987
1986
1988
1989
1989
1988
1988
1989
1992
1994
1996
1995
1993
1992
1992
1992
1994
1996
1997
1998
2000
2002
2004
2004
2003
2003
2002
2002
2002
2002
2002
2002
2001
2005
2007
2011
2009
2002
1992
1987
1999
2036
2103
2195
2310
2419
2489
2498
2433
2316
2186
2082
2025
2007
2010
2016
2013
2004
1999
1997
1996
1995
1995
1995
1997
1999
1999
1999
1999
2000
2002
2006
2010
2011
2011
2011
2011
2013
2018
2022
2026
2030
2033
2035
2037
2038
2039
2039
2040
2039
2039
2038
2035
2033
2031
2027
2028
2026
2026
2023
2022
2023
2025
2029
2030
2028
2023
2018
2015
2012
2016
2015
2016
2015
2015
2016
2016
2018
2019
2021
2022
2023
2025
2026
2029
2033
2035
2040
2043
2046
2048
2050
2054
2058
2061
2061
2060
2056
2053
2053
2052
2054
2054
2053
2052
2051
2052
2053
2053
2051
2048
2047
2048
2053
2058
2061
2058
2050
2047
2043
2044
2046
2048
2049
2050
2055
2060
2063
2061
2051
2039
2030
2038
2073
2137
2236
2359
2486
2576
2598
2540
2416
2269
2143
2068
2044
2045
2051
2049
2041
2034
2030
2026
2023
2022
2023
2025
2028
2031
2032
2031
2027
2029
2030
2031
2034
2035
2037
2040
2042
2044
2046
2046
2047
2048
2050
2053
2054
2055
2056
2056
2055
2054
2052
2049
2048
2045
2044
2042
2040
2038
2034
2032
2029
2028
2028
2026
2025
2023
2023
2023
2023
2023
2023
2022
2022
2022
2022
2022
2023
2024
2023
2025
2025
2024
2023
2023
2024
2027
2031
2033
2031
2028
2024
2022
2020
2022
2023
2022
2022
2022
2021
2020
2019
2017
2016
2014
2015
2016
2016
2017
2016
2016
2017
2021
2023
2023
2022
2021
2022
2025
2027
2028
2026
2022
2020
2018
2019
2024
2027
2029
2027
2018
2007
2004
2023
2072
2155
2272
2406
2522
2582
2564
2465
2321
2177
2074
2026
2016
2024
2029
2025
2018
2012
2007
2002
2000
1999
2001
2003
2005
2006
2007
2008
2009
2010
2012
2013
2015
2018
2020
2022
2024
2026
2027
2029
2034
2035
2036
2037
2036
2038
2041
2045
2047
2046
2042
2036
2033
2028
2030
2028
2026
2026
2024
2024
2022
2021
2020
2019
2019
2019
2018
2017
2016
2015
2015
2015
2016
2016
2015
2015
2016
2018
2022
2023
2023
2020
2018
2018
2018
2021
2022
2022
2021
2020
2020
2019
2019
2018
2019
2019
2019
2020
2019
2019
2018
2016
2018
2018
2020
2022
2023
2023
2022
2022
2024
2027
2029
2031
2031
2030
2029
2027
2026
2025
2024
2025
2025
2025
2026
2026
2029
2032
2031
2025
2014
2006
2014
2049
2117
2216
2338
2451
2521
2524
2454
2333
2201
2095
2038
2021
2023
2029
2027
2018
2012
2009
2006
2005
2006
2007
2008
2009
2009
2010
2011
2011
2012
2011
2009
2008
2008
2008
2009
2011
2013
2018
2022
2027
2029
2029
2029
2029
2030
2033
2033
2035
2034
2032
2030
2028
2026
2025
2023
2023
2023
2022
2023
2022
2021
2018
2019
2017
2016
2012
2009
2007
2007
2011
2015
2017
2016
2013
2010
2007
2010
2012
2016
2017
2018
2018
2018
2019
2019
2020
2020
2021
2021
2022
2022
2023
2024
2027
2029
2032
2029
2027
2026
2028
2032
2036
2038
2034
2029
2025
2023
2023
2026
2028
2030
2033
2035
2037
2037
2036
2036
2035
2033
2032
2030
2028
2028
2027
2029
2031
2035
2036
2033
2025
2015
2011
2024
2061
2125
2221
2343
2467
2556
2576
2516
2391
2243
2120
2048
2025
2026
2033
2031
2021
2014
2012
2010
2009
2008
2006
2008
2009
2010
2010
2010
2011
2015
2020
2025
2027
2025
2022
2022
2022
2029
2031
2033
2034
2035
2037
2039
2041
2043
2043
2043
2042
2041
2040
2037
2035
2032
2032
2031
2030
2027
2025
2024
2024
2026
2028
2027
2024
2020
2017
2014
2015
2016
2016
2016
2016
2015
2014
2013
2013
2014
2015
2016
2017
2018
2019
2021
2022
2025
2026
2026
2024
2023
2022
2024
2028
2030
2031
2029
2024
2020
2018
2019
2019
2019
2018
2017
2016
2017
2017
2018
2018
2018
2018
2018
2019
2021
2024
2026
2028
2027
2026
2024
2020
2018
2018
2019
2023
2028
2028
2029
2029
2027
2023
2013
2002
2003
2024
2075
2161
2281
2416
2530
2586
2559
2454
2303
2160
2064
2023
2018
2028
2027
2017
2006
2002
2003
2007
2009
2009
2006
2002
2000
2001
2001
2008
2008
2009
2011
2012
2014
2016
2017
2018
2020
2022
2024
2027
2029
2032
2034
2034
2038
2039
2040
2038
2034
2033
2034
2036
2038
2037
2034
2028
2023
2020
2022
2023
2023
2021
2020
2017
2016
2015
2014
2014
2013
2012
2012
2012
2012
2012
2013
2017
2017
2018
2016
2016
2016
2019
2021
2022
2022
2022
2024
2025
2023
2024
2019
2016
2015
2017
2018
2019
2017
2017
2018
2018
2019
2020
2020
2019
2018
2018
2018
2018
2018
2017
2015
2014
2016
2021
2027
2032
2032
2029
2024
2021
2019
2018
2019
2019
2019
2020
2020
2022
2024
2027
2026
2018
2006
1998
2009
2048
2123
2232
2365
2486
2558
2551
2467
2330
2190
2086
2034
2021
2024
2024
2015
2001
1997
1994
1993
1990
1989
1989
1987
1987
1986
1987
1986
1984
1981
1979
1979
1980
1979
1983
1984
1986
1986
1987
1991
1996
2002
2007
2009
2006
2004
2001
1998
1998
1996
1995
1992
1990
1988
1987
1987
1986
1986
1985
1984
1984
1981
1981
1980
1978
1979
1977
1976
1973
1971
1970
1972
1975
1976
1976
1973
1970
1971
1973
1977
1979
1979
1981
1981
1983
1986
1987
1988
1988
1989
1989
1989
1989
1989
1989
1990
1992
1993
1994
1993
1990
1990
1991
1995
1999
2001
2000
1999
1997
1998
2000
2000
2004
2006
2009
2010
2012
2012
2011
2011
2010
2012
2015
2018
2020
2023
2025
2031
2039
2039
2036
2024
2018
2030
2071
2147
2250
2371
2480
2545
2544
2472
2357
2225
2125
2071
2057
2063
2069
2067
2057
2051
2050
2048
2048
2048
2048
2048
2048
2051
2054
2055
2054
2054
2054
2057
2062
2067
2069
2070
2069
2070
2071
2075
2078
2080
2081
2083
2084
2086
2087
2087
2087
2086
2083
2081
2077
2075
2073
2069
2071
2069
2070
2068
2066
2065
2064
2065
2065
2064
2061
2057
2055
2052
2053
2052
2052
2052
2052
2053
2052
2052
2052
2051
2051
2052
2052
2052
2052
2051
2050
2052
2053
2051
2050
2048
2048
2051
2056
2061
2060
2058
2056
2054
2053
2054
2054
2052
2051
2051
2052
2052
2052
2053
2053
2056
2058
2060
2060
2059
2057
2056
2056
2055
2054
2053
2051
2050
2051
2055
2061
2065
2063
2051
2039
2031
2043
2085
2158
2262
2385
2504
2582
2591
2523
2394
2249
2129
2061
2040
2043
2048
2046
2035
2030
2027
2023
2020
2018
2019
2023
2028
2032
2032
2029
2027
2024
2025
2030
2033
2034
2035
2037
2038
2040
2042
2044
2047
2048
2048
2049
2050
2052
2052
2053
2054
2052
2051
2047
2044
2041
2041
2042
2043
2042
2038
2035
2032
2031
2032
2029
2029
2026
2024
2023
2022
2022
2022
2023
2023
2023
2023
2023
2023
2023
2023
2023
2027
2027
2026
2023
2021
2021
2025
2030
2034
2032
2029
2026
2023
2022
2024
2024
2025
2025
2026
2026
2026
2024
2023
2021
2021
2023
2025
2027
2027
2027
2026
2028
2030
2031
2032
2030
2028
2029
2030
2032
2032
2030
2028
2026
2027
2031
2034
2037
2034
2024
2013
2008
2023
2069
2148
2263
2398
2517
2582
2566
2472
2326
2185
2082
2034
2024
2030
2033
2028
2020
2018
2015
2012
2008
2007
2006
2009
2011
2012
2013
2014
2015
2017
2018
2020
2021
2023
2025
2027
2029
2031
2034
2035
2040
2041
2043
2044
2044
2046
2048
2049
2051
2050
2048
2044
2041
2037
2036
2035
2034
2034
2032
2030
2030
2027
2026
2024
2023
2021
2020
2020
2019
2018
2018
2018
2019
2017
2018
2016
2017
2018
2021
2025
2025
2024
2021
2019
2018
2019
2021
2022
2022
2022
2021
2020
2019
2020
2021
2023
2025
2028
2029
2030
2030
2029
2026
2029
2027
2028
2026
2024
2024
2026
2030
2034
2035
2034
2031
2031
2028
2031
2029
2028
2026
2025
2026
2027
2029
2033
2034
2033
2024
2012
2002
2011
2049
2119
2231
2364
2490
2568
2568
2488
2352
2208
2097
2040
2024
2028
2033
2026
2017
2010
2007
2005
2004
2004
2005
2006
2006
2007
2008
2009
2011
2013
2015
2015
2014
2019
2019
2022
2023
2023
2025
2028
2034
2040
2043
2045
2044
2044
2044
2046
2047
2045
2045
2042
2042
2040
2037
2033
2030
2029
2031
2035
2037
2033
2027
2021
2017
2015
2015
2014
2011
2009
2011
2013
2016
2017
2015
2012
2011
2010
2012
2012
2014
2014
2015
2016
2016
2015
2016
2015
2015
2015
2015
2015
2016
2017
2017
2018
2016
2015
2013
2011
2011
2011
2013
2016
2018
2017
2016
2014
2013
2015
2018
2021
2023
2023
2022
2020
2019
2019
2020
2020
2020
2020
2020
2022
2025
2030
2029
2026
2014
2004
2007
2037
2100
2199
2325
2450
2537
2556
2496
2377
2233
2115
2044
2019
2020
2027
2025
2016
2009
2006
2004
2002
2001
2001
2002
2003
2005
2004
2008
2008
2008
2008
2008
2010
2013
2016
2020
2021
2021
2021
2023
2025
2029
2032
2033
2035
2035
2035
2036
2035
2034
2032
2030
2028
2026
2026
2024
2024
