1995
1994
1993
1993
1993
1994
1994
1994
1993
1994
1994
1995
1996
1997
1997
1996
1995
1993
1991
1990
1992
2000
2016
2039
2059
2071
2066
2047
2020
1996
1983
1981
1986
1992
1996
1996
1996
1994
1993
1993
1994
1995
1996
1997
1998
1998
1997
1995
1994
1992
1992
1994
1996
1998
1999
1998
1997
1996
1996
1998
2000
2002
2004
2004
2004
2004
2004
2004
2006
2008
2010
2012
2014
2015
2015
2016
2016
2015
2015
2014
2014
2013
2012
2010
2008
2005
2001
1998
1996
1993
1992
1991
1990
1989
1988
1986
1985
1985
1985
1985
1986
1986
1986
1986
1985
1985
1984
1983
1982
1982
1983
1984
1985
1985
1984
1983
1981
1980
1979
1978
1978
1979
1979
1980
1980
1980
1980
1980
1980
1980
1980
1979
1979
1979
1979
1980
1979
1979
1978
1978
1977
1977
1978
1978
1978
1978
1978
1978
1977
1975
1974
1974
1974
1974
1975
1974
1974
1972
1971
1971
1971
1971
1972
1973
1973
1972
1971
1970
1969
1969
1971
1973
1975
1976
1976
1975
1974
1973
1972
1972
1971
1970
1968
1967
1966
1966
1966
1966
1966
1967
1968
1969
1970
1969
1968
1966
1965
1965
1967
1976
1993
2016
2037
2045
2035
2010
1980
1956
1946
1948
1956
1963
1967
1968
1968
1967
1967
1968
1968
1969
1969
1970
1970
1970
1970
1970
1971
1973
1975
1978
1980
1981
1981
1982
1982
1983
1983
1983
1983
1984
1985
1988
1991
1994
1996
1997
1996
1997
1998
2000
2003
2006
2007
2008
2007
2006
2005
2004
2003
2003
2002
2002
2000
1997
1993
1989
1986
1984
1982
1981
1980
1979
1979
1978
1977
1976
1975
1974
1973
1973
1973
1974
1975
1975
1975
1975
1975
1974
1973
1972
1972
1972
1972
1973
1973
1973
1972
1971
1970
1968
1967
1967
1967
1968
1968
1968
1968
1967
1967
1966
1966
1967
1967
1967
1967
1966
1966
1966
1967
1967
1967
1968
1968
1968
1967
1967
1966
1965
1965
1965
1966
1968
1970
1972
1973
1973
1972
1971
1969
1968
1967
1966
1967
1967
1967
1967
1967
1966
1967
1969
1971
1973
1975
1976
1977
1977
1975
1972
1970
1968
1972
1985
2006
2031
2048
2049
2034
2006
1978
1960
1956
1961
1968
1973
1975
1976
1975
1975
1974
1973
1973
1974
1975
1977
1978
1978
1978
1978
1978
1978
1979
1980
1981
1981
1981
1981
1981
1982
1983
1984
1985
1987
1988
1989
1990
1991
1992
1994
1996
1998
2000
2002
2004
2005
2006
2006
2006
2006
2005
2004
2003
2001
1999
1997
1994
1991
1988
1984
1981
1978
1977
1976
1976
1976
1975
1975
1974
1974
1973
1973
1973
1974
1974
1975
1975
1975
1975
1974
1974
1973
1974
1974
1975
1976
1976
1976
1976
1976
1976
1976
1976
1977
1977
1977
1978
1978
1978
1978
1978
1978
1978
1978
1978
1978
1979
1979
1979
1979
1979
1979
1978
1979
1979
1980
1980
1980
1979
1979
1979
1979
1981
1982
1984
1984
1984
1983
1982
1980
1979
1978
1978
1978
1978
1979
1978
1978
1977
1976
1976
1976
1977
1978
1979
1979
1977
1975
1972
1970
1972
1982
2001
2026
2048
2055
2047
2023
1995
1973
1962
1963
1969
1975
1978
1979
1979
1978
1977
1976
1977
1977
1978
1979
1980
1980
1980
1980
1980
1980
1980
1980
1981
1982
1982
1983
1984
1985
1985
1985
1985
1986
1987
1989
1991
1993
1995
1996
1997
1998
1999
2001
2003
2005
2007
2009
2010
2009
2008
2007
2005
2002
2000
1998
1996
1993
1990
1987
1984
1982
1979
1978
1977
1977
1977
1977
1976
1976
1975
1974
1974
1975
1975
1976
1976
1976
1976
1975
1975
1975
1975
1975
1975
1976
1977
1977
1977
1976
1975
1975
1974
1975
1975
1976
1976
1977
1977
1977
1976
1976
1975
1975
1975
1975
1975
1976
1977
1977
1977
1977
1976
1976
1977
1978
1978
1978
1978
1977
1977
1978
1978
1979
1980
1981
1982
1983
1983
1982
1981
1980
1979
1978
1977
1978
1978
1978
1978
1978
1978
1977
1977
1978
1978
1979
1980
1980
1979
1977
1974
1972
1972
1977
1991
2014
2037
2051
2050
2033
2006
1981
1965
1962
1966
1972
1976
1977
1977
1977
1975
1975
1975
1975
1975
1976
1977
1977
1977
1977
1977
1976
1976
1976
1977
1977
1978
1979
1979
1979
1978
1978
1979
1980
1981
1983
1985
1986
1988
1990
1991
1992
1993
1995
1996
1998
2000
2001
2001
2001
2000
1999
1998
1996
1994
1992
1990
1988
1986
1983
1980
1977
1975
1973
1973
1973
1973
1972
1972
1972
1971
1971
1971
1971
1971
1971
1972
1972
1972
1972
1971
1971
1971
1971
1971
1971
1971
1971
1971
1971
1971
1971
1971
1971
1972
1973
1974
1974
1973
1973
1973
1972
1973
1973
1974
1974
1975
1975
1975
1975
1975
1975
1974
1974
1974
1975
1976
1976
1977
1976
1975
1974
1974
1974
1975
1977
1979
1980
1981
1980
1979
1978
1977
1976
1976
1976
1976
1976
1976
1975
1975
1974
1974
1973
1974
1974
1975
1976
1976
1976
1974
1972
1970
1969
1969
1975
1990
2011
2032
2046
2044
2026
2000
1977
1963
1960
1964
1969
1972
1973
1972
1972
1971
1970
1970
1971
1972
1973
1973
1973
1973
1973
1972
1973
1974
1975
1976
1977
1977
1977
1977
1977
1977
1978
1978
1980
1981
1982
1984
1985
1986
1987
1988
1990
1992
1994
1996
1997
1998
1999
1999
1999
1999
1998
1998
1996
1995
1993
1990
1987
1984
1981
1979
1976
1975
1974
1974
1974
1973
1973
1972
1971
1970
1970
1970
1971
1971
1972
1972
1971
1971
1971
1971
1971
1972
1972
1973
1973
1973
1973
1973
1973
1973
1973
1973
1974
1975
1976
1976
1976
1975
1974
1974
1974
1975
1976
1976
1976
1976
1976
1975
1975
1974
1974
1974
1974
1975
1975
1975
1975
1974
1973
1973
1974
1975
1977
1978
1979
1980
1979
1978
1977
1976
1975
1974
1974
1975
1975
1975
1974
1973
1972
1972
1971
1972
1973
1974
1974
1974
1972
1970
1967
1965
1965
1968
1979
1999
2021
2038
2041
2026
2000
1973
1954
1948
1952
1959
1965
1968
1969
1969
1968
1967
1967
1966
1966
1967
1967
1968
1968
1968
1967
1965
1964
1964
1965
1966
1967
1968
1969
1969
1968
1969
1969
1970
1971
1973
1974
1976
1976
1977
1978
1979
1981
1983
1985
1986
1987
1988
1988
1988
1988
1988
1988
1987
1986
1984
1982
1979
1976
1974
1971
1968
1966
1965
1964
1964
1964
1964
1963
1962
1961
1961
1960
1961
1962
1963
1964
1964
1963
1962
1961
1961
1961
1961
1962
1963
1963
1963
1963
1963
1963
1962
1962
1963
1964
1965
1966
1966
1966
1965
1965
1965
1965
1966
1967
1968
1968
1968
1967
1967
1967
1967
1967
1968
1969
1971
1973
1974
1974
1974
1974
1973
1972
1971
1971
1971
1971
1971
1971
1970
1970
1969
1969
1969
1969
1970
1971
1971
1971
1970
1967
1965
1964
1964
1969
1982
2002
2025
2041
2042
2026
1999
1972
1956
1952
1956
1963
1968
1970
1971
1970
1970
1969
1968
1968
1969
1970
1970
1971
1971
1971
1971
1971
1971
1972
1972
1973
1973
1973
1973
1974
1975
1976
1978
1980
1982
1984
1985
1987
1988
1988
1990
1991
1993
1995
1997
1999
2000
2000
2000
2000
2000
1999
1998
1997
1996
1993
1991
1987
1984
1980
1977
1975
1974
1973
1972
1972
1971
1971
1970
1969
1969
1968
1968
1969
1970
1970
1970
1970
1970
1969
1970
1970
1970
1971
1971
1971
1971
1971
1970
1969
1969
1969
1970
1971
1972
1972
1972
1972
1972
1971
1971
1971
1971
1971
1972
1972
1972
1972
1971
1971
1970
1970
1970
1971
1972
1973
1974
1974
1974
1974
1973
1974
1974
1975
1975
1974
1973
1972
1970
1969
1968
1969
1969
1970
1971
1971
1972
1971
1971
1971
1970
1970
1969
1967
1966
1965
1968
1979
1998
2020
2037
2041
2028
2005
1979
1962
1955
1957
1963
1967
1969
1969
1968
1967
1967
1967
1968
1969
1969
1968
1968
1968
1968
1969
1970
1971
1972
1972
1971
1971
1972
1972
1973
1974
1975
1975
1975
1975
1974
1975
1975
1977
1979
1982
1985
1988
1990
1990
1991
1991
1992
1993
1995
1996
1996
1995
1993
1991
1988
1985
1982
1979
1977
1976
1974
1972
1971
1970
1969
1968
1967
1967
1967
1968
1968
1969
1969
1969
1969
1968
1968
1967
1967
1968
1968
1969
1969
1969
1969
1968
1968
1968
1968
1969
1970
1970
1970
1969
1968
1968
1968
1968
1968
1969
1970
1970
1970
1970
1969
1969
1969
1970
1970
1971
1971
1971
1971
1971
1971
1971
1971
1971
1972
1974
1975
1976
1976
1975
1973
1971
1970
1970
1970
1970
1971
1971
1971
1971
1971
1970
1970
1970
1970
1971
1972
1972
1971
1970
1968
1966
1966
1970
1983
2004
2027
2042
2043
2026
2000
1975
1959
1955
1959
1965
1969
1970
1971
1971
1970
1970
1970
1970
1970
1970
1971
1972
1972
1972
1972
1972
1972
1973
1973
1974
1975
1975
1976
1976
1976
1977
1977
1978
1979
1980
1982
1984
1985
1986
1988
1989
1990
1992
1993
1994
1996
1996
1997
1997
1996
1995
1994
1992
1990
1988
1986
1984
1982
1979
1976
1974
1972
1970
1970
1969
1969
1969
1969
1969
1969
1968
1968
1968
1968
1968
1969
1969
1969
1969
1968
1968
1967
1968
1968
1969
1970
1971
1971
1971
1970
1969
1969
1968
1968
1969
1970
1971
1971
1971
1970
1970
1970
1970
1970
1971
1971
1971
1971
1971
1971
1970
1970
1970
1970
1971
1971
1972
1972
1973
1973
1973
1974
1974
1974
1974
1974
1974
1974
1974
1973
1971
1970
1969
1970
1971
1971
1972
1972
1971
1971
1970
1971
1971
1971
1970
1970
1968
1967
1970
1979
1996
2018
2037
2043
2033
2011
1985
1966
1958
1959
1964
1968
1971
1971
1972
1972
1972
1971
1971
1970
1969
1969
1970
1971
1973
1974
1975
1975
1974
1974
1973
1973
1973
1974
1976
1977
1978
1979
1979
1979
1979
1980
1981
1983
1985
1988
1991
1993
1994
1995
1996
1996
1997
1997
1998
1998
1998
1997
1996
1994
1991
1988
1986
1983
1981
1979
1977
1975
1973
1972
1971
1970
1970
1970
1971
1971
1971
1971
1970
1969
1969
1968
1969
1969
1969
1969
1970
1970
1970
1970
1970
1970
1970
1970
1970
1969
1969
1968
1968
1968
1968
1967
1967
1967
1968
1968
1968
1968
1968
1968
1968
1968
1968
1968
1968
1968
1967
1966
1965
1964
1963
1964
1965
1966
1968
1969
1969
1969
1968
1967
1965
1964
1962
1962
1962
1963
1964
1964
1964
1963
1963
1963
1963
1965
1966
1967
1967
1966
1964
1961
1959
1959
1964
1978
2000
2023
2038
2036
2017
1988
1960
1943
1938
1944
1953
1960
1964
1965
1964
1962
1960
1960
1961
1964
1966
1967
1968
1968
1968
1968
1968
1968
1969
1969
1970
1971
1972
1973
1974
1975
1974
1974
1975
1977
1979
1982
1984
1986
1988
1990
1992
1994
1996
1997
1999
2000
2001
2001
1999
1997
1994
1991
1989
1987
1984
1981
1977
1974
1971
1969
1967
1965
1964
1963
1963
1963
1962
1961
1960
1958
1956
1955
1954
1954
1955
1955
1956
1957
1957
1956
1954
1952
1952
1953
1955
1957
1958
1958
1957
1955
1953
1951
1950
1950
1950
1951
1951
1951
1949
1948
1947
1946
1947
1949
1951
1953
1954
1954
1953
1951
1949
1948
1947
1948
1950
1951
1952
1952
1951
1948
1946
1945
1944
1943
1943
1942
1940
1938
1936
1935
1936
1937
1940
1942
1945
1947
1949
1951
1950
1949
1946
1943
1943
1948
1961
1982
2005
2023
2026
2013
1988
1962
1944
1937
1940
1946
1951
1954
1955
1956
1956
1956
1956
1957
1957
1958
1959
1960
1960
1960
1960
1961
1963
1965
1966
1967
1967
1967
1967
1967
1967
1966
1966
1967
1968
1970
1972
1973
1973
1974
1975
1976
1977
1978
1979
1980
1981
1982
1984
1984
1984
1982
1979
1975
1972
1969
1967
1965
1961
1956
1952
1948
1947
1947
1949
1950
1951
1950
1949
1947
1945
1943
1942
1942
1942
1942
1942
1942
1941
1939
1938
1936
1936
1938
1940
1944
1947
1949
1950
1950
1950
1950
1949
1949
1948
1949
1949
1950
1950
1949
1949
1948
1947
1946
1945
1945
1946
1947
1949
1949
1948
1946
1944
1943
1942
1941
1941
1941
1941
1943
1944
1945
1944
1944
1944
1944
1944
1944
1944
1943
1941
1938
1934
1932
1933
1939
1947
1954
1956
1954
1951
1948
1948
1949
1950
1950
1949
1948
1946
1944
1944
1951
1969
1994
2018
2030
2024
2001
1973
1951
1941
1940
1943
1946
1948
1950
1952
1953
1953
1951
1950
1950
1950
1951
1953
1955
1957
1957
1956
1955
1955
1956
1958
1961
1964
1966
1966
1966
1965
1966
1966
1967
1966
1966
1967
1971
1977
1983
1987
1988
1987
1986
1987
1989
1991
1991
1990
1988
1987
1988
1989
1989
1987
1984
1980
1977
1975
1973
1970
1966
1963
1960
1960
1961
1963
1964
1964
1963
1961
1960
1959
1960
1961
1963
1964
1964
1964
1963
1963
1962
1962
1962
1961
1961
1961
1962
1963
1963
1964
1964
1964
1964
1964
1963
1962
1962
1962
1962
1963
1963
1963
1962
1960
1960
1961
1962
1963
1964
1963
1962
1961
1960
1960
1959
1959
1959
1959
1960
1961
1962
1961
1961
1960
1961
1963
1965
1966
1966
1966
1966
1966
1966
1966
1966
1966
1966
1966
1967
1967
1967
1967
1966
1966
1966
1967
1967
1967
1966
1965
1965
1965
1965
1965
1965
1963
1962
1964
1974
1994
2018
2039
2047
2037
2013
1986
1965
1956
1957
1962
1966
1967
1966
1965
1965
1967
1970
1972
1972
1971
1968
1966
1965
1966
1967
1967
1967
1968
1969
1971
1973
1974
1974
1973
1971
1970
1971
1973
1975
1976
1977
1978
1979
1981
1983
1984
1985
1987
1989
1992
1995
1996
1995
1994
1994
1993
1993
1991
1988
1985
1981
1978
1975
1973
1972
1971
1971
1970
1968
1966
1963
1962
1962
1962
1962
1962
1961
1961
1962
1964
1966
1967
1965
1964
1964
1965
1968
1970
1970
1969
1967
1965
1965
1965
1966
1967
1968
1969
1970
1969
1968
1967
1966
1966
1967
1968
1968
1968
1968
1968
1968
1969
1970
1971
1971
1970
1969
1969
1970
1971
1972
1973
1974
1973
1972
1972
1973
1974
1975
1974
1973
1972
1971
1971
1972
1973
1975
1976
1978
1979
1981
1981
1981
1981
1980
1979
1978
1979
1980
1980
1980
1979
1978
1978
1978
1979
1980
1981
1981
1982
1983
1983
1983
1983
1983
1981
1980
1980
1980
1983
1991
2007
2030
2053
2068
2066
2048
2022
1997
1983
1982
1987
1992
1994
1994
1994
1995
1997
1999
2000
2000
1997
1995
1994
1995
1997
1999
2001
2002
2002
2002
2002
2002
2003
2004
2005
2007
2009
2011
2012
2012
2011
2011
2012
2014
2019
2024
2028
2030
2030
2029
2028
2028
2030
2033
2036
2038
2037
2035
2032
2029
2026
2022
2018
2014
2010
2007
2005
2003
2000
1998
1994
1990
1988
1987
1987
1989
1991
1991
1990
1988
1986
1985
1984
1984
1985
1985
1984
1982
1980
1979
1978
1978
1979
1979
1979
1979
1978
1976
1975
1975
1975
1976
1977
1977
1977
1976
1975
1974
1974
1974
1973
1972
1970
1970
1971
1974
1976
1978
1978
1977
1975
1973
1972
1972
1973
1974
1974
1974
1974
1973
1973
1974
1975
1977
1978
1979
1980
1980
1980
1978
1976
1974
1972
1971
1972
1974
1976
1979
1981
1981
1979
1976
1974
1974
1975
1976
1976
1975
1972
1970
1968
1968
1975
1991
2014
2037
2048
2042
2020
1991
1967
1955
1955
1961
1968
1971
1973
1973
1972
1970
1968
1967
1967
1969
1971
1972
1973
1972
1973
1973
1974
1974
1974
1974
1975
1977
1979
1980
1980
1980
1979
1979
1981
1983
1986
1989
1991
1994
1996
1998
2001
2004
2006
2009
2011
2012
2012
2012
2011
2009
2007
2004
2001
1997
1992
1986
1980
1976
1973
1973
1974
1975
1976
1977
1977
1976
1975
1973
1972
1971
1970
1968
1967
1966
1966
1966
1966
1965
1964
1962
1960
1959
1959
1960
1961
1962
1961
1961
1960
1959
1959
1959
1959
1959
1959
1959
1959
1960
1961
1962
1963
1963
1964
1964
1966
1967
1969
1970
1971
1971
1971
1972
1972
1972
1974
1975
1976
1975
1974
1971
1969
1968
1968
1969
1970
1971
1972
1972
1972
1973
1974
1974
1975
1975
1975
1976
1977
1979
1979
1979
1978
1978
1978
1979
1980
1981
1982
1982
1983
1983
1983
1981
1979
1977
1976
1980
1992
2013
2037
2054
2056
2043
2018
1993
1977
1972
1976
1981
1984
1984
1983
1982
1981
1980
1980
1980
1981
1981
1982
1983
1982
1982
1982
1983
1985
1987
1988
1988
1986
1985
1984
1984
1986
1988
1990
1991
1992
1993
1994
1996
1998
2000
2001
2002
2004
2006
2008
2008
2008
2007
2007
2007
2009
2010
2010
2008
2005
2002
1998
1996
1993
1989
1986
1982
1980
1979
1979
1979
1978
1977
1977
1977
1977
1978
1980
1981
1983
1983
1982
1981
1979
1978
1976
1976
1975
1975
1974
1974
1974
1973
1972
1971
1970
1970
1970
1969
1969
1969
1969
1969
1968
1968
1968
1968
1968
1968
1968
1968
1968
1967
1967
1967
1967
1967
1967
1967
1965
1964
1962
1961
1961
1960
1960
1960
1960
1960
1960
1960
1960
1958
1957
1956
1955
1956
1958
1961
1963
1963
1963
1962
1961
1962
1963
1965
1967
1968
1969
1969
1968
1967
1965
1965
1967
1968
1970
1972
1973
1974
1974
1975
1975
1976
1977
1978
1978
1978
1977
1976
1976
1978
1986
2002
2026
2050
2067
2068
2052
2028
2004
1989
1985
1989
1995
2000
2003
2004
2004
2003
2003
2005
2008
2011
2014
2016
2018
2020
2021
2022
2022
2021
2020
2020
2020
2020
2020
2019
2018
2017
2017
2017
2017
2018
2018
2019
2021
2023
2024
2025
2025
2025
2025
2026
2028
2029
2031
2033
2034
2035
2035
2033
2030
2026
2022
2018
2016
2015
2014
2013
2011
2008
2005
2002
2000
1999
1999
1999
1998
1997
1995
1993
1992
1992
1992
1992
1993
1993
1993
1992
1991
1990
1988
1988
1988
1989
1990
1990
1990
1990
1990
1990
1990
1990
1990
1989
1990
1990
1991
1991
1991
1991
1991
1990
1990
1990
1991
1991
1991
1990
1989
1988
1987
1987
1987
1988
1989
1988
1986
1986
1991
2001
2016
2030
2041
2047
2048
2048
2048
2049
2050
2049
2048
2046
2045
2043
2042
2041
2040
2038
2036
2034
2031
2028
2026
2023
2021
2019
2018
2016
2014
2012
2010
2009
2007
2006
2005
2004
2002
1999
1997
1994
1995
2002
2017
2038
2054
2061
2051
2029
2003
1982
1971
1968
1972
1977
1983
1989
1995
1998
1997
1994
1991
1986
1979
1969
1957
1944
1933
1926
1922
1921
1921
1922
1922
1923
1924
1924
1924
1924
1924
1923
1923
1924
1924
1926
1928
1931
1934
1936
1937
1938
1938
1939
1941
1942
1944
1946
1947
1948
1948
1947
1945
1944
1942
1941
1939
1938
1936
1934
1931
1930
1928
1928
1929
1931
1932
1933
1933
1932
1931
1931
1931
1931
1931
1932
1933
1934
1935
1935
1935
1934
1934
1933
1934
1935
1935
1936
1936
1936
1937
1937
1938
1940
1941
1942
1943
1943
1944
1945
1945
1945
1946
1946
1946
1947
1948
1948
1949
1949
1949
1949
1948
1948
1948
1949
1950
1951
1951
1951
1951
1950
1951
1951
1953
1954
1955
1956
1957
1957
1957
1957
1956
1955
1954
1954
1955
1955
1956
1957
1957
1957
1956
1956
1956
1957
1957
1958
1958
1958
1957
1955
1953
1954
1962
1979
2002
2022
2031
2023
2000
1973
1952
1942
1944
1951
1957
1961
1962
1962
1962
1961
1960
1960
1961
1962
1963
1965
1965
1966
1966
1965
1964
1964
1965
1966
1967
1968
1969
1970
1971
1971
1972
1972
1973
1974
1976
1978
1980
1981
1982
1983
1984
1986
1987
1989
1991
1993
1993
1994
1994
1993
1992
1990
1988
1985
1983
1981
1978
1976
1973
1970
1968
1966
1965
1964
1964
1965
1965
1965
1965
1964
1963
1963
1963
1964
1965
1965
1966
1966
1966
1966
1965
1965
1965
1965
1966
1967
1968
1968
1968
1967
1967
1967
1967
1968
1968
1969
1969
1969
1969
1969
1969
1968
1969
1969
1970
1971
1971
1971
1971
1970
1970
1970
1970
1970
1971
1971
1970
1970
1969
1969
1969
1970
1971
1972
1973
1974
1974
1975
1974
1973
1972
1971
1970
1970
1970
1971
1971
1971
1970
1969
1968
1967
1967
1967
1967
1967
1967
1966
1964
1962
1960
1960
1963
1974
1992
2014
2029
2031
2017
1992
1967
1950
1945
1949
1956
1961
1964
1965
1964
1963
1962
1961
1961
1962
1963
1964
1964
1964
1963
1962
1961
1960
1960
1960
1961
1963
1964
1966
1967
1968
1969
1969
1970
1971
1973
1975
1977
1978
1979
1980
1981
1982
1984
1986
1989
1991
1992
1993
1992
1992
1991
1991
1991
1990
1988
1985
1982
1979
1976
1973
1971
1970
1969
1969
1969
1968
1968
1967
1967
1967
1966
1966
1966
1967
1967
1968
1968
1968
1968
1967
1967
1967
1967
1968
1969
1970
1971
1971
1970
1970
1969
1969
1969
1969
1970
1970
1971
1972
1972
1972
1971
1970
1970
1970
1971
1971
1971
1970
1970
1969
1969
1969
1969
1969
1969
1969
1970
1969
1969
1968
1968
1968
1969
1970
1971
1971
1972
1972
1973
1972
1971
1970
1969
1968
1967
1967
1967
1967
1967
1966
1965
1964
1964
1964
1965
1966
1967
1967
1965
1963
1961
1960
1963
1973
1991
2013
2030
2035
2024
2001
1976
1958
1951
1953
1959
1963
1965
1966
1965
1964
1963
1963
1964
1965
1966
1967
1967
1968
1968
1967
1967
1967
1967
1968
1969
1971
1972
1973
1973
1973
1973
1973
1973
1974
1975
1977
1979
1981
1983
1984
1985
1985
1987
1988
1989
1990
1991
1992
1992
1991
1991
1990
1989
1988
1987
1985
1983
1980
1977
1974
1972
1970
1969
1969
1969
1969
1969
1968
1968
1967
1966
1966
1966
1966
1967
1969
1970
1970
1970
1970
1970
1970
1970
1970
1970
1971
1971
1971
1971
1970
1970
1970
1971
1971
1971
1972
1972
1972
1972
1972
1971
1971
1971
1971
1972
1972
1972
1972
1971
1970
1970
1970
1970
1971
1972
1972
1972
1972
1972
1972
1972
1972
1973
1974
1975
1976
1976
1975
1974
1973
1972
1970
1970
1970
1970
1971
1972
1972
1972
1972
1971
1971
1970
1970
1971
1971
1970
1969
1967
1966
1969
1980
1998
2019
2035
2038
2024
2000
1976
1959
1954
1958
1964
1969
1972
1972
1972
1971
1969
1968
1968
1969
1970
1972
1973
1974
1973
1973
1973
1973
1973
1974
1974
1974
1974
1975
1976
1977
1978
1978
1979
1978
1979
1980
1982
1984
1987
1988
1989
1990
1990
1991
1992
1993
1995
1996
1997
1997
1996
1994
1991
1988
1986
1984
1983
1982
1981
1980
1978
1976
1973
1972
1971
1971
1971
1972
1972
1972
1972
1972
1972
1973
1973
1973
1974
1974
1975
1975
1976
1977
1978
1978
1979
1979
1979
1980
1981
1983
1983
1982
1981
1980
1980
1980
1981
1982
1982
1982
1982
1982
1981
1981
1981
1981
1981
1981
1982
1982
1981
1980
1978
1977
1977
1978
1980
1982
1983
1984
1985
1984
1983
1982
1981
1980
1980
1981
1981
1981
1980
1979
1979
1979
1980
1981
1982
1983
1984
1984
1984
1983
1980
1978
1977
1979
1987
2002
2024
2044
2053
2048
2029
2003
1980
1970
1971
1979
1988
1994
1996
1996
1996
1996
1996
1998
1999
2001
2003
2004
2004
2003
2002
2001
2002
2004
2006
2007
2007
2007
2006
2007
2007
2009
2011
2012
2014
2014
2015
2017
2018
2020
2021
2022
2024
2026
2028
2030
2032
2033
2034
2033
2033
2032
2031
2031
2031
2032
2031
2029
2026
2023
2019
2016
2014
2012
2012
2011
2011
2010
2009
2008
2007
2006
2005
2005
2005
2005
2006
2006
2006
2005
2003
2002
2002
2002
2003
2004
2005
2004
2004
2003
2002
2002
2001
2001
2001
2001
2000
2000
1999
1998
1998
1998
1999
1999
2000
1999
1999
1999
1999
1999
1999
1999
2000
2000
2001
2001
2001
2000
1998
1996
1994
1992
1990
1990
1989
1990
1990
1990
1989
1988
1988
1989
1989
1990
1989
1990
1990
1990
1989
1987
1984
1982
1985
1997
2016
2038
2052
2053
2040
2016
1993
1977
1973
1977
1983
1987
1989
1989
1989
1987
1986
1985
1986
1987
1988
1989
1989
1989
1989
1990
1990
1991
1991
1990
1989
1989
1990
1992
1994
1996
1997
1998
1998
1998
1999
2000
2002
2004
2005
2006
2007
2007
2009
2010
2011
2012
2013
2012
2012
2011
2010
2009
2007
2005
2003
2001
1999
1997
1995
1993
1990
1988
1986
1985
1985
1985
1986
1986
1986
1984
1982
1980
1980
1981
1983
1984
1985
1985
1984
1983
1982
1982
1982
1983
1983
1983
1983
1983
1982
1981
1980
1980
1980
1979
1979
1979
1979
1979
1979
1978
1978
1977
1977
1977
1978
1978
1978
1978
1978
1978
1979
1979
1979
1979
1978
1979
1979
1980
1981
1981
1981
1979
1978
1976
1975
1975
1975
1975
1975
1974
1974
1974
1973
1973
1973
1973
1973
1972
1970
1968
1966
1967
1972
1984
2005
2026
2040
2039
2023
1998
1975
1961
1958
1963
1968
1972
1973
1972
1972
1971
1970
1969
1969
1969
1970
1971
1972
1972
1972
1971
1971
1970
1971
1972
1973
1974
1975
1976
1976
1976
1976
1976
1977
1978
1980
1981
1983
1984
1985
1986
1987
1987
1988
1989
1990
1992
1994
1995
1995
1994
1992
1991
1990
1989
1988
1987
1984
1981
1979
1976
1974
1973
1971
1970
1970
1970
1970
1970
1970
1970
1969
1969
1969
1968
1967
1966
1965
1964
1963
1963
1962
1962
1963
1965
1967
1969
1970
1970
1970
1969
1968
1967
1967
1967
1968
1970
1971
1972
1971
1969
1966
1964
1963
1963
1964
1965
1966
1966
1967
1969
1970
1972
1972
1973
1973
1974
1975
1975
1975
1974
1972
1971
1970
1970
1970
1970
1971
1972
1972
1972
1971
1971
1971
1970
1971
1972
1972
1972
1970
1969
1968
1970
1980
1999
2021
2039
2042
2027
2001
1974
1955
1950
1953
1959
1964
1967
1969
1969
1970
1969
1968
1968
1967
1966
1965
1963
1962
1961
1961
1963
1964
1965
1965
1964
1963
1962
1963
1964
1966
1967
1966
1965
1965
1965
1967
1969
1971
1972
1972
1972
1971
1972
1974
1976
1976
1976
1975
1974
1973
1972
1971
1969
1967
1965
1963
1961
1958
1954
1951
1949
1948
1948
1949
1950
1951
1951
1952
1952
1951
1949
1946
1943
1942
1942
1943
1944
1945
1945
1945
1945
1944
1944
1944
1944
1945
1946
1946
1946
1946
1945
1945
1945
1945
1946
1947
1949
1950
1951
1951
1951
1951
1952
1952
1952
1952
1952
1953
1954
1955
1956
1956
1955
1954
1954
1955
1956
1956
1955
1954
1953
1951
1950
1949
1950
1950
1951
1952
1952
1951
1950
1949
1948
1948
1947
1948
1947
1946
1943
1938
1933
1932
1939
1956
1977
1993
1997
1984
1959
1934
1917
1912
1916
1924
1930
1934
1935
1936
1935
1935
1934
1935
1935
1936
1937
1938
1939
1940
1941
1942
1942
1943
1945
1947
1949
1951
1954
1957
1959
1961
1962
1963
1964
1965
1966
1967
1967
1968
1969
1971
1972
1973
1974
1975
1976
1977
1979
1979
1980
1979
1978
1976
1975
1973
1971
1969
1967
1965
1964
1962
1960
1958
1957
1957
1957
1958
1958
1958
1957
1956
1955
1955
1955
1955
1956
1957
1958
1959
1959
1959
1959
1958
1958
1958
1959
1959
1960
1961
1962
1962
1962
1962
1962
1962
1962
1963
1963
1963
1964
1964
1965
1965
1965
1965
1965
1965
1965
1965
1966
1966
1966
1966
1966
1967
1967
1969
1970
1971
1972
1972
1971
1970
1968
1968
1967
1968
1969
1969
1969
1969
1969
1968
1968
1969
1970
1971
1972
1972
1971
1970
1968
1966
1966
1971
1984
2004
2024
2036
2034
2017
1994
1972
1961
1959
1963
1968
1971
1972
1972
1972
1971
1971
1971
1971
1971
1972
1973
1973
1974
1974
1973
1973
1973
1973
1974
1975
1976
1977
1977
1978
1978
1978
1978
1978
1979
1980
1982
1984
1986
1987
1988
1989
1990
1991
1993
1995
1997
1997
1998
1997
1996
1995
1994
1993
1992
1990
1988
1986
1984
1982
1979
1977
1976
1975
1974
1974
1974
1974
1974
1974
1973
1973
1972
1972
1973
1973
1974
1974
1974
1974
1973
1973
1972
1972
1973
1974
1975
1975
1976
1976
1975
1975
1976
1976
1977
1977
1977
1976
1975
1975
1975
1975
1975
1975
1975
1976
1976
1976
1976
1975
1974
1974
1974
1974
1974
1974
1974
1975
1975
1975
1975
1975
1975
1976
1976
1977
1976
1976
1975
1974
1974
1974
1975
1975
1976
1977
1977
1978
1978
1978
1977
1977
1977
1977
1976
1975
1974
1973
1974
1978
1989
2007
2026
2040
2042
2029
2008
1987
1972
1968
1970
1974
1977
1978
1979
1979
1979
1979
1979
1979
1977
1976
1975
1975
1975
1976
1978
1979
1979
1979
1979
1979
1978
1979
1980
1981
1982
1983
1984
1984
1985
1985
1986
1987
1988
1990
1992
1993
1994
1995
1995
1995
1996
1998
1999
2000
1999
1999
1998
1996
1994
1991
1988
1985
1983
1982
1981
1980
1979
1978
1976
1975
1974
1974
1973
1972
1971
1969
1968
1968
1969
1970
1971
1972
1973
1973
1973
1973
1973
1972
1971
1971
1970
1970
1970
1971
1971
1971
1970
1969
1969
1968
1967
1966
1966
1967
1968
1968
1968
1966
1965
1965
1966
1967
1969
1970
1970
1970
1969
1968
1967
1966
1965
1963
1961
1960
1961
1962
1963
1964
1964
1964
1964
1964
1965
1966
1967
1969
1971
1973
1972
1970
1968
1968
1969
1970
1972
1973
1972
1972
1972
1973
1974
1975
1975
1974
1973
1971
1969
1969
1973
1985
2006
2027
2040
2037
2019
1994
1972
1960
1960
1965
1970
1973
1975
1975
1976
1977
1977
1978
1978
1978
1980
1981
1982
1983
1984
1986
1987
1988
1988
1988
1988
1989
1991
1993
1995
1996
1996
1997
1999
2001
2002
2003
2005
2007
2011
2014
2016
2017
2018
2020
2021
2022
2021
2021
2021
2022
2023
2022
2021
2018
2015
2012
2009
2007
2006
2004
2002
2000
1998
1996
1995
1995
1996
1997
1998
1998
1997
1995
1994
1993
1992
1992
1993
1993
1994
1994
1995
1995
1994
1994
1993
1993
1993
1993
1993
1992
1991
1989
1988
1987
1987
1986
1985
1985
1985
1986
1987
1988
1987
1986
1984
1982
1982
1981
1982
1982
1983
1983
1984
1984
1984
1985
1986
1988
1989
1990
1989
1987
1986
1986
1985
1984
1983
1982
1983
1985
1988
1989
1987
1985
1984
1985
1988
1991
1992
1991
1989
1986
1983
1981
1983
1992
2009
2032
2050
2057
2048
2025
1998
1978
1969
1970
1976
1982
1986
1988
1988
1988
1987
1986
1985
1985
1987
1988
1989
1988
1988
1987
1987
1988
1990
1992
1993
1993
1992
1992
1991
1991
1991
1992
1993
1994
1995
1997
2000
2002
2004
2004
2005
2005
2006
2007
2010
2012
2013
2013
2012
2011
2010
2008
2006
2005
2003
2002
2000
1998
1995
1994
1992
1989
1987
1985
1983
1983
1982
1982
1981
1980
1980
1980
1981
1982
1982
1982
1982
1982
1982
1982
1982
1982
1982
1981
1981
1981
1981
1980
1979
1978
1977
1976
1975
1975
1975
1975
1975
1976
1977
1978
1979
1978
1977
1976
1976
1976
1976
1976
1975
1976
1976
1977
1979
1980
1981
1981
1981
1981
1981
1981
1981
1980
1978
1978
1977
1978
1979
1981
1981
1981
1980
1979
1979
1979
1980
1981
1981
1980
1978
1976
1974
1973
1976
1987
2007
2030
2047
2049
2037
2012
1986
1969
1963
1965
1971
1975
1977
1978
1978
1979
1978
1978
1977
1976
1975
1975
1975
1975
1976
1977
1977
1976
1975
1975
1975
1976
1978
1980
1981
1982
1981
1980
1981
1981
1982
1983
1984
1986
1988
1990
1992
1994
1995
1995
1996
1997
1998
1999
1999
1999
1998
1996
1994
1991
1989
1987
1985
1983
1981
1977
1974
1971
1970
1970
1971
1972
1972
1972
1971
1972
1973
1974
1974
1974
1973
1973
1974
1974
1974
1974
1973
1973
1973
1974
1974
1975
1975
1976
1976
1975
1974
1974
1973
1974
1975
1975
1976
1976
1977
1977
1976
1976
1975
1975
1975
1975
1975
1975
1975
1975
1975
1975
1975
1975
1976
1977
1979
1981
1982
1983
1982
1980
1978
1976
1974
1973
1973
1973
1974
1974
1974
1974
1973
1974
1974
1973
1973
1973
1974
1974
1974
1972
1969
1966
1965
1971
1985
2006
2028
2042
2040
2024
1999
1977
1963
1960
1964
1969
1972
1973
1973
1972
1972
1972
1972
1973
1974
1975
1976
1976
1976
1975
1975
1975
1975
1976
1977
1977
1977
1977
1978
1977
1977
1976
1977
1978
1981
1983
1986
1987
1988
1988
1989
1990
1992
1993
1994
1995
1995
1994
1993
1993
1992
1992
1991
1989
1987
1985
1983
1982
1979
1977
1975
1974
1974
1974
1973
1972
1971
1970
1969
1968
1967
1967
1968
1969
1970
1971
1971
1970
1970
1970
1970
1970
1971
1972
1973
1973
1973
1972
1972
1971
1971
1972
1973
1974
1975
1975
1975
1974
1974
1973
1973
1973
1974
1974
1974
1974
1974
1974
1975
1975
1976
1976
1976
1975
1975
1975
1976
1976
1976
1976
1976
1976
1977
1978
1979
1978
1977
1976
1975
1975
1975
1975
1974
1974
1975
1976
1977
1978
1979
1980
1980
1979
1978
1977
1976
1977
1983
1998
2019
2039
2048
2040
2019
1992
1971
1962
1963
1969
1975
1978
1979
1979
1980
1979
1979
1979
1980
1981
1982
1983
1983
1983
1982
1982
1982
1982
1983
1983
1983
1983
1983
1983
1984
1985
1987
1988
1990
1992
1992
1992
1992
1993
1994
1997
2000
2002
2003
2004
2004
2004
2005
2006
2007
2007
2007
2005
2003
2001
1998
1994
1991
1988
1987
1987
1987
1987
1986
1984
1982
1981
1981
1981
1981
1981
1980
1979
1979
1980
1981
1981
1982
1981
1981
1981
1981
1981
1981
1981
1981
1981
1981
1982
1983
1983
1984
1984
1983
1983
1984
1985
1985
1986
1986
1985
1984
1984
1985
1985
1985
1985
1985
1986
1986
1986
1986
1987
1987
1988
1989
1990
1990
1990
1989
1988
1987
1987
1988
1988
1989
1989
1989
1990
1990
1990
1990
1990
1990
1990
1990
1989
1987
1984
1983
1982
1986
1996
2014
2035
2050
2052
2039
2015
1989
1972
1966
1969
1976
1981
1983
1983
1983
1982
1982
1982
1982
1982
1983
1983
1982
1982
1982
1982
1982
1982
1982
1982
1982
1982
1983
1983
1984
1985
1986
1987
1988
1989
1989
1989
1989
1989
1991
1993
1996
1998
1999
2000
1999
1999
1998
1998
1998
1997
1997
1996
1995
1993
1991
1988
1984
1981
1977
1975
1973
1972
1971
1970
1969
1968
1966
1966
1965
1965
1966
1966
1967
1968
1968
1968
1967
1966
1966
1966
1967
1968
1969
1970
1970
1969
1969
1969
1968
1969
1969
1970
1971
1971
1971
1971
1970
1969
1969
1970
1971
1972
1973
1973
1973
1972
1971
1970
1970
1970
1971
1971
1972
1972
1972
1973
1974
1976
1977
1979
1979
1979
1977
1975
1973
1973
1974
1975
1975
1975
1974
1974
1973
1973
1973
1973
1972
1971
1969
1966
1962
1960
1962
1972
1989
2010
2025
2027
2013
1989
1965
1950
1945
1948
1954
1957
1958
1957
1957
1956
1956
1956
1958
1960
1962
1963
1964
1963
1963
1964
1966
1968
1971
1972
1972
1971
1970
1968
1968
1968
1970
1971
1973
1974
1975
1976
1978
1980
1983
1985
1987
1988
1990
1990
1991
1991
1991
1991
1990
1990
1990
1991
1991
1990
1989
1986
1983
1980
1977
1976
1975
1974
1973
1973
1971
1969
1966
1964
1962
1962
1962
1963
1964
1964
1964
1965
1965
1965
1964
1964
1965
1966
1967
1967
1967
1967
1966
1965
1965
1966
1967
1969
1970
1971
1971
1970
1970
1970
1970
1971
1972
1973
1974
1974
1973
1972
1971
1970
1971
1971
1972
1973
1975
1976
1977
1978
1979
1978
1977
1976
1976
1975
1975
1974
1974
1973
1973
1972
1972
1972
1973
1974
1975
1976
1976
1975
1972
1970
1968
1969
1977
1994
2015
2034
2042
2033
2010
1983
1963
1955
1957
1964
1970
1972
1973
1972
1971
1971
1971
1972
1973
1974
1975
1974
1973
1972
1973
1973
1974
1974
1974
1974
1974
1975
1976
1977
1977
1976
1976
1976
1977
1979
1980
1982
1984
1984
1985
1986
1987
1989
1991
1992
1992
1990
1988
1986
1983
1981
1979
1978
1977
1975
1972
1969
1966
1963
1961
1959
1957
1955
1954
1954
1954
1954
1953
1953
1953
1952
1952
1952
1952
1952
1953
1953
1953
1953
1952
1950
1948
1946
1946
1947
1949
1950
1951
1952
1951
1951
1951
1951
1950
1950
1951
1952
1953
1952
1951
1950
1949
1950
1950
1951
1952
1953
1953
1954
1955
1955
1957
1958
1960
1961
1960
1957
1953
1949
1946
1944
1944
1945
1947
1950
1953
1954
1955
1954
1952
1950
1949
1949
1950
1951
1952
1951
1951
1954
1967
1988
2013
2031
2032
2017
1992
1967
1952
1948
1953
1958
1963
1965
1966
1967
1967
1966
1966
1966
1967
1968
1968
1967
1966
1966
1967
1970
1972
1974
1973
1972
1971
1970
1970
1970
1971
1973
1975
1977
1978
1977
1976
1976
1978
1981
1984
1987
1988
1988
1988
1988
1989
1990
1991
1992
1992
1993
1992
1989
1986
1981
1977
1975
1973
1972
1971
1969
1967
1965
1964
1963
1962
1962
1963
1964
1965
1965
1964
1962
1960
1961
1963
1966
1968
1969
1970
1971
1973
1974
1973
1972
1971
1971
1971
1973
1974
1974
1974
1973
1973
1973
1974
1976
1977
1977
1976
1975
1974
1973
1973
1974
1976
1978
1980
1981
1981
1980
1979
1978
1979
1980
1981
1982
1981
1980
1978
1976
1976
1978
1980
1982
1982
1981
1978
1976
1976
1977
1978
1979
1977
1975
1977
1989
2010
2035
2051
2052
2037
2010
1985
1970
1967
1972
1978
1981
1982
1981
1980
1980
1979
1979
1978
1978
1978
1979
1981
1983
1984
1985
1984
1983
1982
1982
1983
1985
1989
1991
1992
1991
1990
1990
1991
1994
1997
2000
2002
2002
2003
2004
2005
2006
2006
2007
2009
2011
2013
2014
2014
2012
2010
2008
2007
2006
2003
2000
1996
1994
1993
1992
1990
1987
1984
1981
1981
1982
1983
1984
1984
1983
1982
1981
1980
1980
1980
1980
1980
1978
1976
1974
1974
1975
1977
1979
1979
1978
1977
1976
1975
1975
1976
1977
1978
1979
1980
1980
1979
1979
1978
1976
1975
1976
1976
1977
1976
1975
1974
1975
1977
1980
1981
1980
1977
1973
1972
1972
1974
1974
1974
1972
1970
1970
1971
1973
1976
1977
1976
1975
1973
1970
1967
1964
1962
1966
1978
1998
2020
2036
2038
2024
2001
1977
1961
1956
1958
1964
1967
1969
1968
1967
1966
1966
1966
1967
1967
1967
1966
1967
1968
1969
1969
1968
1968
1968
1970
1971
1972
1973
1973
1973
1973
1973
1973
1974
1976
1978
1979
1979
1980
1981
1984
1986
1988
1989
1989
1989
1989
1989
1990
1991
1990
1989
1987
1986
1984
1982
1979
1977
1973
1970
1967
1964
1961
1958
1956
1956
1955
1956
1957
1957
1957
1956
1955
1955
1956
1957
1957
1958
1958
1958
1958
1959
1958
1957
1956
1956
1957
1958
1960
1962
1962
1961
1960
1959
1958
1959
1960
1960
1961
1961
1962
1962
1963
1963
1963
1963
1963
1963
1964
1966
1967
1969
1969
1970
1970
1970
1970
1969
1969
1968
1967
1967
1967
1967
1968
1967
1967
1967
1968
1969
1970
1970
1969
1967
1965
1965
1965
1965
1965
1967
1975
1991
2011
2028
2034
2025
2004
1980
1962
1954
1955
1959
1963
1966
1967
1967
1966
1966
1966
1967
1967
1967
1966
1966
1967
1968
1970
1970
1970
1970
1970
1970
1970
1970
1970
1971
1973
1975
1977
1978
1977
1976
1975
1975
1977
1980
1983
1986
1988
1988
1988
1988
1989
1990
1991
1992
1991
1990
1989
1988
1987
1985
1982
1979
1977
1976
1975
1975
1973
1971
1969
1968
1967
1966
1966
1967
1968
1969
1969
1968
1966
1964
1964
1965
1967
1969
1970
1970
1969
1968
1967
1967
1966
1966
1966
1966
1967
1968
1970
1970
1970
1969
1968
1967
1967
1967
1968
1968
1969
1968
1968
1967
1966
1966
1966
1967
1969
1970
1971
1972
1971
1970
1970
1970
1971
1971
1971
1970
1968
1967
1966
1966
1966
1967
1968
1968
1967
1966
1965
1965
1964
1965
1966
1968
1968
1968
1966
1963
1961
1962
1972
1991
2014
2031
2036
2025
2003
1978
1960
1953
1954
1958
1962
1965
1966
1967
1968
1969
1970
1970
1968
1966
1964
1963
1965
1967
1970
1972
1973
1972
1971
1971
1971
1972
1972
1972
1972
1972
1973
1975
1978
1980
1980
1980
1981
1983
1986
1989
1991
1992
1992
1991
1990
1990
1992
1994
1996
1998
1998
1997
1995
1993
1991
1990
1987
1984
1982
1980
1981
1981
1981
1980
1980
1979
1980
1981
1981
1981
1980
1980
1981
1982
1981
1980
1978
1978
1978
1979
1981
1982
1983
1982
1981
1979
1978
1979
1981
1982
1983
1982
1980
1979
1980
1982
1982
1982
1980
1980
1981
1982
1984
1984
1984
1984
1983
1982
1981
1981
1981
1983
1985
1986
1986
1985
1983
1983
1983
1983
1985
1986
1985
1984
1981
1979
1979
1980
1981
1982
1983
1983
1984
1984
1984
1983
1981
1979
1977
1977
1978
1982
1993
2011
2030
2044
2044
2029
2006
1983
1969
1967
1971
1978
1981
1982
1981
1979
1979
1979
1980
1982
1983
1983
1982
1981
1981
1982
1982
1982
1982
1982
1983
1984
1985
1986
1986
1985
1985
1986
1986
1987
1988
1988
1988
1989
1990
1992
1994
1997
2000
2001
2000
1999
1997
1998
2000
2002
2003
2001
1998
1995
1993
1992
1992
1991
1990
1988
1985
1983
1982
1980
1978
1976
1975
1975
1976
1977
1978
1979
1979
1978
1977
1976
1975
1975
1976
1978
1979
1981
1981
1980
1979
1977
1975
1975
1977
1979
1981
1982
1981
1980
1980
1980
1980
1981
1981
1982
1981
1981
1980
1980
1981
1981
1981
1981
1982
1983
1985
1986
1986
1985
1983
1982
1981
1981
1981
1982
1983
1983
1982
1980
1979
1978
1977
1978
1979
1980
1980
1980
1979
1979
1979
1979
1978
1977
1975
1975
1981
1996
2016
2035
2044
2038
2017
1992
1972
1963
1964
1970
1975
1977
1976
1975
1974
1974
1975
1977
1979
1979
1978
1978
1977
1977
1978
1978
1978
1978
1978
1978
1979
1981
1982
1983
1982
1981
1981
1981
1983
1985
1987
1988
1988
1989
1989
1990
1991
1992
1993
1995
1997
1999
2000
1999
1999
1998
1997
1996
1995
1992
1989
1986
1984
1981
1978
1976
1975
1975
1975
1976
1976
1975
1974
1973
1971
1969
1967
1966
1964
1963
1962
1961
1960
1960
1962
1963
1965
1966
1966
1966
1966
1965
1963
1962
1961
1961
1961
1962
1963
1964
1964
1964
1964
1964
1965
1965
1964
1964
1963
1963
1963
1962
1962
1963
1963
1964
1965
1965
1965
1966
1967
1968
1968
1968
1967
1965
1964
1964
1964
1964
1963
1963
1962
1962
1963
1963
1963
1963
1963
1963
1963
1963
1963
1961
1959
1958
1959
1967
1983
2004
2023
2031
2025
2005
1980
1960
1950
1951
1957
1963
1966
1966
1964
1962
1960
1960
1962
1964
1966
1966
1966
1965
1965
1965
1966
1967
1967
1966
1966
1967
1967
1967
1966
1966
1967
1968
1970
1971
1973
1975
1977
1978
1980
1981
1981
1981
1982
1983
1986
1988
1989
1990
1990
1989
1988
1987
1985
1983
1981
1979
1978
1978
1977
1974
1971
1968
1967
1967
1968
1969
1968
1967
1967
1967
1969
1970
1970
1970
1969
1969
1969
1970
1970
1970
1969
1968
1968
1968
1970
1971
1971
1972
1972
1972
1973
1972
1972
1971
1971
1972
1973
1974
1973
1972
1972
1972
1973
1974
1976
1976
1976
1975
1974
1974
1974
1976
1977
1977
1977
1976
1976
1976
1976
1976
1976
1976
1977
1980
1982
1983
1983
1982
1979
1977
1975
1974
1974
1975
1977
1979
1980
1980
1978
1976
1976
1977
1978
1979
1979
1977
1974
1971
1969
1969
1974
1987
2007
2030
2046
2047
2032
2007
1983
1969
1965
1969
1975
1978
1978
1978
1977
1977
1977
1977
1977
1977
1977
1979
1981
1984
1985
1986
1985
1983
1983
1983
1984
1986
1987
1988
1987
1985
1985
1985
1988
1991
1994
1996
1996
1995
1995
1997
1999
2002
2003
2004
2005
2006
2006
2007
2007
2006
2004
2003
2001
1999
1997
1996
1994
1992
1989
1987
1984
1982
1981
1981
1981
1982
1982
1981
1980
1979
1978
1978
1978
1979
1981
1982
1982
1982
1980
1979
1977
1976
1977
1979
1981
1983
1983
1983
1982
1981
1981
1981
1981
1981
1980
1979
1979
1979
1979
1980
1981
1982
1982
1981
1981
1980
1979
1979
1979
1980
1981
1981
1979
1978
1977
1978
1979
1982
1983
1983
1982
1981
1981
1981
1982
1983
1983
1982
1980
1978
1977
1977
1978
1979
1980
1980
1980
1979
1979
1978
1977
1974
1972
1973
1976
1980
1981
1979
1975
1971
1971
1980
1999
2021
2039
2045
2036
2014
1990
1972
1964
1965
1970
1973
1975
1977
1978
1980
1979
1978
1975
1974
1974
1975
1976
1978
1979
1980
1980
1980
1980
1979
1979
1978
1978
1979
1980
1981
1981
1982
1982
1982
1983
1984
1985
1987
1988
1990
1992
1992
1993
1994
1996
1997
1998
1997
1997
1997
1997
1997
1996
1993
1990
1987
1985
1983
1982
1982
1981
1979
1977
1974
1972
1971
1972
1973
1975
1975
1974
1973
1972
1971
1971
1971
1971
1971
1972
1973
1975
1976
1976
1975
1974
1972
1971
1970
1970
1972
1973
1974
1974
1973
1971
1971
1971
1973
1975
1975
1974
1973
1973
1973
1973
1974
1974
1974
1973
1972
1971
1971
1971
1972
1973
1973
1973
1973
1973
1974
1974
1975
1976
1976
1976
1976
1975
1974
1973
1972
1972
1972
1972
1971
1971
1971
1972
1973
1973
1973
1972
1971
1970
1970
1970
1969
1968
1966
1964
1964
1970
1985
2006
2027
2038
2035
2017
1993
1972
1960
1959
1963
1968
1970
1970
1969
1969
1969
1970
1970
1971
1970
1969
1969
1969
1969
1970
1971
1972
1974
1975
1975
1973
1972
1973
1974
1975
1977
1978
1978
1979
1981
1983
1985
1986
1987
1988
1990
1992
1993
1994
1995
1996
1998
1999
1999
1998
1996
1994
1994
1995
1995
1993
1989
1986
1984
1983
1982
1981
1980
1978
1976
1975
1975
1975
1976
1977
1977
1978
1979
1979
1980
1979
1977
1976
1976
1977
1978
1979
1979
1979
1979
1979
1979
1980
1980
1980
1981
1983
1984
1984
1984
1983
1982
1981
1980
1980
1980
1982
1984
1987
1989
1990
1989
1988
1987
1987
1988
1989
1990
1989
1989
1988
1987
1987
1988
1990
1992
1994
1995
1995
1994
1993
1992
1991
1990
1989
1988
1987
1986
1987
1988
1989
1989
1989
1989
1989
1991
1992
1992
1991
1990
1989
1987
1985
1984
1984
1988
2001
2020
2041
2054
2052
2037
2012
1989
1977
1975
1981
1988
1991
1992
1992
1991
1990
1990
1990
1992
1994
1995
1994
1993
1992
1992
1994
1997
1999
1999
1999
1998
1997
1997
1997
1998
1999
1999
2000
2000
2001
2003
2004
2006
2007
2008
2009
2011
2014
2016
2017
2017
2016
2016
2015
2014
2013
2012
2013
2014
2013
2011
2006
2001
1997
1996
1996
1995
1993
1990
1989
1988
1989
1990
1990
1989
1988
1986
1985
1985
1984
1984
1985
1985
1986
1986
1985
1985
1985
1986
1988
1990
1991
1990
1987
1983
1979
1978
1978
1980
1982
1984
1984
1983
1982
1980
1979
1979
1981
1984
1987
1990
1992
1993
1993
1992
1992
1992
1994
1995
1997
1998
1999
2000
2000
1999
1998
1997
1997
1999
2001
2002
2002
2001
2000
1998
1998
1998
1998
1998
1998
1997
1997
1996
1995
1993
1992
1990
1988
1987
1985
1987
1996
2013
2035
2052
2056
2045
2021
1996
1979
1972
1975
1980
1983
1984
1984
1983
1982
1981
1981
1981
1982
1981
1981
1981
1981
1981
1980
1980
1979
1978
1978
1978
1978
1977
1975
1974
1974
1975
1978
1980
1981
1981
1981
1981
1982
1985
1987
1989
1991
1993
1993
1993
1993
1992
1992
1992
1992
1991
1990
1989
1988
1987
1986
1984
1981
1978
1975
1972
1972
1972
1974
1975
1974
1972
1970
1969
1969
1970
1971
1972
1972
1972
1972
1971
1971
1970
1971
1972
1973
1974
1974
1974
1974
1973
1972
1971
1970
1970
1970
1972
1974
1975
1975
1974
1972
1970
1970
1970
1972
1974
1975
1974
1971
1969
1968
1968
1969
1971
1972
1972
1971
1970
1969
1970
1972
1974
1976
1976
1976
1974
1973
1972
1971
1970
1970
1969
1968
1967
1967
1968
1969
1969
1969
1967
1966
1965
1965
1965
1965
1963
1962
1965
1976
1995
2015
2030
2031
2017
1994
1971
1955
1949
1952
1957
1961
1964
1965
1964
1963
1962
1963
1964
1965
1964
1962
1961
1961
1964
1967
1969
1969
1968
1966
1965
1964
1965
1966
1968
1969
1969
1968
1966
1965
1967
1970
1973
1976
1978
1980
1981
1982
1983
1983
1983
1984
1985
1987
1987
1986
1984
1982
1981
1982
1982
1981
1979
1975
1972
1969
1968
1968
1967
1965
1962
1960
1960
1961
1963
1965
1965
1965
1964
1963
1963
1964
1964
1965
1965
1964
1963
1962
1962
1963
1965
1966
1966
1966
1965
1965
1965
1966
1966
1964
1963
1962
1962
1964
1966
1969
1970
1971
1970
1969
1968
1968
1967
1968
1969
1969
1967
1965
1965
1966
1969
1972
1975
1975
1974
1972
1972
1973
1974
1974
1974
1972
1970
1968
1966
1965
1967
1969
1971
1972
1972
1971
1970
1970
1971
1972
1971
1969
1967
1963
1961
1964
1976
1997
2021
2037
2039
2025
2001
1978
1962
1958
1960
1964
1967
1969
1969
1969
1968
1967
1967
1968
1969
1970
1970
1970
1969
1970
1970
1971
1972
1972
1972
1972
1972
1973
1973
1974
1975
1976
1977
1978
1978
1979
1980
1982
1983
1983
1984
1985
1987
1990
1992
1993
1993
1993
1994
1995
1996
1996
1995
1994
1991
1989
1987
1986
1985
1984
1983
1983
1982
1980
1977
1975
1975
1976
1978
1980
1982
1982
1981
1979
1977
1977
1977
1978
1979
1980
1980
1980
1978
1976
1973
1971
1972
1976
1980
1982
1982
1979
1976
1974
1975
1978
1980
1981
1980
1979
1978
1978
1978
1979
1980
1980
1980
1980
1980
1981
1981
1981
1981
1981
1982
1982
1983
1984
1985
1985
1985
1985
1985
1984
1983
1982
1981
1980
1981
1981
1982
1981
1980
1979
1979
1979
1981
1982
1983
1983
1982
1980
1978
1977
1978
1986
2003
2024
2044
2050
2041
2017
1988
1967
1958
1962
1971
1979
1983
1982
1979
1978
1978
1979
1980
1981
1981
1981
1983
1984
1986
1986
1985
1984
1983
1983
1984
1985
1985
1986
1985
1985
1985
1987
1989
1992
1994
1995
1995
1995
1995
1996
1996
1997
1999
2002
2004
2006
2006
2006
2005
2005
2005
2004
2004
2003
2001
1998
1996
1993
1990
1987
1983
1980
1977
1976
1977
1978
1979
1979
1979
1979
1979
1979
1979
1979
1977
1976
1974
1974
1975
1976
1976
1976
1976
1976
1976
1977
1977
1978
1978
1978
1979
1980
1980
1979
1978
1978
1978
1979
1980
1981
1981
1981
1980
1980
1980
1980
1980
1979
1978
1978
1979
1981
1983
1985
1985
1985
1984
1983
1982
1982
1981
1979
1976
1975
1975
1978
1981
1983
1982
1979
1976
1975
1977
1980
1983
1983
1981
1976
1972
1969
1971
1983
2003
2026
2042
2043
2026
2000
1974
1958
1955
1959
1964
1967
1969
1970
1971
1972
1973
1972
1971
1970
1970
1970
1970
1970
1970
1970
1971
1973
1974
1974
1974
1974
1974
1975
1976
1977
1977
1976
1975
1975
1975
1977
1980
1983
1985
1985
1985
1984
1986
1988
1992
1993
1993
1992
1991
1990
1989
1988
1986
1984
1981
1979
1977
1975
1972
1970
1968
1966
1966
1965
1965
1965
1965
1965
1966
1967
1966
1965
1964
1963
1962
1962
1962
1963
1965
1965
1964
1963
1962
1963
1965
1968
1970
1970
1969
1968
1967
1967
1967
1968
1967
1967
1966
1966
1966
1967
1968
1969
1968
1967
1967
1967
1968
1970
1971
1972
1972
1972
1972
1971
1970
1968
1968
1969
1971
1973
1974
1973
1973
1973
1973
1972
1970
1968
1968
1969
1971
1973
1973
1972
1969
1967
1965
1966
1972
1988
2010
2031
2041
2035
2013
1986
1964
1952
1951
1957
1964
1968
1970
1970
1969
1969
1969
1969
1969
1968
1966
1964
1964
1966
1969
1970
1971
1970
1969
1968
1968
1968
1970
1971
1973
1974
1975
1975
1975
1974
1974
1974
1975
1976
1977
1978
1978
1978
1978
1979
1981
1983
1985
1986
1986
1984
1982
1981
1979
1977
1975
1973
1970
1968
1965
1962
1961
1960
1961
1962
1962
1961
1960
1959
1958
1958
1958
1959
1959
1960
1960
1961
1961
1960
1959
1959
1960
1962
1964
1964
1964
1962
1960
1959
1959
1961
1963
1964
1965
1965
1965
1964
1963
1963
1962
1962
1963
1963
1964
1963
1964
1964
1965
1965
1965
1964
1964
1965
1967
1969
1969
1969
1969
1968
1967
1965
1964
1963
1964
1965
1967
1968
1967
1966
1964
1963
1965
1966
1967
1967
1966
1965
1964
1964
1963
1962
1960
1960
1965
1978
1999
2021
2036
2037
2022
1999
1977
1963
1958
1960
1963
1965
1966
1967
1968
1969
1970
1971
1972
1972
1973
1973
1973
1973
1973
1973
1973
1974
1975
1975
1976
1976
1976
1976
1977
1977
1978
1979
1981
1983
1983
1982
1981
1981
1983
1987
1992
1996
1997
1998
1998
1997
1997
1997
1997
1996
1996
1996
1995
1992
1988
1984
1980
1977
1976
1976
1977
1977
1977
1975
1972
1969
1968
1969
1971
1973
1974
1973
1971
1970
1969
1969
1970
1970
1970
1970
1972
1973
1975
1977
1977
1976
1974
1973
1973
1974
1976
1977
1976
1975
1974
1973
1973
1973
1972
1972
1973
1974
1975
1975
1974
1973
1973
1973
1975
1977
1978
1978
1977
1977
1977
1978
1979
1981
1981
1981
1980
1978
1977
1977
1977
1978
1977
1977
1976
1977
1979
1981
1983
1983
1983
1981
1980
1978
1978
1978
1978
1978
1978
1978
1980
1988
2005
2026
2044
2048
2037
2013
1986
1968
1963
1967
1975
1980
1981
1980
1980
1981
1983
1984
1984
1984
1983
1983
1985
1988
1991
1993
1993
1992
1990
1989
1989
1991
1993
1994
1994
1994
1994
1995
1996
1998
1998
1998
2000
2002
2005
2008
2009
2010
2011
2012
2013
2013
2013
2013
2013
2013
2013
2011
2009
2006
2003
2002
2002
2002
2001
1999
1996
1993
1992
1991
1991
1991
1991
1990
1990
1989
1988
1987
1986
1987
1989
1991
1993
1993
1992
1991
1991
1991
1991
1991
1990
1990
1990
1991
1993
1994
1994
1993
1991
1989
1989
1989
1990
1991
1991
1989
1988
1987
1987
1988
1988
1987
1986
1986
1986
1987
1988
1989
1989
1989
1989
1990
1992
1993
1993
1992
1990
1989
1988
1989
1989
1989
1987
1986
1985
1985
1986
1987
1986
1985
1983
1981
1980
1980
1981
1981
1983
1991
2007
2028
2046
2052
2044
2022
1995
1975
1965
1966
1972
1978
1981
1981
1979
1978
1978
1980
1984
1986
1985
1984
1982
1981
1981
1982
1983
1984
1985
1985
1984
1983
1982
1983
1984
1987
1989
1991
1992
1993
1992
1990
1988
1988
1990
1995
2000
2003
2004
2004
2002
2001
2000
2000
2001
2002
2002
2001
1999
1997
1995
1994
1992
1990
1987
1984
1981
1980
1979
1978
1977
1976
1975
1974
1973
1973
1973
1974
1976
1978
1978
1976
1973
1969
1966
1965
1964
1964
1964
1963
1964
1964
1965
1966
1966
1967
1967
1966
1966
1966
1967
1967
1968
1969
1969
1969
1968
1968
1968
1967
1967
1967
1966
1966
1966
1967
1969
1971
1974
1975
1975
1974
1971
1968
1967
1967
1968
1970
1971
1971
1970
1968
1967
1967
1967
1968
1969
1969
1969
1967
1966
1965
1964
1964
1971
1986
2008
2030
2042
2038
2017
1989
1966
1954
1954
1959
1965
1968
1970
1971
1971
1970
1968
1967
1966
1967
1968
1968
1967
1966
1966
1968
1969
1970
1970
1970
1970
1972
1974
1976
1977
1977
1975
1974
1973
1973
1975
1978
1981
1983
1985
1985
1985
1985
1986
1987
1989
1990
1990
1990
1990
1991
1992
1991
1989
1986
1982
1979
1976
1975
1973
1971
1969
1967
1966
1966
1966
1967
1968
1968
1967
1966
1965
1964
1964
1966
1967
1968
1968
1968
1967
1967
1967
1968
1968
1968
1967
1967
1966
1966
1966
1967
1967
1968
1967
1967
1967
1968
1969
1970
1971
1971
1971
1971
1971
1971
1972
1973
1974
1974
1974
1973
1972
1971
1971
1972
1974
1975
1976
1976
1976
1975
1975
1975
1975
1974
1973
1972
1971
1970
1970
1970
1969
1967
1966
1966
1967
1968
1969
1970
1969
1968
1968
1967
1966
1965
1965
1964
1966
1974
1990
2011
2031
2040
2033
2013
1988
1969
1959
1960
1965
1969
1970
1971
1971
1971
1971
1972
1973
1973
1973
1972
1972
1972
1972
1973
1974
1975
1976
1977
1978
1979
1982
1984
1986
1988
1990
1991
1991
1991
1991
1992
1992
1993
1994
1995
1995
1996
1998
1999
2000
2001
2001
2000
1999
1999
1999
1999
1998
1997
1995
1992
1990
1987
1986
1984
1983
1981
1979
1977
1975
1974
1973
1972
1973
1974
1976
1976
1977
1976
1975
1974
1973
1972
1971
1972
1972
1973
1973
1973
1973
1973
1974
1974
1974
1974
1973
1974
1974
1975
1976
1976
1975
1975
1974
1975
1975
1976
1977
1978
1979
1979
1979
1978
1978
1978
1979
1980
1981
1982
1982
1982
1983
1984
1986
1989
1991
1992
1992
1992
1991
1989
1988
1987
1986
1986
1987
1988
1990
1991
1992
1992
1991
1989
1988
1988
1990
1991
1992
1992
1991
1991
1991
1994
2003
2020
2041
2058
2062
2051
2028
2001
1982
1975
1978
1986
1992
1995
1996
1996
1995
1993
1992
1992
1992
1993
1994
1996
1998
1998
1998
1997
1996
1995
1994
1995
1996
1997
1997
1998
1998
1998
1998
1998
1998
1998
1998
1999
2001
2003
2005
2007
2008
2008
2008
2008
2009
2011
2012
2012
2012
2010
2008
2007
2005
2004
2002
2001
1999
1998
1997
1996
1994
1992
1990
1988
1988
1988
1988
1988
1988
1988
1988
1988
1988
1989
1989
1990
1991
1991
1990
1989
1988
1987
1986
1986
1987
1987
1988
1988
1988
1987
1986
1986
1986
1987
1988
1988
1989
1990
1990
1989
1988
1987
1987
1987
1989
1990
1991
1992
1991
1990
1990
1989
1989
1990
1991
1993
1993
1994
1996
1997
1998
1998
1999
2000
2002
2003
2003
2001
1999
1996
1994
1994
1995
1996
1996
1996
1997
1998
2000
2000
2000
1999
1999
2000
2001
2001
2000
1998
1996
1996
2004
2020
2043
2063
2073
2065
2043
2015
1992
1981
1981
1987
1994
1997
1999
2000
2000
2000
2000
1999
1999
1999
1999
1999
2000
2001
2002
2002
2002
2002
2001
2001
2002
2003
2004
2005
2005
2006
2006
2006
2007
2007
2008
2009
2010
2012
2013
2014
2015
2015
2015
2016
2017
2019
2020
2021
2021
2021
2020
2019
2016
2014
2011
2008
2006
2005
2003
2002
2001
1999
1997
1996
1995
1995
1995
1996
1995
1995
1994
1994
1994
1995
1995
1995
1995
1995
1994
1994
1993
1992
1991
1991
1992
1994
1996
1997
1997
1996
1995
1994
1993
1992
1992
1992
1993
1995
1996
1998
1998
1998
1998
1997
1997
1998
1998
1997
1997
1997
1997
1996
1996
1996
1996
1997
1997
1997
1997
1995
1994
1994
1993
1994
1994
1995
1996
1997
1998
1999
1999
1998
1996
1994
1992
1991
1990
1989
1989
1989
1989
1989
1989
1988
1988
1988
1989
1988
1987
1986
1985
1984
1983
1982
1981
1980
1982
1993
2011
2034
2050
2054
2042
2017
1990
1972
1966
1969
1975
1979
1980
1978
1976
1974
1973
1973
1974
1974
1975
1974
1974
1973
1973
1973
1972
1972
1972
1973
1973
1973
1973
1973
1973
1974
1975
1977
1978
1979
1979
1980
1980
1980
1981
1981
1982
1984
1986
1988
1990
1990
1990
1990
1989
1989
1988
1987
1986
1985
1983
1981
1977
1974
1971
1968
1965
1964
1963
1963
1963
1962
1962
1961
1960
1959
1959
1959
1960
1960
1961
1961
1961
1961
1960
1959
1959
1959
1960
1961
1962
1961
1961
1960
1959
1958
1958
1958
1959
1959
1959
1959
1958
1958
1957
1956
1956
1956
1957
1959
1960
1961
1961
1960
1959
1958
1958
1958
1958
1959
1959
1959
1959
1957
1956
1955
1956
1957
1958
1959
1959
1959
1959
1959
1960
1960
1960
1960
1961
1961
1961
1961
1960
1959
1958
1957
1957
1958
1959
1961
1961
1961
1960
1959
1959
1959
1959
1961
1963
1965
1968
1970
1972
1971
1970
1969
1969
1968
1967
1967
1966
1965
1965
1965
1965
1964
1964
1963
1964
1966
1967
1967
1967
1965
1963
1962
1962
1962
1965
1975
1993
2016
2035
2041
2030
2005
1978
1958
1950
1952
1957
1962
1964
1964
1964
1963
1962
1962
1963
1964
1964
1964
1964
1963
1962
1961
1960
1961
1962
1964
1965
1967
1967
1967
1966
1965
1965
1965
1966
1968
1969
1970
1971
1972
1972
1973
1974
1975
1976
1978
1980
1982
1983
1983
1982
1981
1980
1979
1979
1979
1979
1978
1976
1973
1969
1966
1963
1961
1961
1961
1961
1961
1960
1959
1959
1958
1958
1958
1959
1960
1961
1962
1961
1961
1960
1960
1960
1960
1959
1958
1958
1959
1960
1961
1962
1962
1962
1963
1963
1963
1963
1963
1963
1962
1960
1959
1958
1959
1960
1960
1961
1961
1961
1961
1961
1961
1961
1962
1962
1963
1964
1966
1967
1968
1969
1969
1968
1967
1967
1967
1968
1968
1968
1968
1968
1968
1969
1970
1970
1970
1969
1969
1969
1968
1967
1966
1965
1965
1964
1964
1965
1965
1965
1966
1966
1966
1967
1967
1967
1968
1968
1967
1967
1966
1965
1965
1969
1981
2001
2026
2044
2046
2029
2001
1973
1955
1951
1957
1967
1973
1975
1976
1975
1973
1971
1970
1969
1969
1969
1969
1969
1969
1969
1970
1972
1974
1975
1976
1976
1977
1977
1977
1977
1977
1978
1978
1979
1979
1980
1982
1984
1987
1990
1992
1992
1993
1993
1995
1996
1997
1998
1998
1998
1997
1997
1996
1996
1994
1991
1988
1984
1980
1977
1974
1973
1972
1972
1972
1972
1972
1970
1968
1966
1966
1967
1968
1968
1969
1968
1968
1968
1968
1967
1967
1967
1968
1968
1968
1967
1967
1966
1966
1966
1964
1962
1961
1960
1960
1962
1964
1966
1966
1965
1963
1962
1962
1962
1963
1964
1965
1965
1965
1964
1963
1962
1962
1962
1963
1964
1964
1965
1965
1964
1964
1964
1964
1965
1965
1965
1964
1964
1964
1965
1967
1967
1968
1967
1967
1966
1967
1968
1968
1967
1965
1963
1960
1959
1960
1962
1963
1964
1963
1962
1961
1961
1961
1962
1963
1962
1960
1959
1957
1956
1957
1964
1979
2001
2025
2038
2036
2016
1988
1963
1949
1947
1953
1960
1963
1964
1964
1962
1962
1962
1962
1962
1961
1961
1961
1962
1964
1965
1966
1965
1963
1962
1961
1962
1963
1964
1965
1967
1968
1970
1970
1970
1970
1969
1970
1972
1975
1977
1979
1980
1980
1981
1981
1981
1982
1983
1985
1986
1988
1988
1986
1983
1980
1977
1975
1973
1970
1968
1966
1964
1962
1960
1959
1958
1958
1959
1960
1961
1961
1960
1960
1960
1960
1961
1961
1961
1960
1960
1960
1959
1959
1959
1959
1959
1959
1960
1960
1960
1960
1960
1961
1962
1963
1964
1965
1964
1964
1965
1965
1966
1967
1966
1965
1963
1963
1965
1967
1968
1969
1969
1968
1967
1966
1967
1968
1968
1969
1969
1969
1969
1968
1968
1968
1968
1968
1969
1970
1970
1970
1970
1970
1970
1971
1972
1973
1974
1975
1976
1975
1974
1973
1972
1971
1970
1970
1970
1970
1970
1969
1968
1967
1967
1968
1969
1970
1971
1970
1969
1967
1966
1964
1963
1968
1982
2005
2030
2047
2048
2030
2002
1974
1957
1953
1957
1964
1968
1970
1969
1968
1967
1967
1967
1968
1969
1969
1970
1970
1971
1972
1973
1973
1972
1971
1972
1973
1974
1975
1975
1976
1976
1977
1978
1979
1980
1981
1983
1985
1987
1989
1990
1990
1991
1992
1993
1994
1995
1997
1998
2000
2001
2000
1999
1996
1994
1992
1990
1988
1986
1984
1981
1979
1977
1976
1975
1975
1974
1974
1974
1974
1973
1972
1972
1971
1971
1972
1972
1973
1974
1974
1975
1975
1975
1975
1974
1974
1975
1976
1977
1979
1979
1978
1976
1975
1974
1974
1975
1976
1977
1977
1977
1976
1976
1976
1976
1977
1977
1978
1978
1978
1978
1978
1977
1977
1978
1978
1979
1979
1979
1979
1979
1979
1978
1977
1977
1977
1978
1979
1980
1981
1981
1980
1979
1978
1978
1979
1982
1984
1986
1987
1986
1985
1985
1984
1984
1983
1982
1982
1982
1982
1982
1981
1981
1980
1981
1981
1982
1982
1983
1983
1983
1982
1980
1978
1975
1975
1980
1995
2019
2044
2059
2058
2039
2011
1986
1971
1968
1973
1978
1981
1982
1981
1982
1982
1983
1984
1985
1986
1986
1986
1985
1985
1984
1983
1983
1983
1984
1985
1985
1986
1986
1986
1987
1987
1988
1989
1990
1991
1993
1995
1996
1997
1998
1998
1999
2001
2003
2006
2007
2007
2007
2006
2006
2005
2005
2005
2005
2005
2003
2001
1997
1994
1991
1990
1989
1988
1988
1988
1987
1986
1984
1983
1982
1982
1983
1984
1985
1985
1985
1985
1986
1987
1988
1988
1988
1988
1988
1988
1988
1988
1988
1988
1988
1989
1989
1990
1991
1992
1993
1994
1993
1993
1992
1991
1990
1991
1991
1992
1992
1992
1991
1991
1991
1992
1992
1992
1991
1991
1991
1992
1993
1993
1994
1994
1994
1994
1994
1995
1995
1995
1994
1994
1994
1995
1996
1997
1998
1999
1999
2000
1999
1999
1998
1998
1997
1997
1997
1997
1997
1996
1996
1996
1995
1995
1995
1995
1996
1997
1997
1997
1996
1994
1990
1986
1983
1982
1986
1999
2021
2046
2061
2061
2044
2014
1987
1970
1967
1973
1982
1987
1988
1988
1987
1986
1986
1987
1988
1990
1991
1992
1993
1993
1993
1993
1993
1994
1995
1996
1997
1997
1997
1997
1997
1998
1998
1999
2000
2001
2002
2003
2005
2006
2008
2009
2010
2012
2014
2015
2016
2017
2016
2015
2013
2011
2011
2011
2011
2011
2010
2008
2004
2000
1997
1994
1992
1991
1990
1989
1989
1988
1988
1988
1987
1987
1986
1987
1987
1988
1989
1989
1988
1988
1987
1987
1988
1990
1991
1992
1992
1993
1993
1994
1995
1996
1995
1995
1994
1994
1995
1996
1996
1996
1995
1995
1995
1996
1998
2000
2001
2002
2002
2001
2000
1999
1999
1999
2000
2000
1999
1997
1994
1991
1989
1988
1988
1989
1989
1990
1990
1990
1989
1988
1987
1987
1988
1990
1992
1994
1995
1995
1995
1995
1996
1996
1996
1996
1995
1993
1991
1989
1988
1988
1988
1989
1990
1991
1992
1992
1992
1991
1990
1990
1989
1987
1986
1985
1983
1983
1988
2002
2024
2047
2061
2060
2043
2017
1992
1978
1975
1979
1983
1985
1985
1984
1984
1984
1985
1985
1986
1986
1985
1985
1984
1984
1984
1985
1986
1987
1987
1987
1987
1987
1986
1986
1987
1988
1989
1991
1991
1992
1991
1990
1990
1991
1993
1996
1999
2002
2004
2005
2006
2007
2008
2008
2009
2009
2009
2009
2007
2006
2003
2000
1997
1994
1992
1990
1988
1986
1984
1982
1980
1978
1978
1979
1980
1981
1981
1981
1980
1980
1980
1980
1980
1979
1979
1980
1980
1981
1981
1981
1981
1980
1980
1980
1980
1981
1982
1984
1984
1985
1985
1984
1983
1982
1982
1982
1983
1983
1984
1983
1983
1982
1981
1981
1982
1982
1983
1983
1983
1983
1983
1982
1982
1982
1982
1982
1982
1982
1982
1982
1982
1982
1982
1982
1982
1982
1982
1983
1982
1982
1982
1982
1982
1984
1985
1986
1987
1988
1988
1988
1988
1987
1986
1984
1983
1983
1983
1983
1983
1982
1982
1981
1981
1981
1981
1982
1983
1984
1984
1983
1981
1979
1977
1977
1985
2003
2027
2049
2060
2053
2032
2003
1979
1967
1967
1972
1977
1980
1981
1981
1981
1980
1980
1979
1980
1980
1981
1982
1982
1982
1982
1981
1981
1981
1981
1981
1982
1983
1984
1985
1985
1985
1985
1985
1986
1987
1989
1991
1993
1994
1995
1996
1998
1999
2001
2002
2004
2005
2005
2005
2005
2004
2002
2001
2000
1999
1998
1996
1994
1991
1988
1985
1983
1981
1980
1979
1979
1978
1978
1977
1977
1976
1976
1976
1976
1976
1977
1978
1978
1979
1978
1977
1975
1975
1974
1975
1975
1976
1976
1976
1975
1974
1974
1974
1974
1975
1976
1976
1976
1977
1976
1976
1975
1975
1975
1975
1976
1977
1977
1977
1977
1977
1976
1975
1975
1975
1976
1976
1977
1977
1977
1976
1976
1975
1975
1975
1975
1976
1976
1976
1975
1974
1973
1972
1971
1971
1971
1971
1971
1970
1969
1969
1970
1972
1974
1975
1977
1978
1978
1978
1977
1976
1974
1973
1972
1971
1971
1971
1971
1970
1970
1970
1969
1969
1969
1970
1970
1971
1970
1969
1967
1965
1963
1963
1969
1985
2009
2032
2046
2042
2022
1993
1966
1951
1947
1951
1956
1959
1959
1957
1954
1951
1949
1948
1949
1950
1951
1952
1952
1951
1950
1948
1948
1948
1948
1948
1948
1947
1946
1946
1946
1947
1948
1949
1951
1952
1953
1955
1955
1955
1954
1953
1951
1949
1949
1948
1949
1949
1949
1949
1948
1947
1946
1944
1942
1941
1939
1937
1936
1934
1931
1929
1926
1924
1923
1922
1921
1920
1919
1919
1919
1919
1919
1919
1920
1921
1922
1923
1924
1925
1925
1925
1925
1925
1925
1925
1926
1926
1926
1926
1926
1927
1927
1928
1928
1929
1930
1931
1931
1932
1932
1932
1932
1932
1932
1933
1934
1934
1934
1933
1932
1931
1931
1931
1931
1931
1931
1932
1932
1931
1931
1931
1931
1931
1931
1931
1931
1932
1933
1934
1934
1933
1932
1931
1932
1933
1934
1934
1933
1932
1931
1931
1931
1931
1931
1930
1929
1929
1929
1928
1928
1927
1927
1927
1927
1928
1929
1930
1931
1932
1933
1932
1931
1930
1930
1935
1947
1970
1997
2018
2025
2012
1984
1954
1933
1926
1931
1939
1945
1947
1947
1946
1946
1946
1947
1949
1950
1950
1951
1952
1952
1951
1951
1951
1951
1952
1953
1954
1954
1954
1955
1955
1956
1956
1957
1958
1960
1962
1963
1965
1966
1967
1968
1970
1972
1975
1977
1978
1980
1981
1981
1981
1979
1978
1978
1977
1977
1977
1975
1972
1969
1966
1963
1960
1958
1957
1956
1954
1952
1951
1950
1949
1949
1949
1949
1949
1949
1949
1950
1950
1951
1952
1952
1951
1951
1951
1952
1953
1954
1955
1956
1956
1955
1956
1956
1957
1958
1960
1960
1961
1960
1960
1959
1959
1960
1962
1963
1965
1966
1966
1965
1964
1963
1963
1963
1963
1964
1964
1964
1964
1964
1964
1964
1965
1965
1966
1966
1968
1969
1970
1970
1969
1968
1966
1964
1963
1962
1962
1962
1962
1963
1963
1963
1963
1964
1964
1965
1966
1967
1968
1967
1966
1963
1960
1958
1961
1974
1997
2024
2043
2045
2028
1999
1970
1951
1946
1950
1958
1963
1965
1966
1965
1964
1962
1962
1963
1965
1966
1967
1967
1966
1966
1966
1966
1966
1967
1968
1969
1970
1970
1970
1970
1971
1971
1972
1973
1974
1975
1977
1978
1978
1979
1981
1982
1984
1986
1988
1990
1991
1992
1991
1990
1989
1987
1985
1983
1982
1980
1977
1973
1970
1966
1963
1961
1959
1958
1957
1956
1955
1955
1955
1955
1955
1955
1955
1955
1956
1957
1957
1957
1957
1957
1957
1957
1957
1956
1956
1956
1957
1958
1960
1961
1961
1961
1960
1961
1962
1964
1964
1964
1963
1962
1962
1962
1963
1963
1964
1964
1965
1965
1965
1964
1963
1962
1962
1962
1963
1964
1965
1965
1965
1965
1965
1965
1966
1968
1970
1971
1972
1972
1972
1972
1972
1972
1972
1971
1971
1971
1972
1973
1974
1974
1974
1974
1975
1976
1978
1981
1983
1984
1984
1983
1982
1980
1980
1985
1999
2020
2044
2058
2058
2043
2016
1990
1974
1969
1973
1977
1979
1979
1977
1975
1972
1970
1969
1968
1968
1969
1969
1969
1969
1969
1971
1973
1976
1978
1980
1980
1981
1981
1981
1981
1981
1980
1979
1979
1980
1982
1985
1987
1987
1987
1986
1985
1987
1989
1993
1995
1996
1995
1993
1992
1993
1993
1994
1993
1990
1986
1982
1978
1976
1975
1975
1974
1973
1972
1970
1969
1969
1969
1970
1970
1970
1970
1971
1971
1971
1972
1973
1974
1975
1975
1975
1975
1975
1976
1978
1979
1980
1980
1979
1979
1979
1979
1978
1979
1979
1980
1981
1982
1983
1982
1982
1981
1981
1982
1983
1985
1986
1985
1983
1981
1979
1979
1980
1982
1984
1985
1986
1986
1986
1986
1987
1988
1990
1992
1993
1993
1993
1993
1992
1992
1990
1989
1987
1985
1985
1986
1987
1989
1991
1990
1989
1988
1987
1987
1987
1988
1989
1989
1988
1987
1986
1991
2003
2023
2045
2058
2058
2043
2016
1990
1972
1966
1970
1977
1983
1986
1987
1986
1984
1983
1982
1981
1979
1978
1978
1979
1981
1984
1986
1987
1987
1987
1986
1987
1988
1990
1992
1993
1993
1993
1994
1996
1998
2000
2001
2001
2001
2002
2004
2006
2008
2009
2010
2012
2014
2017
2019
2020
2020
2019
2017
2016
2014
2012
2010
2007
2004
2001
1998
1995
1992
1990
1989
1988
1988
1988
1987
1986
1985
1984
1984
1983
1983
1983
1983
1984
1984
1984
1984
1984
1983
1983
1983
1983
1983
1984
1984
1984
1984
1984
1984
1984
1984
1984
1984
1984
1985
1984
1984
1984
1983
1983
1983
1983
1984
1985
1985
1985
1984
1983
1983
1982
1984
1986
1988
1991
1992
1994
1994
1995
1995
1996
1996
1997
1997
1998
1998
1997
1997
1996
1995
1995
1994
1994
1994
1995
1995
1996
1996
1996
1996
1996
1997
1997
1997
1996
1994
1993
1995
2005
2024
2048
2066
2071
2059
2036
2010
1991
1984
1985
1991
1995
1997
1997
1997
1996
1996
1996
1996
1996
1996
1995
1994
1994
1995
1995
1996
1996
1995
1995
1994
1995
1995
1996
1996
1996
1997
1998
1998
1999
1999
1999
2001
2003
2006
2008
2009
2009
2008
2008
2008
2010
2012
2014
2015
2015
2015
2014
2014
2013
2011
2008
2005
2002
2000
1999
1997
1996
1994
1992
1991
1990
1990
1990
1991
1992
1993
1994
1994
1994
1994
1994
1994
1995
1996
1998
1998
1998
1998
1997
1998
1999
2000
2000
2000
1999
1999
2000
2002
2003
2004
2003
2002
2002
2002
2002
2003
2004
2005
2005
2005
2005
2005
2004
2004
2004
2004
2004
2004
2004
2004
2003
2003
2004
2006
2008
2009
2009
2008
2007
2005
2004
2003
2002
2002
2003
2003
2002
2001
2000
1999
1998
1998
1998
1999
2000
2001
2001
1999
1996
1993
1991
1995
2009
2032
2057
2075
2076
2057
2025
1990
1966
1956
1958
1964
1969
1971
1970
1968
1964
1961
1958
1956
1956
1956
1957
1958
1959
1959
1958
1956
1954
1953
1954
1956
1958
1960
1961
1961
1960
1960
1960
1961
1964
1967
1971
1974
1975
1975
1974
1974
1974
1976
1979
1981
1984
1985
1986
1986
1985
1984
1983
1982
1981
1981
1980
1979
1977
1975
1973
1971
1969
1968
1966
1964
1963
1962
1962
1962
1962
1962
1963
1964
1966
1970
1974
1977
1980
1981
1982
1982
1981
1980
1979
1979
1981
1984
1986
1988
1988
1987
1985
1985
1986
1988
1990
1992
1993
1993
1992
1991
1991
1992
1993
1995
1996
1996
1995
1994
1993
1992
1992
1992
1993
1994
1995
1995
1995
1995
1996
1996
1996
1995
1994
1993
1992
1992
1992
1992
1991
1990
1989
1988
1988
1988
1989
1990
1990
1989
1987
1984
1981
1978
1976
1981
1996
2020
2046
2062
2061
2042
2013
1985
1969
1966
1972
1978
1982
1982
1981
1980
1979
1979
1980
1981
1983
1983
1983
1983
1983
1982
1982
1982
1983
1984
1985
1986
1986
1986
1986
1986
1986
1986
1987
1987
1988
1989
1990
1991
1991
1992
1993
1995
1997
1999
2000
2001
2001
2001
2000
1999
1998
1997
1995
1994
1992
1989
1987
1984
1981
1978
1975
1973
1972
1971
1970
1970
1969
1968
1967
1966
1966
1967
1968
1969
1969
1969
1969
1968
1967
1967
1967
1966
1966
1966
1967
1968
1968
1968
1968
1968
1968
1968
1969
1969
1970
1970
1970
1970
1969
1968
1968
1968
1969
1970
1970
1970
1970
1969
1968
1967
1967
1968
1969
1971
1972
1973
1973
1972
1971
1971
1971
1972
1973
1974
1975
1975
1975
1975
1974
1972
1971
1970
1970
1970
1970
1971
1970
1970
1970
1970
1970
1971
1971
1972
1973
1973
1972
1971
1968
1965
1964
1969
1983
2006
2032
2049
2050
2034
2007
1979
1961
1956
1959
1965
1970
1972
1972
1972
1971
1971
1970
1970
1970
1970
1971
1972
1972
1973
1973
1972
1972
1973
1973
1974
1976
1977
1977
1978
1978
1978
1978
1979
1981
1982
1983
1985
1986
1988
1989
1990
1991
1993
1994
1996
1998
1999
1999
1999
1998
1997
1996
1995
1993
1992
1990
1987
1984
1982
1980
1978
1977
1975
1974
1973
1973
1973
1974
1974
1973
1972
1972
1972
1972
1973
1974
1975
1975
1975
1974
1974
1974
1974
1974
1975
1975
1976
1976
1976
1975
1974
1974
1975
1976
1977
1977
1978
1977
1977
1977
1977
1977
1977
1977
1977
1978
1978
1978
1978
1977
1976
1976
1976
1977
1978
1978
1978
1978
1977
1977
1977
1976
1977
1977
1978
1979
1979
1980
1981
1981
1981
1981
1981
1981
1982
1982
1981
1981
1980
1979
1978
1978
1978
1978
1978
1978
1979
1979
1979
1979
1978
1978
1978
1978
1977
1976
1974
1973
1975
1986
2006
2031
2051
2058
2048
2024
1997
1976
1967
1968
1973
1977
1980
1980
1980
1979
1977
1975
1973
1972
1972
1972
1972
1973
1973
1974
1975
1975
1975
1975
1975
1976
1976
1977
1977
1979
1980
1981
1982
1983
1984
1985
1986
1988
1990
1992
1993
1994
1995
1997
1998
1999
1999
2000
2000
2001
2001
2000
1999
1996
1993
1990
1987
1985
1983
1981
1980
1978
1976
1974
1973
1972
1972
1972
1972
1973
1973
1974
1974
1974
1973
1973
1973
1973
1974
1975
1975
1975
1975
1975
1975
1975
1975
1976
1977
1978
1979
1978
1977
1975
1974
1973
1974
1975
1976
1977
1978
1978
1977
1976
1976
1976
1976
1976
1977
1977
1978
1978
1978
1977
1976
1976
1976
1978
1980
1981
1981
1981
1981
1981
1980
1980
1980
1980
1981
1982
1982
1983
1983
1983
1983
1983
1982
1981
1981
1982
1983
1984
1984
1982
1980
1978
1977
1977
1978
1980
1982
1984
1986
1986
1986
1986
1988
1989
1990
1990
1988
1986
1984
1983
1988
2001
2023
2048
2066
2069
2054
2029
2002
1984
1977
1979
1984
1988
1989
1989
1989
1989
1988
1988
1988
1988
1988
1988
1990
1991
1992
1993
1993
1992
1991
1990
1991
1992
1994
1995
1997
1997
1998
1998
1998
1998
1999
2000
2002
2005
2007
2010
2012
2014
2015
2017
2018
2020
2022
2024
2025
2026
2026
2025
2023
2022
2020
2018
2016
2014
2012
2009
2007
2005
2004
2002
2002
2002
2002
2002
2003
2003
2003
2004
2005
2005
2005
2004
2005
2005
2007
2008
2008
2008
2008
2008
2009
2010
2010
2011
2011
2011
2012
2012
2012
2013
2013
2013
2014
2014
2015
2015
2014
2014
2013
2013
2013
2014
2014
2015
2015
2015
2015
2015
2014
2013
2013
2012
2012
2012
2011
2010
2009
2007
2005
2005
2005
2007
2008
2009
2009
2009
2009
2009
2008
2007
2007
2006
2005
2005
2003
2001
1999
1998
1998
1999
2000
2001
2003
2003
2003
2002
2001
1999
1997
1994
1992
1992
1998
2014
2038
2062
2076
2072
2050
2020
1993
1979
1978
1984
1991
1994
1994
1994
1993
1992
1992
1992
1993
1993
1994
1994
1993
1993
1992
1992
1992
1993
1993
1993
1993
1993
1993
1993
1993
1993
1994
1995
1996
1998
1999
2000
2001
2002
2003
2005
2006
2008
2010
2012
2013
2014
2014
2014
2014
2014
2013
2012
2010
2008
2006
2003
2000
1997
1994
1991
1989
1986
1985
1984
1983
1983
1983
1982
1981
1981
1981
1981
1981
1981
1980
1980
1979
1978
1977
1977
1978
1978
1979
1979
1979
1979
1978
1978
1977
1977
1976
1977
1977
1978
1978
1978
1978
1977
1976
1976
1976
1976
1976
1977
1977
1977
1977
1976
1976
1975
1975
1975
1975
1975
1975
1975
1975
1974
1973
1972
1972
1972
1973
1974
1975
1975
1976
1976
1976
1975
1975
1975
1975
1974
1974
1973
1971
1970
1969
1969
1970
1970
1970
1971
1971
1971
1971
1971
1970
1970
1969
1968
1966
1964
1963
1967
1978
1998
2023
2043
2048
2034
2008
1981
1962
1955
1958
1964
1967
1968
1968
1968
1968
1968
1968
1968
1968
1967
1968
1968
1969
1969
1970
1970
1970
1970
1970
1970
1970
1970
1970
1971
1972
1973
1974
1975
1976
1977
1977
1978
1979
1981
1983
1986
1988
1990
1991
1992
1992
1993
1993
1993
1993
1993
1993
1992
1990
1987
1984
1980
1977
1974
1973
1972
1971
1970
1968
1967
1965
1964
1963
1964
1964
1965
1965
1965
1965
1964
1964
1964
1964
1964
1965
1965
1965
1965
1965
1965
1964
1964
1964
1964
1965
1966
1966
1966
1965
1964
1963
1963
1963
1964
1965
1965
1966
1965
1965
1964
1963
1962
1962
1962
1962
1962
1963
1963
1963
1962
1961
1960
1960
1960
1961
1962
1962
1962
1962
1962
1962
1961
1961
1960
1959
1959
1960
1961
1961
1962
1962
1961
1961
1961
1961
1961
1961
1960
1959
1958
1957
1955
1953
1953
1953
1954
1955
1955
1955
1954
1952
1951
1951
1951
1950
1949
1948
1946
1946
1952
1967
1990
2014
2028
2025
2003
1973
1945
1928
1923
1925
1929
1931
1931
1931
1932
1932
1933
1932
1931
1929
1927
1926
1926
1928
1929
1930
1931
1929
1927
1925
1924
1924
1925
1926
1928
1929
1931
1933
1934
1936
1938
1939
1942
1944
1947
1950
1952
1954
1955
1957
1960
1963
1965
1968
1969
1969
1968
1967
1965
1962
1958
1954
1951
1948
1946
1945
1943
1941
1939
1937
1937
1936
1937
1938
1938
1938
1938
1936
1934
1932
1930
1929
1929
1930
1930
1931
1932
1933
1934
1933
1933
1932
1931
1931
1931
1930
1929
1927
1926
1925
1925
1925
1926
1927
1927
1928
1929
1930
1931
1933
1934
1935
1936
1938
1940
1942
1944
1945
1945
1945
1944
1943
1943
1944
1944
1945
1945
1944
1944
1943
1942
1942
1943
1945
1946
1947
1947
1946
1944
1942
1942
1942
1944
1945
1946
1946
1946
1945
1943
1941
1939
1938
1937
1937
1937
1938
1938
1938
1937
1938
1939
1940
1941
1941
1939
1937
1934
1931
1927
1923
1923
1932
1952
1979
2004
2016
2010
1989
1961
1939
1927
1925
1929
1934
1936
1937
1935
1933
1930
1928
1927
1927
1927
1928
1928
1929
1930
1931
1932
1932
1931
1931
1932
1933
1934
1934
1935
1936
1938
1940
1942
1943
1943
1944
1946
1948
1950
1952
1953
1953
1955
1957
1960
1963
1965
1966
1966
1965
1964
1962
1961
1959
1957
1954
1950
1948
1947
1946
1945
1943
1940
1936
1932
1930
1929
1928
1929
1928
1927
1926
1925
1924
1924
1924
1925
1926
1926
1926
1925
1924
1923
1923
1924
1925
1926
1927
1927
1928
1929
1930
1931
1933
1935
1937
1939
1940
1940
1940
1940
1941
1943
1946
1950
1954
1957
1959
1960
1960
1959
1958
1956
1953
1951
1950
1950
1951
1951
1950
1948
1946
1944
1943
1944
1945
1947
1948
1948
1948
1947
1947
1947
1948
1948
1947
1946
1944
1941
1938
1936
1933
1932
1931
1931
1931
1932
1934
1934
1935
1934
1933
1933
1932
1929
1927
1923
1919
1920
1930
1950
1975
1997
2004
1993
1969
1943
1924
1917
1918
1923
1925
1926
1926
1927
1929
1931
1933
1935
1935
1934
1932
1930
1929
1930
1933
1934
1934
1932
1929
1927
1927
1928
1930
1932
1934
1936
1935
1934
1932
1932
1934
1938
1943
1947
1950
1952
1954
1957
1960
1962
1965
1966
1967
1969
1971
1972
1973
1972
1970
1967
1963
1959
1956
1953
1951
1948
1946
1944
1944
1946
1949
1952
1954
1954
1952
1950
1949
1949
1949
1949
1948
1947
1947
1948
1949
1950
1948
1944
1940
1937
1936
1936
1937
1938
1939
1938
1937
1935
1933
1932
1932
1932
1934
1934
1935
1935
1934
1933
1932
1931
1930
1930
1929
1928
1927
1927
1927
1927
1927
1926
1925
1924
1923
1922
1922
1923
1924
1925
1926
1925
1924
1923
1923
1924
1926
1928
1930
1931
1932
1931
1931
1931
1932
1934
1937
1941
1944
1948
1952
1954
1955
1955
1954
1953
1952
1952
1953
1954
1955
1954
1952
1949
1947
1949
1959
1979
2004
2025
2033
2023
2001
1975
1955
1946
1946
1950
1954
1956
1956
1955
1954
1953
1953
1954
1956
1957
1957
1958
1958
1957
1956
1955
1954
1955
1956
1959
1961
1962
1963
1963
1963
1964
1965
1967
1969
1971
1973
1975
1976
1977
1977
1977
1977
1979
1981
1983
1986
1988
1989
1990
1990
1990
1989
1989
1988
1987
1985
1983
1981
1978
1976
1973
1971
1970
1969
1968
1967
1966
1965
1965
1964
1965
1966
1967
1968
1969
1969
1969
1969
1967
1966
1965
1964
1963
1963
1963
1963
1962
1962
1963
1963
1963
1963
1961
1961
1961
1962
1964
1966
1967
1967
1967
1967
1967
1967
1966
1966
1965
1964
1962
1962
1961
1961
1961
1960
1961
1961
1963
1964
1965
1965
1964
1964
1964
1964
1965
1967
1968
1971
1976
1982
1988
1993
1997
1998
1999
1999
1999
1998
1996
1993
1991
1991
1992
1994
1997
1998
1999
2000
1999
1999
2000
2001
2003
2004
2004
2003
2000
1995
1993
1997
2010
2031
2052
2065
2063
2047
2022
1999
1985
1980
1981
1983
1984
1984
1984
1983
1981
1979
1978
1977
1977
1976
1976
1976
1977
1978
1979
1979
1979
1978
1977
1976
1976
1977
1979
1980
1982
1983
1984
1985
1986
1986
1986
1986
1986
1986
1987
1988
1991
1995
1999
2001
2001
1999
1998
1997
1997
1998
1997
1994
1992
1989
1986
1984
1982
1980
1979
1977
1975
1973
1971
1969
1968
1967
1966
1966
1966
1966
1966
1965
1964
1963
1963
1964
1966
1968
1968
1968
1967
1966
1965
1965
1966
1967
1970
1972
1974
1975
1975
1973
1972
1971
1972
1974
1977
1979
1979
1977
1975
1974
1974
1974
1975
1975
1977
1978
1979
1979
1978
1977
1977
1977
1978
1979
1979
1979
1980
1983
1988
1994
2000
2004
2005
2005
2005
2004
2003
2003
2003
2005
2007
2009
2012
2014
2014
2012
2010
2008
2006
2006
2006
2007
2010
2014
2019
2024
2027
2028
2028
2027
2025
2023
2020
2017
2015
2013
2014
2021
2037
2055
2071
2074
2061
2037
2011
1992
1985
1986
1990
1992
1992
1991
1991
1992
1994
1997
1999
2000
1999
1998
1997
1997
1997
1998
1998
1997
1997
1997
1998
1998
1998
1997
1996
1996
1997
1997
1996
1995
1995
1995
1998
2001
2005
2008
2011
2013
2015
2017
2018
2019
2019
2019
2019
2020
2023
2025
2026
2024
2020
2015
2009
2004
2000
1999
2000
2001
2000
1998
1995
1994
1994
1995
1994
1993
1991
1989
1989
1990
1990
1990
1989
1988
1987
1986
1987
1988
1989
1989
1987
1985
1982
1980
1979
1979
1979
1980
1981
1982
1983
1985
1985
1986
1986
1986
1987
1988
1988
1988
1986
1984
1982
1980
1979
1978
1977
1976
1974
1972
1970
1969
1969
1971
1973
1976
1978
1978
1977
1976
1976
1976
1977
1977
1977
1976
1975
1975
1976
1977
1978
1977
1975
1973
1972
1973
1974
1976
1977
1976
1975
1973
1972
1971
1971
1970
1972
1982
2001
2024
2043
2047
2034
2008
1981
1962
1956
1958
1964
1968
1968
1968
1967
1966
1965
1966
1968
1971
1973
1973
1973
1971
1970
1969
1969
1970
1971
1971
1971
1971
1971
1971
1972
1972
1971
1970
1970
1970
1971
1972
1973
1973
1974
1975
1977
1980
1984
1987
1988
1989
1989
1990
1991
1993
1995
1996
1997
1997
1995
1993
1990
1988
1986
1983
1981
1979
1976
1974
1972
1971
1970
1969
1968
1968
1968
1969
1971
1972
1972
1971
1970
1968
1968
1969
1970
1971
1971
1969
1968
1967
1968
1969
1971
1971
1972
1972
1973
1973
1972
1971
1970
1969
1968
1967
1967
1968
1969
1970
1971
1973
1974
1975
1977
1979
1981
1982
1984
1985
1986
1986
1986
1986
1987
1989
1991
1993
1994
1994
1992
1989
1987
1984
1983
1981
1979
1976
1974
1973
1972
1972
1970
1968
1967
1966
1965
1966
1966
1966
1964
1963
1965
1974
1993
2016
2036
2043
2032
2008
1982
1962
1954
1955
1960
1964
1966
1966
1967
1967
1967
1966
1966
1966
1966
1967
1969
1970
1972
1973
1974
1974
1974
1974
1974
1974
1974
1974
1973
1972
1972
1973
1974
1975
1977
1978
1979
1980
1981
1983
1984
1985
1987
1988
1988
1989
1990
1991
1992
1992
1991
1990
1989
1989
1988
1987
1986
1985
1984
1982
1979
1976
1973
1971
1970
1969
1969
1969
1970
1970
1970
1971
1971
1971
1971
1970
1970
1970
1970
1970
1969
1967
1966
1966
1967
1967
1967
1965
1963
1961
1959
1958
1958
1957
1957
1956
1956
1956
1956
1956
1956
1955
1954
1953
1952
1952
1952
1952
1953
1953
1952
1951
1951
1951
1952
1954
1954
1955
1955
1955
1955
1954
1953
1951
1950
1950
1950
1951
1952
1953
1952
1951
1950
1949
1949
1949
1950
1951
1952
1952
1950
1948
1944
1942
1942
1949
1966
1990
2013
2025
2020
2000
1974
1952
1940
1939
1943
1948
1951
1951
1952
1952
1952
1952
1952
1952
1953
1953
1955
1956
1957
1958
1957
1957
1956
1957
1958
1960
1962
1963
1964
1965
1964
1964
1964
1965
1967
1970
1973
1976
1977
1978
1979
1980
1982
1984
1987
1990
1993
1994
1995
1994
1993
1992
1990
1988
1986
1984
1982
1980
1977
1975
1972
1969
1966
1965
1965
1965
1966
1966
1965
1964
1962
1961
1960
1961
1963
1965
1967
1969
1969
1969
1969
1969
1969
1969
1970
1971
1972
1973
1975
1976
1977
1978
1978
1978
1978
1978
1978
1979
1980
1980
1980
1979
1979
1979
1980
1981
1983
1983
1983
1982
1981
1980
1979
1979
1980
1982
1984
1987
1989
1991
1992
1993
1993
1994
1996
1997
1999
2000
2000
2000
2000
2000
2000
2000
2000
2001
2001
2002
2002
2003
2002
2002
2002
2002
2002
2002
2001
2001
2003
2013
2029
2048
2064
2069
2060
2042
2020
2005
1999
2000
2005
2008
2010
2010
2009
2009
2009
2009
2010
2011
2011
2010
2010
2010
2011
2013
2015
2017
2018
2018
2018
2018
2018
2020
2021
2023
2025
2026
2026
2025
2025
2025
2026
2028
2030
2032
2034
2036
2037
2038
2040
2041
2042
2042
2042
2041
2041
2041
2042
2042
2041
2039
2038
2037
2037
2037
2038
2039
2042
2047
2051
2055
2057
2057
2055
2053
2051
2050
2049
2049
2048
2048
2048
2047
2045
2043
2041
2040
2039
2039
2038
2036
2034
2032
2030
2028
2028
2027
2027
2025
2023
2021
2020
2019
2019
2019
2019
2018
2017
2015
2014
2012
2011
2010
2009
2009
2009
2010
2010
2009
2008
2007
2007
2007
2007
2006
2005
2003
2002
2000
1997
1994
1990
1987
1984
1983
1981
1980
1979
1978
1978
1977
1975
1974
1972
1971
1970
1969
1970
1975
1987
2007
2027
2038
2032
2009
1978
1952
1939
1939
1947
1954
1957
1956
1953
1951
1949
1948
1948
1948
1949
1949
1949
1949
1949
1950
1952
1952
1952
1951
1950
1949
1948
1948
1948
1949
1951
1953
1954
1953
1952
1951
1950
1951
1952
1954
1955
1956
1956
1957
1959
1961
1962
1963
1962
1962
1961
1961
1960
1958
1954
1950
1947
1943
1940
1938
1937
1935
1933
1932
1930
1928
1927
1926
1925
1923
1921
1920
1919
1919
1921
1923
1924
1924
1923
1922
1921
1920
1920
1921
1922
1922
1921
1920
1919
1919
1919
1920
1921
1922
1921
1920
1919
1919
1921
1923
1925
1927
1927
1925
1924
1923
1923
1925
1927
1929
1930
1930
1930
1931
1932
1934
1935
1936
1937
1937
1937
1936
1935
1934
1933
1933
1933
1933
1933
1933
1933
1935
1937
1939
1940
1941
1941
1940
1940
1941
1941
1940
1942
1948
1963
1985
2007
2017
2011
1989
1962
1940
1930
1931
1937
1943
1946
1947
1948
1949
1949
1949
1948
1948
1948
1947
1947
1947
1948
1950
1951
1952
1952
1950
1948
1947
1946
1947
1949
1952
1954
1955
1956
1957
1958
1960
1961
1962
1963
1964
1967
1970
1973
1975
1977
1977
1978
1978
1979
1980
1981
1981
1980
1978
1974
1971
1969
1967
1966
1965
1964
1962
1960
1957
1955
1954
1955
1956
1956
1956
1955
1954
1954
1954
1955
1954
1953
1952
1951
1952
1954
1956
1957
1958
1958
1957
1955
1954
1954
1955
1957
1957
1957
1957
1956
1957
1958
1960
1961
1962
1961
1959
1958
1957
1956
1956
1956
1955
1954
1953
1953
1953
1953
1952
1951
1949
1949
1950
1953
1955
1956
1956
1954
1952
1949
1947
1944
1942
1941
1940
1940
1940
1938
1936
1933
1931
1930
1931
1933
1936
1937
1937
1935
1931
1928
1926
1925
1926
1934
1950
1974
1996
2006
1998
1973
1941
1916
1904
1905
1914
1922
1927
1928
1925
1922
1918
1915
1915
1915
1916
1916
1915
1914
1913
1911
1910
1909
1909
1910
1912
1915
1917
1919
1919
1918
1917
1915
1914
1914
1917
1921
1925
1929
1930
1929
1928
1928
1930
1934
1939
1941
1940
1936
1932
1930
1930
1930
1931
1931
1931
1931
1932
1932
1931
1929
1925
1922
1920
1919
1919
1920
1921
1922
1924
1926
1926
1926
1924
1921
1919
1919
1922
1924
1926
1927
1927
1927
1927
1927
1928
1927
1924
1921
1920
1921
1924
1926
1926
1925
1923
1923
1925
1929
1931
1932
1932
1931
1929
1929
1930
1931
1931
1931
1929
1927
1927
1929
1931
1933
1934
1932
1930
1929
1929
1930
1932
1933
1934
1934
1935
1937
1938
1938
1936
1933
1930
1930
1933
1937
1939
1940
1940
1940
1941
1941
1942
1943
1945
1948
1951
1953
1953
1952
1948
1947
1952
1968
1993
2019
2034
2031
2010
1981
1958
1946
1946
1952
1957
1959
1959
1958
1959
1959
1960
1960
1959
1957
1956
1957
1960
1964
1968
1971
1971
1970
1969
1967
1966
1965
1964
1965
1966
1968
1969
1969
1969
1969
1970
1973
1976
1978
1980
1981
1982
1982
1982
1983
1984
1986
1988
1989
1989
1987
1985
1983
1981
1979
1978
1977
1976
1975
1973
1970
1967
1965
1963
1962
1961
1962
1962
1962
1962
1961
1961
1960
1959
1959
1960
1961
1962
1962
1962
1961
1961
1961
1961
1961
1963
1964
1965
1965
1965
1966
1967
1969
1970
1970
1969
1968
1968
1970
1971
1971
1971
1971
1971
1972
1972
1973
1973
1973
1974
1976
1978
1980
1980
1980
1978
1977
1976
1976
1976
1976
1977
1978
1980
1982
1983
1983
1983
1982
1982
1982
1982
1980
1978
1977
1976
1977
1978
1979
1979
1978
1977
1976
1976
1976
1975
1975
1974
1975
1975
1975
1974
1973
1975
1984
2003
2029
2050
2060
2051
2029
2002
1983
1975
1978
1987
1994
1999
2002
2003
2003
2003
2005
2008
2011
2015
2018
2020
2021
2023
2024
2026
2027
2028
2030
2031
2033
2036
2038
2038
2038
2037
2036
2037
2039
2042
2044
2046
2047
2048
2051
2054
2055
2056
2054
2052
2050
2049
2050
2051
2053
2054
2054
2051
2048
2045
2043
2042
2041
2039
2036
2033
2030
2028
2027
2028
2029
2029
2029
2029
2029
2028
2027
2025
2024
2024
2025
2025
2026
2025
2023
2021
2019
2019
2021
2023
2024
2024
2023
2021
2020
2019
2019
2019
2020
2020
2018
2017
2017
2019
2022
2025
2024
2022
2018
2015
2014
2014
2015
2016
2017
2017
2017
2016
2015
2015
2017
2018
2019
2019
2018
2016
2014
2014
2015
2017
2020
2021
2021
2019
2017
2016
2016
2019
2021
2021
2020
2017
2015
2015
2015
2016
2017
2016
2014
2012
2012
2013
2013
2013
2011
2009
2010
2017
2033
2057
2081
2093
2087
2063
2032
2005
1990
1990
1998
2007
2012
2013
2013
2012
2011
2009
2006
2004
2004
2006
2009
2013
2015
2015
2013
2011
2011
2013
2016
2019
2022
2023
2022
2021
2020
2020
2022
2023
2023
2023
2023
2024
2027
2031
2034
2037
2038
2040
2041
2041
2041
2040
2039
2039
2039
2039
2038
2036
2032
2029
2025
2021
2017
2014
2011
2009
2008
2005
2003
2002
2001
2001
2001
1999
1996
1994
1992
1993
1996
1999
2000
2000
1997
1995
1993
1993
1993
1993
1993
1991
1990
1990
1991
1992
1993
1992
1991
1989
1988
1987
1987
1988
1988
1987
1987
1987
1986
1986
1985
1985
1986
1986
1986
1985
1983
1981
1980
1979
1980
1982
1986
1990
1992
1992
1991
1989
1987
1984
1982
1979
1976
1974
1973
1974
1975
1978
1979
1979
1978
1977
1976
1977
1978
1980
1980
1980
1980
1978
1978
1981
1994
2016
2041
2058
2061
2047
2019
1990
1970
1961
1963
1968
1973
1976
1979
1980
1980
1980
1979
1978
1978
1978
1977
1977
1976
1976
1975
1975
1975
1974
1974
1973
1973
1973
1973
1973
1973
1973
1973
1973
1975
1977
1979
1981
1982
1982
1983
1983
1983
1984
1986
1989
1992
1994
1994
1993
1991
1990
1990
1991
1992
1992
1991
1989
1985
1982
1979
1976
1974
1971
1970
1969
1969
1969
1970
1970
1969
1969
1969
1970
1971
1972
1973
1973
1973
1973
1973
1972
1972
1971
1970
1969
1969
1969
1969
1968
1968
1967
1967
1968
1969
1969
1970
1971
1971
1971
1970
1969
1968
1969
1971
1973
1973
1972
1970
1968
1966
1966
1966
1966
1966
1966
1965
1965
1965
1965
1966
1966
1966
1966
1966
1967
1968
1970
1970
1970
1968
1966
1964
1962
1961
1962
1962
1964
1966
1967
1967
1967
1967
1968
1969
1970
1971
1970
1970
1968
1967
1964
1964
1971
1989
2015
2042
2056
2050
2027
1996
1970
1958
1960
1968
1975
1978
1978
1977
1975
1974
1974
1974
1974
1974
1974
1974
1974
1975
1977
1977
1977
1977
1976
1976
1976
1977
1979
1979
1979
1978
1977
1977
1979
1981
1983
1986
1987
1989
1989
1989
1989
1989
1989
1991
1994
1996
1998
1999
1999
1998
1997
1996
1994
1993
1992
1990
1989
1987
1983
1979
1975
1973
1972
1973
1975
1976
1975
1975
1975
1975
1975
1975
1974
1972
1970
1970
1971
1973
1973
1973
1971
1970
1969
1970
1971
1972
1971
1971
1970
1970
1971
1972
1972
1973
1973
1972
1972
1973
1973
1973
1973
1973
1973
1973
1974
1975
1975
1975
1975
1975
1975
1975
1975
1976
1977
1979
1980
1980
1980
1979
1979
1979
1979
1980
1981
1982
1984
1985
1986
1986
1987
1989
1990
1990
1989
1987
1985
1984
1985
1986
1986
1987
1987
1988
1989
1989
1988
1988
1987
1987
1987
1986
1986
1985
1985
1985
1991
2005
2028
2052
2068
2066
2047
2016
1988
1973
1973
1980
1986
1989
1987
1985
1984
1986
1988
1990
1989
1986
1982
1979
1978
1978
1980
1982
1984
1984
1983
1981
1980
1980
1980
1981
1981
1982
1982
1982
1982
1982
1983
1986
1989
1992
1994
1995
1995
1994
1994
1996
1999
2001
2003
2002
2001
1999
1998
1999
1999
1999
1998
1996
1993
1990
1987
1985
1984
1985
1985
1984
1983
1981
1980
1978
1977
1977
1976
1976
1977
1977
1977
1977
1976
1975
1976
1976
1978
1979
1979
1979
1978
1977
1977
1977
1977
1978
1979
1980
1980
1980
1979
1979
1979
1980
1980
1980
1980
1980
1980
1979
1979
1979
1980
1983
1985
1987
1986
1984
1982
1980
1979
1978
1977
1978
1980
1983
1986
1988
1987
1986
1985
1984
1983
1981
1978
1976
1975
1975
1976
1977
1977
1976
1974
1971
1969
1969
1969
1972
1974
1976
1974
1970
1964
1958
1956
1959
1973
1996
2024
2046
2051
2039
2011
1980
1957
1948
1951
1959
1966
1970
1972
1973
1972
1972
1972
1972
1972
1973
1973
1975
1978
1980
1982
1983
1982
1980
1980
1980
1982
1983
1983
1982
1980
1981
1985
1990
1996
2000
2001
2001
2001
2002
2004
2006
2008
2010
2011
2013
2015
2018
2019
2018
2016
2014
2013
2013
2012
2011
2009
2005
2001
1997
1993
1991
1989
1989
1989
1988
1986
1984
1982
1981
1980
1978
1977
1976
1977
1978
1980
1980
1979
1977
1975
1974
1975
1975
1976
1977
1978
1979
1979
1977
1975
1974
1975
1977
1979
1982
1984
1985
1986
1987
1988
1989
1989
1989
1988
1987
1988
1989
1992
1994
1996
1997
1999
2000
2001
2002
2001
1999
1996
1994
1993
1993
1995
1998
2001
2003
2004
2002
1998
1995
1993
1994
1996
1999
1999
1997
1994
1991
1990
1990
1990
1989
1990
1991
1993
1995
1997
1997
1995
1991
1987
1986
1993
2009
2035
2059
2074
2070
2049
2019
1993
1979
1976
1980
1984
1985
1985
1986
1989
1990
1990
1988
1986
1985
1986
1989
1990
1991
1990
1988
1987
1985
1984
1983
1983
1982
1982
1982
1982
1984
1985
1986
1987
1987
1986
1987
1987
1988
1987
1987
1987
1989
1992
1996
2000
2003
2004
2003
2001
2000
1999
1999
1998
1998
1998
1998
1997
1996
1995
1994
1993
1992
1992
1991
1991
1990
1989
1988
1986
1985
1983
1983
1982
1981
1981
1981
1981
1981
1980
1980
1979
1979
1979
1980
1981
1983
1985
1985
1985
1985
1984
1984
1985
1986
1988
1989
1989
1988
1986
1983
1979
1977
1976
1977
1978
1977
1976
1973
1972
1971
1971
1972
1973
1974
1975
1976
1977
1978
1979
1979
1978
1976
1974
1972
1971
1970
1970
1971
1972
1973
1974
1973
1971
1969
1969
1970
1972
1974
1975
1975
1974
1973
1973
1973
1975
1976
1976
1974
1971
1969
1970
1975
1987
2005
2027
2046
2051
2042
2019
1992
1970
1960
1962
1969
1976
1979
1980
1979
1977
1976
1975
1974
1973
1971
1972
1974
1977
1979
1979
1978
1975
1973
1973
1976
1978
1981
1982
1981
1979
1978
1977
1978
1979
1981
1982
1984
1986
1988
1988
1988
1988
1989
1991
1995
1998
1999
1999
1998
1997
1997
1997
1996
1995
1993
1991
1989
1987
1985
1983
1982
1981
1978
1974
1971
1970
1971
1972
1974
1975
1975
1973
1972
1971
1971
1971
1972
1975
1977
1978
1978
1977
1975
1973
1971
1970
1970
1970
1971
1971
1971
1971
1970
1969
1968
1966
1965
1965
1967
1968
1970
1970
1968
1966
1965
1965
1966
1967
1969
1970
1971
1971
1972
1973
1974
1974
1974
1974
1974
1975
1975
1975
1975
1976
1976
1977
1978
1979
1980
1980
1979
1977
1975
1973
1972
1972
1974
1976
1977
1977
1976
1975
1974
1974
1975
1976
1976
1975
1973
1970
1967
1965
1963
1967
1981
2003
2028
2045
2047
2030
2001
1973
1956
1951
1956
1963
1969
1973
1974
1974
1973
1972
1971
1971
1971
1972
1972
1973
1973
1973
1973
1973
1973
1974
1975
1975
1976
1976
1976
1976
1977
1977
1977
1979
1982
1985
1986
1987
1987
1986
1987
1989
1990
1991
1992
1992
1993
1993
1993
1992
1992
1991
1991
1990
1988
1985
1982
1980
1977
1974
1971
1968
1965
1964
1963
1962
1962
1961
1961
1960
1959
1959
1958
1957
1956
1956
1956
1956
1956
1955
1954
1954
1953
1954
1954
1954
1954
1953
1954
1954
1954
1954
1953
1952
1951
1952
1953
1955
1956
1955
1954
1952
1951
1951
1951
1952
1953
1954
1955
1955
1955
1954
1954
1953
1953
1954
1955
1957
1957
1957
1957
1957
1958
1958
1959
1959
1958
1958
1957
1956
1956
1956
1956
1956
1956
1955
1955
1956
1957
1958
1959
1959
1958
1958
1957
1956
1956
1956
1959
1968
1986
2009
2028
2033
2022
1997
1970
1951
1944
1947
1953
1956
1957
1957
1957
1958
1959
1960
1960
1961
1960
1959
1958
1958
1957
1958
1959
1961
1963
1964
1963
1961
1959
1958
1959
1961
1964
1965
1966
1967
1967
1967
1968
1969
1971
1973
1974
1977
1979
1981
1983
1984
1985
1986
1987
1988
1989
1989
1989
1988
1985
1982
1979
1977
1976
1975
1973
1971
1969
1968
1969
1970
1971
1972
1971
1970
1969
1969
1968
1968
1967
1967
1966
1965
1965
1965
1966
1968
1970
1970
1970
1968
1967
1966
1967
1968
1969
1970
1970
1970
1970
1971
1971
1970
1969
1968
1968
1969
1970
1971
1970
1969
1968
1968
1968
1969
1970
1969
1968
1967
1966
1967
1967
1968
1969
1970
1970
1970
1969
1969
1970
1971
1972
1972
1971
1969
1967
1966
1965
1965
1964
1964
1965
1966
1967
1968
1968
1968
1968
1967
1967
1967
1965
1964
1962
1960
1958
1961
1972
1993
2018
2039
2045
2033
2007
1979
1959
1952
1955
1961
1964
1965
1965
1965
1965
1966
1966
1967
1968
1968
1968
1968
1968
1968
1968
1970
1971
1971
1972
1972
1972
1972
1972
1973
1974
1975
1975
1976
1978
1979
1980
1981
1981
1982
1984
1986
1988
1989
1991
1992
1994
1995
1996
1996
1995
1995
1994
1994
1993
1991
1988
1985
1981
1978
1976
1975
1974
1974
1973
1973
1972
1971
1971
1971
1971
1971
1971
1970
1970
1970
1970
1970
1971
1971
1971
1971
1970
1971
1972
1973
1974
1974
1974
1974
1972
1971
1971
1971
1972
1973
1974
1973
1971
1969
1969
1970
1972
1974
1974
1973
1972
1970
1969
1969
1970
1971
1972
1973
1972
1972
1971
1972
1972
1973
1973
1973
1973
1973
1974
1974
1975
1974
1973
1972
1971
1971
1971
1972
1972
1972
1971
1969
1967
1966
1966
1967
1968
1969
1970
1971
1970
1969
1967
1966
1966
1966
1967
1967
1966
1965
1962
1959
1959
1967
1986
2012
2036
2046
2037
2012
1983
1960
1951
1953
1960
1966
1968
1969
1968
1966
1965
1963
1962
1962
1962
1963
1965
1967
1970
1971
1971
1971
1970
1970
1970
1971
1972
1973
1973
1973
1972
1971
1970
1972
1975
1979
1982
1984
1984
1984
1984
1984
1986
1987
1989
1991
1991
1991
1991
1991
1991
1991
1990
1989
1988
1985
1983
1980
1978
1976
1974
1972
1970
1970
1969
1969
1968
1967
1966
1966
1966
1967
1967
1967
1967
1966
1966
1966
1966
1968
1969
1970
1970
1968
1967
1967
1968
1969
1970
1971
1971
1971
1971
1970
1970
1970
1971
1971
1971
1971
1971
1972
1972
1973
1973
1973
1972
1971
1971
1971
1972
1973
1973
1972
1972
1971
1972
1974
1976
1977
1976
1974
1972
1973
1974
1977
1979
1979
1978
1976
1975
1974
1973
1973
1974
1975
1977
1980
1982
1983
1982
1981
1980
1978
1978
1977
1977
1976
1976
1976
1975
1975
1975
1975
1976
1977
1978
1978
1979
1979
1978
1976
1974
1971
1970
1973
1984
2003
2028
2048
2056
2047
2022
1994
1972
1963
1965
1972
1976
1978
1977
1975
1974
1974
1975
1976
1977
1978
1977
1975
1974
1974
1974
1975
1976
1976
1977
1977
1978
1978
1978
1978
1977
1977
1977
1979
1981
1983
1984
1984
1984
1983
1983
1985
1987
1991
1993
1995
1995
1995
1995
1994
1994
1995
1995
1994
1993
1991
1989
1986
1984
1981
1979
1977
1975
1974
1973
1972
1972
1971
1971
1971
1971
1971
1971
1971
1972
1972
1972
1971
1971
1970
1971
1971
1972
1973
1973
1973
1973
1972
1971
1971
1971
1971
1971
1972
1972
1972
1974
1974
1975
1975
1974
1973
1973
1973
1973
1973
1973
1973
1973
1973
1973
1972
1972
1973
1975
1976
1977
1978
1978
1977
1976
1976
1976
1976
1976
1976
1975
1974
1974
1973
1973
1972
1972
1973
1973
1975
1975
1976
1976
1976
1976
1976
1976
1976
1976
1977
1978
1978
1977
1975
1973
1971
1971
1972
1973
1974
1974
1973
1973
1972
1971
1971
1972
1973
1975
1976
1975
1973
1970
1967
1970
1982
2004
2030
2049
2053
2039
2012
1984
1965
1959
1961
1967
1971
1973
1973
1972
1971
1970
1970
1970
1970
1971
1971
1972
1972
1972
1973
1974
1975
1976
1976
1976
1976
1976
1977
1977
1978
1978
1979
1978
1978
1979
1980
1981
1983
1985
1986
1987
1988
1989
1990
1991
1992
1994
1995
1995
1994
1992
1990
1988
1986
1986
1985
1983
1981
1979
1976
1974
1973
1972
1972
1972
1971
1971
1970
1970
1970
1971
1971
1971
1971
1970
1971
1971
1972
1972
1973
1972
1971
1970
1970
1970
1972
1973
1974
1974
1973
1972
1971
1971
1972
1974
1975
1975
1975
1975
1974
1973
1973
1972
1972
1972
1973
1974
1975
1975
1975
1974
1973
1973
1973
1973
1974
1975
1976
1976
1976
1976
1975
1975
1975
1975
1976
1976
1976
1975
1975
1974
1974
1975
1976
1977
1979
1981
1982
1982
1982
1982
1981
1980
1979
1978
1978
1978
1978
1977
1977
1976
1976
1976
1977
1977
1978
1979
1979
1979
1979
1977
1975
1972
1972
1977
1991
2014
2039
2054
2053
2035
2006
1978
1961
1957
1962
1968
1973
1975
1975
1974
1974
1973
1973
1973
1974
1976
1977
1978
1978
1978
1977
1976
1975
1975
1976
1978
1979
1981
1982
1982
1983
1983
1983
1983
1984
1985
1987
1988
1989
1991
1992
1994
1996
1997
1999
2000
2001
2002
2003
2004
2004
2004
2004
2002
2001
1999
1997
1995
1993
1991
1988
1987
1986
1986
1987
1987
1986
1986
1985
1985
1985
1984
1985
1985
1986
1987
1988
1988
1987
1986
1985
1984
1983
1984
1984
1985
1986
1987
1987
1988
1988
1988
1988
1988
1989
1990
1990
1990
1989
1989
1988
1988
1989
1990
1991
1992
1993
1994
1995
1994
1994
1993
1993
1994
1995
1996
1996
1996
1995
1994
1994
1994
1994
1993
1993
1993
1993
1995
1996
1997
1997
1997
1996
1996
1996
1995
1994
1993
1992
1991
1991
1991
1991
1993
1994
1995
1995
1995
1995
1995
1995
1996
1997
1997
1995
1994
1992
1990
1991
1999
2017
2040
2060
2069
2061
2038
2010
1988
1979
1979
1985
1990
1992
1993
1994
1995
1995
1996
1996
1995
1994
1994
1993
1994
1994
1995
1996
1997
1998
1999
1999
1998
1998
1997
1997
1997
1997
1998
1998
1998
1999
2000
2002
2003
2004
2006
2007
2008
2010
2011
2011
2012
2012
2013
2014
2015
2015
2014
2013
2010
2007
2004
2001
1999
1997
1995
1993
1991
1988
1987
1986
1988
1989
1990
1990
1989
1987
1986
1986
1987
1987
1988
1988
1988
1989
1989
1989
1988
1987
1987
1986
1987
1987
1987
1988
1989
1989
1989
1988
1987
1987
1986
1986
1987
1987
1988
1988
1988
1988
1987
1986
1985
1985
1985
1986
1986
1986
1986
1985
1984
1983
1983
1983
1984
1985
1986
1986
1985
1985
1986
1987
1989
1991
1993
1994
1995
1997
1998
1998
1996
1994
1990
1988
1986
1986
1986
1986
1986
1985
1984
1983
1983
1982
1982
1983
1984
1985
1985
1983
1981
1977
1975
1979
1993
2015
2041
2057
2058
2042
2014
1987
1970
1966
1970
1976
1980
1981
1981
1980
1980
1980
1980
1980
1980
1981
1981
1982
1982
1983
1982
1982
1982
1981
1981
1981
1982
1982
1983
1983
1983
1983
1983
1983
1984
1986
1987
1989
1990
1991
1991
1990
1990
1991
1993
1995
1997
1999
2000
2000
1998
1997
1995
1993
1993
1992
1992
1990
1987
1984
1981
1978
1976
1975
1974
1974
1974
1974
1974
1973
1972
1971
1971
1972
1973
1974
1975
1976
1977
1977
1976
1975
1975
1974
1974
1975
1976
1978
1979
1979
1978
1976
1975
1975
1975
1976
1977
1978
1978
1978
1978
1977
1976
1976
1976
1977
1978
1978
1978
1977
1977
1977
1977
1976
1975
1974
1972
1971
1970
1970
1969
1969
1969
1969
1970
1971
1973
1974
1975
1975
1975
1975
1974
1973
1972
1972
1972
1972
1973
1973
1972
1971
1971
1972
1973
1974
1975
1975
1975
1976
1977
1977
1976
1975
1972
1970
1973
1985
2007
2032
2049
2051
2037
2010
1983
1967
1963
1967
1973
1977
1977
1976
1975
1974
1974
1975
1976
1976
1977
1977
1977
1977
1977
1977
1976
1976
1976
1977
1978
1978
1978
1977
1977
1977
1978
1979
1981
1982
1983
1983
1983
1982
1982
1983
1984
1986
1989
1991
1993
1995
1996
1996
1997
1997
1998
1998
1997
1995
1994
1991
1989
1986
1984
1981
1980
1979
1978
1977
1977
1976
1975
1974
1974
1973
1973
1974
1974
1975
1975
1975
1974
1973
1973
1973
1973
1974
1974
1975
1975
1975
1975
1975
1975
1975
1975
1976
1976
1975
1975
1975
1975
1975
1975
1975
1976
1977
1977
1978
1978
1978
1978
1977
1977
1978
1978
1979
1980
1980
1980
1980
1979
1978
1976
1975
1974
1974
1975
1977
1979
1981
1982
1983
1984
1984
1984
1984
1984
1983
1982
1981
1980
1980
1980
1980
1980
1980
1981
1981
1982
1982
1982
1983
1983
1984
1983
1983
1982
1980
1979
1983
1995
2016
2040
2055
2056
2040
2012
1985
1967
1962
1965
1971
1974
1976
1977
1977
1978
1979
1980
1980
1980
1980
1980
1981
1981
1982
1982
1983
1984
1985
1985
1985
1985
1984
1985
1986
1988
1990
1993
1995
1996
1997
1997
1998
2000
2001
2003
2005
2006
2006
2006
2006
2006
2007
2009
2010
2010
2010
2008
2006
2003
2001
1999
1997
1996
1995
1994
1991
1989
1986
1984
1982
1981
1981
1981
1980
1980
1979
1978
1978
1978
1979
1979
1980
1980
1981
1982
1982
1982
1981
1980
1979
1979
1979
1979
1979
1980
1981
1981
1982
1982
1981
1980
1979
1979
1979
1980
1980
1980
1980
1980
1979
1979
1979
1979
1979
1979
1979
1979
1978
1978
1977
1977
1977
1978
1979
1980
1981
1981
1981
1981
1980
1980
1979
1979
1979
1978
1977
1977
1977
1977
1977
1977
1976
1976
1976
1975
1975
1976
1976
1977
1976
1974
1972
1970
1970
1978
1995
2019
2043
2053
2048
2025
1995
1971
1960
1961
1968
1975
1979
1979
1979
1978
1978
1978
1978
1979
1979
1980
1980
1980
1980
1980
1980
1981
1982
1983
1984
1985
1986
1987
1987
1988
1989
1990
1992
1993
1993
1993
1994
1994
1996
1998
2000
2002
2003
2005
2007
2009
2010
2010
2010
2009
2008
2008
2007
2007
2005
2003
2001
1997
1994
1990
1988
1987
1986
1986
1985
1985
1984
1982
1980
1980
1980
1981
1982
1984
1984
1984
1983
1982
1981
1980
1980
1980
1981
1981
1982
1982
1982
1982
1982
1982
1982
1982
1983
1984
1985
1985
1985
1984
1984
1985
1985
1986
1987
1988
1987
1987
1986
1985
1985
1985
1985
1987
1988
1989
1990
1990
1990
1989
1989
1990
1991
1992
1994
1996
1997
1997
1997
1995
1994
1992
1991
1991
1991
1991
1991
1991
1991
1990
1989
1989
1989
1990
1990
1991
1991
1991
1991
1991
1989
1987
1984
1983
1989
2005
2029
2053
2068
2065
2046
2017
1992
1977
1974
1979
1983
1986
1987
1987
1987
1986
1985
1985
1985
1986
1986
1986
1985
1984
1984
1984
1984
1985
1986
1986
1987
1988
1987
1987
1987
1987
1988
1989
1991
1993
1994
1995
1995
1996
1997
1999
2001
2003
2004
2005
2005
2005
2005
2004
2003
2002
2002
2002
2002
2001
1999
1996
1992
1989
1986
1983
1982
1981
1980
1979
1979
1978
1977
1976
1976
1975
1975
1976
1977
1977
1978
1978
1977
1976
1975
1975
1975
1975
1976
1976
1976
1975
1975
1974
1974
1974
1974
1975
1975
1975
1975
1976
1976
1976
1975
1975
1974
1974
1974
1975
1976
1977
1977
1976
1976
1975
1975
1975
1975
1976
1976
1975
1975
1973
1972
1971
1971
1972
1974
1975
1977
1977
1977
1977
1976
1976
1976
1975
1974
1974
1973
1973
1973
1972
1971
1971
1970
1970
1971
1971
1971
1972
1972
1971
1970
1968
1965
1963
1962
1966
1979
2001
2026
2044
2045
2028
2001
1975
1958
1954
1958
1963
1965
1966
1965
1965
1965
1965
1964
1963
1961
1960
1960
1961
1963
1964
1965
1965
1965
1965
1966
1967
1968
1968
1968
1967
1966
1966
1967
1969
1970
1971
1972
1972
1973
1974
1976
1978
1980
1981
1982
1983
1983
1983
1984
1984
1986
1987
1987
1987
1985
1983
1980
1977
1975
1973
1971
1970
1969
1968
1967
1967
1966
1965
1965
1965
1965
1964
1963
1963
1963
1965
1966
1967
1966
1965
1964
1964
1965
1966
1966
1966
1965
1965
1964
1963
1963
1965
1967
1969
1970
1969
1966
1963
1961
1960
1961
1962
1962
1962
1961
1961
1961
1962
1962
1962
1961
1961
1962
1963
1963
1964
1964
1963
1963
1963
1963
1964
1965
1966
1966
1967
1967
1967
1967
1968
1968
1968
1967
1966
1964
1962
1962
1963
1964
1965
1965
1965
1964
1964
1963
1963
1963
1964
1965
1965
1964
1963
1960
1958
1961
1972
1992
2015
2032
2033
2017
1991
1965
1949
1945
1949
1956
1960
1961
1960
1960
1960
1961
1962
1963
1964
1964
1964
1964
1964
1965
1966
1969
1971
1973
1975
1977
1977
1977
1976
1975
1976
1976
1977
1977
1978
1979
1981
1984
1986
1987
1987
1988
1990
1993
1997
1999
2000
2000
2000
1999
1998
1998
1998
1997
1995
1992
1988
1984
1980
1979
1978
1976
1974
1972
1970
1968
1968
1968
1968
1967
1967
1966
1966
1966
1966
1966
1965
1964
1964
1965
1966
1966
1967
1967
1966
1965
1963
1962
1961
1961
1962
1963
1964
1965
1964
1963
1962
1962
1963
1964
1965
1965
1965
1964
1965
1965
1966
1965
1965
1964
1963
1963
1964
1965
1966
1968
1969
1970
1972
1973
1974
1975
1974
1973
1971
1969
1968
1967
1966
1966
1966
1966
1966
1966
1966
1966
1967
1967
1967
1966
1966
1966
1965
1963
1962
1962
1965
1976
1994
2018
2038
2042
2028
2000
1970
1949
1941
1945
1953
1959
1963
1964
1965
1965
1964
1963
1963
1964
1964
1964
1965
1965
1966
1967
1968
1968
1968
1967
1967
1967
1968
1969
1970
1972
1972
1972
1972
1973
1973
1975
1977
1980
1982
1985
1986
1987
1988
1990
1991
1993
1995
1996
1996
1996
1996
1995
1993
1991
1990
1987
1985
1982
1980
1977
1975
1974
1972
1971
1969
1969
1969
1969
1970
1971
1970
1969
1968
1968
1968
1969
1970
1970
1970
1970
1970
1969
1969
1968
1968
1969
1969
1970
1970
1970
1971
1971
1970
1970
1969
1968
1969
1970
1972
1973
1973
1973
1972
1971
1971
1971
1972
1973
1974
1974
1974
1974
1974
1974
1974
1974
1975
1976
1977
1977
1977
1976
1975
1974
1973
1973
1973
1974
1974
1974
1974
1974
1973
1973
1972
1972
1973
1973
1974
1973
1971
1968
1965
1965
1973
1991
2017
2042
2054
2048
2026
1997
1973
1960
1959
1965
1970
1973
1974
1974
1973
1973
1972
1972
1972
1972
1972
1972
1973
1973
1973
1973
1974
1974
1975
1975
1976
1977
1978
1979
1978
1978
1977
1978
1979
1980
1982
1983
1984
1986
1987
1989
1990
1990
1991
1992
1993
1994
1995
1996
1997
1996
1996
1994
1992
1990
1988
1986
1984
1981
1979
1976
1974
1972
1969
1966
1964
1964
1965
1966
1967
1966
1966
1964
1964
1964
1966
1967
1969
1969
1969
1969
1968
1967
1967
1968
1969
1970
1971
1971
1971
1970
1969
1968
1966
1965
1964
1965
1966
1967
1968
1968
1968
1968
1968
1968
1968
1968
1968
1969
1969
1968
1968
1967
1967
1967
1968
1969
1971
1972
1973
1974
1974
1973
1972
1971
1969
1968
1968
1968
1968
1967
1967
1966
1966
1967
1968
1968
1969
1969
1968
1969
1969
1968
1966
1964
1962
1960
1960
1967
1983
2008
2032
2045
2041
2020
1992
1968
1955
1954
1958
1963
1966
1967
1966
1966
1966
1967
1968
1969
1969
1969
1968
1967
1965
1965
1965
1966
1967
1969
1970
1970
1970
1969
1969
1969
1970
1972
1974
1976
1978
1978
1979
1979
1979
1981
1983
1985
1987
1989
1990
1991
1992
1993
1992
1992
1991
1990
1990
1989
1987
1985
1983
1980
1978
1976
1975
1974
1973
1971
1969
1967
1966
1966
1966
1966
1966
1966
1966
1966
1966
1966
1966
1965
1965
1965
1965
1967
1968
1969
1969
1968
1966
1965
1964
1964
1965
1967
1968
1968
1967
1967
1965
1965
1964
1964
1965
1966
1967
1968
1968
1967
1966
1965
1965
1965
1966
1968
1970
1971
1970
1969
1968
1969
1971
1974
1975
1975
1973
1971
1970
1970
1971
1971
1970
1969
