3489
3483
3476
3470
3463
3456
3446
3444
3438
3427
3421
3404
3389
3382
3383
3392
3400
3399
3389
3372
3356
3347
3340
3335
3332
3349
3328
3291
3249
3238
3302
3450
3652
3836
3949
3977
3953
3919
3894
3916
3916
3916
3916
3916
3916
3916
3916
3916
3916
3916
3916
3916
3916
3916
3916
3916
3916
3916
3916
3916
3916
3916
3916
3916
3916
3916
3916
3916
3916
3916
3916
3915
3913
3913
3917
3924
3928
3920
3891
3839
3769
3690
3612
3539
3470
3404
3336
3270
3204
3139
3074
3011
2948
2886
2825
2766
2707
2650
2594
2539
2484
2430
2376
2323
2272
2221
2172
2123
2076
2030
1984
1938
1893
1848
1805
1763
1722
1682
1643
1605
1567
1530
1493
1457
1422
1388
1356
1324
1293
1263
1234
1207
1180
1154
1128
1102
1073
1044
1014
984
956
931
907
886
865
846
827
810
793
777
761
746
730
715
700
687
674
662
650
638
627
616
605
594
585
576
569
562
555
549
543
537
531
525
521
516
512
508
504
501
497
494
491
489
487
486
485
484
484
484
483
483
482
481
481
481
481
481
481
481
481
481
480
479
479
479
480
481
482
483
484
485
485
486
487
489
491
493
495
496
498
500
502
504
507
511
514
518
523
526
529
532
534
537
541
546
550
555
560
564
568
572
576
580
585
590
596
602
608
614
619
624
630
635
641
647
653
659
666
672
678
684
690
695
702
708
715
722
729
736
742
749
755
761
768
749
769
808
851
863
800
650
447
260
146
117
141
176
201
179
179
179
179
179
179
179
179
179
179
179
179
179
179
179
179
179
179
179
179
179
179
179
180
182
182
177
170
167
178
210
271
348
432
513
587
659
734
815
898
976
1048
1111
1174
1237
1304
1370
1436
1497
1559
1621
1684
1745
1803
1854
1910
1965
2022
2068
2110
2151
2200
2262
2327
2393
2437
2465
2488
2517
2564
2616
2670
2707
2737
2767
2793
2830
2863
2898
2930
2960
2992
3022
3052
3081
3109
3133
3155
3179
3201
3227
3252
3274
3303
3326
3345
3358
3364
3373
3390
3417
3450
3481
3500
3510
3516
3517
3531
3544
3557
3571
3583
3595
3607
3617
3626
3635
3642
3650
3658
3665
3672
3680
3685
3693
3704
3708
3709
3700
3691
3690
3702
3723
3743
3754
3753
3746
3735
3733
3739
3739
3741
3741
3742
3743
3744
3743
3741
3739
3737
3736
3734
3733
3732
3728
3728
3733
3729
3723
3710
3695
3688
3690
3702
3718
3725
3722
3711
3699
3687
3687
3682
3679
3673
3665
3656
3648
3641
3635
3628
3621
3616
3611
3607
3604
3600
3593
3590
3591
3582
3567
3547
3531
3528
3539
3556
3567
3562
3547
3528
3512
3506
3507
3503
3499
3492
3488
3482
3475
3468
3462
3456
3450
3445
3440
3434
3427
3418
3414
3409
3403
3393
3379
3367
3360
3363
3370
3375
3370
3358
3343
3333
3328
3325
3320
3311
3301
3292
3281
3276
3270
3264
3256
3250
3243
3238
3233
3111
3167
3304
3579
3546
3036
2101
1101
597
930
1980
3195
4059
279
53
3944
3799
3862
3916
3916
3916
3916
3916
3916
3916
3916
3916
3916
3916
3916
3916
3916
3916
3916
3916
3916
3916
3916
3916
3916
3916
3916
3916
3916
3916
3916
3916
3916
3916
3916
3916
3916
3916
3916
3916
3916
3916
3916
3916
3914
3910
3913
3920
3932
3933
3910
3857
3769
3665
3554
3449
3353
3262
3175
3084
2997
2911
2827
2746
2667
2592
2517
2445
2374
2303
2235
2166
2101
2038
1978
1924
1867
1811
1754
1697
1644
1592
1545
1500
1454
1410
1368
1325
1286
1245
1208
1172
1135
1100
1063
1026
991
957
927
895
867
838
812
789
766
744
723
702
682
661
643
624
604
587
570
555
542
528
514
500
489
478
471
463
452
441
427
418
413
407
403
396
387
381
376
372
369
366
362
358
354
351
347
345
343
343
342
342
341
338
336
335
334
334
334
336
336
336
337
337
338
340
339
340
341
345
350
352
354
354
357
360
362
366
369
374
379
384
389
392
395
397
402
409
415
422
426
431
436
441
448
453
458
464
469
476
484
490
497
502
507
512
518
525
531
540
546
554
561
567
574
581
587
595
601
609
615
622
629
636
643
651
656
663
670
680
687
694
700
707
717
726
734
738
742
749
868
768
583
372
561
1264
2313
3253
3534
2960
1804
643
4020
3832
3
191
298
212
179
179
179
179
179
179
179
179
179
179
179
179
179
179
179
179
179
179
180
179
179
178
178
180
184
194
209
232
261
293
328
361
393
421
451
480
508
537
563
589
615
642
671
698
724
749
773
795
822
839
851
862
879
908
943
980
1005
1023
1035
1044
1063
1083
1107
1124
1140
1156
1173
1191
1209
1227
1240
1251
1263
1276
1294
1315
1332
1350
1367
1381
1388
1390
1389
1396
1409
1432
1456
1471
1479
1480
1485
1491
1504
1517
1525
1534
1543
1552
1560
1567
1573
1580
1589
1598
1606
1615
1621
1628
1635
1644
1654
1658
1655
1648
1643
1649
1664
1687
1706
1716
1719
1715
1710
1717
1720
1729
1735
1742
1749
1753
1756
1758
1762
1765
1768
1774
1777
1782
1787
1781
1765
1772
1834
1906
1917
1780
1453
995
535
208
69
76
147
203
206
187
179
179
179
179
179
179
179
179
179
179
179
179
179
179
179
179
179
179
179
179
179
179
180
186
185
177
160
151
171
239
354
495
638
759
859
946
1034
1134
1235
1340
1437
1534
1628
1722
1812
1897
1986
2073
2156
2228
2292
2351
2415
2490
2573
2653
2731
2789
2836
2882
2928
2983
3043
3103
3158
3208
3254
3294
3335
3374
3417
3458
3498
3538
3577
3611
3642
3671
3704
3735
3764
3787
3805
3825
3848
3875
3900
3916
3922
3922
3917
3914
3915
3916
3916
3916
3916
3916
3916
3916
3916
3916
3916
3916
3916
3916
3916
3916
3916
3916
3916
3916
3916
3916
3916
3916
3916
3916
3916
3916
3916
3916
3916
3916
3916
3916
3916
3916
3916
3916
3916
3916
3916
3916
3916
3916
3916
3916
3916
3916
3916
3916
3916
3916
3916
3916
3916
3916
3916
3916
3916
3916
3916
3916
3916
3916
3916
3916
3916
3916
3916
3913
3914
3917
3922
3925
3918
3896
3857
3805
3747
3689
3634
3583
3534
3485
3437
3390
3343
3297
3252
3207
3162
3119
3077
3036
2996
2957
2919
2881
2844
2807
2771
2736
2701
2668
2636
2604
2573
2542
2511
2481
2452
2423
2395
2368
2342
2317
2294
2272
2250
2228
2206
2182
2158
2131
2104
2079
2055
2034
2013
1994
1976
1958
1941
1924
1909
1894
1879
1864
1850
1835
1820
1806
1793
1780
1768
1756
1744
1732
1720
1709
1698
1688
1679
1670
1662
1655
1647
1638
1630
1621
1613
1605
1597
1591
1584
1577
1571
1565
1559
1553
1547
1542
1537
1533
1529
1526
1522
1518
1513
1509
1504
1500
1496
1492
1488
1484
1480
1475
1471
1466
1462
1458
1454
1451
1448
1445
1442
1440
1436
1433
1430
1428
1425
1423
1421
1418
1416
1414
1411
1410
1408
1406
1405
1404
1403
1402
1401
1399
1397
1394
1392
1391
1390
1389
1389
1388
1388
1387
1386
1385
1385
1384
1384
1385
1385
1386
1386
1385
1385
1384
1384
1384
1384
1385
1386
1387
1388
1389
1389
1390
1390
1391
1345
1371
1432
1501
1510
1377
1083
690
332
114
60
106
174
221
179
179
179
179
179
179
179
179
179
179
179
179
179
179
179
179
179
179
179
179
179
179
182
183
180
174
168
171
191
235
300
380
465
548
629
700
769
837
908
986
1066
1148
1222
1291
1356
1418
1484
1549
1614
1675
1736
1798
1859
1920
1979
2037
2089
2141
2193
2246
2301
2358
2411
2461
2509
2553
2592
2629
2666
2708
2753
2804
2852
2894
2930
2961
2993
3023
3058
3090
3121
3153
3184
3215
3245
3274
3302
3329
3354
3380
3405
3431
3457
3483
3507
3531
3553
3570
3583
3593
3608
3631
3660
3692
3717
3733
3743
3749
3756
3770
3784
3799
3811
3823
3834
3845
3855
3864
3874
3883
3892
3900
3907
3912
3915
3913
3918
3919
3919
3915
3908
3901
3898
3900
3907
3915
3919
3919
3918
3913
3916
3916
3916
3916
3916
3916
3916
3916
3916
3916
3916
3916
3916
3916
3916
3916
3913
3919
3920
3919
3913
3904
3896
3893
3900
3909
3918
3921
3916
3906
3892
3883
3874
3867
3862
3857
3851
3844
3836
3829
3822
3819
3814
3811
3807
3801
3795
3784
3777
3776
3765
3752
3732
3715
3709
3717
3733
3743
3742
3727
3709
3692
3681
3679
3668
3660
3653
3647
3645
3641
3633
3623
3611
3602
3595
3595
3590
3584
3575
3569
3562
3553
3543
3526
3510
3500
3502
3511
3518
3515
3503
3486
3465
3456
3451
3444
3437
3428
3420
3411
3401
3393
3387
3382
3380
3375
3391
3368
3328
3284
3270
3328
3469
3661
3837
3946
3975
3953
3920
3895
3916
3916
3916
3916
3916
3916
3916
3916
3916
3916
3916
3916
3916
3916
3916
3916
3916
3916
3916
3916
3916
3916
3914
3913
3914
3919
3925
3926
3913
3878
3821
3748
3668
3590
3516
3446
3377
3308
3241
3174
3107
3042
2977
2913
2850
2788
2728
2669
2611
2555
2499
2445
2391
2338
2285
2235
2185
2136
2089
2044
1998
1953
1909
1866
1825
1784
1746
1711
1676
1643
1611
1578
1544
1510
1475
1439
1405
1372
1342
1312
1284
1256
1229
1204
1179
1157
1136
1116
1096
1076
1057
1037
1018
998
979
960
941
923
906
891
878
865
853
841
830
819
808
798
788
779
769
760
751
743
734
726
719
712
705
699
693
688
682
678
674
670
667
665
662
659
656
653
650
646
643
640
637
636
634
633
631
630
628
627
626
625
625
625
626
627
627
628
629
630
632
633
634
636
637
638
639
641
643
646
649
652
656
659
662
666
669
672
675
678
682
685
689
694
698
703
708
712
716
721
725
730
735
741
747
752
757
762
767
772
777
782
787
793
798
804
809
815
820
825
830
835
841
847
853
859
865
871
877
882
888
893
899
905
912
918
924
931
936
942
948
954
960
967
974
981
987
993
999
1004
1010
1016
988
1012
1061
1116
1128
1037
828
547
289
132
94
127
176
209
179
179
179
179
179
179
179
179
179
179
179
179
179
179
179
179
179
179
179
179
179
179
183
182
181
171
163
170
200
259
337
426
509
584
655
723
796
870
944
1015
1084
1155
1225
1294
1364
1431
1494
1552
1612
1671
1733
1798
1858
1921
1979
2032
2079
2121
2166
2217
2275
2338
2398
2447
2488
2523
2556
2598
2641
2681
2720
2758
2795
2830
2867
2900
2935
2967
2998
3028
3056
3085
3115
3142
3177
3206
3230
3249
3262
3275
3297
3330
3366
3401
3425
3440
3449
3459
3474
3495
3512
3529
3542
3556
3571
3586
3599
3611
3622
3633
3644
3656
3667
3678
3684
3694
3708
3716
3720
3717
3712
3715
3728
3751
3776
3791
3793
3788
3780
3774
3781
3785
3790
3794
3798
3800
3802
3803
3802
3802
3800
3802
3803
3805
3806
3806
3801
3805
3806
3802
3793
3780
3769
3769
3780
3799
3812
3810
3799
3783
3770
3764
3766
3764
3762
3758
3754
3750
3744
3738
3733
3729
3726
3722
3719
3714
3708
3701
3692
3697
3689
3681
3662
3644
3634
3639
3656
3670
3672
3658
3638
3621
3606
3610
3606
3604
3604
3597
3593
3582
3571
3562
3555
3552
3548
3543
3534
3523
3513
3501
3498
3491
3485
3472
3459
3447
3443
3448
3454
3457
3451
3438
3422
3408
3402
3397
3393
3386
3381
3375
3369
3362
3357
3355
3352
3349
3343
3336
3326
3317
3307
3302
3297
3292
3282
3270
3287
3268
3235
3202
3199
3270
3425
3634
3826
3950
3980
3958
3920
3893
3916
3916
3916
3916
3916
3916
3916
3916
3916
3916
3916
3916
3916
3916
3916
3916
3916
3916
3916
3916
3916
3916
3915
3913
3913
3917
3924
3928
3920
3891
3840
3771
3694
3616
3543
3474
3407
3338
3270
3202
3136
3070
3005
2941
2879
2817
2756
2696
2637
2580
2524
2468
2414
2360
2307
2255
2205
2156
2108
2061
2015
1969
1924
1879
1835
1793
1752
1712
1673
1635
1597
1561
1524
1489
1454
1420
1388
1357
1326
1297
1268
1239
1212
1185
1158
1133
1108
1084
1061
1039
1018
996
975
954
934
915
896
879
862
846
830
814
799
785
770
756
743
731
719
708
696
685
674
664
654
646
638
630
623
615
608
601
594
587
581
575
570
566
563
562
561
561
560
559
556
552
547
542
537
533
531
529
528
527
527
527
528
530
532
535
538
540
542
543
544
546
547
549
551
554
558
562
566
571
576
581
586
592
597
602
607
612
616
620
624
629
634
639
645
651
656
662
668
674
680
686
693
700
707
714
720
726
731
736
741
746
752
757
763
769
774
779
783
788
792
798
804
810
816
823
829
835
841
847
853
859
865
871
877
883
888
893
898
904
910
916
923
930
937
944
951
957
963
968
974
980
953
977
1025
1078
1090
1003
803
533
286
135
97
128
175
208
179
179
179
179
179
179
179
179
179
179
179
179
179
179
179
179
179
179
179
179
179
179
179
182
183
180
173
167
169
193
241
312
395
481
563
639
708
778
849
919
993
1068
1139
1210
1278
1343
1404
1459
1515
1574
1638
1707
1775
1836
1890
1940
1989
2038
2091
2141
2191
2239
2287
2334
2381
2427
2473
2517
2562
2605
2646
2685
2721
2755
2788
2821
2853
2882
2904
2926
2949
2979
3018
3061
3100
3130
3152
3168
3180
3205
3227
3251
3273
3295
3315
3334
3353
3371
3388
3405
3420
3436
3452
3468
3485
3496
3518
3534
3545
3546
3540
3537
3549
3579
3617
3648
3661
3658
3651
3641
3648
3662
3672
3679
3686
3692
3697
3702
3706
3710
3714
3718
3721
3725
3728
3730
3727
3734
3734
3737
3732
3725
3719
3717
3727
3741
3753
3756
3750
3741
3732
3731
3731
3734
3734
3731
3729
3725
3722
3720
3716
3715
3712
3710
3709
3707
3705
3701
3697
3696
3689
3682
3668
3657
3653
3660
3672
3680
3681
3670
3654
3644
3631
3633
3628
3626
3617
3617
3612
3605
3597
3587
3581
3579
3582
3584
3582
3574
3564
3554
3545
3546
3540
3529
3515
3503
3499
3503
3509
3511
3507
3495
3482
3470
3466
3461
3457
3450
3443
3435
3427
3422
3417
3415
3414
3409
3402
3391
3381
3371
3360
3362
3357
3349
3335
3321
3310
3308
3320
3331
3338
3332
3317
3298
3275
3269
3288
3267
3226
3182
3171
3241
3406
3627
3829
3953
3983
3957
3919
3891
3916
3916
3916
3916
3916
3916
3916
3916
3916
3916
3916
3916
3916
3916
3916
3916
3916
3916
3916
3916
3916
3916
3916
3916
3916
3916
3916
3916
3916
3916
3915
3912
3913
3918
3926
3928
3915
3880
3823
3749
3669
3590
3516
3446
3377
3306
3236
3167
3099
3032
2966
2900
2835
2771
2708
2646
2585
2525
2466
2408
2351
2293
2236
2181
2126
2073
2022
1972
1924
1877
1831
1787
1743
1700
1658
1617
1577
1537
1498
1460
1422
1385
1348
1312
1276
1242
1209
1177
1147
1117
1087
1059
1031
1003
976
949
924
900
877
854
832
810
788
767
746
727
709
691
673
657
641
625
610
596
583
570
557
546
536
526
516
507
497
488
479
471
464
457
450
444
439
433
427
421
416
411
407
404
402
402
403
404
405
405
403
399
394
390
386
384
383
383
384
385
387
389
391
395
400
405
409
413
416
418
421
423
426
429
434
438
443
448
453
459
465
472
479
487
494
501
508
515
521
527
534
540
546
551
557
562
566
568
571
573
575
578
581
585
589
593
598
602
606
611
616
622
629
636
643
650
657
663
670
677
683
686
686
683
678
673
668
664
661
658
655
654
653
653
653
655
657
659
661
663
666
669
653
668
698
738
775
693
513
302
181
250
504
824
1049
1091
934
721
525
386
342
293
254
229
219
228
252
287
324
363
407
454
509
569
633
696
761
830
900
970
1041
1112
1181
1246
1313
1378
1445
1514
1579
1645
1708
1769
1825
1874
1924
1978
2036
2098
2161
2215
2263
2305
2348
2391
2439
2486
2531
2572
2611
2645
2672
2702
2732
2762
2783
2801
2818
2844
2882
2930
2973
3005
3020
3028
3028
3039
3058
3086
3117
3149
3175
3192
3200
3206
3210
3222
3235
3249
3261
3272
3284
3293
3302
3309
3316
3323
3330
3338
3345
3352
3358
3359
3372
3378
3380
3376
3368
3365
3371
3389
3411
3426
3430
3425
3418
3407
3414
3415
3416
3418
3420
3422
3422
3422
3421
3420
3421
3421
3422
3422
3423
3423
3419
3427
3426
3425
3417
3407
3400
3401
3415
3430
3441
3440
3429
3418
3405
3408
3407
3411
3412
3410
3409
3406
3403
3400
3397
3396
3394
3393
3392
3390
3387
3383
3378
3384
3378
3373
3361
3346
3339
3343
3357
3371
3379
3374
3363
3350
3336
3339
3333
3333
3331
3326
3324
3320
3316
3312
3310
3306
3303
3298
3293
3289
3285
3287
3288
3283
3275
3259
3245
3238
3246
3259
3272
3276
3270
3255
3239
3226
3220
3213
3208
3202
3197
3191
3183
3177
3172
3171
3171
3169
3164
3155
3145
3136
3124
3130
3125
3116
3106
3089
3076
3072
3080
3093
3102
3100
3090
3074
3055
3055
3050
3043
3042
3036
3031
3026
3021
3015
3006
2997
2881
2930
3059
3343
3254
2754
1896
1044
731
1208
2289
3423
58
263
3
3902
3781
3901
3916
3916
3916
3916
3916
3916
3916
3916
3916
3916
3916
3916
3916
3916
3916
3916
3916
3916
3916
3916
3916
3916
3916
3916
3916
3916
3916
3916
3916
3915
3910
3911
3918
3928
3936
3922
3876
3789
3672
3543
3413
3297
3189
3088
2986
2885
2788
2692
2602
2513
2427
2345
2263
2186
2111
2038
1968
1896
1829
1763
1699
1639
1579
1524
1469
1417
1367
1316
1267
1218
1171
1127
1084
1045
1007
970
936
902
872
841
809
777
741
709
678
648
620
594
571
546
525
505
482
460
436
416
401
385
372
357
340
326
312
298
287
275
264
253
244
235
227
220
213
210
204
198
192
187
186
185
184
182
180
180
180
181
180
179
179
179
179
179
179
179
179
179
180
180
179
179
179
182
184
185
185
186
189
191
194
195
198
202
207
213
218
221
224
226
231
236
240
245
250
256
262
268
274
281
291
298
304
306
306
312
318
323
327
329
334
342
350
360
366
372
381
389
398
406
412
418
424
434
444
454
465
471
479
485
497
510
524
538
545
549
552
556
565
573
586
594
601
610
618
630
641
651
663
672
684
696
709
721
729
735
738
739
747
754
763
768
770
774
898
851
720
433
530
1065
1994
2926
3314
2879
1809
674
4032
3825
0
197
314
196
179
179
179
179
179
179
179
179
179
179
179
179
179
179
179
179
180
181
180
175
173
175
186
207
241
288
343
408
471
526
571
606
638
669
709
746
785
821
854
887
920
951
982
1011
1040
1067
1092
1116
1138
1160
1182
1207
1232
1255
1267
1276
1285
1302
1330
1363
1395
1416
1427
1434
1440
1453
1467
1484
1495
1508
1522
1536
1549
1559
1569
1578
1590
1602
1614
1626
1636
1638
1654
1665
1672
1679
1676
1674
1677
1691
1714
1737
1755
1763
1767
1762
1768
1772
1775
1786
1795
1803
1811
1816
1821
1827
1832
1839
1844
1849
1855
1864
1869
1879
1896
1902
1900
1888
1874
1867
1877
1899
1923
1936
1937
1931
1922
1920
1930
1935
1945
1950
1956
1960
1963
1966
1970
1977
1983
1989
1996
2000
2005
2008
2013
2020
2027
2029
2023
2014
2012
2020
2041
2060
2072
2072
2063
2056
2049
2052
2054
2058
2058
2059
2063
2066
2071
2073
2072
2071
2072
2073
2076
2079
2081
2079
2092
2098
2104
2093
2075
2066
2067
2084
2094
2091
2079
2072
2084
2105
2137
2140
2127
2099
2075
2069
2070
2078
2076
2077
2079
2080
2080
2078
2076
2073
2070
2073
2077
2077
2072
2064
2058
2060
2067
2079
2088
2087
2080
2070
2063
2061
2062
2063
2061
2060
2060
2060
2057
2054
2050
2046
2043
2044
2045
2046
2046
2044
2043
2042
2043
2039
2034
2027
2025
2028
2035
2043
2045
2041
2037
2031
2101
2061
1975
1839
1796
2062
2635
3337
3819
3792
3212
2327
1489
920
752
688
683
646
548
489
450
423
406
398
397
403
416
434
456
483
514
548
584
621
660
699
739
779
820
862
904
947
988
1030
1070
1109
1147
1185
1222
1258
1294
1331
1366
1401
1436
1469
1501
1532
1562
1591
1620
1649
1676
1703
1728
1753
1776
1798
1819
1840
1859
1878
1897
1915
1932
1948
1963
1978
1992
2006
2020
2034
2048
2061
2074
2088
2100
2112
2124
2136
2147
2158
2169
2181
2192
2203
2214
2225
2236
2246
2257
2267
2276
2284
2290
2295
2298
2300
2301
2301
2301
2302
2302
2303
2305
2307
2309
2312
2315
2319
2323
2327
2332
2336
2340
2343
2346
2348
2350
2352
2354
2357
2359
2361
2362
2363
2364
2365
2366
2367
2368
2370
2372
2374
2376
2377
2377
2379
2381
2385
2390
2395
2400
2403
2403
2401
2397
2392
2387
2385
2384
2385
2386
2387
2388
2388
2388
2388
2388
2390
2391
2393
2395
2397
2399
2400
2402
2402
2402
2401
2401
2401
2401
2401
2400
2399
2396
2394
2391
2389
2388
2386
2386
2385
2385
2384
2383
2383
2383
2383
2383
2383
2383
2383
2384
2383
2383
2383
2382
2380
2379
2377
2375
2373
2370
2367
2364
2360
2356
2353
2350
2347
2344
2341
2338
2335
2332
2328
2325
2321
2318
2315
2313
2310
2308
2305
2301
2298
2294
2291
2288
2286
2285
2283
2281
2279
2276
2274
2271
2269
2244
2198
2279
2393
2460
2345
1951
1330
670
189
4082
11
126
223
256
179
179
179
179
179
179
179
179
179
179
179
179
179
179
179
179
179
179
179
179
179
180
181
184
179
172
166
173
201
253
325
404
480
547
612
674
737
796
853
913
982
1060
1139
1214
1279
1335
1389
1442
1504
1566
1629
1689
1748
1807
1864
1918
1971
2022
2071
2120
2169
2216
2263
2310
2350
2404
2451
2492
2527
2558
2593
2635
2687
2741
2790
2828
2857
2883
2902
2933
2960
2984
3009
3034
3060
3085
3109
3132
3154
3177
3200
3223
3244
3264
3282
3298
3320
3336
3352
3361
3366
3369
3378
3396
3418
3438
3450
3454
3456
3458
3469
3479
3495
3508
3517
3525
3531
3537
3543
3550
3559
3566
3573
3579
3583
3587
3589
3589
3601
3603
3606
3598
3589
3586
3597
3619
3639
3651
3649
3643
3637
3633
3646
3648
3651
3653
3653
3655
3659
3661
3661
3661
3662
3663
3671
3675
3676
3672
3668
3669
3673
3680
3680
3674
3668
3669
3679
3692
3705
3707
3703
3698
3694
3699
3702
3706
3706
3706
3702
3701
3701
3705
3710
3716
3717
3715
3708
3703
3699
3694
3705
3708
3705
3697
3683
3676
3680
3699
3723
3743
3747
3741
3730
3718
3723
3723
3720
3717
3713
3710
3708
3707
3705
3701
3698
3696
3696
3697
3697
3697
3695
3699
3701
3702
3697
3689
3684
3684
3694
3706
3717
3719
3714
3709
3701
3705
3705
3706
3705
3702
3703
3703
3703
3704
3703
3701
3697
3694
3692
3700
3701
3692
3680
3673
3689
3736
3803
3874
3921
3938
3932
3920
3910
3909
3916
3916
3916
3916
3916
3916
3916
3916
3916
3916
3916
3916
3916
3916
3916
3916
3916
3916
3916
3916
3916
3916
3916
3916
3916
3916
3916
3916
3916
3916
3916
3916
3916
3916
3916
3916
3916
3916
3916
3916
3916
3916
3916
3916
3916
3916
3916
3916
3916
3916
3916
3916
3916
3916
3916
3916
3916
3916
3916
3916
3916
3916
3916
3916
3916
3916
3916
3916
3916
3916
3916
3916
3916
3916
3916
3916
3916
3916
3916
3916
3916
3916
3916
3916
3916
3916
3916
3916
3916
3916
3916
3916
3916
3916
3916
3916
3916
3916
3916
3916
3916
3916
3916
3916
3916
3916
3916
3916
3916
3916
3916
3916
3916
3916
3916
3916
3916
3916
3916
3916
3916
3916
3916
3916
3916
3916
3916
3916
3916
3916
3916
3916
3916
3916
3916
3916
3916
3916
3916
3916
3916
3916
3916
3916
3916
3916
3916
3916
3916
3916
3916
3916
3916
3916
3916
3916
3916
3916
3916
3916
3916
3916
3916
3916
3916
3916
3916
3916
3916
3916
3916
3916
3916
3916
3916
3916
3916
3916
3916
3916
3916
3916
3916
3916
3916
3916
3916
3916
3916
3916
3916
3916
3916
3916
3916
3916
3916
3916
3916
3916
3916
3916
3916
3916
3916
3916
3916
3916
3916
3916
3916
3916
3916
3915
3914
3915
3919
3922
3921
3910
3885
3848
3804
3759
3716
3676
3639
3600
3561
3522
3484
3447
3410
3374
3338
3303
3266
3230
3194
3158
3123
3030
2978
3058
3176
3218
3010
2442
1604
749
152
4017
4068
124
246
274
179
179
179
179
179
179
179
179
179
179
179
179
179
179
179
179
179
179
179
179
179
179
179
179
179
179
179
179
179
179
179
179
179
179
179
179
179
179
179
179
179
179
179
179
179
179
179
179
179
179
179
179
179
179
179
179
179
179
179
179
179
179
179
179
179
179
179
179
179
179
179
179
179
179
179
179
179
179
179
179
179
179
179
179
179
179
179
179
179
179
179
179
179
179
179
179
179
179
179
179
179
179
179
179
179
179
179
179
179
179
179
179
179
179
179
179
179
179
179
179
179
179
179
179
179
179
179
179
179
179
179
179
179
179
179
179
179
179
179
179
179
179
179
179
179
181
181
180
176
173
174
185
209
246
290
337
383
427
469
512
556
600
644
688
730
771
811
848
885
915
960
999
1030
1064
1088
1111
1141
1182
1229
1277
1318
1349
1376
1394
1427
1456
1483
1518
1548
1576
1605
1632
1660
1688
1718
1747
1778
1805
1835
1864
1895
1930
1967
2007
2042
2074
2106
2142
2186
2236
2289
2335
2375
2411
2447
2488
2532
2580
2625
2669
2713
2760
2806
2850
2893
2935
2976
3017
3060
3102
3143
3181
3218
3258
3297
3330
3358
3383
3413
3450
3495
3539
3574
3598
3614
3492
3582
3781
32
4043
3467
2448
1407
942
1337
2387
3496
99
279
4068
3877
3775
3916
3916
3916
3916
3916
3916
3916
3916
3916
3916
3916
3916
3916
3916
3916
3916
3916
3916
3916
3916
3916
3916
3916
3916
3916
3916
3915
3912
3910
3915
3927
3936
3928
3885
3799
3682
3551
3425
3311
3208
3111
3013
2919
2829
2747
2668
2589
2510
2430
2355
2287
2222
2167
2119
2083
2061
2048
2045
2042
2039
2031
2020
2010
1998
1987
1975
1960
1946
1928
1914
1897
1879
1861
1840
1823
1807
1791
1775
1753
1734
1714
1694
1676
1655
1629
1598
1567
1536
1504
1473
1440
1409
1379
1349
1323
1295
1270
1246
1220
1197
1172
1149
1127
1108
1092
1076
1057
1033
1003
968
932
897
865
836
810
784
756
728
702
678
654
630
607
584
568
555
541
527
511
500
493
487
484
478
473
473
471
470
465
459
452
447
451
456
464
472
471
466
449
426
397
368
346
327
317
313
315
325
338
360
378
397
418
437
457
477
497
518
535
555
573
591
612
631
654
674
693
715
732
748
759
767
776
789
808
829
851
869
881
894
906
924
944
963
983
999
1015
1032
1047
1063
1078
1093
1108
1122
1137
1151
1164
1179
1196
1216
1238
1261
1283
1306
1332
1354
1374
1390
1401
1412
1424
1438
1455
1473
1491
1509
1525
1542
1559
1573
1589
1602
1615
1684
1703
1620
1466
1363
1607
2234
3054
3658
3645
2937
1832
796
160
4079
130
253
307
243
231
231
237
245
261
288
327
367
403
432
456
482
510
545
585
617
652
686
721
755
788
819
847
875
902
928
956
982
1008
1032
1055
1088
1114
1137
1155
1169
1187
1211
1243
1275
1300
1314
1323
1332
1341
1362
1380
1396
1414
1431
1448
1462
1475
1488
1499
1511
1525
1538
1551
1562
1573
1582
1595
1615
1628
1634
1631
1629
1633
1652
1681
1707
1722
1725
1721
1720
1723
1738
1748
1758
1765
1774
1781
1789
1796
1803
1808
1814
1819
1824
1828
1833
1836
1836
1852
1854
1858
1850
1838
1832
1840
1862
1886
1902
1903
1895
1887
1878
1889
1890
1895
1897
1899
1903
1908
1911
1913
1914
1916
1919
1924
1929
1932
1933
1932
1934
1935
1937
1936
1930
1925
1924
1931
1943
1956
1964
1966
1962
1956
1959
1962
1963
1970
1971
1971
1972
1973
1976
1980
1986
1989
1992
1992
1992
1992
1990
1996
1999
2003
2002
1999
1997
1998
2008
2021
2031
2036
2031
2024
2018
2022
2027
2034
2037
2040
2046
2050
2052
2050
2044
2036
2030
2028
2030
2034
2037
2038
2039
2041
2045
2042
2039
2033
2031
2036
2045
2056
2061
2060
2057
2052
2050
2050
2053
2053
2054
2058
2060
2063
2065
2067
2068
2067
2069
2073
2082
2094
2106
2118
2127
2136
2140
2140
2140
2146
2158
2176
2195
2209
2216
2217
2219
2222
2229
2238
2245
2250
2256
2259
2262
2264
2267
2270
2272
2275
2277
2278
2280
2282
2277
2255
2243
2322
2420
2452
2348
1934
1269
556
67
15
418
1115
1857
2427
2750
2953
3066
3152
3288
3409
3504
3584
3651
3705
3750
3782
3809
3826
3837
3844
3844
3841
3833
3822
3808
3790
3771
3748
3726
3704
3681
3658
3631
3604
3577
3549
3523
3497
3469
3442
3415
3388
3363
3338
3314
3289
3264
3240
3216
3194
3173
3155
3136
3116
3096
3073
3049
3025
3002
2980
2962
2952
2941
2925
2905
2882
2863
2850
2838
2827
2813
2799
2787
2774
2763
2749
2735
2721
2706
2696
2685
2674
2663
2651
2641
2628
2617
2606
2594
2584
2573
2565
2555
2545
2537
2525
2517
2508
2498
2491
2482
2476
2467
2461
2454
2447
2443
2436
2430
2421
2410
2403
2394
2390
2385
2376
2367
2357
2346
2341
2337
2334
2331
2321
2312
2302
2293
2288
2282
2277
2270
2264
2261
2254
2249
2242
2240
2239
2240
2240
2233
2224
2212
2202
2196
2189
2187
2180
2174
2169
2164
2161
2157
2153
2150
2142
2138
2132
2127
2124
2121
2119
2117
2113
2113
2109
2105
2097
2085
2076
2070
2071
2076
2081
2084
2081
2078
2071
2069
2068
2066
2066
2065
2065
2065
2063
2063
2060
2059
2058
2054
2052
2047
2043
2040
2038
2039
2038
2036
2036
2037
2040
2043
2041
2039
2033
2030
2031
2031
2033
2033
2032
2033
2032
2032
2029
2028
2026
2024
2024
2022
2023
2023
2023
2024
2022
2022
2020
2020
2021
2021
2022
2021
2021
2020
2019
2019
2017
2015
2015
2052
2071
1991
1883
1784
1907
2350
3021
3661
3962
3778
3205
2512
1951
1647
1601
1573
1561
1490
1414
1360
1315
1278
1247
1220
1199
1181
1167
1157
1143
1115
1125
1169
1212
1204
1089
854
556
290
132
94
127
178
206
192
179
179
179
179
179
179
179
179
179
179
179
179
179
179
179
179
179
179
179
179
179
179
179
179
179
179
179
179
179
179
179
179
179
179
179
179
179
179
179
179
179
179
179
179
179
180
183
179
185
173
167
165
189
248
343
459
573
672
753
826
904
979
1071
1151
1233
1310
1385
1461
1536
1607
1676
1745
1816
1888
1959
2028
2093
2155
2216
2278
2340
2401
2455
2507
2559
2616
2677
2738
2795
2846
2895
2942
2985
3035
3079
3123
3165
3209
3251
3290
3331
3372
3415
3457
3495
3531
3562
3593
3623
3648
3688
3721
3750
3772
3789
3806
3827
3858
3890
3916
3926
3925
3920
3911
3916
3916
3916
3916
3916
3916
3916
3916
3916
3916
3916
3916
3916
3916
3916
3916
3916
3916
3916
3916
3916
3916
3916
3916
3916
3916
3916
3916
3916
3916
3916
3916
3916
3916
3916
3916
3916
3916
3916
3916
3916
3916
3916
3916
3916
3916
3916
3916
3916
3916
3916
3916
3916
3916
3916
3916
3916
3916
3916
3916
3916
3916
3916
3916
3916
3916
3916
3916
3916
3916
3916
3916
3916
3916
3916
3916
3916
3916
3916
3916
3916
3916
3916
3916
3916
3916
3916
3916
3916
3916
3916
3916
3916
3916
3916
3916
3916
3916
3916
3916
3916
3771
3848
4028
276
208
3708
2615
1438
813
1093
2128
3316
33
300
15
3912
3785
3889
3916
3916
3916
3916
3916
3916
3916
3916
3916
3916
3916
3916
3916
3916
3916
3916
3916
3916
3916
3916
3916
3916
3916
3916
3916
3916
3916
3916
3916
3916
3916
3916
3916
3916
3916
3916
3916
3916
3916
3916
3916
3916
3916
3916
3916
3916
3916
3916
3916
3916
3916
3916
3916
3909
3908
3916
3932
3943
3929
3871
3762
3613
3447
3285
3136
2998
2870
2740
2619
2505
2398
2295
2190
2086
1982
1879
1779
1683
1593
1504
1421
1343
1268
1200
1133
1069
1008
947
889
836
784
736
690
645
603
563
526
490
458
427
400
377
355
337
320
300
283
264
252
241
234
226
214
203
189
182
177
175
180
179
180
180
179
179
179
179
179
179
179
179
179
179
179
179
179
179
179
179
179
179
179
180
179
178
179
180
185
190
195
202
205
211
217
223
230
237
246
252
259
265
272
281
289
301
312
323
334
342
353
362
374
388
404
423
439
456
470
478
487
494
504
517
531
545
557
570
585
599
611
622
629
634
637
643
650
660
671
683
692
702
711
721
733
750
769
791
814
836
857
878
896
916
933
953
972
990
1008
1024
1040
1055
1070
1085
1100
1116
1132
1146
1160
1172
1184
1196
1207
1220
1304
1321
1223
1044
938
1224
1944
2887
3591
3613
2868
1693
605
4055
3914
25
191
266
206
187
180
179
180
181
179
177
174
176
185
203
230
264
295
324
353
386
424
467
507
541
565
593
617
646
670
693
717
747
787
831
871
899
920
938
958
985
1009
1033
1051
1065
1078
1089
1098
1106
1113
1121
1129
1138
1148
1158
1167
1175
1185
1195
1198
1202
1198
1198
1206
1225
1251
1275
1291
1299
1304
1305
1310
1319
1320
1326
1331
1341
1355
1367
1376
1383
1386
1390
1397
1407
1417
1426
1432
1445
1460
1479
1500
1512
1525
1541
1561
1600
1633
1659
1675
1685
1692
1706
1729
1747
1765
1775
1785
1795
1805
1820
1831
1844
1858
1869
1877
1881
1886
1888
1892
1908
1919
1922
1920
1912
1910
1920
1945
1973
1994
2000
1997
1992
1988
1996
2007
2010
2013
2011
2013
2017
2021
2026
2030
2029
2028
2028
2031
2034
2038
2040
2045
2048
2053
2048
2044
2038
2032
2030
2031
2037
2047
2059
2074
2080
2079
2068
2059
2048
2047
2049
2053
2053
2054
2055
2055
2053
2052
2051
2053
2057
2060
2049
2029
2043
2110
2180
2163
1968
1561
1027
520
179
49
73
154
211
208
187
179
179
179
179
179
179
179
179
179
179
179
179
179
179
179
179
179
179
179
179
179
179
179
179
179
179
179
179
179
179
179
179
179
179
179
181
184
181
174
166
166
187
235
309
402
494
593
682
762
837
909
985
1067
1157
1250
1336
1492
1515
1481
1433
1498
1795
2349
3049
3667
4035
24
4036
3921
3843
3916
3916
3916
3916
3916
3916
3916
3916
3916
3916
3916
3916
3916
3916
3916
3916
3916
3916
3916
3916
3916
3916
3916
3916
3916
3916
3916
3916
3916
3916
3916
3916
3916
3916
3916
3916
3916
3916
3916
3916
3916
3916
3916
3916
3916
3916
3916
3916
3916
3916
3916
3916
3916
3916
3916
3916
3916
3916
3916
3916
3916
3916
3916
3916
3916
3916
3916
3916
3916
3916
3914
3915
3917
3920
3922
3917
3902
3876
3840
3800
3761
3723
3687
3653
3617
3583
3549
3516
3484
3452
3420
3388
3356
3324
3293
3262
3231
3202
3172
3143
3114
3084
3055
3027
2998
2971
2944
2918
2893
2868
2844
2819
2794
2769
2744
2720
2697
2674
2652
2630
2608
2586
2565
2543
2522
2502
2483
2463
2445
2426
2407
2387
2368
2350
2332
2315
2298
2283
2268
2254
2240
2225
2210
2195
2180
2165
2151
2137
2124
2111
2098
2086
2073
2060
2048
2036
2025
2014
2003
1993
1983
1973
1962
1952
1942
1933
1924
1916
1908
1900
1892
1884
1876
1867
1859
1852
1845
1840
1835
1830
1825
1819
1811
1802
1793
1783
1776
1769
1764
1760
1755
1749
1744
1738
1733
1728
1724
1721
1718
1714
1711
1707
1703
1699
1696
1692
1689
1686
1684
1682
1681
1679
1678
1676
1675
1673
1671
1669
1667
1665
1663
1660
1658
1655
1652
1648
1646
1644
1642
1640
1638
1637
1635
1633
1631
1630
1581
1589
1651
1733
1767
1657
1351
902
453
147
39
73
155
219
227
179
179
179
179
179
179
179
179
179
179
179
179
179
179
179
179
179
179
179
179
179
179
179
179
179
179
179
179
179
179
179
179
181
183
181
175
169
169
190
229
288
355
425
499
576
656
737
810
874
931
990
1052
1118
1183
1248
1309
1368
1428
1486
1546
1604
1661
1720
1778
1837
1896
1952
2005
2048
2101
2147
2196
2235
2269
2302
2343
2395
2464
2527
2578
2614
2641
2665
2708
2749
2792
2830
2861
2893
2926
2958
2998
3033
3069
3103
3133
3161
3187
3214
3237
3275
3306
3332
3351
3361
3374
3397
3431
3471
3507
3532
3548
3559
3568
3587
3608
3625
3644
3657
3675
3693
3711
3727
3741
3753
3763
3776
3787
3799
3811
3821
3835
3847
3860
3869
3873
3874
3878
3885
3896
3909
3917
3920
3919
3916
3916
3916
3916
3916
3916
3916
3916
3916
3916
3916
3916
3916
3916
3916
3916
3916
3916
3916
3916
3916
3916
3916
3916
3916
3916
3916
3916
3916
3916
3916
3916
3916
3916
3916
3916
3916
3916
3916
3916
3916
3916
3916
3916
3916
3916
3916
3916
3916
3916
3917
3919
3918
3912
3905
3896
3893
3894
3898
3900
3896
3887
3876
3867
3861
3856
3853
3847
3842
3836
3830
3824
3818
3813
3808
3805
3803
3799
3795
3788
3777
3769
3759
3748
3733
3717
3707
3702
3703
3708
3709
3703
3691
3677
3663
3657
3653
3648
3644
3641
3636
3644
3630
3607
3581
3572
3602
3677
3779
3874
3933
3948
3935
3918
3905
3916
3916
3916
3916
3916
3916
3916
3916
3916
3916
3916
3916
3916
3916
3916
3916
3916
3916
3916
3916
3916
3916
3916
3916
3916
3916
3916
3916
3916
3916
3916
3916
3916
3916
3916
3916
3916
3916
3916
3916
3916
3916
3916
3916
3916
3916
3916
3916
3916
3915
3913
3914
3918
3924
3926
3915
3885
3835
3770
3701
3633
3569
3508
3449
3389
3330
3272
3216
3160
3106
3052
2998
2945
2893
2841
2791
2742
2694
2647
2600
2554
2509
2463
2418
2374
2331
2289
2247
2207
2168
2129
2091
2053
2016
1979
1943
1908
1874
1841
1810
1779
1750
1721
1692
1663
1634
1604
1574
1543
1513
1483
1456
1430
1405
1380
1357
1334
1312
1290
1270
1250
1231
1211
1193
1174
1156
1140
1124
1108
1094
1080
1066
1052
1039
1026
1013
1001
990
979
968
957
946
936
925
915
906
896
887
878
870
863
855
847
839
832
824
817
811
805
800
795
789
783
778
772
766
761
757
753
749
745
741
737
733
729
725
721
719
716
714
712
710
707
705
702
701
699
699
699
699
699
699
699
699
699
698
698
699
699
700
701
702
702
703
703
704
705
707
709
711
713
715
717
719
720
723
726
729
732
736
739
742
745
747
750
753
756
760
763
767
771
774
778
781
785
788
792
774
804
845
875
853
742
555
349
192
121
124
159
191
204
179
179
179
179
179
179
179
179
179
179
179
179
179
179
179
179
179
179
179
179
179
179
179
179
179
179
179
179
179
179
179
179
179
179
179
179
179
179
179
179
179
179
179
179
179
179
179
179
180
182
181
177
170
169
181
214
268
335
406
479
546
608
663
719
776
841
912
984
1049
1106
1160
1212
1261
1319
1371
1422
1474
1531
1587
1639
1689
1738
1787
1839
1887
1935
1975
2015
2056
2093
2145
2190
2228
2258
2285
2314
2351
2403
2460
2513
2554
2583
2609
2632
2665
2700
2730
2760
2789
2819
2848
2877
2905
2931
2957
2982
3007
3032
3056
3082
3103
3132
3155
3177
3193
3203
3215
3234
3263
3296
3328
3350
3364
3376
3386
3405
3423
3440
3455
3465
3477
3487
3498
3511
3524
3535
3543
3554
3563
3575
3588
3597
3610
3628
3633
3636
3627
3621
3625
3644
3674
3702
3719
3720
3714
3707
3705
3716
3719
3726
3730
3735
3739
3744
3748
3752
3754
3756
3758
3759
3761
3764
3764
3771
3773
3775
3773
3765
3758
3755
3763
3776
3790
3797
3793
3785
3773
3767
3765
3763
3765
3763
3762
3762
3759
3755
3750
3746
3742
3738
3737
3734
3733
3729
3725
3726
3722
3717
3705
3690
3681
3680
3688
3701
3707
3702
3691
3675
3662
3658
3655
3652
3648
3645
3640
3636
3629
3623
3617
3611
3607
3603
3599
3593
3588
3452
3514
3670
3956
3937
3390
2371
1252
632
888
1913
3143
4038
287
57
3950
3803
3858
3916
3916
3916
3916
3916
3916
3916
3916
3916
3916
3916
3916
3916
3916
3916
3916
3916
3916
3916
3916
3916
3916
3916
3916
3916
3916
3916
3916
3916
3916
3916
3916
3916
3916
3916
3916
3916
3916
3916
3916
3916
3916
3916
3916
3916
3916
3916
3916
3916
3916
3916
3916
3916
3916
3916
3916
3916
3916
3916
3916
3916
3916
3916
3916
3916
3916
3916
3916
3916
3915
3912
3914
3920
3926
3928
3911
3874
3811
3734
3654
3575
3504
3437
3374
3311
3248
3185
3117
3052
2988
2927
2872
2815
2761
2706
2650
2600
2548
2496
2439
2380
2324
2272
2229
2189
2151
2110
2065
2021
1974
1932
1892
1852
1814
1776
1738
1702
1663
1628
1593
1557
1525
1491
1460
1429
1398
1369
1339
1311
1280
1253
1226
1202
1180
1157
1135
1110
1082
1055
1028
1005
986
969
951
932
912
894
876
858
841
823
805
788
774
761
747
734
720
705
693
679
667
655
644
634
624
614
603
593
583
573
565
555
548
542
535
529
522
515
508
501
495
490
487
483
480
477
472
469
466
462
459
456
455
454
452
451
449
448
447
445
444
443
444
445
446
447
447
448
448
448
449
450
453
456
457
459
459
460
462
464
467
469
472
475
476
477
476
475
476
477
480
554
590
452
233
75
366
1204
2383
3399
3716
3166
2048
900
133
3968
31
158
250
201
190
186
181
179
179
179
179
179
179
179
179
179
179
179
179
179
179
179
179
179
179
179
179
179
179
179
179
179
179
179
179
179
179
180
180
178
177
176
179
187
199
216
233
248
268
289
306
323
331
339
352
374
403
431
453
466
475
484
496
515
529
544
557
572
589
606
623
637
653
671
687
703
716
726
737
747
765
787
798
800
797
794
804
832
870
906
925
930
928
925
936
954
967
982
993
1003
1014
1023
1033
1043
1052
1063
1074
1085
1099
1109
1119
1111
1118
1171
1233
1259
1186
981
681
380
171
91
108
161
203
201
179
179
179
179
179
179
179
179
179
179
179
179
179
179
179
179
179
179
179
179
179
179
179
179
179
179
179
179
179
179
179
179
179
179
179
179
179
179
179
179
179
179
179
179
179
179
179
179
179
179
179
179
179
179
179
179
179
179
181
181
179
176
173
176
188
212
245
283
321
358
390
419
447
475
502
529
555
577
593
610
625
638
643
644
646
653
667
688
704
713
715
713
711
717
727
735
742
749
753
756
758
762
765
769
777
783
792
800
808
812
822
830
836
839
838
839
850
872
904
934
955
966
973
980
993
1010
1026
1042
1056
1175
1132
1025
911
946
1297
1989
2864
3632
4080
77
4061
3916
3821
3916
3916
3916
3916
3916
3916
3916
3916
3916
3916
3916
3916
3916
3916
3916
3916
3916
3916
3916
3916
3916
3916
3916
3916
3916
3916
3916
3916
3916
3916
3916
3916
3916
3916
3916
3916
3916
3916
3916
3916
3916
3916
3916
3916
3916
3916
3916
3916
3916
3916
3916
3916
3916
3916
3916
3916
3916
3916
3916
3916
3916
3916
3916
3916
3916
3916
3916
3916
3916
3916
3916
3916
3916
3916
3916
3916
3916
3916
3916
3916
3916
3916
3916
3916
3916
3916
3916
3916
3916
3916
3916
3916
3916
3916
3916
3916
3916
3916
3916
3916
3916
3916
3916
3916
3916
3916
3916
3916
3916
3916
3916
3916
3916
3916
3916
3916
3916
3916
3916
3916
3916
3916
3916
3916
3916
3916
3916
3916
3916
3916
3916
3916
3916
3916
3916
3916
3916
3916
3916
3916
3916
3916
3916
3916
3916
3916
3916
3916
3916
3916
3916
3916
3915
3914
3915
3918
3921
3921
3912
3891
3860
3823
3783
3745
3710
3676
3642
3609
3575
3543
3510
3477
3445
3412
3380
3349
3318
3288
3259
3230
3200
3171
3142
3113
3084
3056
3028
3001
2974
2948
2922
2896
2870
2844
2818
2793
2769
2745
2721
2698
2674
2652
2629
2606
2583
2560
2538
2516
2495
2474
2453
2431
2410
2389
2368
2348
2328
2310
2291
2273
2255
2237
2219
2201
2183
2166
2149
2133
2118
2102
2087
2072
2057
2043
2027
2013
1931
1954
2025
2107
2104
1903
1472
906
394
84
10
76
173
239
179
179
179
179
179
179
179
179
179
179
179
179
179
179
179
179
179
179
179
179
179
179
179
179
179
179
179
179
179
179
179
179
179
179
179
179
179
179
179
179
179
179
179
179
179
179
179
179
179
179
179
179
179
179
179
179
179
179
179
179
179
179
179
179
179
179
179
179
179
179
179
179
179
179
179
179
179
179
179
179
179
179
180
181
182
179
174
171
174
194
232
284
349
414
476
525
567
610
657
716
784
852
911
960
1002
1044
1088
1136
1186
1232
1279
1327
1376
1422
1469
1512
1553
1594
1635
1677
1723
1769
1813
1855
1899
1939
1976
2007
2036
2068
2109
2160
2212
2257
2292
2318
2344
2372
2406
2442
2476
2509
2542
2574
2605
2633
2660
2687
2715
2744
2771
2802
2828
2854
2879
2905
2934
2956
2971
2985
3002
3028
3064
3104
3138
3163
3177
3187
3198
3214
3235
3258
3276
3296
3315
3332
3348
3364
3380
3395
3412
3426
3440
3454
3470
3480
3503
3517
3525
3531
3533
3542
3561
3586
3610
3627
3633
3635
3640
3643
3660
3670
3676
3686
3695
3704
3714
3720
3726
3730
3732
3738
3745
3754
3762
3767
3767
3774
3779
3784
3782
3777
3774
3777
3794
3817
3836
3842
3837
3825
3814
3816
3822
3831
3837
3840
3841
3838
3835
3834
3835
3837
3840
3843
3844
3844
3847
3843
3837
3830
3827
3834
3853
3879
3905
3920
3924
3921
3916
3913
3916
3916
3916
3916
3916
3916
3916
3916
3916
3916
3916
3916
3916
3916
3916
3916
3916
3916
3916
3916
3916
3916
3916
3916
3916
3916
3916
3916
3916
3916
3916
3916
3916
3916
3916
3916
3916
3916
3916
3916
3916
3916
3916
3916
3916
3916
3916
3916
3916
3916
3916
3916
3916
3916
3916
3916
3916
3916
3916
3916
3916
3916
3916
3916
3916
3916
3916
3916
3916
3916
3916
3916
3916
3916
3916
3916
3916
3916
3916
3916
3916
3916
3916
3916
3916
3916
3916
3916
3916
3916
3916
3916
3916
3916
3916
3916
3916
3916
3916
3916
3916
3916
3915
3914
3914
3917
3921
3924
3918
3897
3861
3814
3761
3709
3660
3613
3569
3523
3478
3433
3389
3345
3302
3259
3216
3174
3132
3091
3051
3011
2972
2933
2895
2857
2819
2782
2746
2710
2675
2641
2607
2573
2539
2506
2473
2440
2408
2377
2347
2317
2287
2257
2227
2198
2169
2141
2114
2087
2062
2038
2014
1988
1963
1936
1908
1881
1855
1831
1808
1786
1765
1743
1722
1701
1680
1659
1640
1622
1604
1587
1569
1552
1534
1517
1501
1485
1470
1455
1440
1425
1411
1397
1383
1370
1356
1344
1332
1320
1309
1298
1288
1277
1266
1256
1245
1235
1226
1217
1209
1201
1192
1184
1176
1167
1159
1151
1144
1137
1130
1122
1115
1108
1100
1092
1084
1077
1070
1063
1057
1051
1044
1038
1032
1025
1019
1014
977
989
1023
1063
1064
972
774
514
279
136
101
132
176
207
179
179
179
179
179
179
179
179
179
179
179
179
179
179
179
179
179
179
179
179
179
179
179
179
179
179
179
179
179
179
179
179
179
179
179
179
179
179
179
179
179
179
179
179
179
179
179
179
179
179
179
179
179
179
179
179
179
179
179
179
179
179
179
179
179
179
179
179
179
179
179
179
179
179
179
179
179
179
179
179
179
179
179
179
179
179
179
179
179
179
179
179
179
179
180
182
181
178
172
170
179
204
249
305
365
422
475
524
575
628
681
733
782
834
885
932
976
1010
1044
1085
1137
1198
1259
1310
1351
1385
1414
1454
1496
1535
1576
1615
1653
1692
1732
1771
1809
1846
1881
1915
1949
1984
2018
2051
2084
2127
2159
2189
2205
2226
2252
2289
2329
2370
2405
2437
2472
2509
2541
2573
2588
2606
2622
2649
2678
2708
2731
2754
2776
2797
2820
2842
2866
2889
2910
2930
2954
2973
2991
3003
3013
3029
3051
3081
3115
3140
3158
3168
3178
3187
3205
3223
3240
3257
3272
3285
3297
3306
3317
3329
3342
3357
3369
3381
3391
3402
3410
3423
3436
3447
3454
3458
3461
3469
3485
3504
3524
3536
3540
3542
3543
3549
3558
3569
3578
3584
3590
3596
3601
3606
3611
3617
3621
3627
3632
3637
3642
3644
3645
3654
3655
3659
3652
3646
3644
3653
3535
3625
3807
4087
12
3558
2500
1305
564
719
1699
2965
3944
277
86
3983
3823
3837
3916
3916
3916
3916
3916
3916
3916
3916
3916
3916
3916
3916
3916
3916
3916
3916
3916
3916
3916
3916
3916
3916
3916
3916
3916
3916
3916
3916
3916
3916
3916
3916
3916
3916
3916
3916
3916
3916
3916
3916
3916
3916
3916
3916
3916
3916
3916
3916
3916
3916
3916
3916
3916
3916
3916
3916
3916
3916
3916
3916
3916
3916
3916
3916
3916
3916
3916
3916
3916
3916
3916
3916
3916
3916
3916
3916
3916
3916
3916
3916
3916
3916
3916
3916
3916
3916
3916
3916
3916
3916
3916
3916
3916
3912
3913
3916
3925
3929
3921
3893
3836
3761
3673
3584
3501
3422
3349
3273
3200
3127
3056
2988
2920
2857
2794
2731
2668
2603
2540
2478
2417
2360
2304
2251
2199
2147
2097
2047
2000
1954
1908
1864
1820
1778
1736
1695
1656
1614
1578
1541
1506
1472
1438
1407
1376
1347
1318
1287
1258
1227
1198
1171
1145
1121
1096
1072
1048
1022
1000
976
952
931
910
892
873
856
840
821
805
787
770
755
740
726
712
699
686
671
659
646
632
621
610
601
592
583
575
563
555
546
538
531
523
518
512
507
502
494
488
481
475
471
467
466
464
461
459
453
451
447
443
441
439
439
439
439
439
437
437
436
434
435
434
436
438
439
442
441
442
441
443
446
563
547
397
173
32
364
1249
2457
3471
3769
3205
2090
959
197
4031
61
164
241
194
187
186
184
179
179
179
179
179
179
179
179
179
179
179
179
179
179
179
179
179
179
179
179
179
179
179
179
179
179
179
179
179
179
179
179
179
179
179
180
180
178
177
177
181
188
195
205
213
223
236
251
269
288
307
323
343
362
379
393
405
414
425
439
455
470
487
500
514
530
533
560
589
607
596
532
424
300
199
148
145
164
182
195
179
179
179
179
179
179
179
179
179
179
179
179
179
179
179
179
179
179
179
179
179
179
179
179
179
179
179
179
179
179
179
179
179
179
179
179
179
179
179
179
179
179
179
179
179
179
179
179
179
179
179
179
179
179
179
182
183
181
174
167
168
190
238
311
399
491
579
660
736
810
885
959
1032
1105
1177
1248
1318
1385
1454
1521
1585
1644
1700
1757
1817
1884
1955
2022
2081
2131
2177
2222
2272
2325
2378
2429
2479
2527
2573
2617
2661
2703
2744
2787
2828
2870
2909
2948
2984
3020
3056
3091
3120
3148
3175
3206
3244
3285
3325
3357
3381
3402
3423
3447
3474
3503
3528
3552
3575
3597
3618
3639
3658
3680
3699
3719
3739
3759
3776
3792
3806
3823
3838
3852
3862
3871
3879
3889
3901
3911
3918
3920
3917
3917
3914
3916
3916
3916
3916
3916
3916
3916
3916
3916
3916
3916
3916
3916
3916
3916
3916
3916
3916
3916
3916
3916
3916
3916
3916
3916
3916
3916
3916
3916
3916
3916
3916
3916
3916
3916
3916
3916
3916
3916
3916
3916
3916
3916
3916
3916
3916
3916
3916
3916
3916
3916
3916
3916
3916
3916
3916
3916
3916
3916
3916
3916
3916
3916
3916
3916
3916
3916
3916
3916
3916
3916
3916
3916
3916
3916
3916
3916
3916
3916
3916
3916
3916
3916
3916
3916
3916
3916
3916
3916
3916
3916
3916
3916
3916
3916
3916
3916
3916
3916
3914
3913
3916
3921
3925
3920
3900
3862
3809
3749
3689
3633
3581
3531
3481
3430
3380
3331
3283
3235
3187
3140
3094
3049
3004
2960
2917
2875
2833
2792
2751
2711
2671
2633
2595
2558
2523
2488
2453
2418
2384
2349
2316
2283
2251
2221
2191
2161
2131
2102
2073
2045
2017
1989
1962
1936
1910
1885
1861
1836
1812
1789
1766
1744
1722
1701
1681
1661
1641
1622
1603
1584
1565
1547
1530
1513
1497
1481
1466
1451
1435
1420
1405
1391
1378
1365
1353
1341
1329
1317
1305
1294
1282
1271
1260
1251
1241
1232
1223
1214
1204
1195
1187
1178
1171
1163
1157
1150
1144
1138
1132
1125
1119
1114
1109
1106
1103
1101
1098
1095
1092
1087
1081
1075
1069
1064
1060
1057
1054
1051
1048
1045
1042
1040
1039
1039
1038
1038
1038
1037
1036
1034
1033
1032
1031
1031
1031
1032
1034
1035
1037
1039
1040
1042
1044
1047
1049
1051
1053
1054
1055
1057
1058
1059
1026
1046
1092
1144
1151
1056
840
553
291
131
92
126
176
210
179
179
179
179
179
179
179
179
179
179
179
179
179
179
179
179
179
179
179
179
179
179
179
179
179
179
179
179
179
179
179
179
179
179
179
179
179
179
179
179
179
179
179
179
179
179
180
183
181
176
170
166
182
218
277
344
409
472
535
605
683
764
837
898
953
1006
1064
1123
1183
1242
1297
1353
1411
1466
1521
1574
1625
1676
1728
1780
1830
1879
1926
1972
2022
2068
2112
2149
2183
2220
2264
2315
2369
2417
2456
2489
2518
2550
2586
2623
2658
2692
2726
2759
2792
2824
2856
2886
2915
2942
2969
2996
3024
3053
3080
3109
3136
3159
3177
3192
3208
3232
3262
3297
3328
3350
3364
3375
3387
3404
3422
3444
3459
3475
3492
3508
3524
3538
3551
3562
3575
3589
3603
3619
3633
3646
3661
3673
3684
3686
3685
3686
3692
3707
3727
3744
3753
3753
3751
3749
3754
3764
3773
3779
3786
3792
3797
3800
3803
3805
3807
3811
3813
3816
3819
3822
3823
3827
3835
3835
3831
3826
3821
3826
3836
3852
3861
3860
3851
3842
3836
3833
3841
3841
3840
3839
3837
3834
3831
3830
3828
3829
3827
3827
3826
3823
3819
3814
3810
3810
3806
3801
3790
3777
3768
3767
3774
3782
3788
3785
3775
3763
3751
3747
3741
3739
3735
3729
3726
3721
3714
3707
3700
3695
3691
3689
3686
3681
3675
3668
3668
3663
3657
3644
3622
3606
3600
3608
3489
3604
3781
4052
3924
3236
2124
1006
500
910
2032
3277
21
302
39
3933
3796
3868
3916
3916
3916
3916
3916
3916
3916
3916
3916
3916
3916
3916
3916
3916
3916
3916
3916
3916
3916
3916
3916
3916
3916
3916
3916
3916
3916
3916
3916
3916
3916
3916
3916
3916
3916
3916
3916
3916
3916
3916
3916
3916
3916
3916
3916
3916
3916
3916
3916
3916
3916
3916
3916
3916
3916
3916
3916
3916
3916
3916
3916
3916
3916
3916
3916
3916
3916
3916
3916
3916
3916
3912
3913
3916
3924
3928
3920
3892
3839
3771
3693
3615
3544
3475
3412
3344
3278
3209
3142
3077
3011
2947
2884
2825
2767
2709
2653
2595
2538
2485
2433
2384
2336
2288
2240
2191
2144
2097
2050
2006
1962
1922
1881
1842
1803
1764
1725
1690
1654
1621
1588
1557
1526
1493
1461
1428
1397
1368
1337
1309
1279
1254
1228
1203
1178
1152
1128
1104
1081
1060
1038
1019
999
979
960
938
920
900
880
863
844
828
812
797
782
765
750
734
719
706
693
682
671
660
650
637
627
616
605
596
586
579
571
563
556
546
540
532
525
520
514
510
505
500
496
488
484
477
472
469
465
463
462
459
457
453
450
447
445
445
444
445
444
444
445
443
444
444
443
444
443
446
447
449
450
451
455
456
458
459
458
461
463
465
467
467
468
471
475
480
486
494
631
530
353
109
174
779
1863
3040
3734
3598
2701
1517
545
19
51
117
218
210
185
185
185
182
179
179
179
179
179
179
179
179
179
179
179
179
179
179
179
179
179
179
179
179
179
179
179
179
179
179
179
179
179
180
179
178
177
179
184
184
184
185
193
213
241
273
300
317
326
335
345
359
379
396
413
428
448
464
479
493
507
521
537
555
573
589
601
620
643
658
673
676
677
685
707
739
771
793
804
808
812
819
836
848
862
876
889
902
917
929
942
955
967
980
992
1004
1016
1028
1033
1022
1057
1113
1163
1148
1023
785
497
255
121
99
138
184
206
187
179
179
179
179
179
179
179
179
179
179
179
179
179
179
179
179
179
179
179
179
179
179
179
179
179
179
179
179
179
179
179
179
179
179
179
179
179
179
179
179
179
179
179
179
179
179
179
179
179
180
181
182
179
173
169
174
200
249
320
404
492
579
662
743
823
900
976
1050
1124
1197
1268
1340
1410
1478
1547
1613
1678
1741
1803
1866
1927
1986
2040
2092
2145
2203
2267
2329
2387
2438
2484
2529
2575
2624
2673
2719
2762
2805
2847
2889
2930
2971
3009
3047
3084
3124
3163
3202
3240
3271
3307
3339
3369
3394
3417
3440
3470
3509
3551
3592
3622
3642
3657
3666
3689
3710
3732
3753
3774
3794
3813
3832
3851
3872
3891
3907
3771
3850
4027
266
204
3707
2617
1437
803
1074
2104
3297
23
299
19
3915
3787
3885
3916
3916
3916
3916
3916
3916
3916
3916
3916
3916
3916
3916
3916
3916
3916
3916
3916
3916
3916
3916
3916
3916
3916
3916
3916
3916
3916
3916
3916
3916
3916
3916
3916
3916
3916
3916
3916
3916
3916
3916
3916
3916
3916
3916
3916
3916
3916
3916
3916
3916
3916
3916
3916
3916
3916
3916
3916
3916
3916
3916
3916
3916
3916
3916
3916
3916
3916
3916
3916
3916
3916
3916
3916
3916
3916
3916
3916
3916
3916
3916
3916
3916
3916
3916
3916
3916
3916
3916
3916
3916
3916
3916
3916
3915
3914
3913
3917
3921
3925
3920
3897
3859
3804
3741
3680
3621
3567
3514
3461
3406
3354
3304
3254
3208
3160
3113
3066
3017
2972
2926
2882
2840
2798
2757
2718
2678
2640
2600
2563
2525
2488
2453
2418
2385
2352
2319
2287
2253
2222
2189
2158
2128
2099
2071
2044
2018
1992
1964
1939
1912
1886
1863
1840
1820
1800
1780
1762
1740
1721
1700
1677
1656
1634
1614
1596
1578
1562
1543
1528
1510
1493
1478
1463
1450
1437
1426
1415
1400
1388
1374
1360
1349
1337
1327
1317
1307
1299
1288
1281
1273
1265
1259
1251
1246
1239
1233
1226
1220
1216
1210
1204
1196
1187
1182
1176
1173
1171
1167
1161
1156
1149
1146
1143
1142
1142
1139
1138
1134
1131
1127
1123
1122
1118
1117
1117
1113
1110
1106
1108
1111
1115
1119
1226
1164
1019
823
766
1152
1969
2974
3704
3784
3172
2204
1312
755
683
673
696
659
541
484
438
400
359
320
291
277
281
291
300
294
283
270
262
269
277
287
294
306
319
326
325
323
330
348
379
411
434
445
449
454
465
481
497
511
523
536
553
568
584
596
606
615
627
642
661
681
697
709
729
744
754
754
751
751
763
794
830
862
878
880
879
877
893
907
921
935
949
961
973
984
994
1006
1018
1029
1039
1052
1062
1075
1084
1099
1122
1134
1134
1122
1107
1106
1126
1165
1207
1231
1237
1232
1223
1229
1242
1256
1261
1268
1277
1287
1297
1306
1314
1322
1330
1340
1348
1356
1366
1373
1386
1395
1406
1406
1402
1398
1399
1412
1435
1457
1471
1474
1476
1476
1486
1498
1512
1519
1524
1531
1538
1544
1550
1557
1562
1569
1576
1583
1592
1598
1604
1611
1620
1630
1632
1629
1625
1627
1637
1657
1678
1690
1694
1688
1685
1685
1691
1699
1702
1705
1707
1712
1716
1721
1727
1731
1735
1737
1740
1742
1745
1750
1752
1760
1765
1768
1763
1757
1755
1761
1777
1794
1807
1811
1808
1803
1801
1808
1816
1824
1827
1829
1832
1834
1837
1838
1839
1837
1839
1842
1848
1854
1861
1861
1866
1870
1875
1871
1862
1850
1847
1854
1873
1893
1903
1903
1898
1886
1889
1891
1896
1897
1900
1898
1897
1897
1902
1914
1926
1937
1941
1931
1929
1920
1910
1911
1918
1920
1913
1906
1895
1892
1900
1923
1945
1954
1952
1939
1925
1920
1859
1901
1992
2091
2124
1939
1477
848
286
24
156
594
1147
1641
1901
2096
2210
2291
2386
2493
2579
2654
2718
2773
2821
2859
2894
2923
2947
2968
2983
2996
3004
3010
3012
3008
3003
2993
2986
2980
2974
2968
2958
2946
2931
2914
2901
2889
2876
2865
2851
2837
2823
2808
2794
2776
2762
2745
2728
2714
2699
2686
2673
2661
2650
2636
2623
2609
2595
2583
2570
2558
2545
2532
2520
2505
2493
2480
2466
2455
2442
2433
2423
2413
2404
2393
2384
2373
2362
2353
2343
2334
2325
2316
2308
2296
2286
2275
2264
2255
2246
2239
2231
2222
2215
2204
2197
2187
2179
2172
2165
2160
2154
2149
2144
2136
2130
2121
2113
2107
2101
2096
2091
2086
2082
2075
2072
2066
2059
2054
2048
2046
2041
2037
2033
2026
2022
2016
2010
2007
2003
2001
1998
1995
1993
1988
1986
1982
1977
1975
1971
1971
1969
1967
1965
1960
1958
1954
1951
1949
1946
1946
1944
1942
1941
1936
1935
1931
1928
1927
1924
1924
1923
1922
1922
1918
1917
1915
1912
1911
1910
1910
1910
1910
1911
1908
1907
1905
1902
1902
1902
1903
1902
1902
1902
1902
1905
1905
1905
1903
1899
1900
1899
1900
1903
1902
1901
1899
1898
1899
1903
1909
1915
1914
1909
1900
1894
1891
1892
1895
1895
1895
1899
1897
1898
1897
1899
1904
1910
1918
1920
1918
1911
1907
1908
1908
1913
1913
1912
1914
1914
1918
1918
1923
1927
1929
1932
1931
1931
1931
1997
1988
1902
1792
1705
1859
2337
3038
3691
3992
3808
3249
2578
2037
1750
1699
1663
1654
1583
1504
1437
1379
1333
1307
1296
1291
1280
1261
1238
1218
1205
1204
1203
1201
1200
1201
1205
1209
1213
1216
1220
1226
1235
1246
1256
1265
1271
1275
1286
1295
1304
1308
1309
1313
1324
1342
1362
1379
1387
1390
1394
1398
1409
1422
1431
1440
1448
1457
1467
1477
1489
1499
1508
1516
1524
1532
1541
1554
1563
1574
1584
1592
1596
1598
1602
1612
1627
1646
1664
1675
1680
1684
1687
1696
1703
1715
1721
1728
1736
1742
1749
1755
1761
1767
1774
1782
1789
1797
1803
1809
1817
1823
1832
1832
1832
1832
1836
1848
1866
1883
1894
1898
1900
1900
1903
1908
1913
1914
1918
1922
1927
1931
1937
1941
1947
1951
1961
1973
1979
1971
1955
1943
1954
1978
2012
2037
2039
2028
2020
2018
2029
2037
2044
2040
2039
2040
2050
2053
2056
2060
2065
2068
2072
2075
2078
2083
2086
2091
2098
2103
2109
2112
2117
2123
2127
2135
2133
2129
2126
2127
2136
2150
2163
2167
2166
2161
2156
2158
2160
2165
2166
2167
2169
2170
2173
2175
2175
2176
2175
2176
2179
2183
2187
2186
2190
2192
2190
2188
2180
2173
2169
2175
2189
2205
2216
2218
2213
2200
2200
2198
2197
2203
2205
2204
2204
2203
2204
2207
2212
2215
2216
2217
2214
2212
2207
2221
2225
2224
2225
2207
2195
2190
2198
2215
2232
2242
2242
2238
2226
2228
2226
2223
2231
2230
2234
2236
2238
2237
2237
2236
2238
2243
2246
2250
2251
2252
2253
2255
2261
2258
2170
2203
2299
2419
2446
2250
1749
1050
390
4094
4065
227
628
1031
1262
1497
1664
1788
1894
2015
2126
2227
2313
2392
2459
2516
2567
2611
2655
2696
2732
2766
2794
2817
2840
2860
2878
2894
2904
2912
2917
2924
2933
2941
2948
2951
2952
2951
2952
2953
2952
2951
2949
2947
2946
2942
2940
2935
2930
2927
2922
2920
2916
2911
2907
2901
2896
2890
2883
2877
2871
2866
2862
2856
2850
2841
2833
2826
2819
2813
2806
2802
2796
2788
2781
2772
2766
2760
2753
2747
2740
2736
2731
2724
2718
2709
2704
2697
2689
2683
2674
2668
2662
2658
2655
2647
2642
2634
2624
2617
2610
2605
2600
2595
2590
2582
2575
2566
2558
2553
2547
2543
2537
2532
2528
2520
2514
2506
2499
2494
2489
2486
2481
2475
2469
2462
2457
2452
2445
2440
2433
2429
2425
2421
2417
2410
2405
2398
2392
2387
2382
2379
2375
2370
2367
2360
2357
2351
2346
2342
2337
2335
2331
2327
2324
2318
2316
2311
2307
2305
2301
2299
2295
2291
2286
2280
2277
2272
2268
2261
2255
2252
2248
2246
2245
2241
2236
2230
2223
2220
2218
2216
2215
2212
2210
2206
2203
2200
2196
2195
2191
2191
2191
2188
2185
2180
2182
2185
2189
2192
2189
2182
2173
2166
2163
2159
2161
2156
2153
2149
2147
2148
2146
2150
2151
2147
2142
2135
2131
2130
2129
2131
2131
2129
2127
2125
2124
2123
2119
2113
2104
2096
2092
2093
2098
2102
2104
2102
2099
2094
2154
2144
2063
1959
1901
2020
2428
3045
3660
4026
4020
3697
3227
2791
2504
2397
2304
2245
2182
2091
2018
1953
1898
1849
1808
1772
1738
1707
1684
1658
1637
1611
1585
1563
1549
1547
1551
1554
1552
1541
1528
1513
1511
1507
1507
1506
1503
1500
1499
1498
1499
1500
1500
1500
1498
1499
1498
1498
1502
1512
1516
1515
1505
1489
1481
1486
1505
1532
1551
1556
1549
1540
1533
1541
1544
1550
1552
1553
1557
1560
1565
1570
1575
1579
1582
1587
1592
1597
1601
1602
1614
1618
1622
1618
1609
1605
1611
1629
1653
1670
1676
1672
1667
1664
1669
1674
1681
1686
1690
1695
1700
1704
1709
1714
1719
1725
1729
1732
1734
1735
1737
1739
1747
1752
1753
1749
1742
1742
1752
1771
1791
1803
1806
1801
1798
1795
1801
1807
1811
1814
1818
1821
1825
1829
1834
1838
1843
1848
1853
1858
1861
1865
1866
1872
1875
1877
1876
1874
1874
1878
1888
1901
1909
1913
1911
1911
1911
1915
1921
1924
1927
1929
1932
1933
1936
1940
1940
1941
1940
1942
1945
1949
1954
1954
1958
1960
1962
1958
1953
1948
1948
1957
1973
1987
1993
1991
1984
1975
1979
1979
1983
1984
1985
1985
1986
1987
1990
1995
1999
2002
2003
2001
2000
1998
1994
2003
2006
2003
2003
1991
1980
1974
1977
1990
2005
2012
2014
2012
2005
2004
2006
2004
2009
2008
2010
2013
2017
2017
2016
2015
2015
2018
2020
2023
2029
2030
2032
2035
2039
2036
2028
2017
2010
2012
2024
2037
2049
2055
2051
2030
2008
1993
1995
2017
2048
2073
2080
2069
2054
2041
2038
1967
2030
2124
2218
2199
1946
1432
785
243
4072
41
345
744
1123
1331
1539
1686
1796
1900
2014
2114
2200
2279
2350
2412
2465
2514
2557
2595
2627
2656
2681
2703
2721
2735
2749
2761
2768
2775
2780
2786
2792
2794
2796
2794
2793
2792
2788
2787
2782
2780
2776
2772
2767
2759
2753
2747
2740
2735
2729
2726
2721
2715
2709
2700
2693
2684
2675
2668
2660
2653
2646
2638
2632
2622
2616
2607
2599
2591
2582
2576
2570
2564
2559
2550
2544
2535
2525
2518
2510
2504
2497
2489
2483
2474
2468
2459
2451
2445
2437
2432
2425
2420
2415
2406
2400
2393
2386
2380
2374
2370
2365
2359
2354
2346
2341
2333
2326
2321
2315
2311
2308
2304
2301
2295
2290
2284
2278
2274
2270
2267
2264
2262
2259
2254
2252
2247
2243
2241
2238
2237
2235
2233
2232
2228
2226
2222
2218
2216
2212
2212
2208
2206
2203
2200
2201
2198
2197
2192
2186
2184
2180
2178
2177
2173
2169
2164
2157
2154
2149
2145
2144
2141
2140
2137
2133
2128
2124
2121
2117
2115
2115
2109
2105
2098
2099
2101
2104
2106
2103
2097
2088
2082
2079
2076
2078
2074
2070
2067
2065
2066
2065
2068
2069
2065
2061
2054
2050
2049
2048
2049
2047
2042
2039
2037
2036
2037
2035
2031
2023
2016
2013
2015
2021
2027
2030
2031
2029
2027
2028
2029
2030
2031
2031
2029
2028
2028
2025
2025
2025
2027
2029
2028
2029
2027
2027
2026
2025
2025
2026
2032
2034
2036
2060
2088
2012
1906
1850
1940
2307
2901
3536
3981
3
3907
3541
3155
2859
2730
2601
2514
2446
2361
2284
2217
2159
2106
2058
2015
1975
1939
1907
1880
1856
1834
1813
1793
1772
1759
1747
1734
1716
1696
1679
1670
1670
1675
1679
1674
1663
1651
1637
1637
1634
1632
1627
1623
1620
1617
1614
1611
1608
1605
1602
1603
1603
1604
1604
1600
1605
1607
1608
1603
1589
1575
1570
1580
1600
1620
1628
1624
1614
1605
1601
1607
1611
1615
1616
1618
1620
1623
1626
1629
1631
1634
1636
1638
1641
1644
1646
1648
1651
1655
1656
1655
1652
1651
1658
1668
1682
1692
1696
1695
1693
1695
1699
1706
1710
1712
1714
1715
1717
1719
1721
1726
1730
1735
1740
1745
1748
1750
1752
1759
1764
1768
1764
1761
1759
1764
1777
1791
1800
1801
1798
1796
1795
1800
1806
1811
1814
1816
1820
1821
1824
1827
1829
1833
1834
1837
1841
1846
1854
1857
1865
1869
1872
1868
1863
1858
1860
1870
1887
1902
1909
1907
1901
1892
1898
1901
1907
1911
1915
1917
1919
1921
1925
1929
1932
1937
1940
1941
1942
1941
1938
1947
1952
1955
1948
1947
1939
1939
1946
1959
1971
1978
1980
1980
1978
1979
1980
1980
1981
1983
1983
1984
1984
1985
1985
1985
1985
1988
1991
1994
1999
2001
2006
2009
2013
2010
2001
1993
1991
2001
2016
2032
2040
2039
2033
2025
2026
2026
2029
2031
2030
2031
2032
2033
2035
2037
2035
2032
2031
2031
2036
2043
2045
2040
2019
2024
2085
2155
2152
1981
1602
1082
569
207
54
65
286
276
100
3886
3860
302
1386
2656
3494
3465
2604
1428
495
83
307
558
800
883
922
990
1061
1130
1196
1257
1315
1369
1420
1467
1512
1554
1594
1632
1668
1703
1736
1767
1796
1823
1848
1872
1895
1918
1940
1961
1980
1999
2017
2034
2049
2065
2081
2096
2110
2124
2138
2151
2163
2175
2186
2197
2208
2218
2228
2237
2246
2254
2261
2268
2275
2281
2288
2296
2302
2308
2315
2320
2326
2331
2336
2341
2346
2350
2355
2360
2364
2367
2370
2372
2374
2376
2379
2382
2385
2389
2392
2395
2397
2397
2398
2399
2400
2401
2403
2405
2407
2408
2408
2409
2409
2409
2410
2410
2412
2413
2414
2414
2414
2414
2414
2413
2413
2414
2414
2413
2413
2413
2411
2410
2408
2407
2406
2405
2405
2405
2404
2403
2401
2400
2398
2397
2396
2395
2395
2394
2393
2392
2391
2389
2387
2385
2383
2381
2380
2379
2378
2377
2375
2373
2371
2369
2368
2367
2366
2365
2364
2363
2361
2360
2359
2357
2355
2353
2350
2346
2343
2340
2337
2334
2332
2329
2327
2324
2322
2321
2321
2320
2318
2316
2314
2311
2309
2307
2306
2304
2302
2300
2298
2297
2296
2295
2295
2295
2295
2294
2293
2292
2290
2289
2287
2285
2284
2282
2281
2280
2278
2277
2275
2273
2271
2269
2268
2267
2266
2265
2264
2263
2261
2259
2257
2255
2253
2252
2251
2250
2249
2247
2245
2243
2241
2239
2238
2236
2235
2234
2232
2231
2230
2228
2226
2225
2156
2167
2255
2370
2417
2262
1831
1198
565
135
4077
30
146
235
247
179
179
179
179
179
179
179
179
179
179
179
179
179
179
179
179
179
179
179
179
179
179
179
179
179
179
179
179
179
179
179
179
179
179
179
179
179
179
179
179
179
179
179
179
179
179
179
179
179
179
179
179
179
179
179
179
179
179
179
179
179
181
182
181
176
170
172
186
221
269
327
389
454
525
595
665
728
782
832
881
937
994
1052
1108
1161
1214
1266
1317
1367
1417
1468
1517
1568
1621
1672
1720
1766
1815
1864
1910
1953
1989
2027
2069
2119
2175
2227
2272
2309
2341
2374
2415
2458
2500
2540
2577
2613
2650
2683
2720
2754
2788
2823
2856
2890
2925
2958
2988
3022
3056
3087
3114
3134
3155
3178
3212
3252
3293
3328
3353
3372
3387
3405
3432
3455
3478
3502
3524
3543
3563
3583
3606
3630
3656
3679
3698
3712
3726
3741
3756
3781
3801
3816
3826
3833
3842
3858
3880
3901
3916
3919
3916
3911
3910
3913
3916
3916
3917
3916
3914
3916
3916
3916
3916
3916
3916
3916
3916
3916
3916
3916
3916
3916
3916
3916
3916
3916
3916
3916
3916
3916
3916
3916
3916
3916
3916
3916
3916
3916
3916
3916
3916
3916
3916
3916
3916
3916
3916
3916
3916
3916
3916
3916
3916
3916
3916
3916
3916
3916
3916
3916
3916
3916
3916
3916
3916
3916
3916
3916
3916
3916
3916
3916
3916
3916
3916
3916
3916
3916
3916
3916
3916
3916
3916
3916
3916
3916
3916
3916
3916
3916
3916
3916
3916
3916
3916
3916
3916
3916
3916
3916
3916
3916
3916
3916
3916
3916
3916
3916
3916
3916
3916
3916
3916
3916
3916
3916
3916
3916
3916
3916
3916
3916
3916
3916
3916
3916
3916
3916
3916
3916
3916
3916
3916
3916
3916
3916
3916
3916
3916
3916
3916
3916
3916
3916
3916
3916
3916
3916
3916
3916
3916
3916
3916
3916
3916
3916
3916
3916
3916
3916
3916
3916
3916
3916
3916
3916
3916
3916
3916
3916
3916
3916
3916
3916
3916
3916
3916
3916
3916
3916
3916
3916
3916
3916
3916
3916
3916
3916
3916
3916
3916
3916
3916
3916
3916
3916
3916
3916
3915
3913
3915
3919
3923
3922
3912
3887
3847
3798
3745
3693
3644
3597
3551
3505
3459
3414
3370
3327
3285
3242
3199
3156
3114
3073
3032
2993
2954
2915
2877
2840
2802
2765
2729
2693
2658
2624
2590
2557
2524
2492
2459
2427
2395
2364
2334
2304
2276
2248
2220
2192
2164
2136
2109
2082
2056
2032
2007
1982
1958
1935
1911
1887
1864
1841
1819
1798
1777
1756
1736
1715
1694
1674
1654
1635
1616
1598
1581
1564
1547
1531
1514
1498
1481
1465
1449
1435
1421
1408
1395
1383
1370
1356
1343
1329
1314
1300
1287
1275
1264
1252
1241
1229
1218
1207
1197
1188
1180
1171
1163
1154
1146
1137
1128
1120
1111
1103
1095
1089
1083
1078
1072
1067
1062
1057
1025
1026
1058
1103
1118
1049
867
601
338
159
96
118
166
202
207
179
179
179
179
179
179
179
179
179
179
179
179
179
179
179
179
179
179
179
179
179
179
179
179
179
179
179
179
179
179
179
179
179
179
179
179
179
179
179
179
179
179
179
179
179
179
179
179
179
179
179
179
179
179
179
179
179
179
179
179
179
179
179
179
179
179
179
179
179
179
179
179
179
179
179
179
179
179
179
179
179
179
180
183
181
175
172
169
183
213
259
312
369
429
490
553
614
672
721
764
812
857
910
963
1014
1062
1111
1160
1207
1256
1305
1351
1399
1445
1492
1540
1587
1634
1676
1725
1766
1806
1843
1881
1923
1967
2015
2061
2101
2136
2169
2202
2235
2276
2313
2347
2383
2418
2452
2487
2520
2553
2587
2620
2649
2676
2696
2714
2733
2750
2779
2805
2826
2842
2853
2865
2881
2921
2960
2999
3023
3037
3052
3068
3094
3124
3149
3171
3184
3200
3212
3234
3248
3262
3277
3290
3305
3320
3334
3348
3361
3375
3386
3402
3410
3415
3419
3426
3442
3462
3485
3500
3508
3511
3511
3514
3518
3526
3532
3537
3545
3550
3556
3561
3566
3567
3567
3568
3570
3573
3580
3585
3584
3595
3593
3592
3581
3569
3562
3565
3580
3599
3611
3611
3601
3591
3577
3581
3577
3575
3572
3571
3570
3569
3569
3567
3566
3563
3561
3557
3555
3552
3549
3544
3547
3560
3547
3520
3486
3472
3510
3607
3741
3864
3940
3958
3941
3915
3903
3916
3916
3916
3916
3916
3916
3916
3916
3916
3916
3916
3916
3916
3916
3916
3916
3916
3916
3916
3916
3916
3916
3916
3916
3916
3916
3916
3916
3916
3916
3916
3916
3916
3916
3916
3916
3916
3916
3916
3916
3916
3916
3916
3916
3916
3916
3916
3916
3916
3916
3916
3916
3916
3916
3916
3916
3916
3916
3916
3916
3916
3916
3916
3916
3916
3916
3916
3916
3916
3916
3916
3916
3916
3916
3916
3916
3916
3916
3916
3916
3916
3916
3916
3916
3916
3916
3916
3916
3916
3916
3916
3916
3916
3916
3916
3916
3916
3916
3916
3916
3916
3916
3916
3916
3916
3916
3916
3916
3916
3916
3916
3916
3916
3916
3916
3916
3916
3916
3916
3916
3916
3916
3916
3916
3916
3916
3916
3916
3916
3916
3916
3916
3916
3916
3916
3916
3916
3916
3916
3916
3916
3916
3916
3916
3916
3916
3916
3916
3916
3916
3916
3916
3916
3916
3916
3916
3916
3916
3916
3916
3916
3916
3916
3916
3916
3916
3916
3916
3916
3916
3916
3916
3916
3916
3916
3916
3916
3916
3916
3916
3916
3916
3916
3916
3916
3916
3916
3916
3916
3916
3916
3916
3916
3916
3916
3916
3916
3916
3916
3916
3916
3916
3916
3916
3916
3916
3916
3916
3916
3916
3916
3916
3916
3916
3916
3916
3916
3916
3916
3916
3916
3916
3916
3916
3916
3916
3916
3916
3916
3916
3916
3916
3916
3916
3916
3916
3916
3787
3930
41
195
35
3437
2308
1098
252
4067
147
458
633
600
303
182
126
137
175
189
188
180
179
179
179
179
179
179
179
179
179
179
179
179
179
179
179
179
179
179
179
179
179
179
179
179
179
179
179
179
179
179
179
179
179
179
179
179
179
179
179
179
179
179
179
179
179
179
179
179
179
179
179
179
179
179
179
179
179
179
179
179
179
179
179
179
179
179
179
179
179
179
179
179
179
179
179
179
179
179
179
179
179
179
179
179
179
179
179
179
179
179
179
179
179
179
179
179
179
179
179
179
179
179
179
179
179
179
179
179
179
179
179
179
179
179
179
179
179
179
179
179
179
179
179
179
179
179
179
179
179
179
179
179
179
179
179
179
179
179
179
179
179
179
179
179
179
179
179
179
179
179
179
179
179
179
179
179
179
179
179
179
179
179
179
179
179
179
179
179
179
179
179
179
179
179
179
179
179
179
179
179
179
179
179
179
179
179
179
179
179
179
179
179
179
179
179
179
179
181
181
179
176
174
177
187
207
235
270
307
347
386
426
466
507
547
588
629
669
708
746
785
822
860
897
933
964
1000
1038
1072
1102
1126
1147
1172
1208
1252
1299
1341
1371
1485
1455
1364
1267
1286
1574
2164
2934
3626
4045
49
4054
3924
3834
3916
3916
3916
3916
3916
3916
3916
3916
3916
3916
3916
3916
3916
3916
3916
3916
3916
3916
3916
3916
3916
3916
3916
3916
3916
3916
3916
3916
3916
3916
3916
3916
3916
3916
3916
3916
3916
3916
3916
3916
3916
3916
3916
3916
3916
3916
3916
3916
3916
3916
3916
3916
3916
3916
3916
3916
3916
3916
3916
3916
3916
3916
3916
3916
3916
3916
3916
3916
3916
3916
3916
3916
3916
3916
3916
3916
3916
3916
3916
3916
3916
3916
3916
3916
3916
3916
3916
3916
3916
3916
3916
3916
3916
3916
3916
3916
3916
3916
3916
3916
3916
3916
3916
3916
3916
3916
3916
3916
3916
3916
3916
3916
3916
3916
3916
3916
3916
3916
3916
3916
3916
3916
3916
3916
3915
3914
3915
3918
3922
3923
3914
3890
3852
3803
3751
3699
3651
3607
3563
3520
3476
3433
3390
3347
3305
3263
3222
3182
3143
3105
3068
3030
2992
2954
2915
2876
2837
2799
2763
2727
2693
2659
2626
2594
2563
2533
2503
2475
2446
2417
2388
2359
2330
2301
2271
2243
2215
2187
2161
2135
2110
2086
2061
2038
2014
1990
1966
1943
1921
1899
1877
1855
1834
1813
1793
1772
1753
1733
1715
1696
1679
1662
1645
1629
1612
1597
1582
1567
1553
1540
1527
1514
1501
1488
1476
1464
1453
1442
1431
1421
1410
1399
1389
1378
1367
1356
1346
1337
1327
1317
1307
1298
1288
1278
1268
1259
1216
1213
1248
1297
1312
1226
1005
686
369
155
80
105
163
207
212
179
179
179
179
179
179
179
179
179
179
179
179
179
179
179
179
179
179
179
179
179
179
179
179
179
179
179
179
179
179
179
179
179
179
179
179
179
179
179
179
179
179
179
179
179
179
179
179
179
179
179
179
179
179
179
179
179
179
179
179
179
179
179
179
179
179
179
179
179
179
179
179
179
179
179
179
179
179
179
179
179
179
179
179
179
179
179
179
179
179
179
179
179
179
179
179
179
179
179
179
180
182
180
176
172
172
182
209
250
298
348
396
444
491
539
589
639
686
731
774
819
865
914
964
1012
1057
1096
1132
1170
1205
1254
1296
1334
1368
1394
1425
1464
1515
1568
1613
1658
1688
1716
1739
1770
1804
1837
1880
1913
1948
1977
2005
2034
2062
2096
2123
2151
2179
2208
2239
2267
2295
2321
2350
2374
2393
2412
2432
2460
2494
2531
2561
2583
2601
2616
2635
2656
2678
2700
2719
2739
2758
2778
2800
2821
2839
2854
2871
2887
2905
2925
2945
2958
2984
2998
3012
3016
3019
3026
3044
3075
3111
3138
3152
3156
3157
3154
3171
3182
3196
3208
3220
3231
3242
3251
3261
3271
3281
3290
3299
3308
3317
3325
3330
3344
3354
3362
3364
3362
3362
3370
3390
3414
3430
3429
3415
3404
3403
3427
3454
3477
3483
3479
3472
3466
3342
3414
3582
3831
3901
3406
2404
1220
443
527
1459
2748
3810
239
117
4026
3851
3817
3906
3916
3916
3916
3916
3916
3916
3916
3916
3916
3916
3916
3916
3916
3916
3916
3916
3916
3916
3916
3916
3916
3916
3916
3916
3916
3916
3916
3916
3916
3916
3916
3916
3916
3916
3916
3916
3916
3916
3916
3916
3916
3916
3916
3916
3916
3916
3916
3916
3916
3916
3916
3916
3916
3916
3916
3916
3916
3916
3916
3916
3916
3916
3916
3916
3916
3916
3916
3916
3916
3916
3916
3916
3916
3916
3916
3916
3916
3916
3916
3916
3916
3916
3916
3916
3916
3916
3916
3916
3916
3916
3916
3916
3916
3916
3916
3916
3916
3916
3916
3916
3916
3916
3916
3916
3916
3916
3916
3916
3916
3916
3916
3916
3916
3916
3916
3916
3916
3916
3916
3916
3916
3914
3913
3915
3920
3925
3923
3906
3872
3824
3770
3716
3664
3616
3569
3524
3478
3434
3390
3343
3295
3244
3194
3149
3111
3077
3042
3006
2968
2928
2888
2851
2816
2781
2746
2711
2675
2640
2605
2569
2535
2500
2468
2435
2403
2373
2341
2311
2278
2246
2214
2186
2163
2138
2112
2081
2049
2021
1994
1969
1945
1921
1896
1872
1847
1823
1798
1772
1747
1724
1704
1685
1665
1645
1623
1605
1584
1564
1544
1524
1506
1486
1470
1453
1437
1420
1403
1386
1369
1352
1336
1319
1305
1291
1277
1263
1248
1234
1220
1205
1193
1179
1168
1158
1147
1136
1123
1112
1101
1088
1078
1181
1116
968
793
716
1048
1826
2847
3702
4015
3696
2971
2188
1602
1430
1316
1276
1246
1146
1066
992
920
853
791
743
702
663
627
595
566
541
518
496
475
455
438
421
407
395
384
374
364
356
350
339
325
311
300
298
301
308
311
306
298
288
284
281
284
284
283
282
281
280
279
278
278
277
279
281
282
283
282
284
287
292
296
295
293
293
298
311
327
338
342
343
344
347
356
365
373
378
383
390
395
403
409
415
420
424
429
436
444
453
457
469
474
477
478
480
483
494
507
521
532
537
541
545
551
564
575
583
592
601
606
612
617
626
637
646
656
663
667
673
679
685
698
711
717
721
717
715
718
727
748
766
783
791
790
788
785
791
799
820
836
853
862
864
866
866
872
879
886
895
905
916
923
930
938
947
951
951
950
951
959
973
990
1002
1006
1007
1004
1004
1008
1014
1022
1029
1039
1047
1055
1064
1073
1078
1083
1090
1096
1104
1113
1121
1116
1103
1138
1194
1236
1206
1054
788
482
236
110
97
141
190
207
185
179
179
179
179
179
179
179
179
179
179
179
179
179
179
179
179
179
179
179
179
179
179
179
179
179
179
179
179
179
179
179
179
179
179
179
179
179
179
179
179
179
179
179
179
179
179
179
179
179
179
179
179
179
179
179
179
179
324
247
67
3886
3858
293
1370
2645
3513
3538
2746
1643
788
462
784
1138
1482
1673
1790
1935
2079
2217
2346
2467
2580
2684
2782
2874
2960
3040
3115
3186
3252
3313
3370
3423
3473
3520
3564
3606
3645
3681
3716
3747
3776
3802
3826
3849
3872
3891
3907
3916
3919
3919
3917
3915
3915
3916
3916
3916
3916
3916
3916
3916
3916
3916
3916
3916
3916
3916
3916
3916
3916
3916
3916
3916
3916
3916
3916
3916
3916
3916
3916
3916
3916
3916
3917
3917
3917
3915
3909
3900
3889
3877
3865
3853
3841
3829
3816
3803
3790
3778
3765
3753
3740
3726
3713
3699
3685
3670
3656
3642
3628
3614
3599
3584
3568
3552
3536
3520
3504
3489
3473
3458
3442
3425
3408
3391
3373
3355
3337
3321
3304
3287
3270
3252
3234
3215
3196
3178
3160
3143
3125
3108
3091
3073
3055
3037
3019
3001
2983
2966
2948
2931
2913
2895
2877
2859
2841
2824
2807
2791
2775
2758
2742
2726
2710
2694
2678
2663
2648
2633
2619
2605
2591
2577
2563
2549
2534
2519
2505
2491
2477
2464
2451
2438
2426
2413
2400
2387
2375
2363
2351
2340
2329
2318
2306
2295
2284
2273
2263
2254
2245
2235
2225
2214
2203
2191
2179
2168
2157
2148
2139
2131
2123
2114
2105
2097
2089
2083
2077
2072
2066
2061
2054
2048
2041
2034
2026
2019
2013
2006
2001
1995
1989
1983
1976
1969
1962
1955
1947
1940
1933
1926
1920
1913
1906
1900
1893
1887
1816
1844
1917
2001
2004
1815
1408
872
384
89
18
81
173
236
179
179
179
179
179
179
179
179
179
179
179
179
179
179
179
179
179
179
179
179
179
179
179
179
179
179
179
179
179
179
179
179
179
179
179
179
179
179
179
179
179
179
179
179
179
179
179
179
179
179
179
179
179
179
179
179
179
179
179
179
179
179
179
179
179
179
180
182
181
175
174
174
182
199
233
283
348
423
501
574
636
691
740
787
844
901
958
1012
1065
1117
1168
1222
1275
1329
1383
1434
1483
1527
1571
1613
1655
1706
1755
1803
1845
1880
1915
1953
2003
2060
2119
2170
2208
2246
2276
2308
2344
2377
2414
2450
2490
2529
2563
2594
2623
2653
2680
2721
2753
2784
2814
2841
2875
2907
2937
2960
2974
2986
3008
3043
3089
3136
3170
3191
3203
3214
3233
3254
3276
3298
3316
3334
3353
3372
3391
3407
3419
3428
3438
3451
3466
3484
3501
3509
3530
3538
3548
3550
3543
3537
3541
3564
3596
3626
3643
3641
3634
3618
3624
3627
3632
3642
3647
3651
3656
3660
3664
3666
3670
3672
3675
3681
3685
3689
3692
3703
3708
3709
3700
3690
3684
3691
3709
3735
3753
3759
3754
3742
3733
3736
3740
3748
3751
3754
3757
3759
3761
3762
3764
3765
3767
3770
3771
3773
3777
3776
3782
3788
3785
3781
3766
3753
3748
3758
3781
3805
3818
3817
3806
3791
3783
3784
3783
3789
3790
3789
3793
3787
3778
3768
3764
3779
3812
3857
3898
3924
3930
3924
3917
3911
3916
3916
3916
3916
3916
3916
3916
3916
3916
3916
3916
3916
3916
3916
3916
3916
3916
3916
3916
3916
3916
3916
3916
3916
3916
3916
3916
3916
3916
3916
3916
3916
3916
3916
3916
3916
3916
3916
3916
3916
3916
3916
3916
3916
3916
3916
3916
3916
3916
3916
3916
3916
3916
3916
3916
3916
3916
3916
3916
3916
3916
3916
3916
3916
3916
3916
3916
3916
3916
3916
3916
3916
3916
3916
3916
3916
3916
3916
3916
3916
3916
3916
3916
3916
3916
3916
3916
3916
3916
3916
3916
3916
3916
3916
3916
3916
3916
3916
3916
3916
3916
3916
3916
3916
3916
3916
3916
3916
3916
3916
3916
3916
3916
3916
3916
3916
3916
3915
3914
3915
3919
3923
3922
3911
3885
3846
3797
3746
3697
3650
3606
3561
3516
3470
3424
3379
3335
3293
3250
3209
3168
3127
3086
3045
3005
2966
2928
2890
2854
2818
2782
2747
2712
2678
2644
2611
2579
2547
2515
2484
2453
2423
2393
2363
2333
2304
2274
2244
2214
2185
2157
2129
2100
2072
2044
2015
1986
1957
1928
1900
1873
1846
1821
1797
1773
1749
1726
1704
1682
1662
1642
1622
1602
1582
1563
1543
1525
1507
1491
1475
1459
1443
1427
1412
1397
1384
1372
1361
1351
1341
1331
1321
1310
1299
1289
1279
1270
1261
1252
1244
1235
1227
1219
1211
1205
1198
1192
1187
1183
1179
1175
1171
1167
1163
1159
1156
1154
1119
1154
1206
1241
1197
1024
741
430
197
92
97
150
197
216
179
179
179
179
179
179
179
179
179
179
179
179
179
179
179
179
179
179
179
179
179
179
179
179
179
179
179
179
179
179
179
179
179
179
179
179
179
179
179
179
179
179
179
179
179
179
179
179
179
179
179
179
179
179
179
179
179
179
179
179
179
179
179
179
179
179
179
179
179
179
179
179
179
179
179
179
179
179
179
179
179
179
179
179
179
179
179
179
179
179
179
179
179
179
179
179
179
179
179
179
179
179
179
179
179
179
179
179
179
179
179
179
179
179
179
179
181
181
179
174
171
176
195
229
272
317
362
408
459
516
574
625
669
707
744
786
828
871
913
953
994
1037
1078
1118
1156
1193
1230
1268
1307
1344
1381
1415
1445
1488
1519
1554
1577
1599
1623
1656
1699
1745
1785
1818
1843
1866
1883
1915
1938
1965
1992
2021
2048
2075
2101
2127
2152
2178
2203
2229
2255
2282
2307
2328
2358
2382
2405
2421
2434
2448
2470
2501
2535
2568
2590
2606
2619
2630
2652
2673
2698
2720
2742
2763
2782
2802
2820
2838
2856
2873
2891
2908
2926
2945
2960
2979
3001
3012
3018
3017
3016
3024
3048
3082
3114
3136
3143
3144
3146
3150
3173
3186
3205
3221
3236
3249
3260
3270
3279
3289
3298
3308
3318
3329
3341
3371
3369
3354
3335
3341
3405
3535
3703
3853
3944
3965
3946
3918
3898
3916
3916
3916
3916
3916
3916
3916
3916
3916
3916
3916
3916
3916
3916
3916
3916
3916
3916
3916
3916
3916
3916
3916
3916
3916
3916
3916
3916
3916
3916
3916
3916
3916
3916
3916
3916
3916
3916
3916
3916
3916
3916
3916
3916
3916
3916
3916
3916
3916
3916
3916
3916
3916
3916
3916
3916
3916
3916
3916
3916
3916
3916
3916
3916
3916
3916
3916
3916
3916
3916
3916
3916
3916
3916
3916
3916
3916
3916
3916
3916
3916
3916
3916
3916
3916
3916
3916
3916
3916
3916
3916
3916
3916
3916
3916
3916
3916
3916
3916
3916
3916
3916
3916
3916
3916
3916
3916
3916
3916
3916
3916
3916
3916
3916
3916
3916
3915
3914
3914
3917
3922
3924
3917
3896
3861
3816
3769
3724
3683
3644
3606
3565
3524
3483
3441
3401
3362
3324
3288
3253
3218
3183
3148
3114
3080
3047
3015
2983
2951
2919
2888
2857
2826
2795
2764
2734
2704
2675
2647
2620
2593
2566
2540
2514
2488
2462
2437
2412
2387
2363
2339
2315
2291
2267
2243
2220
2198
2176
2155
2135
2114
2094
2073
2053
2034
2014
1995
1976
1958
1940
1922
1904
1885
1867
1849
1831
1813
1796
1780
1763
1747
1731
1715
1698
1681
1665
1649
1633
1618
1604
1589
1574
1559
1545
1531
1517
1504
1492
1480
1468
1455
1443
1430
1417
1405
1392
1381
1370
1359
1348
1338
1327
1317
1306
1295
1285
1241
1238
1275
1325
1340
1252
1026
698
374
155
78
104
163
208
213
179
179
179
179
179
179
179
179
179
179
179
179
179
179
179
179
179
179
179
179
179
179
179
179
179
179
179
179
179
179
179
179
179
179
179
179
179
179
179
179
179
179
179
179
179
179
179
179
179
179
179
179
179
179
179
179
179
179
179
179
179
179
179
179
179
179
179
179
179
179
179
179
179
179
179
179
179
179
179
179
179
179
179
179
179
179
179
179
179
179
179
179
179
179
179
179
179
179
179
179
179
179
179
179
179
179
179
179
180
181
181
179
177
176
180
192
219
263
321
388
455
512
558
599
639
682
730
777
825
869
915
962
1008
1053
1096
1138
1181
1224
1268
1311
1353
1391
1425
1473
1509
1549
1576
1602
1630
1669
1719
1772
1822
1861
1893
1921
1943
1979
2008
2041
2072
2106
2139
2170
2201
2230
2259
2287
2314
2342
2371
2398
2426
2450
2484
2513
2540
2560
2576
2591
2612
2643
2678
2713
2739
2755
2767
2776
2795
2814
2838
2859
2879
2899
2916
2933
2950
2967
2983
2999
3016
3030
3046
3062
3075
3092
3113
3124
3131
3129
3127
3134
3159
3194
3228
3249
3254
3252
3251
3251
3269
3277
3290
3299
3308
3316
3323
3330
3337
3345
3352
3360
3368
3375
3382
3383
3394
3401
3405
3406
3401
3399
3402
3417
3437
3474
3473
3450
3420
3411
3462
3575
3722
3859
3940
3961
3943
3918
3900
3916
3916
3916
3916
3916
3916
3916
3916
3916
3916
3916
3916
3916
3916
3916
3916
3916
3916
3916
3916
3916
3916
3916
3916
3916
3916
3916
3916
3916
3916
3916
3916
3916
3916
3916
3916
3916
3916
3916
3916
3916
3916
3916
3916
3916
3916
3916
3916
3916
3916
3916
3916
3916
3916
3916
3916
3916
3916
3916
3916
3916
3916
3916
3916
3916
3916
3916
3916
3916
3916
3916
3916
3916
3916
3916
3916
3916
3916
3916
3916
3916
3916
3916
3916
3916
3916
3916
3916
3916
3916
3916
3916
3916
3916
3916
3916
3916
3916
3916
3916
3916
3916
3916
3916
3916
3916
3916
3916
3916
3916
3916
3916
3916
3916
3916
3916
3916
3916
3916
3916
3916
3915
3914
3915
3918
3922
3922
3913
3890
3853
3807
3757
3709
3663
3620
3577
3533
3491
3449
3409
3369
3330
3291
3254
3218
3184
3151
3119
3089
3059
3031
3005
2980
2956
2933
2910
2887
2866
2845
2824
2803
2782
2761
2742
2723
2706
2690
2674
2658
2642
2625
2609
2594
2580
2567
2554
2542
2529
2517
2505
2492
2480
2467
2454
2441
2428
2415
2403
2390
2377
2362
2347
2332
2316
2301
2286
2273
2259
2246
2233
2220
2206
2191
2176
2162
2148
2137
2126
2116
2106
2093
2080
2065
2050
2036
2022
2009
1997
1984
1971
1956
1940
1922
1904
1886
1869
1853
1839
1825
1812
1800
1786
1772
1756
1739
1722
1657
1650
1698
1764
1784
1662
1349
897
449
146
39
74
156
219
227
179
179
179
179
179
179
179
179
179
179
179
179
179
179
179
179
179
179
179
179
179
179
179
179
179
179
179
179
179
179
179
179
179
179
179
179
179
179
179
179
179
179
179
179
179
179
179
179
179
179
179
179
179
179
179
179
179
179
179
179
179
179
179
179
179
179
179
179
179
179
179
179
179
179
179
179
179
179
179
179
179
179
179
179
179
179
179
179
179
179
179
179
179
179
179
179
179
179
179
179
179
179
179
179
179
179
179
179
179
179
179
179
179
179
179
179
179
179
179
179
179
179
179
179
179
179
179
179
179
179
179
179
179
179
179
179
179
179
179
179
179
179
179
179
179
180
181
181
179
175
172
177
193
222
260
302
343
381
417
452
487
523
558
588
628
665
696
734
757
780
805
841
891
950
1007
1053
1088
1113
1146
1182
1218
1267
1306
1344
1381
1420
1458
1496
1534
1572
1611
1649
1686
1724
1757
1795
1832
1861
1893
1915
1937
1964
2001
2046
2090
2128
2155
2174
2188
2208
2233
2254
2280
2300
2319
2338
2356
2373
2390
2407
2425
2444
2463
2483
2502
2518
2535
2552
2569
2580
2589
2601
2615
2632
2645
2657
2666
2679
2701
2727
2752
2766
2771
2770
2770
2676
2741
2883
3050
3150
2835
2046
1022
236
131
832
2037
3238
4043
111
44
3965
3829
3861
3903
3916
3916
3916
3916
3916
3916
3916
3916
3916
3916
3916
3916
3916
3916
3916
3916
3916
3916
3916
3916
3916
3916
3916
3916
3916
3916
3916
3916
3916
3916
3916
3916
3916
3916
3916
3916
3916
3916
3916
3916
3916
3916
3916
3916
3916
3916
3916
3916
3916
3916
3916
3916
3916
3916
3916
3916
3916
3916
3916
3916
3916
3916
3916
3916
3916
3916
3916
3916
3916
3916
3916
3916
3916
3916
3916
3916
3916
3916
3916
3916
3916
3916
3916
3916
3916
3916
3916
3916
3916
3916
3916
3916
3916
3916
3916
3916
3916
3916
3916
3916
3916
3916
3916
3916
3916
3916
3916
3916
3916
3916
3916
3916
3916
3916
3916
3916
3916
3916
3916
3916
3916
3916
3916
3916
3916
3916
3916
3916
3916
3916
3916
3916
3916
3916
3916
3916
3916
3916
3916
3916
3916
3916
3916
3916
3916
3916
3916
3916
3916
3916
3916
3916
3916
3916
3916
3916
3914
3913
3916
3920
3924
3920
3906
3876
3836
3788
3735
3684
3634
3589
3543
3497
3454
3411
3370
3328
3286
3245
3205
3166
3126
3088
3050
3012
2975
2937
2900
2864
2826
2790
2754
2721
2688
2656
2623
2590
2557
2525
2493
2463
2433
2405
2377
2349
2322
2293
2264
2237
2209
2183
2156
2131
2107
2082
2057
2033
2009
1985
1961
1938
1915
1894
1873
1851
1831
1809
1786
1764
1743
1723
1703
1766
1657
1508
1378
1446
1886
2626
3426
3946
3994
3605
3008
2460
2091
2000
1896
1821
1730
1615
1533
1465
1407
1348
1287
1226
1168
1120
1078
1044
1008
975
945
916
890
864
838
813
790
770
755
742
730
712
703
694
677
657
637
616
605
603
608
610
604
591
577
564
557
557
552
546
541
535
529
523
520
518
519
520
520
516
510
504
499
501
504
508
508
497
484
475
475
487
503
515
516
509
501
494
494
495
498
500
501
508
507
505
501
498
500
507
520
532
538
539
536
540
540
542
537
530
528
532
546
563
574
578
576
575
576
583
588
595
598
602
608
613
618
621
623
627
633
642
649
657
662
662
676
678
686
683
676
673
678
694
714
732
742
745
744
738
748
750
757
763
770
776
783
789
795
803
809
815
820
824
828
832
832
818
841
880
915
906
815
641
424
240
137
118
146
181
200
183
179
179
179
179
179
179
179
179
179
179
179
179
179
179
179
179
179
179
179
179
179
179
179
179
179
179
179
179
179
179
179
179
179
179
179
179
179
179
179
179
179
179
179
179
179
179
179
179
179
179
179
179
179
179
179
179
179
179
179
179
179
179
179
179
179
179
179
179
179
179
179
179
179
179
179
179
179
179
179
179
179
179
179
179
179
179
324
208
13
3925
3970
420
1455
2710
3728
105
8
3697
3292
3067
3242
3389
3587
3772
3881
3935
3943
3932
3917
3909
3909
3915
3916
3916
3916
3916
3916
3916
3916
3916
3916
3916
3916
3916
3916
3916
3916
3916
3916
3916
3916
3916
3916
3916
3916
3916
3916
3916
3916
3916
3916
3916
3916
3916
3916
3916
3916
3916
3916
3916
3916
3916
3916
3916
3916
3916
3916
3916
3916
3916
3916
3916
3916
3916
3916
3916
3916
3916
3916
3916
3916
3916
3916
3916
3916
3916
3916
3916
3916
3916
3916
3916
3916
3916
3916
3916
3916
3916
3916
3916
3916
3916
3916
3916
3916
3916
3916
3916
3916
3916
3916
3916
3916
3916
3916
3916
3916
3916
3916
3916
3916
3916
3916
3916
3916
3916
3916
3916
3916
3916
3916
3916
3916
3916
3914
3915
3917
3920
3921
3915
3901
3878
3850
3819
3790
3763
3737
3712
3687
3663
3639
3615
3591
3569
3546
3523
3501
3479
3458
3436
3414
3392
3370
3347
3324
3301
3279
3256
3233
3209
3185
3161
3136
3111
3086
3062
3039
3015
2993
2970
2947
2924
2901
2878
2855
2833
2811
2791
2770
2750
2729
2709
2687
2665
2642
2618
2593
2567
2542
2518
2494
2471
2449
2428
2407
2388
2371
2354
2339
2326
2314
2304
2295
2287
2280
2275
2271
2268
2265
2263
2261
2258
2254
2250
2246
2241
2236
2231
2225
2218
2211
2203
2196
2188
2181
2175
2169
2164
2160
2155
2149
2144
2138
2131
2124
2117
2088
2045
2113
2210
2264
2152
1789
1221
621
186
3
27
132
220
248
179
179
179
179
179
179
179
179
179
179
179
179
179
179
179
179
179
179
179
179
179
179
179
179
179
179
179
179
179
179
179
179
179
179
179
179
179
179
179
179
179
179
179
179
179
179
179
179
179
179
179
179
179
179
179
179
179
179
179
179
179
179
179
179
179
179
179
179
179
179
179
179
179
179
179
179
179
179
179
179
179
179
179
179
179
179
179
179
179
179
179
179
179
179
179
179
179
179
179
179
179
179
179
179
179
179
179
179
179
179
179
179
179
179
179
179
179
179
179
179
179
179
179
179
179
179
179
179
179
179
179
179
179
179
179
179
179
179
179
179
179
179
179
179
179
179
179
179
179
179
179
179
179
179
179
179
179
179
179
179
179
179
179
179
179
179
181
182
180
172
169
176
195
229
269
306
336
359
384
412
446
480
515
546
577
609
641
673
705
736
767
798
829
863
895
927
957
997
1024
1048
1060
1072
1093
1132
1185
1238
1278
1299
1310
1316
1332
1362
1384
1414
1437
1461
1485
1507
1531
1553
1578
1603
1628
1654
1679
1703
1723
1749
1778
1801
1828
1841
1853
1869
1899
1940
1981
2017
2039
2053
2064
2076
2101
2122
2147
2229
2213
2153
2085
2096
2294
2703
3236
3716
4005
4074
4012
3921
3859
3916
3916
3916
3916
3916
3916
3916
3916
3916
3916
3916
3916
3916
3916
3916
3916
3916
3916
3916
3916
3916
3916
3916
3916
3916
3916
3916
3916
3916
3916
3916
3916
3916
3916
3916
3916
3916
3916
3916
3916
3916
3916
3916
3916
3916
3916
3916
3916
3916
3916
3916
3916
3916
3916
3916
3916
3916
3916
3916
3916
3916
3916
3916
3916
3916
3916
3916
3916
3916
3916
3916
3916
3916
3916
3916
3916
3916
3916
3916
3916
3916
3916
3916
3916
3916
3916
3916
3916
3916
3916
3916
3916
3916
3916
3916
3916
3916
3916
3916
3916
3916
3916
3916
3916
3916
3916
3916
3916
3916
3916
3916
3916
3916
3916
3916
3916
3916
3916
3916
3916
3916
3916
3916
3916
3916
3916
3916
3916
3916
3916
3916
3916
3916
3916
3916
3916
3916
3916
3916
3916
3916
3916
3916
3916
3916
3916
3916
3916
3916
3916
3916
3916
3916
3916
3916
3916
3916
3916
3916
3916
3916
3916
3916
3916
3916
3916
3916
3916
3916
3916
3916
3916
3916
3916
3916
3916
3916
3916
3916
3916
3916
3916
3916
3916
3916
3916
3916
3916
3916
3916
3916
3916
3916
3916
3916
3916
3916
3916
3916
3916
3916
3916
3916
3916
3916
3916
3916
3916
3916
3916
3916
3916
3916
3916
3916
3916
3916
3916
3916
3916
3916
3916
3916
3916
3916
3916
3916
3916
3916
3916
3916
3916
3916
3916
3916
3916
3791
3814
3977
115
243
3999
3102
1863
775
312
581
1272
1909
2181
2036
1587
1255
982
817
622
437
293
202
165
161
172
183
183
184
179
179
179
179
179
179
179
179
179
179
179
179
179
179
179
179
179
179
179
179
179
179
179
179
179
179
179
179
179
179
179
179
179
179
179
179
179
179
179
179
179
179
179
179
179
179
179
179
179
179
179
179
179
179
179
179
179
179
179
179
179
179
179
179
179
179
179
179
179
179
179
179
179
179
179
179
179
179
179
179
179
179
179
179
179
179
179
179
179
179
179
179
179
179
179
179
179
179
179
179
179
179
179
179
179
179
179
179
179
179
179
179
179
179
179
179
179
179
179
179
179
179
179
179
179
179
179
179
179
179
179
179
179
179
179
179
179
179
179
179
179
179
179
179
179
179
179
179
179
179
179
179
179
179
179
179
179
179
179
179
179
179
179
179
179
179
179
179
179
179
179
179
179
179
179
179
179
179
179
179
179
179
180
179
179
178
177
179
187
200
216
234
253
270
286
302
320
338
356
373
390
406
422
434
455
470
485
494
498
507
523
549
577
600
615
622
629
633
652
666
681
694
705
717
728
741
754
765
777
789
802
818
809
829
873
927
958
946
815
555
245
17
4095
277
861
1650
2471
3160
3659
3921
3988
3975
3937
3900
3891
3902
3916
3916
3916
3916
3916
3916
3916
3916
3916
3916
3916
3916
3916
3916
3916
3916
3916
3916
3916
3916
3916
3916
3916
3916
3916
3916
3916
3916
3916
3916
3916
3916
3916
3916
3916
3916
3916
3916
3916
3916
3916
3916
3916
3916
3916
3916
3916
3916
3916
3916
3916
3916
3916
3916
3916
3916
3916
3916
3916
3916
3916
3916
3916
3916
3916
3916
3916
3916
3916
3916
3916
3916
3916
3916
3916
3916
3916
3916
3916
3916
3916
3916
3916
3916
3916
3916
3916
3916
3916
3916
3916
3916
3916
3916
3916
3916
3916
3916
3916
3916
3916
3916
3916
3916
3916
3916
3916
3916
3916
3916
3916
3916
3916
3916
3916
3916
3916
3916
3916
3916
3916
3916
3916
3916
3916
3916
3916
3916
3916
3916
3916
3916
3916
3916
3916
3916
3916
3916
3916
3916
3916
3916
3916
3916
3916
3916
3916
3916
3916
3916
3916
3916
3916
3916
3916
3916
3916
3916
3916
3916
3916
3916
3916
3916
3916
3916
3916
3916
3916
3916
3916
3916
3916
3916
3916
3916
3916
3916
3916
3916
3916
3916
3916
3916
3916
3916
3916
3916
3916
3916
3916
3916
3916
3916
3916
3916
3916
3916
3916
3916
3916
3916
3916
3916
3916
3916
3916
3916
3916
3916
3916
3916
3916
3916
3916
3916
3916
3916
3916
3916
3916
3916
3916
3916
3916
3916
3916
3916
3916
3916
3916
3916
3916
3916
3916
3916
3916
3916
3916
3916
3916
3916
3916
3916
3916
3916
3916
3916
3912
3911
3916
3926
3934
3927
3888
3817
3718
3613
3511
3418
3339
3266
3184
3098
3007
2919
2844
2785
2735
2685
2624
2554
2479
2405
2339
2285
2228
2172
2115
2056
1999
1940
1881
1826
1772
1719
1668
1618
1568
1518
1472
1422
1373
1323
1269
1216
1165
1118
1079
1044
1012
977
937
890
853
811
774
741
709
676
646
616
590
565
539
513
485
462
438
420
405
389
369
350
333
316
297
272
240
208
184
172
171
175
180
182
179
179
179
179
179
179
179
179
179
179
179
179
179
179
179
179
179
179
179
179
179
179
179
179
179
179
179
179
179
179
179
179
179
179
179
179
179
179
179
179
179
179
179
179
179
179
179
179
179
179
179
179
179
179
179
179
179
179
179
179
179
179
179
179
179
179
179
179
179
179
179
179
179
179
179
179
179
179
179
179
179
179
179
179
181
182
178
174
172
176
194
227
275
331
389
446
502
555
608
660
710
760
810
858
907
955
1002
1048
1091
1135
1177
1216
1263
1303
1346
1379
1409
1442
1482
1530
1580
1625
1661
1688
1714
1737
1776
1808
1843
1872
1902
1931
1957
1984
2013
2040
2065
2089
2114
2141
2167
2194
2215
2245
2268
2292
2304
2312
2320
2336
2366
2407
2445
2470
2482
2489
2494
2509
2526
2450
2517
2653
2865
2941
2571
1791
878
327
521
1457
2706
3743
180
120
4042
3865
3821
3895
3916
3916
3916
3916
3916
3916
3916
3916
3916
3916
3916
3916
3916
3916
3916
3916
3916
3916
3916
3916
3916
3916
3916
3916
3916
3916
3916
3916
3916
3916
3916
3916
3916
3916
3916
3916
3916
3916
3916
3916
3916
3916
3916
3916
3916
3916
3916
3916
3916
3916
3916
3916
3916
3916
3916
3916
3916
3916
3916
3916
3916
3916
3916
3916
3916
3916
3916
3916
3916
3916
3916
3916
3916
3916
3916
3916
3916
3916
3916
3916
3916
3916
3916
3916
3916
3916
3916
3916
3916
3916
3916
3916
3916
3916
3916
3916
3916
3914
3913
3914
3918
3924
3926
3914
3880
3827
3761
3693
3631
3574
3523
3467
3411
3356
3301
3247
3191
3133
3076
3020
2968
2918
2869
2821
2772
2725
2675
2631
2586
2541
2498
2454
2411
2367
2323
2282
2238
2199
2158
2118
2082
2047
2014
1980
1947
1913
1876
1840
1804
1769
1737
1705
1675
1641
1602
1561
1517
1474
1430
1390
1353
1315
1278
1239
1206
1177
1151
1130
1109
1087
1066
1043
1020
1000
978
958
936
920
907
893
882
869
859
847
835
825
812
803
793
783
775
766
760
753
747
741
731
724
716
709
704
699
699
697
697
696
696
699
699
699
698
697
700
703
708
716
720
722
725
727
731
735
739
743
747
752
756
761
764
768
772
879
867
737
560
428
697
1458
2541
3514
3929
3614
2791
1872
1191
886
905
898
888
778
688
618
563
520
494
471
451
427
398
369
350
337
329
322
316
313
311
308
306
303
300
300
302
307
316
322
330
340
346
351
350
346
344
349
362
379
397
405
408
407
407
418
427
437
446
450
454
458
463
471
478
483
488
493
498
507
521
535
544
548
576
610
631
614
537
412
279
182
140
145
169
188
190
179
179
179
179
179
179
179
179
179
179
179
179
179
179
179
179
179
179
179
179
179
179
179
179
179
179
179
179
179
179
179
179
179
179
179
179
179
179
179
179
179
179
179
179
179
179
179
179
179
179
179
179
179
179
179
179
179
179
179
179
179
179
179
179
179
179
179
179
179
179
179
179
179
179
179
182
183
179
173
168
179
199
234
281
340
411
496
588
672
742
796
841
886
941
1006
1067
1124
1180
1235
1290
1343
1397
1449
1500
1553
1605
1657
1707
1756
1800
1848
1900
1943
1988
2023
2054
2094
2142
2199
2257
2308
2347
2379
2408
2437
2481
2519
2557
2594
2629
2664
2697
2731
2764
2794
2822
2849
2878
2909
2941
2974
3001
3038
3064
3087
3100
3119
3141
3173
3206
3240
3269
3293
3320
3351
3376
3397
3409
3419
3428
3447
3467
3490
3508
3527
3546
3565
3582
3598
3612
3626
3640
3652
3668
3681
3696
3703
3707
3574
3659
3854
85
104
3646
2571
1359
644
839
1846
3098
4022
294
63
3956
3806
3854
3916
3916
3916
3916
3916
3916
3916
3916
3916
3916
3916
3916
3916
3916
3916
3916
3916
3916
3916
3916
3916
3916
3916
3916
3916
3916
3916
3916
3916
3916
3916
3916
3916
3916
3916
3916
3916
3916
3916
3916
3916
3916
3916
3916
3916
3916
3916
3916
3916
3916
3916
3916
3916
3916
3916
3916
3916
3916
3916
3916
3916
3916
3916
3916
3916
3916
3916
3916
3916
3916
3916
3916
3916
3916
3916
3916
3916
3916
3916
3916
3916
3916
3916
3916
3916
3916
3916
3916
3916
3916
3916
3916
3916
3916
3916
3916
3916
3916
3916
3916
3916
3916
3916
3916
3916
3916
3916
3916
3916
3916
3913
3915
3917
3920
3923
3918
3904
3870
3823
3767
3707
3651
3598
3548
3499
3449
3399
3346
3296
3245
3196
3149
3103
3059
3015
2971
2929
2886
2847
2804
2766
2728
2688
2649
2607
2566
2526
2487
2452
2417
2383
2351
2319
2288
2260
2230
2200
2168
2137
2107
2076
2048
2020
1994
1966
1940
1915
1888
1862
1835
1809
1785
1761
1741
1719
1699
1679
1658
1638
1618
1598
1577
1557
1542
1526
1509
1492
1477
1464
1452
1436
1419
1402
1389
1377
1364
1350
1333
1318
1308
1297
1289
1277
1264
1255
1243
1234
1222
1210
1196
1183
1173
1164
1157
1149
1138
1129
1118
1112
1108
1106
1104
1095
1084
1071
1060
1053
1044
1040
1030
1018
1009
1114
1047
896
690
635
1011
1838
2874
3664
3834
3323
2447
1605
1052
957
905
892
832
712
629
563
508
459
419
379
343
312
285
260
237
215
197
185
179
179
182
184
183
181
179
178
179
179
180
179
179
179
179
179
178
179
181
182
182
184
188
193
199
210
216
221
220
220
224
235
252
270
284
291
293
294
296
306
312
323
331
340
348
356
362
370
380
388
397
407
417
427
437
444
459
466
473
473
469
469
480
501
529
552
564
569
572
574
585
596
608
618
626
635
644
653
661
670
679
691
700
710
721
732
741
753
773
780
783
775
767
773
796
831
862
879
880
876
873
877
895
903
913
922
931
942
950
958
965
972
980
989
998
1008
1016
1024
1030
1045
1055
1061
1059
1053
1050
1061
1085
1114
1133
1138
1135
1131
1129
1142
1153
1163
1169
1177
1184
1192
1200
1207
1215
1222
1230
1238
1245
1253
1262
1268
1277
1284
1292
1294
1296
1299
1305
1317
1332
1344
1353
1356
1360
1361
1368
1374
1382
1386
1391
1398
1403
1409
1415
1418
1422
1425
1433
1442
1450
1456
1456
1464
1467
1472
1473
1470
1467
1465
1474
1489
1504
1511
1510
1506
1501
1504
1509
1515
1521
1523
1523
1525
1529
1533
1541
1550
1557
1561
1559
1558
1558
1558
1563
1568
1574
1573
1574
1571
1573
1581
1593
1605
1611
1612
1610
1607
1610
1618
1623
1625
1628
1628
1631
1633
1635
1636
1638
1728
1685
1581
1458
1410
1675
2288
3093
3765
4010
3734
3110
2416
1867
1648
1488
1397
1322
1196
1092
1006
934
871
818
771
730
695
666
644
626
614
607
602
599
598
601
605
612
621
632
644
656
669
683
697
712
728
744
762
779
797
817
837
857
877
897
916
935
954
972
991
1010
1028
1046
1064
1082
1099
1116
1132
1149
1165
1182
1198
1215
1232
1248
1263
1279
1294
1309
1323
1337
1348
1356
1361
1364
1366
1368
1371
1374
1377
1376
1372
1366
1358
1348
1338
1329
1319
1309
1296
1282
1267
1249
1231
1213
1196
1181
1167
1156
1146
1138
1130
1123
1117
1112
1105
1100
1095
1091
1088
1085
1083
1082
1081
1080
1080
1080
1081
1082
1084
1087
1090
1093
1097
1101
1105
1109
1114
1121
1129
1137
1144
1153
1161
1168
1176
1183
1191
1198
1205
1213
1221
1227
1232
1237
1241
1244
1247
1252
1257
1264
1270
1277
1285
1294
1301
1309
1318
1327
1336
1345
1353
1362
1372
1384
1401
1422
1448
1475
1502
1529
1556
1581
1605
1630
1656
1681
1705
1730
1755
1778
1799
1820
1839
1858
1875
1891
1907
1922
1936
1950
1962
1971
1977
1978
1980
1984
1985
1975
1945
1890
1814
1726
1641
1568
1503
1441
1381
1321
1259
1186
1096
985
867
763
691
658
658
668
665
640
597
554
523
515
529
557
589
620
647
674
702
727
746
758
765
768
765
757
711
852
853
764
613
512
724
1384
2389
3374
3945
3931
3472
2885
2368
2200
2165
2119
2090
2029
1979
1935
1894
1852
1808
1766
1719
1674
1631
1591
1556
1527
1503
1483
1467
1453
1438
1426
1420
1418
1423
1434
1456
1487
1527
1575
1624
1671
1712
1747
1776
1797
1815
1828
1840
1854
1872
1893
1918
1946
1977
2008
2037
2060
2083
2105
2129
2157
2185
2218
2247
2274
2296
2313
2329
2342
2353
2361
2365
2365
2362
2357
2352
2346
2337
2326
2311
2294
2277
2261
2246
2233
2222
2211
2203
2197
2193
2191
2190
2190
2191
2193
2194
2192
2190
2189
2192
2197
2202
2206
2206
2204
2203
2204
2208
2214
2219
2223
2227
2230
2233
2235
2237
2241
2245
2250
2255
2259
2264
2269
2274
2278
2283
2287
2290
2291
2292
2294
2297
2300
2301
2297
2289
2280
2271
2264
2258
2253
2249
2243
2237
2230
2221
2211
2200
2189
2180
2170
2161
2150
2139
2126
2113
2103
2091
2081
2069
2059
2049
2042
2033
2025
2015
2003
1992
1985
1982
1994
2009
2026
2035
2034
2021
1994
1957
1915
1876
1852
1848
1865
1893
1919
1937
1943
1944
1944
1944
1944
1943
1943
1944
1947
1952
1955
1957
1957
1957
1958
1963
1967
1972
1976
1979
1982
1984
1986
1988
1990
1993
1995
1998
2000
2002
2004
2007
2014
2020
2026
2030
2031
2031
2032
2032
2032
2032
2030
2026
2021
2016
2013
2007
2003
1998
1994
1991
1989
1989
1991
1996
2004
2015
2027
2040
2051
2061
2069
2075
2081
2089
2097
2107
2116
2124
2132
2136
2138
2138
2137
2138
2139
2142
2142
2141
2138
2136
2134
2131
2128
2122
2115
2110
2105
2103
2099
2095
2090
2085
2080
2077
2075
2072
2069
2065
2062
2060
2057
2053
2047
2040
2034
2029
2027
2027
2026
2026
2025
2026
2027
2029
2031
2031
2031
2031
2031
2030
2030
2029
2028
2027
2027
2024
2020
2014
2009
2004
2003
2003
2002
2000
1996
1991
1988
1986
1985
1985
1985
1984
1984
1983
1983
1985
1988
1993
1996
1999
2002
2007
2015
2024
2033
2041
2045
2047
2048
2049
2052
2057
2060
2062
2062
2061
2061
2062
2065
2069
2072
2074
2075
2077
2080
2083
2085
2085
2085
2087
2089
2089
2083
2068
2045
2022
2010
2011
2027
2048
2063
2068
2065
2057
2040
2013
1978
1943
1919
1915
1930
1953
1972
1981
1979
1974
1970
1969
1968
1966
1965
1963
1963
1963
1963
1964
1964
1963
1964
1963
1962
1960
1958
1959
1962
1966
1970
1971
1970
1969
1969
1969
1975
1979
1982
1985
1986
1988
1990
1992
1995
1997
1999
2001
2002
2003
2002
2001
1998
1997
1993
1990
1985
1980
1976
1973
1969
1965
1960
1955
1950
1947
1944
1944
1943
1943
1942
1941
1940
1939
1938
1936
1936
1935
1934
1931
1929
1927
1924
1922
1920
1920
1918
1916
1913
1912
1912
1911
1910
1908
1905
1903
1900
1898
1895
1892
1891
1891
1891
1892
1892
1888
1884
1882
1880
1879
1879
1877
1875
1873
1870
1867
1864
1861
1857
1854
1851
1851
1851
1851
1850
1847
1843
1840
1839
1840
1841
1840
1839
1837
1836
1837
1837
1838
1839
1839
1840
1840
1841
1842
1841
1841
1840
1841
1841
1842
1842
1843
1843
1844
1845
1846
1845
1843
1842
1841
1841
1842
1842
1844
1844
1846
1847
1848
1848
1847
1846
1845
1844
1845
1846
1849
1850
1850
1851
1850
1850
1849
1849
1849
1851
1854
1856
1857
1856
1854
1853
1853
1856
1858
1860
1860
1862
1863
1863
1862
1863
1868
1880
1898
1913
1922
1923
1918
1905
1888
1862
1833
1809
1799
1810
1835
1862
1884
1892
1892
1890
1889
1889
1889
1892
1894
1897
1900
1904
1906
1908
1909
1911
1913
1915
1918
1921
1923
1925
1926
1928
1931
1933
1934
1935
1935
1938
1943
1948
1952
1954
1954
1954
1953
1956
1957
1959
1959
1961
1962
1962
1961
1959
1956
1953
1949
1946
1943
1939
1935
1930
1926
1925
1922
1919
1916
1914
1915
1917
1920
1921
1921
1918
1915
1915
1914
1917
1916
1916
1915
1917
1919
1921
1922
1924
1925
1926
1928
1930
1933
1935
1937
1938
1941
1940
1938
1935
