1983
1983
1983
1983
1983
1982
1981
1981
1982
1984
1985
1986
1985
1984
1984
1984
1985
1987
1987
1988
1988
1989
1990
1992
1993
1992
1990
1988
1987
1988
1990
1991
1991
1989
1986
1985
1986
1987
1989
1989
1988
1988
1989
1991
1989
1984
1975
1965
1959
1960
1973
1997
2030
2066
2099
2118
2116
2093
2057
2021
1994
1980
1977
1980
1983
1983
1982
1981
1981
1981
1980
1980
1980
1979
1979
1979
1980
1980
1980
1980
1980
1980
1979
1978
1976
1976
1978
1980
1983
1984
1982
1980
1977
1975
1975
1976
1979
1981
1982
1983
1982
1980
1978
1977
1977
1978
1979
1981
1983
1984
1984
1984
1984
1985
1986
1988
1990
1991
1992
1992
1992
1992
1991
1991
1991
1991
1990
1989
1987
1985
1984
1983
1982
1982
1983
1983
1984
1984
1983
1983
1981
1980
1980
1980
1981
1982
1983
1983
1982
1980
1979
1979
1982
1984
1986
1987
1986
1984
1984
1984
1985
1985
1985
1984
1983
1983
1982
1982
1982
1981
1980
1980
1980
1982
1983
1985
1987
1987
1987
1986
1985
1984
1983
1983
1983
1984
1984
1983
1982
1981
1980
1979
1980
1981
1982
1982
1982
1981
1981
1982
1983
1983
1983
1982
1980
1980
1980
1982
1984
1986
1988
1988
1988
1987
1986
1985
1986
1986
1985
1984
1982
1981
1981
1982
1983
1984
1984
1984
1984
1984
1984
1981
1975
1968
1961
1959
1965
1981
2006
2039
2073
2102
2114
2105
2077
2041
2008
1986
1977
1976
1979
1981
1981
1980
1979
1979
1979
1979
1979
1978
1977
1977
1977
1977
1977
1977
1977
1977
1978
1979
1980
1980
1979
1978
1978
1978
1978
1979
1979
1979
1978
1978
1977
1977
1977
1978
1979
1980
1981
1980
1980
1979
1979
1979
1980
1981
1982
1983
1984
1985
1985
1985
1986
1987
1989
1991
1992
1993
1992
1990
1988
1986
1984
1982
1981
1980
1979
1979
1978
1977
1976
1975
1974
1973
1972
1971
1971
1972
1974
1975
1975
1975
1974
1973
1972
1972
1973
1974
1976
1977
1977
1976
1975
1974
1974
1975
1977
1977
1977
1976
1976
1976
1976
1977
1977
1977
1977
1977
1977
1976
1975
1973
1973
1974
1977
1980
1982
1982
1982
1981
1980
1979
1979
1979
1979
1979
1978
1977
1976
1976
1977
1978
1977
1976
1975
1975
1976
1979
1982
1985
1986
1986
1984
1983
1981
1980
1981
1982
1983
1983
1981
1979
1977
1975
1975
1975
1976
1978
1980
1983
1985
1984
1979
1970
1959
1949
1946
1955
1978
2012
2053
2094
2125
2136
2121
2086
2043
2005
1981
1973
1974
1978
1980
1978
1975
1974
1973
1972
1972
1973
1973
1974
1974
1973
1973
1972
1971
1971
1972
1974
1975
1976
1976
1976
1975
1975
1975
1975
1976
1976
1976
1976
1976
1976
1976
1976
1977
1977
1978
1978
1978
1977
1977
1977
1978
1980
1981
1983
1983
1983
1982
1981
1980
1980
1982
1984
1988
1989
1989
1988
1986
1985
1985
1986
1986
1985
1983
1979
1975
1973
1972
1972
1974
1975
1975
1974
1972
1972
1972
1973
1974
1975
1975
1975
1974
1974
1975
1976
1978
1978
1977
1975
1973
1972
1972
1973
1975
1976
1976
1976
1976
1975
1974
1974
1975
1976
1977
1978
1978
1978
1977
1976
1976
1976
1977
1978
1978
1978
1978
1977
1977
1976
1976
1977
1977
1978
1979
1980
1980
1979
1979
1978
1977
1976
1975
1976
1977
1978
1979
1979
1977
1976
1975
1976
1977
1978
1979
1979
1978
1976
1975
1975
1976
1978
1980
1982
1983
1982
1981
1979
1976
1974
1971
1970
1971
1973
1974
1975
1975
1974
1973
1973
1974
1976
1976
1971
1963
1951
1942
1942
1954
1979
2015
2055
2093
2117
2120
2100
2063
2021
1986
1966
1961
1965
1970
1972
1972
1970
1968
1966
1965
1965
1966
1968
1970
1971
1971
1971
1971
1970
1970
1969
1968
1967
1968
1968
1970
1970
1971
1970
1970
1970
1971
1972
1972
1971
1970
1969
1971
1973
1975
1975
1974
1973
1972
1973
1974
1975
1976
1976
1976
1975
1975
1974
1975
1976
1979
1981
1984
1985
1985
1983
1982
1980
1979
1978
1978
1977
1977
1977
1976
1976
1975
1974
1973
1972
1971
1970
1970
1969
1969
1969
1970
1970
1970
1970
1970
1971
1972
1972
1971
1970
1970
1970
1971
1973
1974
1975
1976
1976
1976
1974
1973
1973
1972
1971
1972
1973
1975
1977
1977
1976
1975
1974
1974
1974
1975
1974
1974
1975
1975
1976
1976
1975
1973
1971
1972
1974
1977
1978
1977
1975
1974
1973
1975
1977
1979
1979
1979
1978
1977
1977
1977
1979
1980
1980
1980
1979
1978
1977
1977
1978
1979
1979
1979
1978
1977
1977
1978
1980
1981
1980
1979
1977
1976
1977
1979
1981
1983
1983
1982
1980
1980
1980
1980
1980
1980
1980
1981
1982
1982
1982
1981
1980
1980
1980
1980
1980
1979
1979
1980
1981
1982
1983
1983
1982
1983
1984
1986
1988
1987
1986
1985
1984
1984
1986
1986
1986
1983
1981
1980
1980
1982
1983
1984
1983
1983
1983
1984
1986
1985
1980
1972
1961
1952
1950
1961
1984
2018
2056
2094
2119
2126
2110
2077
2038
2004
1983
1976
1977
1979
1979
1978
1977
1976
1977
1978
1978
1978
1977
1977
1976
1977
1977
1978
1978
1979
1979
1979
1979
1979
1978
1978
1978
1978
1979
1980
1981
1980
1979
1977
1975
1976
1978
1980
1981
1981
1981
1980
1981
1982
1984
1984
1984
1982
1982
1981
1981
1981
1981
1981
1982
1985
1987
1990
1991
1992
1991
1991
1991
1991
1991
1991
1990
1987
1985
1982
1982
1982
1982
1982
1980
1978
1976
1975
1975
1976
1976
1975
1975
1974
1974
1974
1973
1973
1972
1973
1974
1975
1975
1974
1973
1972
1972
1973
1974
1974
1973
1973
1972
1972
1973
1973
1974
1974
1975
1975
1975
1975
1975
1975
1975
1974
1973
1973
1972
1973
1975
1977
1978
1978
1977
1976
1975
1974
1975
1975
1976
1976
1976
1976
1975
1974
1973
1972
1973
1975
1977
1979
1979
1978
1976
1974
1974
1975
1977
1978
1978
1978
1977
1976
1976
1975
1975
1976
1977
1979
1980
1980
1979
1978
1977
1976
1976
1976
1975
1975
1975
1975
1975
1975
1976
1977
1979
1981
1982
1981
1980
1979
1979
1979
1980
1980
1979
1978
1977
1977
1977
1977
1977
1977
1978
1978
1977
1976
1972
1966
1958
1952
1952
1962
1985
2019
2058
2095
2119
2121
2100
2063
2024
1992
1975
1971
1975
1979
1981
1980
1979
1978
1976
1976
1975
1975
1975
1974
1973
1972
1973
1975
1978
1980
1980
1979
1978
1977
1977
1978
1980
1980
1980
1978
1978
1977
1977
1978
1980
1982
1982
1983
1982
1981
1981
1981
1982
1983
1984
1985
1985
1986
1986
1986
1986
1986
1987
1988
1990
1992
1993
1995
1995
1995
1995
1995
1996
1996
1996
1995
1993
1990
1988
1986
1984
1982
1981
1979
1977
1977
1978
1979
1981
1981
1981
1980
1980
1980
1980
1980
1979
1978
1978
1978
1980
1982
1982
1982
1980
1979
1980
1983
1985
1987
1986
1983
1982
1982
1984
1986
1987
1987
1985
1984
1983
1982
1982
1982
1983
1983
1983
1983
1984
1984
1984
1983
1984
1984
1984
1984
1985
1985
1985
1985
1984
1984
1984
1984
1984
1983
1983
1984
1986
1988
1989
1988
1987
1986
1987
1987
1988
1987
1985
1983
1982
1982
1982
1984
1985
1987
1988
1988
1989
1988
1988
1986
1984
1982
1983
1984
1987
1988
1989
1988
1986
1984
1982
1981
1981
1981
1983
1984
1985
1986
1986
1986
1986
1986
1987
1989
1989
1989
1987
1985
1983
1982
1984
1986
1988
1988
1987
1987
1987
1988
1988
1985
1979
1970
1961
1957
1963
1981
2011
2049
2091
2124
2137
2127
2096
2055
2018
1991
1980
1978
1981
1984
1984
1983
1983
1983
1983
1983
1983
1982
1981
1980
1979
1979
1980
1980
1981
1981
1982
1982
1982
1981
1980
1980
1979
1980
1980
1981
1982
1982
1982
1981
1981
1981
1981
1980
1981
1982
1984
1985
1985
1984
1982
1983
1985
1987
1990
1992
1992
1992
1992
1992
1993
1993
1994
1996
1997
1998
1999
1999
1997
1995
1993
1992
1993
1994
1995
1995
1992
1989
1985
1983
1982
1983
1985
1987
1987
1986
1985
1983
1983
1984
1985
1986
1986
1985
1983
1982
1983
1985
1987
1989
1988
1987
1986
1985
1984
1984
1985
1986
1987
1986
1985
1984
1984
1985
1987
1989
1989
1987
1985
1984
1983
1982
1980
1979
1980
1982
1985
1987
1988
1987
1985
1984
1983
1983
1984
1985
1986
1985
1984
1981
1979
1978
1979
1981
1984
1985
1985
1984
1983
1982
1982
1983
1983
1983
1983
1983
1983
1984
1984
1984
1983
1982
1982
1982
1983
1984
1984
1984
1984
1984
1983
1982
1982
1982
1984
1985
1985
1984
1983
1981
1981
1981
1982
1983
1984
1985
1985
1986
1987
1987
1988
1987
1987
1985
1983
1982
1981
1981
1982
1983
1983
1983
1982
1981
1981
1982
1984
1984
1981
1974
1965
1955
1952
1960
1979
2009
2047
2084
2113
2123
2112
2082
2043
2007
1983
1972
1971
1974
1976
1975
1973
1971
1970
1970
1970
1970
1970
1969
1969
1969
1969
1969
1969
1969
1969
1969
1968
1968
1968
1967
1967
1968
1968
1969
1968
1968
1968
1967
1967
1967
1967
1967
1967
1968
1968
1969
1969
1969
1969
1969
1969
1969
1970
1971
1973
1976
1977
1977
1976
1975
1975
1976
1978
1980
1981
1982
1982
1981
1981
1980
1978
1977
1975
1974
1974
1973
1971
1968
1965
1964
1964
1967
1969
1971
1971
1970
1969
1969
1969
1969
1969
1969
1969
1969
1969
1970
1970
1970
1970
1969
1969
1970
1970
1971
1972
1972
1972
1971
1969
1968
1968
1968
1970
1972
1972
1972
1970
1969
1968
1969
1970
1971
1972
1971
1970
1969
1970
1970
1970
1970
1969
1968
1969
1970
1972
1973
1972
1971
1971
1970
1970
1970
1971
1971
1971
1971
1971
1971
1971
1970
1970
1971
1971
1972
1972
1973
1972
1972
1971
1970
1970
1970
1970
1970
1971
1972
1973
1974
1975
1975
1976
1975
1975
1975
1974
1974
1974
1974
1973
1973
1972
1972
1972
1973
1973
1974
1974
1975
1975
1975
1972
1965
1955
1945
1941
1948
1968
1999
2039
2078
2109
2124
2115
2086
2046
2007
1980
1968
1967
1971
1973
1972
1971
1971
1971
1971
1970
1970
1970
1970
1971
1972
1972
1972
1972
1972
1972
1972
1973
1973
1974
1975
1975
1974
1974
1974
1975
1976
1976
1976
1976
1976
1976
1977
1977
1978
1979
1979
1979
1979
1979
1980
1981
1982
1983
1984
1984
1985
1986
1988
1989
1990
1990
1991
1992
1992
1992
1993
1994
1994
1994
1993
1992
1990
1988
1985
1983
1982
1981
1981
1981
1980
1979
1978
1978
1978
1979
1980
1980
1979
1978
1977
1977
1978
1979
1980
1980
1980
1979
1979
1979
1979
1979
1980
1980
1980
1980
1980
1980
1980
1980
1979
1980
1980
1981
1981
1981
1980
1979
1978
1979
1980
1981
1982
1982
1982
1981
1980
1979
1978
1978
1978
1979
1980
1981
1981
1981
1979
1978
1977
1978
1978
1979
1980
1980
1980
1980
1980
1980
1980
1980
1980
1980
1981
1981
1982
1982
1982
1982
1981
1981
1981
1981
1981
1981
1981
1981
1981
1981
1981
1980
1980
1980
1980
1981
1981
1981
1981
1981
1981
1983
1985
1987
1988
1988
1988
1987
1986
1985
1985
1984
1984
1985
1985
1985
1985
1984
1982
1981
1981
1981
1983
1985
1986
1984
1977
1968
1958
1953
1958
1976
2006
2045
2085
2117
2132
2123
2093
2051
2013
1986
1974
1974
1980
1983
1984
1982
1980
1979
1978
1977
1978
1978
1979
1980
1980
1980
1980
1979
1979
1980
1981
1981
1982
1982
1982
1982
1982
1982
1982
1982
1982
1982
1983
1984
1985
1985
1984
1984
1984
1984
1985
1986
1986
1987
1988
1989
1990
1990
1991
1991
1992
1992
1994
1995
1997
1998
1998
1998
1999
1999
2000
2002
2002
2002
2000
1998
1995
1993
1991
1990
1990
1989
1989
1989
1988
1988
1987
1986
1986
1986
1985
1986
1986
1986
1986
1987
1986
1986
1986
1986
1987
1988
1989
1989
1989
1988
1987
1987
1988
1988
1988
1989
1989
1990
1990
1990
1990
1989
1989
1989
1988
1989
1989
1989
1990
1991
1991
1991
1990
1990
1990
1990
1990
1990
1990
1990
1989
1989
1989
1989
1989
1989
1989
1990
1990
1990
1990
1990
1989
1988
1988
1988
1988
1989
1989
1990
1989
1989
1989
1989
1989
1990
1990
1990
1990
1990
1990
1989
1989
1989
1989
1989
1990
1990
1990
1990
1990
1990
1990
1990
1989
1989
1989
1989
1989
1989
1989
1988
1988
1987
1988
1988
1989
1989
1989
1988
1987
1986
1986
1987
1988
1989
1989
1990
1991
1992
1993
1993
1993
1991
1990
1990
1990
1990
1990
1990
1990
1990
1989
1988
1988
1989
1991
1992
1990
1984
1974
1964
1957
1960
1975
2003
2039
2077
2110
2128
2123
2098
2060
2023
1994
1980
1977
1979
1982
1982
1981
1980
1978
1976
1976
1976
1977
1979
1979
1978
1977
1975
1974
1975
1976
1977
1978
1979
1980
1981
1981
1980
1978
1977
1977
1978
1979
1980
1980
1979
1978
1978
1977
1977
1978
1979
1980
1982
1982
1982
1982
1982
1982
1983
1984
1986
1988
1989
1990
1990
1990
1990
1991
1992
1993
1994
1994
1995
1995
1995
1995
1993
1991
1988
1986
1984
1983
1983
1983
1982
1981
1980
1979
1979
1980
1981
1982
1982
1982
1981
1981
1980
1980
1979
1980
1980
1982
1984
1985
1985
1984
1984
1983
1983
1983
1984
1985
1986
1987
1987
1986
1986
1985
1985
1986
1986
1986
1986
1985
1985
1984
1984
1985
1986
1987
1988
1988
1987
1987
1986
1985
1985
1985
1985
1986
1986
1987
1988
1988
1988
1988
1987
1986
1985
1984
1984
1985
1986
1987
1987
1987
1986
1987
1987
1987
1987
1987
1987
1987
1987
1987
1987
1987
1987
1987
1987
1985
1984
1984
1985
1986
1989
1991
1992
1992
1992
1992
1992
1992
1992
1991
1989
1988
1987
1987
1987
1987
1987
1987
1986
1985
1986
1987
1988
1988
1984
1976
1966
1957
1954
1963
1985
2019
2060
2100
2128
2136
2120
2085
2043
2007
1984
1975
1976
1980
1982
1982
1981
1980
1979
1978
1978
1978
1978
1978
1978
1978
1979
1978
1978
1978
1978
1978
1978
1978
1979
1979
1980
1980
1981
1981
1980
1980
1980
1981
1981
1982
1983
1983
1983
1982
1982
1981
1981
1981
1982
1984
1985
1986
1987
1987
1988
1988
1989
1990
1991
1992
1994
1995
1995
1996
1996
1996
1996
1996
1996
1994
1993
1991
1990
1988
1986
1984
1982
1982
1982
1982
1983
1983
1982
1982
1981
1981
1980
1980
1980
1980
1980
1981
1981
1982
1983
1984
1984
1983
1983
1982
1982
1983
1983
1983
1983
1982
1982
1982
1983
1984
1983
1983
1982
1982
1982
1983
1984
1985
1984
1984
1984
1983
1983
1983
1982
1982
1982
1982
1982
1982
1982
1982
1982
1982
1982
1982
1982
1982
1982
1982
1982
1983
1983
1983
1982
1981
1981
1980
1980
1981
1982
1983
1982
1982
1981
1981
1981
1981
1982
1982
1982
1982
1982
1982
1982
1981
1981
1980
1980
1981
1981
1982
1981
1981
1980
1980
1980
1981
1981
1982
1982
1982
1982
1982
1982
1982
1982
1981
1981
1982
1982
1981
1980
1979
1979
1979
1980
1981
1983
1984
1985
1986
1986
1984
1982
1981
1979
1979
1980
1981
1982
1982
1981
1980
1979
1978
1979
1980
1981
1983
1983
1980
1973
1963
1953
1950
1957
1976
2008
2048
2087
2117
2127
2113
2080
2040
2003
1980
1971
1972
1976
1978
1978
1976
1975
1974
1973
1973
1973
1973
1973
1974
1974
1974
1973
1973
1973
1973
1974
1975
1976
1976
1976
1976
1975
1975
1975
1975
1975
1975
1976
1976
1976
1977
1977
1977
1977
1977
1978
1979
1980
1981
1982
1982
1982
1983
1983
1984
1985
1987
1988
1989
1990
1990
1991
1992
1993
1994
1995
1995
1995
1994
1993
1991
1990
1988
1987
1985
1984
1983
1982
1981
1980
1979
1978
1978
1977
1977
1977
1977
1977
1977
1977
1977
1977
1976
1976
1975
1976
1977
1978
1979
1979
1978
1977
1977
1977
1977
1977
1977
1977
1977
1977
1977
1977
1977
1977
1976
1976
1976
1975
1975
1975
1974
1974
1974
1974
1974
1974
1974
1974
1974
1974
1973
1973
1972
1971
1971
1971
1971
1972
1971
1971
1969
1969
1968
1969
1969
1970
1970
1969
1969
1968
1968
1967
1967
1967
1967
1968
1968
1968
1968
1968
1968
1967
1967
1967
1967
1967
1967
1967
1968
1967
1967
1966
1965
1965
1965
1966
1968
1968
1968
1968
1967
1966
1965
1964
1963
1964
1966
1968
1970
1972
1972
1972
1971
1971
1970
1970
1970
1969
1969
1969
1969
1968
1968
1967
1967
1967
1967
1968
1969
1971
1971
1969
1964
1956
1947
1942
1944
1957
1981
2017
2055
2089
2107
2103
2078
2042
2005
1977
1963
1960
1963
1966
1966
1966
1965
1964
1963
1963
1963
1962
1961
1961
1960
1961
1961
1961
1962
1962
1962
1961
1961
1961
1960
1960
1960
1960
1960
1960
1960
1961
1961
1961
1962
1962
1962
1962
1963
1963
1964
1965
1965
1964
1964
1964
1965
1966
1968
1970
1971
1972
1972
1973
1973
1974
1975
1976
1976
1977
1978
1979
1980
1980
1979
1977
1975
1973
1972
1970
1969
1967
1966
1965
1964
1963
1963
1963
1963
1963
1963
1963
1962
1962
1962
1963
1963
1963
1963
1963
1964
1964
1964
1964
1964
1964
1965
1966
1966
1967
1966
1966
1966
1966
1966
1966
1966
1966
1966
1966
1967
1968
1968
1968
1967
1967
1966
1966
1967
1968
1968
1968
1968
1967
1967
1967
1967
1968
1968
1968
1968
1967
1967
1966
1966
1966
1967
1968
1968
1969
1969
1968
1967
1966
1966
1966
1966
1967
1969
1970
1971
1971
1970
1969
1968
1968
1968
1969
1969
1970
1970
1969
1968
1968
1968
1970
1972
1974
1976
1978
1978
1977
1976
1975
1974
1973
1973
1972
1972
1972
1972
1971
1971
1970
1969
1969
1969
1971
1973
1973
1969
1961
1950
1941
1940
1951
1975
2011
2053
2094
2121
2126
2106
2068
2025
1990
1970
1964
1967
1971
1972
1971
1969
1968
1967
1966
1966
1966
1967
1967
1967
1967
1967
1967
1966
1966
1966
1966
1967
1967
1967
1967
1968
1968
1968
1968
1968
1968
1968
1969
1970
1971
1972
1972
1971
1970
1970
1970
1972
1973
1975
1976
1976
1976
1976
1977
1978
1979
1981
1982
1983
1984
1984
1985
1985
1986
1987
1988
1989
1989
1988
1986
1984
1982
1980
1978
1977
1976
1975
1975
1974
1973
1972
1970
1970
1971
1972
1972
1973
1973
1973
1973
1973
1972
1971
1971
1971
1971
1973
1974
1975
1975
1974
1973
1973
1973
1974
1975
1975
1975
1975
1975
1974
1974
1974
1975
1975
1976
1977
1977
1977
1978
1978
1978
1978
1977
1977
1977
1977
1978
1978
1978
1978
1978
1977
1976
1976
1976
1977
1977
1978
1978
1978
1977
1977
1977
1977
1978
1978
1979
1980
1979
1978
1977
1976
1975
1976
1976
1977
1978
1979
1979
1979
1978
1977
1977
1977
1977
1978
1978
1978
1978
1978
1978
1978
1978
1978
1979
1980
1980
1980
1980
1979
1978
1977
1977
1977
1978
1978
1979
1979
1978
1978
1978
1977
1977
1976
1977
1978
1979
1980
1980
1980
1979
1978
1977
1977
1977
1977
1978
1978
1979
1980
1981
1982
1982
1983
1983
1983
1983
1983
1982
1981
1980
1978
1977
1977
1978
1979
1979
1980
1980
1980
1980
1980
1980
1977
1972
1963
1954
1949
1953
1971
2000
2039
2079
2112
2127
2120
2091
2050
2012
1984
1971
1970
1973
1976
1976
1976
1975
1974
1973
1973
1972
1972
1972
1972
1972
1973
1973
1973
1973
1973
1973
1973
1973
1973
1974
1974
1975
1975
1975
1975
1974
1974
1974
1975
1975
1976
1976
1977
1977
1977
1977
1977
1977
1977
1978
1979
1980
1981
1982
1982
1983
1983
1984
1985
1986
1988
1989
1991
1991
1991
1992
1992
1992
1992
1992
1992
1990
1988
1985
1984
1982
1981
1979
1978
1976
1975
1976
1976
1976
1976
1976
1975
1975
1975
1976
1976
1977
1978
1978
1977
1977
1976
1976
1976
1977
1978
1978
1978
1978
1978
1978
1977
1977
1978
1978
1979
1979
1979
1979
1979
1979
1978
1978
1979
1979
1980
1981
1980
1980
1979
1978
1978
1979
1979
1980
1980
1980
1980
1981
1981
1980
1980
1979
1979
1980
1980
1980
1980
1980
1979
1979
1978
1978
1978
1979
1980
1981
1980
1980
1978
1977
1977
1977
1977
1977
1978
1979
1979
1979
1978
1977
1976
1975
1975
1976
1977
1978
1978
1977
1977
1976
1975
1976
1976
1977
1977
1978
1978
1977
1977
1976
1975
1975
1976
1976
1976
1977
1977
1977
1976
1975
1975
1975
1975
1976
1976
1977
1978
1978
1977
1977
1976
1975
1976
1977
1979
1981
1983
1983
1983
1983
1982
1982
1982
1981
1981
1981
1980
1979
1978
1977
1977
1977
1978
1979
1980
1981
1982
1981
1977
1970
1960
1951
1948
1955
1975
2007
2047
2086
2115
2124
2110
2077
2038
2002
1979
1970
1971
1974
1976
1976
1975
1974
1973
1974
1974
1974
1974
1974
1974
1973
1973
1972
1973
1974
1974
1975
1975
1975
1975
1975
1975
1975
1975
1976
1976
1977
1977
1977
1977
1977
1977
1977
1978
1978
1979
1980
1981
1982
1982
1981
1981
1981
1982
1984
1986
1988
1989
1990
1990
1990
1990
1991
1992
1994
1996
1997
1997
1997
1997
1996
1995
1993
1991
1989
1987
1986
1985
1983
1982
1981
1980
1979
1978
1979
1979
1980
1980
1980
1980
1979
1979
1979
1979
1979
1980
1981
1981
1981
1980
1980
1979
1979
1980
1980
1981
1981
1982
1982
1982
1982
1982
1981
1981
1981
1981
1982
1983
1984
1985
1984
1983
1982
1982
1982
1983
1984
1984
1984
1984
1983
1983
1982
1982
1983
1983
1983
1983
1983
1983
1983
1982
1982
1982
1982
1982
1983
1984
1984
1984
1984
1983
1983
1983
1983
1983
1983
1984
1984
1983
1983
1982
1982
1982
1983
1984
1985
1986
1986
1985
1985
1984
1984
1985
1985
1986
1986
1986
1985
1985
1985
1985
1985
1986
1986
1987
1987
1987
1987
1987
1986
1986
1987
1987
1987
1987
1987
1986
1986
1985
1985
1986
1986
1986
1987
1987
1988
1988
1987
1986
1986
1985
1986
1986
1987
1987
1986
1985
1985
1986
1987
1989
1990
1990
1991
1991
1991
1991
1990
1989
1987
1986
1985
1985
1985
1986
1986
1987
1986
1986
1986
1986
1986
1985
1983
1977
1969
1961
1958
1964
1983
2013
2051
2090
2121
2133
2123
2092
2051
2014
1988
1977
1977
1981
1984
1984
1983
1982
1981
1981
1980
1979
1979
1979
1980
1981
1981
1982
1982
1982
1982
1982
1983
1983
1983
1983
1983
1983
1983
1983
1983
1983
1983
1984
1984
1984
1984
1985
1985
1986
1986
1986
1986
1987
1987
1988
1989
1990
1990
1990
1991
1991
1991
1992
1994
1995
1997
1997
1998
1998
1999
2000
2002
2002
2002
2001
1999
1997
1996
1994
1993
1990
1988
1986
1984
1983
1983
1984
1985
1985
1984
1983
1981
1981
1981
1982
1983
1984
1984
1983
1982
1981
1980
1980
1981
1981
1982
1983
1983
1982
1982
1981
1980
1980
1981
1982
1982
1983
1983
1982
1981
1981
1980
1980
1980
1981
1981
1981
1981
1980
1980
1979
1979
1980
1981
1981
1981
1980
1979
1979
1978
1978
1978
1979
1979
1979
1979
1979
1978
1978
1978
1978
1978
1978
1978
1979
1979
1978
1978
1978
1978
1978
1977
1977
1977
1978
1978
1979
1979
1978
1977
1977
1977
1977
1978
1978
1979
1979
1978
1977
1977
1976
1976
1977
1977
1978
1979
1978
1977
1976
1975
1975
1977
1978
1980
1982
1983
1983
1983
1983
1982
1980
1979
1978
1977
1978
1978
1978
1978
1977
1976
1976
1977
1978
1979
1980
1979
1976
1969
1961
1954
1952
1961
1982
2015
2053
2090
2114
2117
2098
2064
2026
1995
1978
1972
1973
1976
1977
1977
1975
1974
1973
1973
1973
1973
1974
1974
1974
1974
1974
1975
1975
1976
1976
1976
1976
1977
1977
1977
1977
1976
1976
1977
1977
1978
1978
1979
1979
1979
1979
1979
1980
1980
1980
1981
1981
1982
1983
1984
1985
1985
1985
1985
1986
1987
1989
1991
1992
1993
1993
1993
1994
1996
1997
1999
2000
2000
1999
1997
1994
1991
1989
1987
1985
1984
1983
1983
1982
1981
1979
1978
1977
1976
1977
1977
1978
1979
1978
1978
1977
1976
1976
1976
1977
1978
1979
1980
1980
1979
1979
1978
1978
1978
1979
1980
1980
1981
1981
1981
1981
1981
1981
1981
1981
1982
1983
1983
1983
1983
1982
1981
1981
1980
1980
1981
1981
1982
1982
1982
1982
1981
1981
1981
1981
1982
1983
1984
1984
1983
1983
1982
1982
1982
1983
1983
1984
1984
1984
1984
1984
1983
1983
1982
1982
1982
1983
1984
1985
1985
1984
1984
1983
1983
1984
1984
1984
1984
1984
1983
1982
1982
1982
1982
1984
1985
1987
1988
1989
1989
1989
1989
1988
1987
1986
1986
1985
1985
1985
1985
1984
1983
1982
1982
1982
1983
1985
1986
1987
1987
1982
1974
1963
1955
1953
1964
1987
2022
2064
2104
2131
2137
2118
2081
2039
2004
1983
1976
1979
1982
1983
1981
1979
1978
1978
1979
1979
1979
1979
1978
1977
1977
1976
1976
1977
1979
1980
1980
1979
1979
1978
1978
1979
1979
1980
1980
1981
1981
1982
1982
1982
1981
1981
1981
1981
1982
1983
1983
1984
1984
1984
1984
1985
1985
1985
1986
1987
1989
1990
1991
1992
1992
1993
1994
1995
1996
1998
1999
1999
1999
1997
1995
1994
1992
1990
1989
1987
1986
1985
1983
1982
1981
1981
1980
1981
1981
1982
1982
1981
1981
1980
1980
1980
1980
1980
1981
1981
1982
1983
1983
1983
1982
1981
1981
1982
1982
1983
1983
1983
1983
1983
1982
1982
1982
1982
1983
1984
1985
1985
1985
1984
1984
1983
1983
1983
1983
1983
1984
1984
1984
1984
1984
1983
1983
1983
1983
1984
1984
1984
1984
1983
1982
1982
1982
1982
1983
1984
1984
1985
1985
1985
1984
1983
1982
1982
1982
1983
1983
1984
1984
1984
1983
1983
1983
1983
1984
1985
1985
1985
1985
1985
1984
1984
1984
1983
1983
1983
1983
1984
1985
1985
1985
1984
1984
1984
1985
1986
1986
1986
1986
1985
1984
1984
1984
1984
1985
1985
1986
1986
1986
1986
1985
1985
1985
1986
1986
1985
1985
1984
1984
1984
1985
1985
1986
1986
1985
1986
1986
1985
1985
1984
1984
1985
1986
1987
1989
1990
1992
1992
1992
1991
1989
1987
1985
1985
1984
1985
1986
1986
1986
1985
1985
1984
1985
1986
1986
1986
1983
1975
1966
1957
1955
1963
1983
2016
2055
2095
2125
2136
2122
2088
2047
2008
1984
1974
1976
1981
1984
1983
1981
1979
1977
1977
1976
1977
1978
1979
1980
1980
1980
1980
1980
1980
1979
1979
1979
1980
1980
1982
1982
1982
1981
1980
1980
1980
1982
1984
1985
1985
1984
1983
1982
1982
1983
1983
1984
1985
1985
1985
1986
1987
1987
1988
1988
1989
1991
1992
1994
1995
1996
1997
1997
1998
1998
1999
2001
2002
2002
2002
2000
1998
1995
1993
1991
1989
1988
1987
1986
1985
1985
1984
1983
1982
1982
1981
1982
1982
1983
1983
1983
1982
1981
1981
1981
1982
1983
1983
1983
1983
1983
1983
1982
1981
1981
1981
1982
1983
1983
1983
1983
1982
1982
1981
1981
1981
1982
1983
1983
1983
1983
1982
1981
1980
1979
1979
1979
1981
1982
1982
1982
1981
1980
1979
1979
1980
1980
1980
1981
1981
1981
1981
1980
1980
1979
1978
1978
1979
1980
1981
1981
1980
1980
1979
1979
1979
1979
1979
1979
1979
1979
1979
1979
1979
1978
1978
1979
1979
1979
1978
1978
1978
1978
1978
1978
1978
1978
1979
1979
1980
1979
1978
1978
1977
1977
1978
1979
1979
1979
1978
1977
1976
1977
1978
1979
1981
1982
1983
1983
1983
1982
1980
1979
1978
1977
1976
1976
1976
1976
1975
1975
1973
1973
1972
1974
1975
1976
1975
1970
1961
1952
1946
1949
1963
1989
2026
2065
2098
2114
2107
2080
2043
2006
1979
1966
1964
1966
1969
1970
1969
1968
1966
1965
1963
1963
1964
1965
1966
1967
1967
1966
1965
1964
1964
1965
1966
1967
1968
1969
1970
1970
1969
1968
1968
1967
1968
1969
1971
1971
1972
1972
1972
1971
1971
1971
1972
1972
1973
1975
1976
1977
1978
1978
1978
1979
1980
1982
1983
1985
1986
1986
1986
1986
1987
1988
1989
1990
1990
1990
1988
1986
1983
1981
1978
1977
1975
1975
1974
1973
1972
1971
1971
1970
1969
1969
1968
1969
1970
1970
1970
1970
1969
1968
1968
1968
1968
1969
1970
1971
1971
1971
1971
1971
1972
1972
1972
1973
1973
1973
1973
1972
1972
1973
1973
1973
1973
1973
1973
1974
1974
1975
1974
1974
1974
1974
1974
1974
1974
1974
1974
1974
1974
1974
1974
1974
1974
1974
1975
1975
1974
1974
1974
1974
1974
1974
1975
1975
1975
1975
1974
1974
1973
1972
1972
1972
1973
1974
1975
1975
1976
1975
1975
1974
1974
1973
1974
1975
1976
1977
1978
1977
1976
1975
1973
1973
1973
1974
1975
1977
1979
1980
1980
1980
1980
1981
1981
1981
1981
1980
1979
1978
1977
1976
1976
1977
1976
1976
1975
1975
1977
1979
1981
1978
1971
1960
1949
1944
1950
1969
2000
2041
2083
2118
2135
2127
2095
2052
2011
1982
1968
1967
1971
1973
1972
1970
1969
1969
1970
1971
1971
1970
1969
1968
1967
1967
1967
1969
1970
1971
1971
1970
1969
1968
1968
1969
1971
1972
1972
1973
1972
1972
1971
1971
1972
1972
1972
1972
1972
1972
1973
1973
1973
1973
1972
1973
1973
1975
1977
1979
1980
1980
1981
1982
1983
1985
1986
1987
1988
1989
1990
1991
1991
1991
1989
1986
1984
1982
1981
1980
1978
1976
1973
1972
1971
1971
1972
1973
1973
1974
1974
1975
1975
1974
1973
1972
1972
1973
1974
1975
1975
1974
1974
1974
1974
1974
1973
1973
1974
1974
1974
1975
1975
1976
1976
1976
1976
1975
1975
1975
1975
1975
1975
1974
1973
1972
1972
1972
1972
1972
1973
1973
1973
1973
1973
1973
1973
1974
1974
1974
1974
1974
1974
1974
1975
1975
1975
1975
1975
1976
1976
1976
1975
1975
1974
1974
1975
1976
1977
1977
1977
1976
1976
1975
1975
1975
1975
1976
1977
1978
1979
1979
1978
1978
1978
1978
1978
1978
1978
1979
1979
1979
1979
1977
1977
1976
1977
1978
1980
1980
1981
1980
1979
1978
1978
1978
1978
1979
1980
1981
1981
1981
1980
1979
1978
1977
1978
1979
1980
1980
1980
1979
1979
1979
1980
1980
1978
1977
1976
1976
1978
1981
1984
1985
1986
1985
1984
1983
1982
1981
1980
1980
1980
1980
1979
1979
1978
1978
1978
1978
1978
1978
1978
1979
1979
1978
1973
1965
1956
1949
1949
1960
1984
2018
2059
2098
2123
2126
2106
2068
2027
1993
1973
1967
1969
1973
1974
1973
1972
1971
1971
1970
1970
1970
1970
1969
1969
1969
1970
1970
1971
1972
1972
1971
1971
1971
1972
1973
1973
1973
1972
1972
1971
1971
1971
1971
1972
1973
1974
1974
1973
1973
1973
1973
1975
1976
1977
1977
1978
1978
1979
1980
1980
1981
1981
1982
1983
1985
1987
1988
1988
1989
1990
1991
1991
1991
1991
1990
1990
1989
1987
1985
1982
1980
1977
1976
1975
1974
1974
1973
1972
1972
1971
1971
1971
1971
1971
1971
1972
1973
1972
1971
1971
1971
1971
1971
1971
1971
1971
1971
1972
1972
1972
1972
1972
1972
1972
1972
1972
1971
1971
1970
1970
1969
1970
1970
1970
1970
1970
1970
1970
1970
1970
1970
1969
1969
1969
1970
1970
1970
1970
1969
1969
1969
1969
1969
1970
1970
1970
1971
1972
1971
1971
1970
1969
1969
1970
1971
1971
1971
1970
1970
1970
1970
1970
1970
1971
1973
1973
1973
1973
1972
1971
1970
1971
1971
1972
1973
1973
1973
1973
1973
1973
1973
1972
1971
1972
1973
1974
1975
1975
1974
1973
1972
1971
1971
1972
1973
1973
1973
1973
1973
1973
1974
1975
1976
1977
1978
1978
1978
1978
1977
1976
1976
1974
1973
1972
1972
1972
1973
1973
1973
1972
1972
1972
1973
1973
1972
1967
1959
1950
1944
1944
1955
1979
2013
2053
2091
2115
2117
2096
2059
2019
1986
1967
1961
1964
1967
1969
1968
1967
1966
1965
1964
1964
1964
1964
1964
1964
1965
1965
1965
1965
1965
1965
1965
1965
1966
1966
1966
1966
1966
1966
1966
1966
1966
1966
1967
1967
1967
1968
1968
1968
1968
1968
1969
1970
1972
1973
1973
1972
1972
1972
1972
1974
1975
1977
1979
1980
1981
1982
1983
1983
1984
1985
1985
1986
1986
1986
1985
1983
1981
1979
1977
1975
1973
1972
1971
1970
1969
1968
1967
1966
1965
1964
1964
1965
1966
1967
1967
1966
1966
1966
1966
1967
1967
1967
1967
1967
1968
1968
1968
1967
1967
1967
1967
1967
1967
1968
1969
1970
1970
1970
1969
1969
1969
1969
1969
1970
1970
1970
1970
1970
1969
1969
1969
1969
1970
1970
1971
1971
1971
1970
1969
1969
1969
1970
1970
1971
1971
1971
1971
1970
1970
1970
1970
1971
1972
1973
1973
1973
1974
1973
1972
1971
1970
1970
1971
1973
1974
1974
1974
1974
1974
1974
1974
1974
1974
1975
1975
1976
1976
1976
1976
1975
1975
1975
1975
1977
1978
1978
1978
1977
1977
1977
1977
1977
1977
1977
1977
1976
1976
1975
1975
1976
1977
1980
1982
1983
1984
1984
1983
1982
1981
1980
1979
1978
1978
1979
1979
1980
1979
1979
1978
1978
1979
1980
1981
1980
1975
1967
1957
1949
1948
1959
1983
2019
2061
2103
2131
2137
2117
2078
2034
1996
1975
1968
1972
1977
1978
1977
1975
1973
1972
1972
1971
1972
1972
1972
1973
1973
1973
1973
1973
1973
1973
1973
1973
1973
1973
1973
1973
1973
1973
1973
1973
1974
1974
1974
1974
1975
1975
1976
1976
1976
1976
1976
1976
1976
1977
1977
1978
1978
1979
1979
1980
1981
1983
1984
1985
1986
1987
1987
1988
1989
1990
1992
1993
1993
1993
1992
1990
1988
1986
1983
1981
1980
1979
1978
1977
1976
1975
1974
1974
1973
1973
1972
1972
1972
1973
1973
1974
1974
1974
1973
1973
1973
1973
1974
1975
1975
1975
1975
1974
1973
1974
1974
1975
1976
1976
1975
1974
1974
1974
1975
1975
1975
1975
1975
1975
1976
1976
1977
1976
1975
1975
1974
1975
1976
1977
1977
1977
1977
1976
1976
1976
1976
1976
1977
1978
1978
1978
1977
1976
1975
1976
1977
1978
1978
1978
1978
1978
1977
1977
1978
1978
1979
1979
1979
1980
1980
1979
1979
1979
1979
1980
1981
1982
1982
1982
1981
1980
1979
1979
1979
1979
1980
1981
1981
1981
1982
1981
1981
1981
1980
1980
1980
1981
1982
1982
1982
1982
1982
1981
1981
1980
1980
1980
1981
1982
1983
1983
1983
1982
1982
1981
1981
1982
1982
1982
1983
1983
1983
1982
1982
1981
1981
1982
1982
1983
1983
1983
1983
1983
1983
1982
1981
1980
1980
1981
1983
1985
1986
1987
1987
1987
1987
1987
1987
1987
1986
1985
1984
1982
1982
1981
1981
1982
1982
1983
1983
1982
1982
1983
1983
1981
1975
1967
1958
1953
1957
1974
2003
2041
2081
2115
2132
2126
2098
2057
2017
1988
1974
1972
1976
1979
1980
1978
1978
1978
1978
1978
1978
1977
1976
1976
1976
1977
1978
1978
1978
1978
1977
1977
1976
1976
1977
1978
1979
1979
1980
1980
1980
1980
1980
1981
1981
1982
1983
1984
1984
1984
1984
1983
1983
1983
1984
1984
1986
1987
1988
1988
1989
1990
1990
1992
1993
1995
1996
1997
1998
1999
2000
2000
2001
2001
2001
2001
2001
2000
1999
1997
1995
1992
1989
1987
1986
1986
1986
1985
1985
1984
1982
1982
1981
1981
1981
1982
1983
1984
1984
1984
1983
1983
1982
1982
1982
1983
1983
1984
1984
1983
1982
1981
1981
1981
1981
1982
1982
1982
1981
1981
1981
1980
1979
1979
1978
1978
1979
1979
1979
1979
1979
1978
1978
1977
1977
1977
1977
1978
1978
1977
1977
1976
1975
1975
1976
1976
1977
1977
1977
1976
1975
1974
1973
1973
1974
1974
1975
1975
1975
1974
1973
1972
1972
1974
1975
1976
1975
1975
1974
1974
1974
1974
1973
1973
1972
1972
1974
1975
1976
1975
1975
1974
1974
1974
1975
1975
1975
1974
1973
1973
1973
1973
1974
1974
1975
1976
1977
1978
1978
1978
1978
1977
1976
1976
1976
1977
1977
1978
1979
1979
1979
1979
1978
1978
1976
1975
1974
1974
1975
1976
1978
1978
1979
1980
1980
1981
1982
1982
1982
1980
1979
1977
1975
1975
1975
1976
1977
1978
1978
1977
1976
1976
1977
1977
1973
1966
1956
1949
1948
1959
1982
2016
2055
2091
2115
2118
2100
2065
2027
1995
1975
1968
1969
1972
1974
1974
1974
1973
1972
1971
1970
1970
1971
1971
1972
1972
1972
1973
1973
1973
1973
1972
1972
1972
1973
1974
1974
1974
1974
1974
1974
1974
1973
1972
1972
1972
1973
1974
1974
1973
1973
1972
1973
1974
1974
1975
1975
1975
1975
1976
1977
1978
1979
1979
1980
1981
1983
1984
1985
1986
1987
1987
1987
1987
1986
1986
1986
1985
1984
1982
1980
1977
1975
1973
1971
1970
1969
1968
1968
1968
1968
1967
1967
1966
1966
1967
1967
1968
1968
1967
1967
1966
1967
1967
1967
1968
1968
1968
1969
1969
1970
1969
1969
1968
1968
1969
1970
1971
1971
1971
1970
1970
1971
1971
1972
1972
1972
1971
1971
1971
1971
1971
1971
1971
1972
1972
1973
1973
1973
1973
1973
1972
1972
1972
1972
1972
1972
1973
1973
1974
1974
1974
1974
1974
1974
1974
1975
1975
1976
1976
1975
1974
1973
1973
1974
1975
1976
1976
1975
1975
1975
1975
1975
1976
1976
1976
1976
1976
1976
1976
1976
1976
1977
1978
1978
1978
1978
1978
1978
1978
1978
1977
1977
1977
1978
1979
1980
1980
1979
1978
1977
1978
1979
1981
1982
1983
1984
1984
1984
1984
1983
1982
1981
1980
1979
1979
1980
1981
1982
1981
1981
1980
1979
1980
1981
1982
1981
1977
1968
1958
1951
1952
1965
1992
2028
2069
2107
2130
2131
2108
2068
2026
1993
1975
1971
1975
1979
1981
1979
1977
1976
1975
1975
1974
1974
1974
1975
1976
1977
1977
1977
1976
1975
1975
1976
1977
1978
1978
1978
1978
1977
1977
1976
1976
1977
1978
1979
1980
1980
1980
1980
1980
1980
1980
1980
1981
1981
1982
1983
1983
1983
1984
1984
1985
1986
1988
1989
1991
1992
1993
1994
1994
1994
1995
1995
1997
1998
1998
1998
1996
1994
1992
1990
1988
1986
1984
1982
1980
1979
1979
1978
1977
1976
1975
1975
1976
1976
1977
1977
1977
1977
1976
1975
1975
1974
1974
1975
1976
1977
1977
1977
1976
1975
1975
1974
1975
1975
1976
1976
1976
1976
1976
1975
1975
1975
1975
1976
1976
1976
1976
1975
1975
1974
1974
1974
1975
1975
1975
1975
1975
1975
1974
1974
1974
1974
1975
1976
1976
1976
1975
1974
1973
1972
1972
1973
1974
1976
1976
1976
1976
1975
1974
1974
1975
1976
1976
1976
1976
1975
1975
1975
1976
1976
1977
1977
1977
1977
1977
1978
1978
1978
1978
1978
1977
1977
1977
1977
1978
1979
1979
1979
1978
1977
1977
1977
1978
1979
1979
1979
1979
1978
1978
1979
1979
1979
1979
1979
1979
1979
1980
1980
1980
1980
1981
1983
1984
1985
1985
1984
1983
1981
1980
1979
1978
1977
1978
1979
1979
1979
1978
1977
1978
1979
1980
1980
1976
1968
1958
1952
1953
1966
1992
2027
2066
2101
2123
2123
2101
2064
2024
1993
1976
1971
1974
1978
1979
1977
1976
1975
1974
1974
1974
1974
1974
1975
1975
1976
1976
1977
1976
1976
1975
1974
1973
1973
1974
1975
1976
1977
1977
1977
1976
1976
1975
1975
1975
1975
1976
1977
1978
1979
1979
1978
1977
1977
1977
1979
1982
1983
1984
1984
1984
1984
1985
1986
1987
1989
1990
1991
1992
1992
1992
1992
1993
1994
1995
1995
1995
1994
1991
1988
1985
1983
1981
1981
1980
1979
1978
1977
1976
1976
1976
1975
1975
1974
1975
1976
1977
1978
1977
1976
1975
1974
1974
1974
1974
1974
1974
1974
1974
1973
1973
1972
1973
1974
1976
1977
1978
1977
1976
1975
1975
1975
1975
1976
1976
1976
1976
1975
1974
1973
1973
1973
1974
1976
1977
1977
1976
1975
1973
1973
1973
1974
1975
1976
1976
1976
1976
1975
1974
1973
1972
1972
1973
1974
1974
1974
1973
1972
1971
1970
1971
1971
1972
1973
1973
1974
1974
1974
1973
1973
1972
1972
1972
1973
1974
1974
1974
1974
1973
1974
1974
1973
1973
1972
1973
1974
1977
1980
1981
1981
1980
1978
1977
1976
1976
1977
1977
1977
1976
1975
1974
1973
1973
1973
1974
1974
1976
1977
1977
1976
1971
1963
1954
1949
1953
1967
1993
2029
2066
2099
2115
2110
2084
2047
2010
1983
1971
1970
1973
1975
1975
1973
1971
1970
1970
1970
1970
1969
1969
1968
1968
1969
1971
1972
1972
1972
1971
1971
1971
1970
1969
1969
1968
1968
1969
1971
1972
1973
1973
1973
1973
1973
1972
1972
1972
1972
1972
1973
1974
1975
1975
1975
1976
1976
1977
1978
1979
1979
1980
1982
1984
1985
1986
1987
1987
1987
1987
1989
1991
1992
1992
1990
1988
1986
1984
1983
1981
1980
1978
1977
1975
1973
1972
1971
1971
1972
1973
1973
1973
1972
1970
1969
1968
1969
1969
1970
1971
1972
1972
1972
1972
1971
1970
1970
1971
1973
1974
1974
1974
1973
1973
1973
1973
1974
1974
1974
1973
1973
1974
1975
1975
1975
1974
1974
1974
1974
1975
1975
1975
1974
1974
1974
1973
1972
1972
1972
1972
1973
1974
1975
1975
1974
1973
1973
1973
1972
1972
1971
1972
1973
1974
1974
1974
1973
1972
1972
1973
1973
1974
1973
1972
1970
1969
1968
1969
1971
1973
1974
1976
1976
1975
1974
1973
1972
1972
1973
1974
1975
1976
1975
1974
1973
1972
1971
1972
1972
1973
1974
1975
1975
1976
1977
1979
1979
1980
1979
1979
1978
1978
1977
1975
1975
1975
1975
1976
1976
1976
1976
1975
1974
1974
1975
1975
1975
1972
1965
1955
1947
1945
1954
1976
2009
2048
2087
2113
2120
2104
2071
2031
1996
1974
1965
1966
1969
1972
1971
1970
1969
1968
1967
1967
1966
1966
1967
1968
1969
1969
1969
1969
1968
1967
1966
1965
1965
1966
1968
1970
1971
1970
1969
1968
1967
1968
1970
1971
1971
1971
1971
1971
1970
1969
1969
1970
1971
1973
1974
1974
1975
1975
1976
1977
1978
1979
1979
1980
1980
1981
1981
1981
1982
1984
1986
1989
1990
1990
1989
1987
1985
1983
1980
1978
1976
1975
1975
1975
1975
1975
1974
1971
1969
1967
1966
1966
1967
1968
1968
1968
1966
1965
1965
1966
1969
1971
1972
1972
1971
1969
1968
1968
1968
1968
1969
1970
1970
1971
1970
1970
1969
1969
1970
1970
1970
1969
1968
1967
1966
1966
1967
1968
1970
1971
1972
1971
1971
1970
1970
1970
1969
1968
1967
1967
1967
1968
1969
1969
1969
1969
1968
1967
1967
1966
1967
1967
1968
1968
1967
1966
1966
1966
1966
1968
1969
1969
1969
1968
1967
1968
1969
1969
1968
1968
1967
1968
1969
1970
1971
1971
1970
1970
1970
1969
1969
1968
1968
1967
1967
1968
1969
1971
1971
1970
1969
1967
1967
1967
1968
1969
1970
1971
1971
1971
1970
1969
1968
1968
1968
1969
1969
1969
1968
1967
1966
1967
1968
1970
1972
1973
1973
1973
1973
1973
1972
1969
1967
1966
1967
1970
1972
1973
1970
1967
1965
1966
1968
1971
1973
1973
1970
1963
1954
1945
1939
1942
1956
1983
2021
2061
2095
2112
2108
2083
2046
2006
1975
1958
1954
1958
1964
1967
1967
1964
1963
1963
1964
1966
1967
1966
1964
1963
1962
1961
1961
1961
1962
1963
1963
1964
1964
1966
1967
1967
1967
1966
1965
1964
1964
1965
1966
1967
1968
1968
1967
1965
1964
1965
1968
1971
1972
1972
1970
1968
1968
1970
1973
1976
1977
1977
1978
1979
1980
1981
1981
1982
1982
1983
1985
1986
1987
1987
1987
1985
1982
1978
1976
1977
1978
1978
1976
1973
1970
1967
1967
1967
1968
1969
1968
1966
1966
1966
1966
1966
1966
1966
1967
1968
1969
1970
1969
1967
1965
1964
1964
1965
1966
1968
1969
1971
1971
1969
1967
1965
1965
1967
1969
1971
1972
1972
1971
1970
1969
1969
1969
1970
1970
1971
1970
1968
1967
1966
1967
1969
1971
1973
1973
1972
1972
1972
1973
1973
1972
1971
1969
1967
1966
1967
1969
1972
1975
1975
1974
1972
1971
1971
1972
1972
1971
1970
1968
1968
1969
1972
1974
1975
1974
1972
1971
1971
1972
1974
1974
1974
1973
1972
1973
1974
1974
1975
1975
1976
1976
1976
1975
1974
1974
1975
1977
1978
1978
1976
1975
1974
1974
1974
1974
1975
1976
1976
1975
1975
1975
1976
1979
1981
1982
1982
1981
1980
1979
1978
1978
1977
1977
1977
1977
1977
1977
1978
1978
1977
1975
1973
1972
1974
1976
1977
1972
1964
1954
1949
1954
1972
2002
2042
2082
2113
2126
2115
2084
2042
2003
1976
1965
1966
1971
1975
1975
1974
1972
1970
1969
1969
1969
1969
1969
1969
1968
1968
1968
1969
1970
1971
1970
1969
1968
1967
1968
1970
1973
1975
1975
1974
1973
1972
1972
1972
1972
1971
1971
1972
1974
1975
1974
1973
1973
1975
1977
1980
1982
1982
1980
1980
1980
1981
1982
1984
1985
1987
1988
1989
1990
1991
1992
1993
1993
1993
1992
1991
1990
1990
1988
1986
1984
1982
1981
1980
1979
1979
1977
1976
1975
1975
1976
1977
1977
1976
1975
1974
1974
1975
1976
1976
1975
1974
1974
1974
1974
1974
1974
1974
1973
1972
1972
1972
1973
1975
1977
1979
1978
1975
1971
1968
1968
1969
1971
1973
1975
1976
1975
1973
1971
1970
1969
1970
1970
1970
1970
1971
1972
1973
1974
1974
1972
1971
1969
1969
1971
1972
1974
1976
1975
1975
1972
1970
1968
1968
1970
1973
1975
1975
1973
1970
1969
1971
1973
1976
1975
1973
1972
1972
1974
1975
1975
1974
1972
1972
1972
1972
1972
1973
1973
1974
1975
1976
1975
1973
1972
1972
1973
1974
1974
1972
1971
1970
1971
1973
1975
1975
1975
1974
1974
1973
1972
1971
1972
1975
1978
1981
1983
1982
1980
1978
1976
1975
1975
1974
1974
1975
1976
1976
1975
1973
1971
1970
1972
1975
1978
1978
1973
1965
1955
1948
1947
1958
1979
2011
2050
2087
2113
2118
2100
2066
2027
1994
1974
1968
1969
1972
1974
1973
1972
1971
1970
1969
1968
1968
1968
1969
1970
1971
1971
1971
1970
1969
1968
1968
1969
1970
1971
1972
1972
1971
1970
1969
1968
1968
1970
1973
1975
1977
1978
1977
1975
1974
1974
1974
1975
1976
1976
1977
1978
1979
1979
1980
1980
1981
1982
1984
1985
1987
1988
1988
1989
1988
1988
1987
1989
1991
1992
1991
1989
1986
1984
1982
1980
1979
1977
1976
1974
1973
1972
1969
1966
1964
1964
1965
1968
1971
1971
1970
1967
1965
1965
1965
1966
1967
1968
1969
1970
1970
1970
1969
1967
1966
1965
1966
1967
1968
1969
1969
1968
1967
1966
1967
1967
1967
1967
1966
1967
1967
1968
1967
1966
1965
1965
1966
1968
1969
1969
1969
1968
1966
1965
1965
1966
1968
1971
1972
1972
1971
1968
1966
1965
1965
1966
1967
1968
1968
1968
1968
1967
1966
1966
1967
1967
1968
1969
1969
1969
1968
1967
1964
1963
1963
1964
1966
1968
1970
1970
1971
1971
1972
1973
1973
1973
1972
1972
1972
1972
1971
1971
1970
1970
1970
1970
1971
1971
1971
1971
1972
1973
1973
1972
1968
1961
1952
1946
1945
1954
1974
2004
2042
2081
2111
2123
2111
2079
2039
2001
1977
1967
1967
1970
1973
1973
1973
1973
1973
1974
1975
1976
1975
1974
1973
1973
1973
1974
1974
1974
1974
1974
1975
1976
1977
1977
1977
1976
1976
1977
1978
1978
1977
1977
1977
1977
1978
1979
1979
1979
1977
1976
1976
1977
1979
1980
1981
1980
1979
1979
1980
1981
1983
1984
1985
1987
1988
1988
1989
1989
1989
1989
1990
1991
1991
1992
1991
1990
1988
1986
1984
1981
1980
1978
1978
1977
1977
1976
1976
1976
1976
1976
1976
1976
1975
1976
1976
1977
1977
1978
1977
1977
1977
1977
1977
1977
1977
1978
1979
1981
1982
1982
1981
1980
1980
1980
1980
1981
1982
1982
1983
1983
1982
1982
1982
1982
1983
1984
1984
1984
1984
1984
1983
1983
1983
1983
1984
1984
1985
1985
1985
1985
1984
1983
1983
1984
1984
1986
1986
1986
1986
1985
1984
1983
1983
1983
1984
1984
1984
1983
1983
1982
1982
1982
1982
1982
1982
1982
1981
1981
1981
1981
1981
1981
1981
1980
1979
1980
1980
1981
1982
1983
1983
1984
1984
1984
1984
1984
1983
1983
1982
1981
1979
1978
1977
1978
1978
1978
1978
1978
1979
1980
1981
1980
1976
1968
1960
1954
1955
1967
1989
2022
2059
2094
2116
2119
2100
2065
2027
1996
1978
1973
1975
1979
1980
1980
1979
1978
1978
1978
1978
1977
1977
1978
1978
1978
1978
1977
1976
1975
1975
1975
1975
1975
1974
1974
1974
1974
1974
1974
1973
1973
1973
1973
1973
1974
1975
1975
1976
1975
1975
1975
1975
1976
1977
1977
1978
1980
1981
1983
1985
1986
1987
1987
1988
1989
1991
1993
1994
1994
1994
1994
1993
1993
1993
1993
1992
1990
1987
1985
1982
1980
1978
1977
1976
1975
1975
1974
1973
1973
1972
1972
1972
1971
1971
1970
1970
1970
1971
1971
1970
1970
1969
1970
1971
1972
1972
1973
1974
1974
1975
1976
1976
1976
1976
1976
1976
1977
1978
1979
1979
1979
1978
1978
1978
1978
1979
1980
1980
1979
1978
1977
1976
1976
1976
1977
1977
1977
1977
1977
1976
1976
1976
1975
1975
1974
1975
1975
1976
1976
1976
1975
1975
1975
1975
1976
1977
1978
1978
1979
1979
1978
1977
1977
1976
1977
1978
1979
1979
1979
1979
1978
1978
1977
1977
1977
1978
1979
1979
1979
1979
1978
1977
1976
1976
1977
1978
1980
1982
1983
1984
1983
1982
1982
1982
1982
1982
1981
1980
1979
1978
1978
1978
1978
1978
1977
1977
1978
1980
1982
1982
1979
1971
1963
1955
1954
1962
1981
2010
2046
2080
2106
2115
2103
2074
2038
2005
1984
1975
1975
1979
1980
1980
1978
1977
1977
1977
1977
1976
1975
1974
1973
1973
1974
1974
1975
1976
1977
1978
1978
1978
1977
1976
1975
1975
1976
1977
1979
1980
1979
1978
1977
1976
1977
1978
1979
1980
1980
1980
1981
1981
1981
1981
1982
1983
1984
1986
1988
1989
1989
1990
1990
1990
1991
1993
1994
1996
1997
1998
1999
1999
1998
1996
1994
1991
1989
1988
1987
1987
1986
1985
1982
1980
1977
1974
1973
1973
1973
1973
1973
1973
1973
1972
1971
1971
1971
1971
1972
1973
1972
1972
1971
1970
1969
1969
1969
1971
1972
1974
1975
1975
1974
1973
1972
1972
1972
1972
1972
1973
1974
1974
1974
1973
1973
1974
1975
1976
1976
1977
1977
1977
1977
1976
1976
1975
1975
1976
1977
1978
1979
1979
1979
1978
1978
1978
1978
1979
1979
1979
1978
1978
1978
1979
1981
1982
1984
1984
1985
1985
1985
1985
1984
1983
1981
1980
1980
1981
1983
1984
1984
1983
1982
1981
1982
1983
1984
1982
1978
1971
1964
1962
1968
1984
2011
2046
2082
2110
2121
2110
2081
2045
2012
1990
1980
1979
1982
1985
1986
1987
1987
1987
1986
1984
1983
1981
1981
1982
1983
1985
1986
1987
1987
1986
1984
1983
1983
1984
1985
1987
1987
1987
1988
1988
1989
1988
1987
1987
1986
1987
1989
1991
1993
1994
1994
1993
1992
1991
1992
1994
1996
1997
1999
2001
2002
2003
2004
2004
2005
2006
2009
2011
2012
2013
2013
2014
2014
2014
2013
2010
2007
2004
2001
2000
1999
1998
1996
1994
1992
1991
1990
1990
1991
1990
1990
1989
1988
1988
1988
1987
1987
1987
1987
1986
1985
1985
1984
1984
1984
1984
1984
1984
1983
1982
1981
1981
1981
1982
1982
1982
1982
1981
1980
1979
1979
1978
1978
1979
1980
1980
1980
1980
1979
1978
1977
1976
1975
1976
1977
1978
1978
1977
1976
1974
1972
1971
1971
1971
1972
1973
1975
1976
1976
1976
1976
1975
1975
1975
1974
1974
1973
1972
1972
1972
1971
1971
1970
1970
1970
1971
1973
1975
1975
1973
1966
1957
1947
1942
1946
1962
1992
2032
2074
2108
2124
2115
2084
2043
2003
1976
1964
1963
1968
1971
1972
1971
1970
1969
1968
1968
1969
1969
1968
1967
1966
1965
1966
1967
1969
1970
1970
1969
1968
1968
1967
1968
1969
1970
1971
1972
1973
1973
1972
1972
1972
1972
1973
1974
1976
1977
1978
1978
1978
1977
1977
1979
1981
1982
1982
1981
1981
1981
1982
1984
1986
1988
1989
1991
1992
1993
1993
1992
1992
1991
1990
1990
1989
1988
1986
1984
1983
1981
1980
1979
1977
1977
1976
1976
1977
1977
1976
1975
1974
1973
1973
1973
1974
1974
1975
1976
1975
1975
1974
1973
1972
1972
1972
1973
1973
1974
1974
1974
1974
1974
1973
1973
1974
1975
1976
1975
1975
1974
1973
1973
1973
1973
1972
1971
1972
1973
1974
1974
1973
1971
1969
1969
1971
1973
1974
1974
1972
1971
1971
1971
1972
1972
1971
1971
1972
1973
1973
1974
1974
1974
1973
1973
1972
1972
1971
1971
1971
1972
1974
1976
1977
1978
1978
1978
1977
1977
1976
1976
1976
1975
1975
1974
1973
1972
1973
1973
1974
1975
1975
1975
1975
1974
1970
1963
1955
1948
1947
1957
1979
2014
2054
2095
2122
2128
2108
2069
2026
1989
1969
1963
1966
1970
1972
1971
1970
1970
1970
1970
1969
1968
1967
1967
1968
1969
1970
1971
1970
1969
1968
1968
1968
1968
1969
1970
1970
1970
1970
1970
1970
1970
1970
1970
1971
1971
1972
1972
1973
1973
1973
1973
1972
1972
1972
1972
1973
1973
1974
1975
1976
1977
1978
1978
1977
1977
1978
1980
1983
1985
1986
1986
1986
1985
1984
1983
1983
1982
1981
1980
1978
1976
1974
1972
1971
1971
1971
1971
1971
1971
1971
1970
1969
1969
1969
1969
1969
1970
1971
1971
1970
1970
1969
1969
1970
1970
1971
1972
1972
1972
1972
1972
1972
1972
1973
1974
1974
1975
1975
1974
1973
1972
1972
1972
1972
1973
1974
1974
1974
1974
1974
1975
1975
1975
1976
1976
1977
1978
1978
1978
1977
1976
1976
1976
1977
1978
1978
1978
1978
1977
1977
1977
1976
1976
1976
1977
1978
1978
1977
1976
1975
1975
1975
1975
1976
1976
1976
1976
1976
1976
1976
1975
1974
1974
1974
1974
1975
1976
1976
1976
1975
1975
1975
1975
1976
1976
1976
1976
1976
1976
1976
1976
1977
1977
1978
1978
1977
1976
1976
1976
1976
1977
1978
1979
1979
1980
1980
1980
1980
1979
1978
1977
1976
1976
1976
1978
1980
1982
1984
1985
1985
1985
1984
1984
1984
1984
1984
1984
1982
1981
1979
1978
1978
1978
1980
1981
1983
1984
1985
1984
1980
1972
1961
1952
1949
1958
1980
2014
2055
2097
2129
2143
2132
2097
2051
2010
1982
1971
1973
1978
1980
1978
1976
1975
1975
1976
1977
1978
1977
1976
1975
1974
1974
1974
1975
1975
1975
1976
1976
1976
1976
1975
1974
1974
1973
1973
1973
1974
1974
1974
1975
1975
1975
1974
1973
1972
1972
1974
1976
1978
1980
1979
1978
1977
1977
1978
1980
1981
1982
1982
1983
1984
1985
1986
1987
1988
1989
1989
1990
1990
1990
1990
1990
1991
1990
1989
1987
1984
1980
1978
1976
1975
1974
1973
1973
1973
1974
1974
1974
1973
1972
1971
1971
1971
1972
1972
1973
1973
1973
1973
1973
1972
1972
1972
1972
1973
1974
1974
1974
1973
1972
1972
1972
1972
1972
1973
1974
1975
1975
1975
1974
1973
1972
1972
1972
1973
1973
1973
1973
1972
1971
1970
1970
1969
1969
1968
1968
1968
1968
1969
1969
1968
1968
1968
1968
1969
1969
1970
1970
1969
1969
1969
1968
1968
1968
1968
1969
1969
1970
1970
1970
1970
1970
1969
1969
1970
1970
1970
1970
1969
1968
1968
1968
1969
1970
1971
1971
1971
1971
1971
1971
1971
1971
1970
1970
1970
1970
1971
1971
1971
1972
1972
1972
1972
1972
1972
1973
1974
1975
1975
1975
1975
1975
1975
1976
1976
1977
1978
1978
1978
1978
1978
1977
1977
1978
1978
1978
1978
1978
1978
1978
1979
1980
1981
1983
1984
1986
1986
1986
1986
1985
1983
1983
1982
1982
1982
1982
1983
1983
1982
1982
1981
1981
1982
1984
1984
1981
1974
1964
1954
1951
1959
1981
2015
2055
2097
2127
2137
2122
2086
2043
2004
1979
1970
1971
1976
1978
1978
1977
1977
1976
1976
1976
1974
1973
1972
1972
1973
1974
1976
1976
1976
1974
1973
1973
1973
1975
1976
1977
1977
1977
1977
1977
1978
1979
1980
1981
1982
1982
1983
1984
1984
1984
1984
1983
1982
1982
1983
1984
1985
1987
1988
1988
1988
1989
1990
1991
1992
1994
1995
1996
1997
1998
1999
2000
2001
2001
2001
2001
2000
1998
1996
1994
1992
1990
1988
1987
1985
1983
1982
1981
1980
1980
1980
1980
1980
1981
1981
1980
1979
1979
1978
1978
1978
1979
1979
1979
1979
1979
1979
1978
1977
1977
1977
1977
1977
1978
1978
1978
1977
1976
1975
1974
1974
1974
1975
1975
1975
1974
1973
1973
1973
1974
1974
1974
1974
1973
1973
1973
1973
1974
1974
1974
1974
1973
1973
1973
1974
1974
1975
1974
1974
1974
1975
1976
1977
1977
1976
1976
1975
1975
1975
1976
1977
1977
1977
1978
1978
1978
1978
1978
1977
1976
1975
1975
1976
1977
1977
1978
1978
1978
1978
1977
1976
1976
1976
1977
1978
1978
1979
1978
1977
1976
1976
1977
1978
1979
1979
1978
1978
1977
1977
1977
1977
1977
1977
1978
1978
1979
1978
1978
1977
1976
1976
1976
1976
1977
1978
1980
1981
1982
1982
1982
1981
1981
1980
1980
1979
1979
1979
1978
1976
1975
1974
1973
1974
1975
1977
1978
1978
1976
1970
1962
1953
1948
1951
1965
1990
2026
2064
2099
2120
2119
2095
2056
2016
1986
1970
1967
1971
1974
1974
1972
1970
1969
1969
1970
1970
1970
1970
1970
1969
1969
1969
1970
1971
1972
1972
1972
1972
1971
1971
1971
1971
1972
1973
1973
1973
1973
1973
1973
1973
1973
1974
1974
1974
1974
1975
1976
1977
1977
1977
1977
1977
1977
1977
1979
1980
1982
1982
1983
1982
1983
1983
1984
1986
1987
1988
1990
1991
1991
1991
1990
1989
1988
1987
1985
1984
1982
1980
1977
1975
1974
1973
1973
1973
1973
1972
1972
1972
1972
1972
1971
1971
1971
1971
1971
1972
1972
1972
1972
1972
1972
1971
1972
1972
1973
1973
1972
1972
1971
1971
1971
1972
1973
1973
1974
1973
1973
1973
1973
1972
1972
1972
1972
1973
1974
1975
1975
1975
1974
1973
1972
1972
1972
1973
1974
1975
1975
1975
1975
1974
1974
1974
1974
1974
1974
1975
1974
1974
1974
1973
1973
1973
1973
1973
1973
1973
1973
1973
1973
1973
1973
1973
1973
1974
1974
1974
1974
1974
1973
1973
1972
1972
1973
1973
1974
1974
1974
1974
1973
1973
1972
1972
1972
1972
1973
1973
1973
1973
1973
1973
1972
1972
1973
1973
1973
1973
1973
1973
1973
1972
1972
1972
1972
1972
1973
1974
1975
1974
1974
1973
1972
1972
1971
1971
1972
1974
1975
1977
1978
1978
1977
1976
1976
1976
1976
1976
1975
1974
1973
1973
1973
1973
1973
1973
1974
1974
1975
1975
1974
1969
1961
1952
1946
1947
1960
1985
2019
2057
2093
2114
2115
2094
2057
2017
1985
1968
1964
1967
1970
1971
1969
1967
1966
1966
1967
1967
1967
1967
1967
1967
1967
1968
1968
1969
1969
1970
1969
1969
1968
1967
1967
1968
1968
1969
1969
1970
1970
1970
1971
1971
1971
1972
1972
1973
1974
1974
1975
1976
1975
1975
1975
1975
1976
1977
1979
1980
1981
1981
1981
1981
1981
1982
1984
1986
1987
1988
1988
1988
1989
1989
1988
1988
1986
1985
1983
1981
1980
1978
1976
1974
1972
1971
1971
1971
1971
1971
1970
1970
1969
1969
1968
1968
1968
1969
1970
1971
1971
1972
1971
1971
1971
1970
1971
1971
1972
1972
1972
1971
1971
1971
1971
1971
1972
1972
1973
1973
1973
1973
1972
1971
1971
1971
1971
1972
1972
1973
1973
1972
1972
1971
1970
1970
1970
1971
1971
1971
1971
1971
1971
1970
1970
1970
1970
1970
1970
1971
1971
1971
1970
1970
1969
1969
1969
1970
1970
1970
1970
1970
1970
1969
1969
1969
1970
1971
1971
1971
1971
1970
1970
1969
1970
1970
1970
1970
1970
1970
1970
1971
1971
1971
1970
1970
1970
1970
1970
1970
1970
1970
1970
1969
1968
1966
1967
1969
1973
1976
1977
1977
1975
1972
1970
1969
1970
1971
1973
1974
1974
1973
1974
1974
1975
1976
1977
1977
1976
1976
1977
1977
1977
1976
1974
1972
1971
1971
1972
1974
1975
1976
1977
1977
1976
1976
1973
1968
1961
1954
1951
1955
1969
1993
2024
2059
2090
2110
2109
2087
2050
2011
1981
1967
1966
1972
1977
1978
1976
1974
1972
1972
1973
1973
1973
1972
1972
1973
1976
1979
1980
1979
1976
1974
1973
1973
1973
1972
1971
1971
1972
1974
1976
1977
1976
1975
1974
1973
1973
1974
1975
1976
1977
1978
1979
1979
1978
1977
1977
1979
1981
1982
1983
1984
1984
1986
1987
1988
1989
1990
1991
1991
1992
1992
1992
1993
1994
1996
1997
1997
1997
1995
1992
1988
1985
1982
1981
1980
1979
1979
1978
1977
1975
1975
1974
1975
1976
1976
1976
1975
1975
1974
1973
1974
1974
1975
1975
1974
1974
1974
1974
1974
1975
1975
1975
1975
1975
1976
1976
1976
1976
1976
1976
1976
1977
1977
1976
1976
1975
1974
1973
1973
1974
1974
1974
1974
1973
1973
1974
1974
1974
1973
1973
1973
1973
1974
1974
1975
1975
1975
1974
1974
1973
1972
1972
1973
1974
1975
1975
1975
1974
1974
1974
1974
1974
1974
1975
1975
1976
1977
1977
1977
1977
1976
1975
1975
1975
1976
1976
1976
1976
1976
1977
1977
1977
1977
1977
1978
1978
1978
1978
1977
1977
1977
1977
1977
1977
1977
1977
1977
1979
1981
1982
1982
1981
1980
1980
1980
1981
1981
1981
1981
1981
1981
1981
1981
1980
1980
1979
1979
1979
1980
1981
1980
1977
1971
1963
1955
1952
1958
1975
2004
2041
2076
2104
2113
2101
2071
2034
2000
1977
1968
1968
1970
1972
1971
1970
1969
1968
1968
1967
1967
1967
1967
1967
1967
1966
1967
1967
1968
1969
1969
1968
1968
1968
1969
1970
1972
1972
1972
1972
1973
1973
1973
1973
1973
1973
1973
1974
1975
1976
1977
1978
1978
1978
1978
1978
1979
1980
1981
1982
1983
1984
1984
1985
1986
1987
1988
1990
1991
1993
1993
1994
1994
1993
1993
1993
1992
1992
1990
1988
1985
1982
1980
1979
1978
1977
1977
1977
1976
1975
1974
1973
1972
1972
1972
1972
1973
1973
1973
1973
1973
1972
1972
1972
1972
1973
1973
1974
1975
1975
1975
1975
1974
1973
1973
1973
1973
1974
1975
1975
1975
1975
1974
1974
1973
1973
1973
1974
1975
1975
1975
1974
1973
1973
1973
1974
1974
1975
1975
1975
1975
1975
1974
1974
1974
1975
1975
1976
1976
1976
1976
1975
1975
1975
1975
1975
1975
1976
1977
1977
1977
1976
1975
1975
1975
1976
1977
1977
1977
1977
1977
1977
1976
1976
1976
1976
1976
1976
1977
1977
1977
1977
1977
1978
1980
1981
1982
1983
1984
1983
1982
1981
1980
1979
1978
1978
1977
1977
1977
1978
1978
1978
1978
1978
1979
1979
1978
1974
1967
1958
1952
1955
1968
1992
2026
2063
2095
2113
2110
2087
2050
2014
1986
1972
1970
1973
1977
1978
1977
1975
1974
1973
1973
1972
1973
1973
1974
1975
1975
1975
1975
1975
1975
1974
1975
1976
1977
1977
1977
1977
1976
1975
1975
1976
1977
1977
1978
1978
1979
1979
1979
1979
1979
1979
1979
1980
1981
1981
1982
1983
1984
1984
1985
1985
1986
1986
1987
1988
1990
1991
1993
1994
1995
1995
1995
1996
1996
1997
1998
1997
1995
1993
1990
1987
1984
1983
1982
1981
1981
1981
1980
1979
1977
1977
1976
1976
1977
1977
1978
1978
1978
1977
1977
1976
1976
1976
1976
1977
1978
1978
1978
1978
1977
1977
1977
1977
1978
1978
1978
1979
1978
1978
1977
1977
1977
1977
1977
1978
1979
1979
1979
1978
1977
1976
1976
1976
1977
1977
1978
1978
1977
1977
1976
1976
1977
1977
1978
1979
1979
1979
1978
1978
1977
1977
1978
1979
1980
1980
1980
1980
1980
1979
1978
1978
1978
1978
1979
1980
1981
1980
1980
1979
1978
1978
1978
1978
1978
1979
1979
1979
1979
1979
1978
1977
1977
1978
1979
1981
1983
1984
1984
1984
1984
1983
1982
1981
1980
1980
1980
1979
1979
1978
1978
1977
1976
1976
1977
1978
1979
1980
1979
1975
1968
1959
1951
1951
1962
1984
2017
2054
2088
2111
2113
2094
2061
2024
1993
1975
1970
1972
1975
1976
1974
1973
1972
1971
1972
1972
1972
1973
1972
1972
1971
1970
1970
1971
1971
1973
1974
1975
1975
1974
1974
1973
1973
1973
1973
1974
1975
1975
1975
1975
1974
1974
1974
1975
1976
1976
1977
1978
1978
1978
1979
1979
1979
1980
1981
1982
1983
1984
1985
1986
1986
1987
1988
1989
1991
1992
1993
1993
1993
1993
1993
1992
1991
1989
1987
1986
1984
1983
1981
1979
1977
1976
1975
1974
1974
1974
1974
1974
1974
1974
1973
1973
1973
1973
1974
1975
1975
1976
1975
1975
1975
1975
1975
1975
1976
1977
1978
1978
1978
1978
1977
1976
1976
1976
1976
1977
1977
1978
1978
1978
1977
1976
1976
1976
1976
1977
1977
1977
1977
1976
1975
1974
1974
1974
1975
1976
1977
1977
1976
1975
1974
1974
1974
1975
1976
1977
1977
1977
1976
1975
1975
1974
1974
1974
1975
1975
1976
1976
1976
1976
1975
1975
1975
1974
1974
1975
1975
1975
1975
1975
1974
1974
1973
1973
1973
1973
1974
1974
1975
1976
1977
1978
1979
1979
1979
1979
1978
1978
1977
1976
1975
1974
1973
1973
1974
1975
1975
1975
1975
1975
1976
1975
1974
1969
1962
1954
1950
1953
1967
1992
2027
2064
2095
2112
2107
2082
2045
2008
1981
1967
1965
1968
1971
1972
1971
1970
1970
1969
1969
1969
1969
1969
1968
1968
1969
1969
1970
1970
1970
1969
1969
1969
1969
1969
1970
1970
1971
1971
1971
1970
1970
1970
1971
1971
1972
1972
1973
1974
1974
1974
1974
1974
1974
1975
1976
1978
1979
1980
1980
1981
1981
1982
1983
1984
1986
1987
1989
1990
1991
1991
1992
1992
1991
1991
1991
1990
1989
1987
1985
1983
1980
1978
1976
1975
1975
1974
1974
1973
1972
1971
1970
1970
1970
1970
1971
1971
1971
1971
1971
1971
1970
1970
1970
1970
1971
1971
1972
1972
1971
1971
1970
1970
1970
1970
1970
1971
1971
1971
1971
1971
1970
1970
1970
1970
1971
1972
1972
1972
1972
1971
1970
1969
1969
1969
1970
1971
1972
1972
1971
1971
1970
1970
1970
1970
1971
1971
1972
1972
1971
1970
1969
1969
1968
1969
1969
1970
1971
1970
1969
1968
1967
1968
1969
1971
1972
1972
1971
1969
1968
1967
1967
1968
1970
1973
1974
1976
1976
1976
1975
1974
1972
1971
1970
1969
1969
1970
1970
1970
1970
1969
1969
1968
1969
1970
1971
1970
1966
1958
1949
1944
1946
1959
1984
2019
2057
2089
2107
2103
2078
2043
2006
1979
1965
1962
1964
1967
1968
1967
1967
1966
1965
1964
1964
1963
1964
1964
1965
1965
1965
1965
1965
1965
1965
1965
1966
1967
1967
1968
1968
1968
1968
1968
1968
1968
1968
1969
1970
1970
1971
1971
1971
1971
1971
1971
1972
1973
1973
1974
1974
1975
1975
1976
1977
1978
1979
1980
1982
1984
1985
1985
1986
1987
1988
1989
1990
1991
1991
1991
1989
1986
1984
1981
1979
1978
1976
1975
1974
1973
1973
1972
1971
1970
1970
1970
1970
1970
1971
1971
1971
1971
1970
1970
1970
1970
1970
1971
1971
1972
1971
1971
1971
1971
1971
1972
1972
1972
1973
1973
1973
1973
1972
1972
1972
1973
1973
1974
1974
1973
1973
1973
1972
1972
1973
1973
1973
1974
1974
1974
1974
1974
1973
1973
1973
1973
1974
1974
1974
1974
1974
1974
1974
1974
1974
1974
1974
1974
1975
1975
1975
1974
1974
1973
1973
1974
1974
1974
1974
1974
1973
1974
1975
1977
1979
1980
1981
1981
1981
1980
1980
1979
1978
1977
1976
1975
1976
1976
1976
1977
1976
1975
1975
1975
1976
1977
1978
1975
1968
1958
1950
1948
1956
1978
2011
2050
2090
2117
2124
2107
2072
2031
1996
1974
1967
1969
1973
1975
1974
1973
1972
1971
1971
1970
1969
1969
1970
1970
1971
1971
1971
1971
1971
1971
1971
1972
1972
1973
1974
1974
1974
1973
1973
1973
1973
1973
1974
1975
1976
1976
1976
1976
1976
1975
1975
1976
1977
1978
1979
1980
1980
1980
1980
1981
1982
1983
1985
1986
1987
1988
1989
1989
1990
1991
1992
1993
1994
1994
1994
1993
1991
1988
1985
1983
1980
1979
1978
1977
1977
1976
1975
1974
1972
1972
1971
1971
1972
1972
1973
1973
1973
1972
1972
1971
1972
1972
1973
1974
1974
1974
1974
1974
1973
1973
1973
1973
1973
1974
1974
1975
1975
1974
1974
1974
1973
1974
1974
1975
1975
1975
1975
1974
1974
1974
1974
1974
1975
1975
1976
1976
1975
1975
1974
1974
1973
1973
1973
1974
1974
1974
1975
1975
1974
1974
1974
1974
1974
1974
1975
1975
1975
1975
1974
1974
1973
1974
1974
1975
1976
1976
1976
1975
1974
1974
1974
1974
1974
1974
1974
1975
1975
1975
1974
1974
1973
1973
1974
1975
1975
1975
1975
1974
1973
1973
1973
1974
1977
1978
1980
1980
1980
1979
1978
1977
1977
1976
1975
1975
1975
1975
1974
1973
1972
1972
1972
1972
1973
1974
1975
1975
1972
1965
1957
1949
1947
1955
1975
2007
2045
2080
2107
2114
2100
2068
2030
1996
1975
1967
1968
1971
1973
1972
1971
1969
1968
1967
1968
1968
1969
1970
1970
1970
1970
1970
1970
1970
1971
1972
1972
1972
1972
1972
1971
1971
1970
1971
1971
1971
1971
1971
1971
1971
1971
1971
1972
1972
1973
1974
1975
1976
1976
1975
1975
1975
1976
1977
1978
1979
1981
1982
1982
1983
1983
1983
1983
1984
1986
1987
1989
1990
1990
1990
1988
1986
1984
1983
1982
1981
1980
1978
1976
1975
1973
1972
1971
1970
1970
1970
1971
1971
1971
1971
1970
1970
1969
1969
1970
1970
1971
1972
1972
1972
1971
1971
1970
1970
1971
1971
1972
1972
1972
1971
1970
1970
1970
1971
1972
1972
1973
1972
1972
1971
1971
1971
1971
1971
1970
1970
1970
1970
1970
1969
1969
1968
1968
1967
1967
1968
1968
1969
1969
1968
1968
1967
1966
1965
1966
1966
1967
1967
1967
1966
1965
1964
1964
1965
1966
1968
1969
1971
1972
1972
1972
1971
1969
1968
1967
1967
1967
1967
1967
1967
1966
1966
1966
1966
1967
1968
1969
1970
1969
1966
1960
1953
1946
1946
1954
1973
2003
2039
2073
2096
2101
2085
2054
2019
1989
1971
1965
1965
1968
1969
1969
1967
1967
1966
1966
1967
1967
1968
1968
1967
1967
1967
1967
1968
1969
1970
1970
1970
1971
1971
1971
1971
1971
1972
1973
1974
1974
1974
1974
1974
1974
1974
1975
1976
1977
1978
1978
1979
1979
1980
1980
1980
1981
1982
1984
1985
1987
1988
1989
1990
1991
1992
1993
1994
1996
1997
1999
1999
1999
1999
1997
1995
1992
1990
1988
1987
1985
1984
1982
1980
1979
1978
1977
1977
1977
1977
1978
1977
1977
1977
1976
1976
1977
1977
1978
1978
1978
1978
1978
1978
1978
1978
1978
1978
1979
1979
1980
1981
1981
1981
1981
1980
1980
1980
1981
1982
1983
1983
1983
1982
1981
1981
1981
1981
1982
1982
1982
1982
1982
1982
1982
1982
1982
1982
1982
1983
1983
1983
1983
1983
1983
1983
1983
1983
1983
1984
1985
1985
1985
1984
1983
1982
1981
1981
1981
1983
1984
1986
1987
1988
1989
1989
1989
1989
1989
1989
1989
1988
1987
1986
1985
1984
1984
1985
1986
1986
1986
1986
1986
1987
1986
1983
1975
1965
1955
1951
1959
1981
2015
2058
2102
2136
2149
2135
2099
2053
2013
1987
1976
1977
1981
1983
1982
1981
1980
1980
1980
1980
1980
1980
1979
1979
1978
1978
1979
1979
1980
1981
1981
1981
1981
1980
1981
1981
1982
1982
1983
1983
1983
1983
1983
1982
1982
1983
1983
1984
1985
1986
1986
1987
1987
1986
1986
1987
1988
1989
1990
1992
1992
1993
1993
1994
1995
1996
1998
1999
2001
2002
2003
2004
2003
2003
2002
2000
1999
1997
1995
1993
1991
1989
1987
1985
1984
1983
1982
1982
1982
1983
1982
1982
1981
1980
1980
1980
1981
1981
1982
1982
1981
1981
1980
1980
1980
1980
1981
1981
1982
1982
1982
1982
1981
1981
1981
1981
1982
1983
1984
1983
1983
1982
1981
1981
1981
1981
1983
1984
1984
1984
1984
1983
1983
1983
1983
1983
1983
1984
1984
1985
1985
1986
1985
1985
1984
1983
1983
1984
1985
1985
1984
1983
1982
1982
1982
1982
1982
1982
1982
1982
1983
1983
1983
1983
1983
1982
1983
1984
1985
1984
1983
1981
1980
1979
1980
1980
1980
1979
1979
1979
1980
1982
1984
1985
1985
1985
1985
1985
1984
1983
1981
1979
1978
1977
1977
1977
1977
1977
1977
1977
1977
1977
1978
1978
1978
1975
1970
1963
1955
1950
1952
1966
1992
2029
2071
2110
2132
2131
2105
2064
2021
1988
1970
1966
1969
1972
1973
1971
1970
1969
1970
1971
1971
1970
1968
1967
1967
1968
1969
1970
1970
1969
1969
1970
1971
1971
1970
1969
1968
1969
1971
1973
1974
1973
1972
1971
1971
1972
1972
1973
1974
1975
1975
1976
1976
1976
1977
1977
1977
1977
1978
1978
1978
1979
1980
1981
1984
1986
1987
1987
1985
1983
1982
1981
1982
1983
1985
1988
1989
1989
1988
1985
1983
1981
1979
1978
1977
1975
1973
1972
1971
1970
1970
1970
1971
1972
1973
1973
1972
1970
1968
1968
1969
1971
1972
1972
1972
1971
1971
1971
1971
1971
1971
1972
1973
1973
1973
1973
1973
1974
1974
1974
1972
1971
1971
1971
1972
1973
1972
1971
1970
1971
1972
1973
1974
1973
1973
1973
1973
1974
1974
1974
1974
1975
1975
1974
1973
1972
1972
1973
1974
1974
1972
1969
1966
1965
1967
1971
1977
1982
1983
1979
1974
1969
1968
1969
1973
1976
1978
1978
1977
1976
1974
1971
1969
1968
1969
1972
1976
1978
1978
1976
1974
1971
1969
1968
1968
1971
1974
1977
1978
1977
1975
1974
1974
1975
1977
1977
1976
1973
1971
1970
1970
1971
1971
1970
1969
1968
1968
1970
1972
1973
1972
1969
1963
1955
1947
1942
1944
1956
1979
2011
2047
2078
2097
2097
2077
2047
2012
1985
1968
1961
1962
1964
1965
1965
1964
1963
1963
1965
1966
1965
1962
1958
1955
1954
1955
1957
1960
1963
1965
1966
1965
1964
1963
1963
1963
1962
1960
1959
1960
1962
1965
1966
1967
1965
1964
1963
1964
1967
1969
1969
1968
1967
1967
1968
1969
1971
1973
1974
1976
1977
1979
1980
1980
1981
1982
1983
1983
1984
1986
1989
1992
1994
1995
1992
1987
1981
1976
1973
1973
1973
1972
1971
1970
1969
1968
1967
1966
1965
1964
1963
1962
1962
1962
1963
1964
1965
1965
1965
1963
1962
1961
1962
1964
1966
1967
1967
1966
1965
1965
1966
1966
1966
1964
1962
1961
1962
1963
1966
1967
1967
1966
1965
1963
1963
1964
1966
1968
1970
1971
1970
1968
1965
1963
1962
1963
1965
1968
1970
1971
1970
1969
1967
1967
1967
1969
1970
1971
1972
1971
1970
1969
1967
1966
1966
1968
1972
1975
1978
1980
1979
1976
1973
1971
1971
1972
1974
1976
1976
1975
1973
1972
1972
1972
1973
1973
1974
1974
1974
1972
1968
1961
1953
1948
1950
1961
1983
2016
2055
2093
2119
2124
2105
2069
2029
1995
1975
1969
1970
1973
1974
1973
1972
1972
1972
1972
1972
1972
1971
1971
1970
1970
1970
1971
1972
1974
1975
1975
1975
1975
1975
1975
1976
1976
1976
1976
1977
1978
1978
1978
1977
1976
1975
1975
1976
1978
1979
1980
1980
1980
1980
1980
1981
1981
1982
1982
1984
1985
1987
1988
1988
1988
1989
1990
1991
1993
1995
1997
1998
1998
1996
1994
1990
1987
1984
1983
1983
1982
1982
1981
1980
1978
1976
1975
1974
1974
1975
1976
1976
1975
1973
1971
1971
1972
1974
1975
1976
1976
1974
1973
1973
1973
1973
1973
1973
1973
1973
1973
1973
1973
1973
1974
1975
1975
1974
1973
1971
1971
1972
1974
1975
1976
1976
1975
1974
1973
1972
1973
1975
1976
1976
1975
1973
1971
1972
1973
1974
1974
1975
1975
1975
1975
1974
1972
1970
1969
1970
1972
1974
1976
1976
1975
1973
1971
1970
1971
1972
1973
1973
1973
1973
1973
1973
1975
1976
1977
1978
1978
1978
1977
1977
1977
1976
1975
1974
1973
1973
1974
1975
1975
1975
1976
1977
1978
1979
1979
1975
1969
1960
1951
1946
1950
1966
1995
2034
2077
2115
2137
2134
2105
2060
2015
1982
1967
1966
1971
1974
1974
1971
1969
1967
1967
1966
1966
1965
1965
1965
1966
1966
1967
1967
1968
1968
1969
1970
1971
1972
1972
1972
1971
1970
1969
1969
1969
1969
1969
1969
1969
1971
1972
1972
1971
1969
1968
1969
1971
1974
1976
1976
1976
1975
1975
1977
1979
1982
1984
1985
1986
1987
1987
1988
1989
1989
1990
1990
1990
1990
1991
1990
1989
1988
1986
1984
1981
1980
1978
1978
1978
1978
1978
1977
1974
1972
1970
1971
1973
1976
1978
1979
1978
1977
1976
1975
1975
1975
1975
1976
1976
1976
1977
1977
1976
1975
1974
1974
1975
1977
1980
1981
1979
1977
1975
1974
1975
1976
1977
1976
1976
1975
1975
1974
1973
1972
1971
1971
1971
1971
1972
1973
1973
1973
1971
1970
1969
1969
1970
1971
1971
1970
1968
1966
1965
1965
1966
1968
1970
1971
1970
1968
1966
1966
1966
1966
1967
1967
1967
1967
1967
1967
1966
1966
1965
1965
1965
1965
1965
1966
1967
1968
1968
1967
1966
1965
1964
1964
1965
1967
1968
1969
1968
1967
1968
1970
1973
1975
1977
1976
1974
1972
1972
1973
1973
1972
1968
1965
1964
1967
1973
1979
1982
1981
1978
1975
1974
1976
1977
1975
1968
1958
1948
1943
1950
1968
1999
2039
2080
2115
2133
2126
2096
2052
2010
1979
1965
1964
1969
1972
1972
1970
1968
1967
1967
1967
1967
1967
1966
1965
1965
1966
1967
1968
1968
1968
1967
1967
1967
1968
1969
1969
1969
1968
1968
1967
1967
1967
1967
1967
1967
1967
1967
1968
1968
1968
1967
1967
1968
1969
1972
1973
1974
1974
1974
1974
1974
1974
1976
1977
1979
1980
1980
1979
1979
1980
1982
1985
1986
1987
1986
1985
1983
1982
1980
1979
1978
1976
1975
1975
1974
1973
1972
1971
1969
1969
1970
1971
1971
1971
1971
1971
1971
1971
1972
1971
1971
1970
1970
1970
1971
1972
1973
1973
1972
1971
1970
1971
1972
1973
1973
1972
1971
1971
1971
1973
1974
1974
1973
1972
1971
1972
1973
1974
1974
1974
1972
1971
1971
1972
1973
1974
1975
1974
1974
1973
1972
1972
1972
1973
1973
1973
1973
1972
1971
1970
1971
1972
1974
1975
1975
1975
1974
1974
1973
1974
1974
1975
1975
1975
1976
1976
1977
1977
1976
1976
1975
1974
1975
1975
1976
1977
1978
1978
1977
1977
1976
1975
1975
1975
1976
1977
1977
1976
1975
1974
1973
1974
1975
1976
1977
1977
1977
1977
1976
1976
1975
1976
1976
1978
1978
1979
1979
1978
1977
1977
1977
1977
1977
1977
1977
1977
1977
1977
1977
1979
1980
1982
1983
1984
1984
1983
1982
1981
1980
1980
1981
1981
1982
1983
1983
1982
1982
1981
1980
1980
1982
1983
1981
1975
1967
1957
1953
1958
1975
2004
2042
2081
2114
2131
2124
2095
2054
2013
1984
1971
1970
1975
1978
1979
1977
1976
1975
1974
1973
1972
1972
1972
1972
1973
1974
1975
1975
1975
1974
1974
1974
1974
1975
1976
1976
1977
1977
1977
1976
1976
1976
1977
1978
1979
1980
1981
1981
1981
1980
1980
1980
1980
1982
1983
1984
1985
1985
1985
1985
1986
1986
1988
1989
1991
1992
1993
1993
1994
1995
1996
1998
1999
2000
2001
2000
2000
1998
1996
1993
1990
1988
1986
1985
1984
1983
1982
1981
1980
1980
1979
1978
1978
1978
1978
1979
1980
1980
1979
1978
1978
1978
1979
1980
1981
1982
1981
1980
1978
1977
1977
1978
1979
1981
1982
1982
1982
1980
1979
1978
1978
1979
1980
1980
1981
1981
1980
1980
1979
1979
1979
1978
1978
1978
1978
1979
1980
1981
1981
1981
1980
1979
1979
1979
1979
1980
1981
1982
1982
1981
1981
1980
1980
1981
1981
1981
1981
1981
1981
1980
1980
1980
1980
1981
1982
1982
1983
1983
1982
1981
1981
1981
1982
1984
1986
1988
1989
1989
1989
1988
1988
1987
1987
1987
1987
1986
1986
1986
1985
1984
1983
1983
1983
1985
1987
1988
1987
1983
1975
1965
1957
1957
1968
1991
2025
2064
2103
2128
2133
2114
2077
2036
2001
1981
1976
1979
1983
1985
1984
1982
1981
1980
1979
1979
1979
1979
1980
1980
1980
1980
1979
1979
1979
1980
1980
1981
1981
1981
1980
1980
1979
1979
1979
1979
1979
1980
1980
1980
1980
1979
1979
1979
1979
1980
1980
1981
1981
1982
1982
1982
1982
1982
1983
1984
1986
1987
1989
1989
1990
1990
1991
1992
1994
1996
1997
1998
1999
1998
1997
1995
1993
1991
1988
1986
1985
1983
1982
1981
1980
1979
1978
1978
1978
1978
1978
1978
1978
1978
1978
1978
1978
1978
1978
1978
1979
1979
1979
1979
1979
1979
1979
1979
1980
1980
1981
1981
1980
1980
1980
1979
1979
1979
1979
1980
1981
1981
1981
1980
1979
1979
1978
1978
1979
1979
1980
1980
1980
1980
1979
1978
1978
1977
1978
1978
1979
1979
1979
1978
1978
1977
1977
1977
1977
1977
1978
1978
1978
1978
1978
1978
1978
1977
1977
1978
1978
1979
1979
1979
1979
1977
1976
1976
1977
1980
1983
1985
1987
1987
1986
1985
1984
1983
1982
1981
1981
1981
1981
1980
1980
1979
1979
1979
1979
1980
1980
1982
1982
1981
1977
1970
1961
1953
1954
1964
1988
2021
2060
2096
2119
2122
2102
2066
2027
1995
1977
1971
1974
1978
1979
1978
1976
1975
1974
1975
1975
1976
1976
1976
1976
1976
1976
1976
1976
1976
1977
1977
1977
1977
1977
1976
1975
1974
1974
1975
1975
1976
1976
1975
1975
1974
1974
1974
1974
1974
1975
1975
1975
1975
1974
1973
1973
1973
1974
1975
1977
1979
1980
1980
1980
1980
1981
1982
1983
1985
1987
1988
1989
1989
1989
1987
1986
1984
1982
1980
1979
1978
1976
1974
1973
1971
1970
1970
1969
1970
1970
1970
1969
1969
1968
1968
1967
1967
1967
1968
1969
1969
1970
1970
1969
1968
1968
1968
1968
1968
1968
1969
1969
1968
1968
1968
1968
1968
1967
1968
1968
1968
1969
1969
1968
1967
1967
1967
1966
1966
1966
1965
1965
1965
1965
1964
1963
1963
1963
1963
1963
1963
1963
1963
1963
1963
1963
1962
1962
1962
1962
1963
1962
1962
1961
1961
1961
1961
1961
1961
1962
1962
1963
1963
1962
1962
1962
1962
1962
1962
1962
1962
1961
1961
1961
1962
1963
1965
1966
1967
1968
1968
1967
1966
1965
1964
1963
1963
1963
1963
1963
1963
1963
1963
1962
1962
1963
1964
1965
1963
1959
1951
1942
1937
1939
1954
1980
2017
2056
2090
2109
2104
2078
2040
2000
1971
1956
1954
1958
1962
1963
1962
1961
1960
1959
1959
1959
1959
1959
1959
1959
1960
1960
1961
1961
1960
1960
1960
1961
1962
1962
1963
1963
1962
1962
1962
1963
1964
1964
1965
1965
1966
1966
1966
1966
1966
1966
1966
1967
1968
1969
1970
1971
1972
1973
1973
1973
1974
1976
1977
1979
1981
1982
1983
1984
1984
1985
1986
1988
1989
1990
1989
1988
1985
1983
1981
1978
1977
1975
1974
1973
1972
1972
1971
1971
1970
1970
1970
1971
1971
1971
1971
1971
1971
1971
1970
1970
1970
1970
1971
1972
1972
1973
1973
1972
1972
1971
1971
1971
1972
1973
1973
1973
1973
1973
1973
1973
1973
1973
1973
1974
1974
1974
1974
1974
1974
1974
1975
1975
1975
1976
1976
1976
1976
1976
1976
1976
1976
1976
1977
1977
1978
1978
1978
1978
1977
1977
1977
1977
1977
1978
1978
1978
1978
1978
1977
1977
1977
1977
1977
1978
1978
1978
1978
1978
1978
1978
1978
1978
1978
1978
1978
1979
1978
1978
1977
1977
1977
1978
1980
1982
1984
1986
1988
1988
1987
1986
1985
1985
1985
1984
1984
1983
1983
1982
1982
1982
1982
1982
1982
1983
1985
1985
1984
1980
1973
1964
1956
1956
1966
1988
2021
2060
2098
2125
2131
2114
2079
2039
2003
1982
1975
1977
1981
1983
1981
1979
1978
1977
1978
1979
1979
1980
1979
1979
1978
1977
1978
1978
1979
1980
1981
1982
1982
1982
1981
1981
1981
1981
1982
1983
1983
1983
1983
1983
1983
1983
1983
1983
1984
1985
1985
1986
1986
1986
1986
1986
1987
1988
1989
1990
1991
1992
1993
1994
1995
1995
1996
1997
1998
1999
2000
2001
2001
2001
2001
2000
1999
1997
1995
1994
1992
1991
1989
1988
1986
1985
1984
1984
1984
1984
1984
1984
1984
1983
1983
1982
1982
1983
1984
1984
1985
1985
1984
1984
1983
1983
1983
1983
1984
1984
1984
1984
1983
1982
1982
1981
1981
1982
1982
1983
1984
1984
1984
1983
1982
1982
1982
1982
1982
1982
1982
1983
1982
1982
1982
1981
1981
1981
1981
1982
1983
1983
1983
1982
1982
1981
1981
1981
1982
1982
1982
1982
1982
1982
1982
1982
1982
1982
1982
1982
1982
1982
1982
1982
1981
1981
1981
1981
1981
1982
1983
1983
1983
1983
1982
1981
1981
1981
1982
1982
1983
1983
1983
1982
1982
1981
1981
1981
1982
1982
1983
1982
1982
1981
1980
1979
1978
1978
1980
1982
1984
1986
1987
1987
1987
1986
1985
1984
1984
1984
1983
1983
1982
1981
1981
1980
1981
1981
1982
1983
1984
1984
1983
1980
1973
1964
1955
1951
1957
1975
2006
2045
2084
2116
2130
2121
2091
2050
2013
1986
1974
1974
1978
1980
1980
1978
1977
1976
1977
1977
1978
1978
1978
1977
1977
1976
1976
1976
1977
1978
1978
1978
1978
1977
1977
1977
1977
1977
1978
1978
1979
1979
1979
1979
1978
1978
1978
1978
1979
1980
1981
1982
1982
1982
1982
1981
1981
1982
1983
1984
1985
1986
1987
1988
1988
1989
1990
1991
1993
1994
1996
1997
1997
1996
1995
1994
1993
1992
1991
1991
1989
1987
1984
1981
1979
1978
1977
1977
1977
1977
1977
1977
1977
1977
1976
1976
1976
1976
1977
1977
1978
1977
1977
1976
1975
1975
1975
1975
1976
1977
1978
1978
1977
1977
1976
1976
1976
1976
1976
1976
1976
1977
1978
1977
1976
1974
1973
1973
1974
1974
1975
1975
1975
1975
1974
1974
1974
1974
1974
1974
1974
1974
1974
1974
1974
1973
1973
1972
1972
1972
1973
1974
1974
1974
1973
1972
1972
1972
1973
1973
1973
1973
1973
1972
1972
1972
1971
1971
1972
1974
1975
1977
1978
1978
1978
1977
1976
1975
1975
1975
1975
1975
1974
1973
1972
1972
1972
1972
1973
1974
1975
1976
1975
1972
1965
1956
1949
1947
1954
1973
2004
2043
2079
2106
2114
2099
2067
2029
1996
1975
1967
1967
1970
1972
1971
1969
1968
1968
1968
1968
1969
1969
1969
1969
1968
1968
1967
1968
1968
1969
1970
1970
1970
1970
1970
1970
1970
1970
1971
1971
1972
1972
1973
1973
1972
1972
1972
1973
1974
1974
1975
1975
1976
1976
1976
1976
1977
1978
1979
1980
1982
1983
1984
1984
1985
1985
1985
1986
1988
1989
1991
1992
1992
1991
1990
1988
1986
1985
1983
1981
1979
1978
1976
1974
1972
1971
1970
1970
1971
1971
1972
1971
1971
1970
1970
1969
1969
1970
1970
1971
1971
1972
1972
1972
1971
1971
1971
1972
1973
1974
1974
1974
1974
1974
1973
1973
1973
1974
1974
1974
1974
1974
1974
1974
1973
1973
1973
1973
1973
1974
1975
1975
1974
1974
1974
1974
1974
1974
1974
1975
1975
1975
1975
1974
1974
1973
1973
1974
1974
1975
1976
1976
1976
1976
1975
1975
1975
1975
1975
1976
1977
1977
1977
1977
1976
1976
1975
1975
1975
1975
1976
1977
1978
1980
1981
1982
1983
1983
1982
1982
1981
1980
1979
1978
1977
1975
1975
1975
1975
1977
1978
1978
1978
1978
1978
1977
1975
1970
1962
1953
1947
1951
1967
1995
2033
2075
2111
2131
2127
2100
2057
2015
1984
1969
1967
1971
1974
1975
1973
1972
1971
1971
1970
1969
1969
1969
1969
1969
1970
1971
1972
1972
1971
1970
1970
1970
1971
1973
1973
1974
1973
1973
1974
1974
1974
1974
1974
1975
1976
1976
1977
1976
1976
1975
1974
1974
1974
1974
1975
1975
1976
1977
1978
1979
1979
1980
1980
1980
1981
1983
1985
1987
1988
1988
1987
1986
1986
1986
1987
1987
1986
1983
1981
1978
1976
1975
1975
1975
1976
1976
1976
1975
1973
1973
1973
1973
1973
1973
1973
1973
1973
1974
1974
1974
1973
1973
1972
1972
1973
1974
1975
1976
1976
1975
1974
1974
1974
1974
1974
1975
1976
1976
1976
1975
1974
1974
1973
1974
1974
1975
1975
1975
1974
1973
1972
1971
1972
1973
1974
1974
1974
1974
1973
1972
1972
1972
1972
1972
1972
1971
1971
1972
1972
1971
1970
1969
1969
1969
1969
1969
1969
1970
1970
1970
1969
1968
1967
1967
1968
1969
1971
1972
1973
1972
1971
1970
1970
1970
1970
1969
1968
1966
1966
1967
1968
1971
1972
1973
1972
1972
1972
1974
1975
1975
1974
1971
1970
1971
1974
1976
1977
1975
1972
1970
1969
1970
1971
1973
1974
1974
1972
1970
1968
1970
1973
1977
1979
1975
1966
1955
1947
1948
1959
1982
2013
2048
2081
2103
2107
2090
2058
2021
1989
1970
1963
1964
1967
1968
1968
1967
1966
1965
1964
1963
1962
1961
1961
1962
1962
1963
1963
1964
1964
1964
1964
1963
1964
1964
1965
1965
1965
1966
1966
1967
1968
1968
1967
1967
1967
1968
1969
1970
1970
1970
1970
1970
1971
1972
1973
1974
1975
1975
1976
1977
1978
1979
1979
1980
1982
1984
1986
1987
1987
1986
1987
1987
1988
1989
1989
1988
1987
1986
1985
1982
1979
1977
1975
1974
1974
1974
1974
1974
1973
1972
1970
1969
1969
1970
1971
1972
1973
1973
1973
1972
1971
1970
1970
1970
1971
1972
1974
1975
1975
1974
1974
1973
1973
1973
1974
1974
1975
1975
1975
1975
1975
1974
1973
1973
1973
1973
1974
1974
1974
1974
1973
1973
1973
1973
1973
1972
1970
1969
1969
1970
1972
1972
1972
1971
1969
1969
1969
1970
1971
1970
1969
1967
1965
1965
1966
1967
1968
1968
1967
1966
1965
1965
1966
1968
1970
1972
1973
1973
1972
1970
1969
1968
1967
1967
1967
1968
1968
1968
1968
1968
1968
1968
1968
1968
1969
1969
1967
1961
1953
1944
1940
1945
1962
1992
2030
2069
2100
2112
2099
2066
2025
1988
1965
1957
1960
1965
1968
1967
1964
1962
1961
1960
1960
1959
1960
1960
1961
1962
1963
1962
1961
1960
1960
1961
1961
1962
1963
1963
1963
1962
1961
1961
1961
1962
1963
1963
1964
1964
1965
1965
1964
1964
1963
1963
1964
1966
1967
1968
1968
1967
1968
1968
1970
1971
1972
1973
1974
1975
1977
1978
1979
1980
1981
1982
1985
1986
1987
1985
1982
1979
1978
1977
1978
1978
1977
1974
1972
1970
1969
1970
1970
1969
1968
1967
1967
1968
1970
1972
1972
1971
1969
1968
1967
1967
1968
1968
1969
1969
1970
1971
1971
1970
1969
1969
1969
1970
1970
1969
1968
1967
1967
1966
1967
1967
1968
1968
1968
1968
1967
1967
1966
1967
1967
1968
1969
1969
1969
1968
1968
1967
1967
1967
1967
1967
1967
1968
1968
1969
1969
1969
1969
1969
1969
1969
1970
1971
1971
1971
1971
1971
1971
1971
1971
1972
1972
1973
1973
1972
1972
1971
1970
1971
1972
1974
1976
1978
1978
1978
1977
1977
1976
1975
1974
1974
1974
1974
1974
1974
1973
1971
1970
1970
1970
1972
1974
1976
1977
1975
1969
1960
1949
1940
1939
1950
1975
2011
2053
2093
2119
2123
2103
2065
2023
1989
1970
1964
1967
1971
1972
1970
1968
1966
1965
1964
1964
1964
1965
1965
1964
1964
1964
1963
1964
1963
1963
1963
1963
1963
1963
1964
1964
1964
1964
1964
1964
1964
1964
1964
1964
1965
1965
1966
1966
1967
1968
1969
1969
1969
1970
1970
1971
1973
1974
1975
1976
1978
1979
1980
1981
1981
1981
1982
1983
1984
1985
1987
1988
1989
1988
1987
1985
1983
1981
1979
1978
1978
1977
1976
1975
1974
1972
1971
1970
1970
1970
1971
1971
1972
1972
1972
1972
1971
1971
1972
1973
1973
1973
1973
1973
1973
1973
1974
1974
1974
1974
1974
1974
1974
1975
1975
1975
1974
1974
1974
1975
1975
1976
1976
1975
1975
1975
1975
1975
1975
1976
1976
1976
1976
1977
1977
1977
1977
1976
1976
1977
1978
1978
1979
1979
1978
1978
1977
1977
1978
1978
1979
1980
1980
1979
1979
1978
1978
1978
1979
1979
1980
1980
1980
1980
1980
1980
1980
1979
1979
1979
1979
1979
1980
1981
1981
1981
1981
1980
1981
1981
1982
1982
1981
1981
1981
1981
1982
1984
1985
1986
1987
1987
1987
1986
1985
1984
1983
1982
1982
1982
1982
1982
1982
1982
1982
1982
1982
1982
1983
1982
1980
1973
1965
1956
1953
1959
1978
2008
2047
2084
2113
2124
2112
2081
2043
2008
1985
1976
1976
1979
1981
1981
1981
1980
1979
1979
1978
1978
1977
1976
1974
1972
1970
1969
1968
1969
1969
1970
1972
1975
1977
1978
1976
1973
1970
1970
1971
1973
1974
1975
1975
1974
1974
1974
1973
1972
1970
1970
1971
1975
1979
1983
1984
1984
1981
1979
1977
1976
1977
1980
1983
1987
1990
1992
1991
1990
1989
1989
1991
1992
1994
1994
1993
1991
1988
1986
1983
1981
1979
1978
1978
1978
1977
1976
1976
1975
1974
1974
1974
1973
1973
1972
1972
1972
1973
1974
1974
1974
1973
1973
1974
1975
1975
1975
1974
1973
1972
1973
1974
1975
1976
1976
1976
1975
1973
1972
1971
1971
1971
1973
1974
1975
1974
1974
1973
1973
1973
1973
1974
1974
1974
1974
1974
1974
1974
1973
1973
1972
1972
1973
1974
1974
1974
1974
1973
1973
1973
1974
1974
1974
1974
1973
1973
1973
1974
1973
1973
1972
1972
1973
1974
1975
1975
1974
1974
1973
1973
1973
1973
1974
1974
1974
1974
1973
1973
1973
1974
1975
1976
1977
1978
1979
1979
1978
1977
1975
1973
1972
1972
1972
1972
1972
1972
1971
1970
1969
1968
1969
1970
1971
1970
1966
1958
1948
1941
1941
1952
1976
2011
2051
2087
2109
2109
2087
2051
2013
1983
1966
1961
1963
1966
1967
1966
1964
1963
1962
1961
1961
1960
1961
1961
1961
1962
1962
1962
1961
1961
1961
1961
1961
1962
1963
1963
1963
1963
1962
1962
1963
1964
1965
1966
1966
1966
1966
1966
1966
1966
1967
1968
1969
1970
1971
1971
1972
1972
1973
1974
1974
1976
1977
1978
1980
1981
1982
1983
1984
1985
1986
1987
1988
1989
1989
1988
1987
1984
1981
1979
1977
1975
1974
1973
1972
1971
1970
1969
1968
1967
1967
1967
1967
1967
1967
1967
1967
1967
1967
1966
1966
1966
1966
1967
1968
1968
1968
1968
1968
1967
1967
1968
1968
1969
1970
1971
1971
1971
1971
1970
1970
1970
1971
1972
1972
1972
1972
1972
1972
1972
1972
1972
1973
1973
1974
1974
1974
1974
1974
1973
1973
1973
1974
1975
1975
1975
1975
1975
1974
1974
1974
1974
1975
1975
1975
1975
1975
1975
1974
1974
1973
1974
1974
1975
1975
1975
1975
1974
1974
1973
1972
1972
1972
1973
1974
1975
1977
1978
1979
1979
1979
1979
1979
1978
1978
1977
1977
1976
1976
1975
1975
1974
1975
1975
1976
1976
1977
1978
1978
1976
1971
1962
1951
1943
1944
1957
1984
2023
2067
2107
2133
2134
2111
2071
2028
1992
1973
1967
1970
1973
1973
1972
1971
1970
1970
1971
1970
1970
1969
1968
1968
1969
1969
1970
1970
1970
1970
1970
1970
1970
1970
1970
1971
1972
1972
1972
1972
1972
1972
1972
1972
1972
1973
1974
1974
1975
1975
1975
1975
1975
1976
1976
1977
1978
1980
1981
1982
1982
1982
1983
1984
1985
1986
1988
1989
1990
1991
1991
1992
1992
1992
1991
1990
1988
1986
1984
1982
1981
1979
1978
1976
1975
1975
1975
1975
1975
1974
1974
1973
1973
1973
1973
1973
1974
1975
1975
1975
1975
1974
1974
1973
1973
1974
1974
1975
1975
1975
1975
1974
1974
1974
1974
1974
1975
1975
1976
1975
1975
1974
1974
1974
1974
1975
1976
1976
1976
1976
1975
1975
1974
1975
1975
1975
1976
1976
1976
1976
1975
1975
1974
1974
1974
1975
1976
1976
1977
1977
1976
1976
1976
1976
1976
1977
1977
1978
1978
1978
1977
1977
1976
1976
1976
1976
1977
1977
1977
1977
1976
1976
1976
1976
1977
1977
1978
1978
1978
1978
1977
1977
1977
1977
1977
1977
1978
1978
1978
1978
1978
1977
1977
1977
1977
1978
1978
1979
1979
1978
1978
1977
1977
1977
1977
1978
1978
1979
1979
1979
1979
1978
1978
1978
1978
1979
1979
1979
1979
1979
1978
1978
1978
1978
1978
1978
1979
1979
1980
1979
1979
1978
1978
1978
1978
1978
1979
1980
1980
1980
1979
1978
1977
1977
1977
1977
1979
1981
1982
1983
1984
1984
1983
1983
1982
1982
1981
1981
1981
1980
1979
1978
1977
1977
1977
1978
1979
1980
1981
1981
1978
1972
1963
1953
1949
1954
1971
2000
2038
2078
2111
2127
2120
2092
2052
2014
1987
1974
1973
1976
1978
1977
1975
1974
1973
1973
1974
1974
1974
1974
1973
1973
1972
1972
1972
1973
1974
1974
1975
1975
1974
1973
1973
1973
1974
1975
1975
1976
1976
1976
1975
1975
1976
1976
1976
1976
1977
1977
1978
1978
1978
1979
1979
1979
1980
1981
1983
1984
1984
1985
1985
1986
1986
1987
1988
1990
1991
1992
1993
1994
1995
1994
1994
1993
1992
1991
1990
1989
1987
1985
1983
1981
1980
1979
1978
1978
1978
1978
1977
1977
1976
1976
1975
1975
1975
1975
1976
1976
1977
1977
1976
1976
1975
1975
1975
1975
1976
1976
1976
1976
1976
1975
1975
1976
1976
1976
1976
1976
1977
1977
1976
1976
1976
1975
1975
1976
1976
1977
1977
1977
1976
1976
1975
1975
1975
1976
1976
1977
1977
1977
1977
1976
1976
1976
1976
1977
1977
1978
1978
1978
1977
1977
1977
1977
1977
1977
1978
1978
1978
1978
1978
1977
1977
1977
1977
1977
1978
1978
1979
1979
1979
1978
1978
1977
1978
1978
1979
1979
1979
1978
1978
1977
1977
1977
1977
1978
1978
1978
1978
1978
1977
1977
1977
1976
1977
1977
1977
1978
1978
1977
1977
1976
1976
1975
1976
1976
1977
1977
1977
1977
1976
1976
1976
1975
1976
1976
1976
1976
1976
1976
1975
1975
1975
1975
1976
1976
1977
1977
1977
1977
1976
1976
1975
1975
1975
1974
1974
1975
1975
1976
1977
1978
1979
1979
1980
1980
1980
1979
1979
1978
1977
1976
1975
1974
1974
1975
1975
1975
1975
1975
1975
1976
1975
1972
1966
1957
1949
1945
1952
1970
2000
2039
2077
2107
2118
2107
2076
2037
2001
1977
1967
1967
1970
1972
1972
1971
1970
1969
1969
1969
1968
1968
1968
1967
1967
1968
1968
1968
1969
1969
1969
1969
1969
1969
1969
1970
1971
1972
1972
1972
1972
1971
1971
1971
1972
1973
1974
1975
1975
1975
1974
1974
1974
1974
1975
1976
1977
1979
1979
1980
1980
1980
1981
1982
1983
1985
1986
1988
1989
1990
1990
1991
1991
1992
1993
1993
1993
1992
1991
1989
1986
1984
1982
1980
1979
1978
1978
1978
1977
1977
1976
1975
1975
1975
1975
1976
1976
1977
1977
1976
1976
1976
1976
1976
1976
1977
1977
1977
1978
1978
1978
1978
1977
1977
1977
1978
1979
1980
1980
1980
1979
1979
1978
1978
1979
1979
1980
1980
1981
1980
1980
1979
1979
1979
1979
1980
1981
1981
1981
1981
1980
1980
1980
1980
1980
1980
1981
1981
1981
1981
1980
1980
1979
1979
1980
1980
1981
1981
1982
1981
1981
1980
1980
1980
1980
1980
1981
1981
1981
1981
1980
1979
1979
1979
1980
1981
1981
1982
1982
1982
1981
1980
1980
1980
1980
1980
1981
1981
1981
1982
1981
1981
1981
1981
1981
1981
1981
1982
1982
1982
1982
1981
1981
1981
1981
1981
1982
1982
1982
1982
1982
1982
1981
1981
1981
1981
1981
1982
1983
1983
1982
1982
1981
1980
1980
1980
1980
1981
1982
1983
1984
1985
1986
1986
1987
1987
1986
1986
1985
1984
1983
1982
1981
1981
1981
1981
1981
1982
1982
1982
1982
1983
1981
1977
1970
1961
1954
1955
1966
1989
2022
2061
2097
2121
2124
2105
2069
2030
1998
1979
1973
1975
1978
1979
1978
1976
1976
1975
1975
1974
1974
1974
1974
1974
1974
1975
1975
1975
1975
1975
1975
1975
1975
1975
1975
1976
1976
1977
1977
1977
1977
1977
1977
1977
1977
1978
1978
1979
1979
1979
1979
1979
1979
1979
1980
1980
1981
1983
1984
1984
1985
1985
1986
1986
1988
1989
1990
1991
1992
1993
1994
1994
1995
1995
1995
1995
1995
1993
1992
1989
1987
1985
1983
1981
1980
1979
1979
1978
1978
1978
1977
1976
1976
1975
1975
1975
1976
1976
1977
1976
1976
1975
1975
1975
1976
1976
1977
1977
1977
1977
1977
1977
1977
1977
1977
1977
1978
1978
1978
1978
1977
1977
1977
1977
1977
1978
1978
1978
1978
1978
1978
1977
1977
1977
1977
1978
1978
1978
1978
1978
1977
1977
1977
1977
1977
1977
1978
1978
1978
1978
1977
1977
1977
1976
1976
1977
1977
1977
1977
1977
1977
1976
1976
1976
1976
1976
1976
1977
1977
1976
1976
1976
1976
1976
1976
1977
1977
1978
1978
1977
1976
1976
1976
1976
1976
1977
1977
1978
1978
1977
1977
1977
1976
1976
1977
1977
1978
1978
1979
1978
1978
1977
1977
1976
1976
1977
1977
1978
1978
1978
1978
1977
1976
1976
1976
1977
1977
1977
1977
1976
1976
1975
1976
1977
1978
1980
1982
1983
1982
1982
1981
1980
1979
1978
1977
1977
1976
1976
1977
1977
1977
1977
1976
1977
1978
1979
1978
1974
1967
1958
1952
1953
1965
1988
2022
2061
2095
2116
2115
2093
2057
2019
1990
1974
1969
1971
1974
1975
1975
1974
1973
1972
1971
1970
1969
1969
1970
1970
1971
1971
1971
1970
1970
1970
1970
1970
1971
1971
1971
1971
1971
1971
1971
1971
1971
1971
1971
1972
1972
1973
1973
1973
1972
1972
1973
1973
1974
1975
1975
1976
1976
1976
1976
1976
1977
1978
1980
1981
1983
1984
1984
1984
1985
1986
1987
1989
1990
1991
1991
1990
1988
1986
1984
1982
1980
1978
1976
1975
1974
1973
1972
1970
1969
1968
1968
1968
1969
1969
1970
1969
1969
1968
1968
1967
1968
1969
1969
1970
1970
1970
1969
1969
1969
1969
1969
1970
1971
1972
1972
1972
1971
1971
1970
1970
1971
1972
1972
1973
1973
1973
1972
1972
1972
1972
1972
1973
1973
1974
1974
1973
1972
1972
1971
1971
1972
1972
1973
1974
1974
1974
1973
1973
1973
1973
1973
1974
1974
1974
1974
1974
1974
1974
1973
1973
1973
1974
1974
1975
1975
1975
1974
1974
1973
1974
1974
1974
1975
1975
1975
1975
1975
1975
1975
1975
1975
1975
1975
1975
1975
1975
1976
1977
1979
1980
1981
1982
1982
1981
1981
1979
1978
1977
1976
1976
1975
1975
1976
1976
1976
1976
1976
1976
1977
1977
1976
1970
1962
1953
1947
1949
1964
1991
2029
2070
2106
2127
2124
2099
2059
2018
1987
1971
1967
1970
1974
1975
1974
1973
1972
1972
1971
1970
1970
1970
1970
1970
1970
1971
1971
1971
1971
1971
1971
1971
1972
1972
1972
1973
1973
1973
1973
1973
1973
1973
1974
1974
1975
1975
1975
1975
1976
1976
1976
1977
1978
1978
1979
1980
1981
1981
1982
1982
1983
1984
1985
1987
1988
1990
1991
1991
1992
1992
1993
1994
1995
1995
1996
1995
1993
1991
1989
1986
1984
1982
1980
1979
1978
1978
1977
1977
1976
1975
1975
1975
1975
1975
1976
1976
1976
1976
1975
1975
1974
1974
1974
1974
1975
1975
1976
1975
1975
1975
1974
1975
1975
1975
1976
1976
1977
1977
1976
1976
1976
1975
1976
1976
1977
1977
1978
1977
1977
1977
1976
1976
1976
1976
1977
1977
1977
1977
1977
1977
1976
1976
1976
1977
1977
1978
1978
1977
1977
1977
1976
1977
1977
1977
1977
1978
1977
1977
1977
1977
1976
1977
1977
1977
1978
1978
1978
1977
1977
1976
1976
1977
1977
1978
1978
1979
1979
1978
1978
1977
1977
1977
1977
1977
1978
1978
1978
1978
1978
1977
1977
1977
1977
1978
1978
1978
1978
1978
1977
1977
1977
1977
1978
1978
1978
1977
1977
1976
1976
1977
1978
1980
1981
1982
1983
1983
1983
1982
1981
1980
1979
1978
1977
1977
1977
1977
1977
1977
1977
1977
1977
1978
1979
1978
1976
1969
1960
1952
1948
1956
1976
2008
2048
2087
2116
2126
2111
2078
2038
2001
1979
1970
1971
1975
1977
1976
1975
1973
1972
1972
1971
1971
1971
1972
1972
1973
1973
1973
1973
1972
1972
1972
1973
1974
1974
1975
1975
1975
1975
1975
1975
1975
1975
1976
1976
1977
1977
1977
1977
1977
1977
1977
1977
1978
1979
1980
1981
1981
1981
1981
1981
1982
1983
1984
1986
1987
1988
1989
1989
1990
1991
1992
1994
1995
1996
1996
1995
1994
1992
1990
1987
1985
1983
1982
1981
1980
1979
1978
1977
1976
1975
1975
1975
1976
1976
1977
1977
1976
1975
1975
1974
1974
1975
1976
1976
1977
1977
1976
1976
1975
1975
1975
1976
1976
1977
1977
1977
1977
1977
1976
1976
1976
1975
1976
1976
1976
1977
1977
1977
1977
1976
1976
1976
1976
1977
1977
1977
1977
1977
1977
1977
1976
1976
1977
1977
1977
1977
1977
1977
1977
1976
1976
1976
1977
1977
1977
1977
1977
1977
1977
1976
1976
1976
1977
1977
1977
1977
1977
1976
1976
1976
1976
1976
1976
1977
1977
1977
1977
1976
1975
1975
1975
1975
1976
1976
1976
1977
1976
1976
1976
1976
1976
1976
1977
1977
1978
1978
1978
1977
1977
1976
1976
1976
1976
1977
1977
1977
1977
1977
1977
1976
1976
1976
1976
1977
1977
1978
1980
1981
1982
1982
1983
1983
1983
1982
1981
1980
1979
1979
1978
1977
1977
1978
1978
1979
1979
1980
1980
1980
1980
1978
1974
1967
1960
1954
1955
1965
1986
2018
2055
2090
2112
2114
2095
2061
2025
1995
1978
1972
1973
1975
1976
1976
1975
1974
1974
1973
1972
1972
1971
1971
1971
1971
1972
1973
1973
1974
1973
1973
1972
1972
1972
1973
1973
1974
1975
1975
1975
1975
1974
1974
1975
1975
1975
1976
1976
1977
1977
1977
1977
1977
1978
1979
1980
1981
1982
1982
1983
1983
1984
1985
1986
1987
1989
1990
1992
1993
1994
1994
1995
1995
1995
1995
1995
1994
1993
1991
1988
1985
1982
1979
1978
1977
1976
1976
1975
1975
1974
1973
1972
1972
1972
1972
1973
1973
1973
1973
1973
1973
1973
1972
1972
1973
1973
1974
1974
1975
1975
1975
1974
1974
1975
1975
1975
1976
1976
1976
1976
1976
1976
1976
1976
1976
1976
1976
1977
1977
1977
1977
1976
1976
1976
1976
1977
1977
1978
1978
1977
1977
1976
1976
1976
1977
1977
1978
1978
1978
1979
1978
1978
1977
1977
1977
1977
1978
1979
1979
1979
1979
1978
1978
1978
1979
1979
1979
1980
1980
1979
1979
1979
1978
1978
1979
1979
1980
1980
1980
1979
1979
1979
1979
1979
1979
1980
1981
1981
1981
1980
1979
1979
1978
1978
1979
1979
1979
1978
1978
1978
1979
1980
1982
1983
1984
1984
1985
1985
1984
1983
1982
1980
1979
1979
1979
1979
1980
1980
1980
1980
1979
1980
1981
1981
1981
1977
1970
1960
1951
1949
1958
1981
2016
2058
2100
2130
2138
2120
2083
2040
2002
1979
1971
1973
1976
1978
1978
1977
1976
1975
1974
1973
1972
1972
1972
1972
1973
1974
1974
1975
1975
1974
1974
1974
1974
1975
1976
1976
1977
1976
1976
1975
1975
1975
1975
1976
1977
1977
1978
1978
1978
1978
1978
1978
1978
1979
1980
1981
1982
1982
1982
1983
1983
1984
1985
1987
1988
1990
1991
1991
1992
1993
1994
1994
1995
1995
1995
1995
1994
1992
1990
1988
1985
1983
1981
1980
1979
1979
1978
1977
1977
1976
1976
1975
1975
1975
1976
1976
1976
1976
1976
1976
1976
1976
1976
1976
1976
1976
1976
1976
1976
1976
1975
1975
1976
1976
1977
1977
1977
1977
1977
1976
1976
1976
1977
1977
1978
1978
1978
1978
1978
1978
1978
1978
1978
1978
1978
1978
1979
1979
1979
1978
1978
1978
1978
1978
1978
1979
1979
1979
1978
1978
1977
1977
1978
1979
1979
1980
1980
1979
1979
1978
1978
1978
1978
1979
1979
1979
1980
1980
1980
1980
1979
1979
1979
1979
1980
1980
1980
1981
1981
1981
1980
1980
1980
1980
1980
1980
1980
1980
1980
1979
1979
1979
1980
1980
1980
1980
1980
1980
1980
1979
1979
1979
1979
1980
1981
1982
1982
1981
1980
1980
1979
1979
1979
1980
1980
1981
1981
1981
1981
1980
1980
1980
1980
1981
1981
1982
1981
1981
1980
1980
1979
1979
1979
1980
1981
1981
1981
1981
1981
1981
1980
1980
1981
1981
1981
1982
1982
1982
1981
1981
1980
1980
1980
1980
1980
1980
1981
1982
1983
1984
1985
1985
1985
1985
1985
1985
1985
1984
1983
1982
1981
1980
1980
1980
1981
1982
1982
1982
1982
1983
1983
1981
1975
1967
1958
1953
1957
1973
2000
2037
2077
2110
2127
2122
2095
2056
2018
1990
1976
1974
1976
1979
1979
1978
1977
1976
1976
1976
1975
1975
1974
1974
1974
1975
1976
1976
1977
1976
1976
1976
1975
1975
1975
1976
1976
1976
1977
1977
1977
1977
1976
1976
1977
1977
1978
1979
1979
1979
1979
1979
1979
1979
1979
1980
1981
1982
1983
1984
1984
1984
1985
1985
1987
1988
1990
1991
1992
1993
1994
1994
1995
1996
1997
1998
1998
1997
1995
1993
1990
1988
1986
1984
1983
1982
1981
1980
1979
1979
1978
1977
1976
1976
1976
1977
1977
1978
1977
1977
1977
1976
1976
1976
1976
1976
1977
1977
1977
1978
1978
1977
1977
1977
1977
1977
1977
1977
1978
1978
1978
1977
1977
1977
1977
1977
1978
1978
1977
1977
1976
1976
1976
1975
1975
1976
1976
1977
1977
1977
1977
1976
1976
1976
1976
1976
1977
1977
1977
1977
1976
1976
1976
1976
1976
1976
1976
1977
1977
1978
1978
1977
1976
1976
1976
1977
1978
1978
1978
1977
1977
1976
1976
1976
1976
1976
1976
1977
1977
1978
1977
1976
1976
1975
1976
1976
1977
1977
1977
1977
1976
1976
1975
1974
1974
1975
1976
1976
1977
1977
1976
1975
1975
1974
1974
1975
1976
1976
1976
1975
1975
1974
1974
1974
1974
1974
1974
1974
1974
1975
1976
1977
1978
1978
1979
1979
1979
1979
1978
1977
1976
1974
1973
1973
1973
1974
1974
1975
1975
1975
1975
1975
1976
1976
1973
1967
1960
1953
1950
1955
1972
2000
2036
2073
2102
2113
2103
2074
2037
2003
1980
1970
1969
1971
1973
1973
1973
1972
1972
1972
1971
1971
1971
1970
1971
1971
1972
1972
1972
1972
1972
1972
1972
1972
1973
1973
1973
1974
1974
1975
1975
1975
1975
1975
1975
1975
1976
1976
1977
1977
1977
1977
1977
1977
1978
1979
1980
1981
1982
1983
1984
1984
1985
1985
1986
1988
1989
1991
1992
1993
1994
1995
1996
1997
1998
1999
1999
1999
1997
1995
1992
1989
1986
1984
1982
1980
1979
1978
1978
1977
1976
1975
1974
1974
1974
1974
1975
1975
1975
1975
1975
1974
1974
1974
1974
1974
1975
1975
1975
1975
1974
1974
1973
1973
1974
1975
1975
1976
1976
1976
1975
1975
1975
1976
1976
1976
1976
1977
1977
1977
1976
1976
1975
1975
1975
1976
1976
1977
1976
1976
1975
1975
1974
1974
1975
1975
1976
1976
1976
1976
1976
1976
1975
1975
1975
1976
1976
1977
1978
1977
1977
1976
1975
1975
1975
1976
1976
1977
1977
1977
1977
1976
1976
1976
1976
1976
1977
1977
1978
1977
1977
1976
1976
1976
1977
1977
1978
1978
1978
1978
1977
1976
1975
1976
1976
1977
1977
1977
1976
1975
1975
1976
1977
1978
1980
1981
1982
1982
1982
1981
1980
1979
1977
1977
1976
1976
1977
1977
1977
1977
1976
1976
1976
1977
1978
1979
1976
1970
1960
1950
1945
1951
1969
2001
2042
2084
2118
2134
2124
2093
2050
2009
1981
1969
1969
1973
1976
1976
1974
1973
1972
1971
1971
1971
1970
1971
1971
1971
1972
1972
1972
1972
1971
1971
1971
1972
1972
1973
1974
1974
1973
1973
1973
1973
1974
1975
1976
1976
1976
1976
1976
1975
1975
1976
1977
1978
1979
1980
1980
1980
1981
1981
1981
1982
1983
1985
1986
1987
1988
1989
1990
1991
1993
1994
1995
1996
1998
1998
1998
1997
1995
1992
1989
1987
1985
1984
1982
1981
1979
1978
1977
1976
1976
1975
1976
1976
1976
1977
1977
1976
1976
1976
1976
1975
1975
1975
1976
1976
1977
1977
1977
1976
1976
1975
1976
1976
1977
1978
1978
1978
1977
1977
1976
1976
1976
1977
1977
1978
1978
1978
1978
1977
1977
1977
1977
1978
1978
1978
1979
1978
1978
1977
1977
1977
1977
1977
1978
1978
1978
1978
1978
1978
1977
1977
1977
1978
1978
1979
1979
1979
1979
1978
1977
1977
1977
1978
1978
1979
1979
1979
1979
1978
1978
1977
1978
1978
1979
1979
1979
1979
1978
1978
1978
1978
1978
1978
1979
1979
1978
1978
1978
1977
1977
1978
1978
1979
1979
1979
1979
1979
1978
1978
1978
1978
1977
1978
1978
1979
1979
1978
1978
1977
1977
1977
1977
1977
1978
1978
1978
1978
1978
1977
1977
1977
1977
1977
1978
1978
1978
1978
1978
1977
1977
1977
1977
1977
1977
1978
1978
1978
1977
1977
1976
1975
1974
1975
1976
1978
1980
1981
1981
1981
1981
1981
1981
1980
1980
1979
1979
1978
1977
1977
1976
1976
1976
1976
1976
1977
1979
1979
1979
1975
1968
1959
1950
1947
1953
1972
2003
2043
2082
2114
2127
2116
2086
2046
2007
1982
1971
1971
1974
1976
1975
1973
1972
1972
1972
1972
1972
1972
1971
1971
1970
1970
1971
1971
1972
1972
1973
1973
1972
1972
1972
1972
1972
1973
1973
1974
1974
1975
1975
1974
1974
1974
1974
1975
1975
1976
1977
1977
1977
1977
1977
1977
1978
1979
1980
1981
1982
1983
1984
1984
1985
1986
1987
1988
1990
1991
1993
1993
1994
1994
1995
1995
1994
1994
1993
1991
1989
1987
1984
1981
1979
1977
1976
1976
1976
1976
1975
1975
1974
1973
1973
1973
1974
1974
1974
1975
1975
1975
1975
1974
1973
1973
1973
1973
1974
1974
1974
1974
1974
1973
1973
1973
1973
1973
1974
1974
1974
1974
1974
1973
1973
1972
1972
1973
1974
1974
1974
1974
1974
1973
1973
1973
1973
1973
1974
1974
1974
1974
1973
1973
1973
1973
1973
1974
1974
1974
1974
1974
1973
1973
1972
1972
1972
1973
1973
1974
1974
1973
1973
1972
1972
1972
1972
1972
1972
1973
1973
1973
1972
1972
1972
1972
1973
1973
1974
1974
1973
1973
1972
1972
1971
1971
1971
1972
1972
1972
1973
1973
1972
1972
1971
1971
1971
1972
1973
1973
1973
1973
1973
1973
1972
1972
1972
1972
1972
1973
1973
1973
1973
1973
1972
1971
1971
1971
1972
1973
1973
1973
1973
1973
1972
1972
1972
1972
1972
1972
1972
1972
1971
1970
1969
1970
1971
1973
1976
1977
1978
1978
1977
1976
1975
1974
1974
1973
1973
1972
1972
1972
1971
1971
1971
1971
1971
1972
1974
1975
1973
1968
1960
1950
1943
1945
1957
1982
2018
2057
2093
2115
2114
2092
2054
2015
1984
1968
1965
1967
1970
1970
1969
1967
1966
1966
1966
1966
1966
1967
1967
1966
1966
1966
1965
1965
1966
1967
1967
1968
1968
1967
1967
1967
1967
1967
1967
1967
1968
1969
1969
1969
1969
1969
1968
1968
1969
1969
1970
1971
1972
1972
1972
1972
1972
1973
1973
1975
1976
1978
1979
1980
1980
1980
1981
1982
1984
1985
1987
1988
1989
1990
1989
1989
1988
1986
1984
1983
1981
1979
1978
1976
1974
1972
1970
1969
1969
1969
1969
1969
1969
1968
1968
1968
1967
1967
1967
1968
1968
1969
1969
1968
1968
1968
1967
1967
1968
1968
1969
1969
1970
1969
1969
1968
1968
1968
1968
1969
1969
1969
1970
1970
1970
1970
1969
1969
1969
1969
1970
1971
1972
1971
1971
1970
1969
1969
1970
1971
1971
1971
1971
1971
1971
1971
1970
1971
1971
1971
1972
1972
1972
1972
1972
1972
1971
1971
1971
1971
1972
1972
1972
1972
1972
1972
1972
1972
1972
1972
1972
1972
1972
1972
1971
1971
1971
1972
1972
1973
1973
1973
1973
1973
1973
1973
1972
1972
1972
1972
1973
1973
1973
1972
1972
1971
1971
1971
1971
1972
1972
1973
1973
1973
1972
1972
1972
1971
1972
1972
1973
1973
1973
1973
1973
1972
1972
1972
1972
1972
1972
1972
1971
1971
1970
1971
1972
1974
1976
1977
1978
1978
1977
1977
1976
1975
1973
1973
1972
1972
1972
1972
1972
1971
1971
1970
1971
1972
1973
1973
1970
1963
1953
1945
1944
1953
1975
2008
2048
2085
2111
2117
2100
2066
2026
1991
1971
1964
1965
1969
1971
1970
1969
1968
1966
1965
1965
1965
1965
1965
1966
1967
1967
1967
1967
1967
1967
1967
1967
1967
1968
1968
1969
1969
1969
1968
1968
1968
1969
1969
1970
1971
1971
1972
1972
1971
1971
1971
1972
1973
1974
1974
1975
1976
1976
1976
1977
1978
1979
1980
1982
1983
1984
1985
1985
1986
1987
1989
1990
1992
1993
1994
1993
1993
1991
1989
1986
1984
1982
1980
1979
1977
1976
1974
1973
1972
1971
1971
1971
1971
1971
1971
1971
1971
1971
1971
1971
1970
1970
1971
1972
1972
1972
1972
1972
1971
1971
1971
1971
1971
1972
1972
1972
1972
1972
1972
1971
1971
1972
1972
1972
1973
1973
1973
1973
1972
1972
1972
1972
1973
1973
1973
1973
1973
1973
1973
1972
1972
1972
1972
1973
1973
1974
1973
1973
1973
1972
1972
1972
1973
1973
1974
1974
1975
1974
1974
1973
1973
1973
1973
1973
1974
1974
1974
1974
1974
1974
1973
1973
1973
1974
1974
1975
1975
1975
1975
1974
1973
1973
1974
1974
1974
1974
1974
1974
1974
1973
1973
1973
1974
1974
1975
1975
1975
1974
1974
1973
1973
1973
1974
1975
1975
1975
1975
1974
1974
1973
1973
1974
1974
1975
1975
1974
1974
1974
1974
1974
1974
1974
1974
1973
1973
1972
1972
1973
1974
1976
1978
1979
1980
1980
1980
1979
1978
1977
1976
1975
1974
1974
1974
1975
1975
1975
1974
1974
1974
1975
1975
1975
1972
1966
1958
1950
1947
1954
1973
2002
2040
2076
2105
2116
2105
2074
2035
1999
1976
1966
1966
1969
1971
1971
1970
1969
1968
1967
1966
1966
1965
1965
1966
1967
1967
1967
1966
1966
1966
1966
1966
1967
1967
1968
1968
1968
1968
1968
1968
1968
1968
1968
1969
1969
1970
1970
1971
1971
1971
1971
1971
1971
1972
1974
1974
1975
1975
1976
1976
1976
1977
1978
1979
1981
1982
1984
1984
1985
1985
1986
1987
1988
1990
1991
1991
1991
1990
1988
1986
1983
1981
1979
1977
1975
1974
1973
1972
1971
1970
1969
1968
1968
1969
1970
1970
1970
1969
1969
1968
1968
1968
1968
1969
1970
1970
1971
1971
1970
1970
1970
1970
1970
1970
1971
1972
1972
1972
