1974
1974
1974
1975
1975
1976
1974
1973
1972
1972
1973
1976
1978
1978
1976
1974
1972
1972
1972
1972
1973
1972
1972
1972
1972
1972
1971
1972
1970
1970
1969
1968
1969
1969
1970
1971
1970
1971
1969
1967
1966
1967
1969
1972
1975
1974
1972
1970
1966
1966
1965
1967
1967
1967
1968
1968
1967
1967
1967
1967
1967
1967
1967
1967
1967
1967
1969
1969
1968
1967
1965
1966
1968
1972
1975
1975
1973
1969
1967
1965
1967
1967
1967
1968
1968
1969
1970
1970
1969
1966
1963
1962
1966
1976
1989
2002
2009
2010
2007
1999
1992
1984
1978
1975
1975
1977
1978
1977
1973
1969
1966
1964
1967
1967
1968
1968
1968
1968
1968
1968
1969
1969
1970
1970
1970
1969
1969
1969
1971
1971
1971
1970
1969
1970
1971
1975
1978
1980
1979
1977
1975
1973
1974
1974
1975
1975
1975
1976
1976
1977
1977
1978
1978
1979
1980
1981
1981
1981
1981
1981
1981
1980
1981
1981
1980
1980
1980
1981
1982
1982
1981
1978
1975
1972
1971
1972
1972
1971
1971
1970
1969
1969
1969
1970
1970
1970
1970
1969
1969
1969
1969
1969
1970
1970
1970
1969
1969
1970
1972
1973
1975
1974
1972
1971
1970
1971
1972
1973
1973
1973
1974
1974
1974
1975
1975
1975
1975
1976
1976
1976
1976
1975
1977
1977
1977
1977
1976
1975
1976
1979
1981
1982
1981
1980
1979
1978
1980
1980
1981
1981
1981
1981
1982
1983
1983
1983
1983
1983
1983
1984
1984
1985
1986
1988
1988
1987
1987
1985
1985
1986
1989
1993
1995
1995
1993
1992
1990
1990
1990
1991
1993
1993
1994
1995
1995
1995
1995
1995
1995
1995
1996
1996
1996
1997
1997
1998
1999
1999
1999
1999
1999
2001
2003
2005
2005
2004
2002
2001
2000
2002
2003
2004
2005
2005
2006
2006
2007
2008
2008
2008
2009
2010
2011
2011
2012
2012
2014
2014
2013
2011
2010
2009
2011
2015
2019
2020
2019
2016
2014
2012
2014
2015
2015
2016
2017
2018
2018
2017
2017
2017
2018
2019
2021
2022
2023
2024
2024
2026
2027
2026
2024
2023
2023
2024
2024
2025
2026
2028
2030
2032
2031
2027
2021
2018
2020
2029
2042
2054
2063
2066
2064
2059
2054
2049
2046
2042
2038
2036
2034
2035
2035
2035
2032
2030
2030
2033
2037
2040
2040
2038
2036
2034
2034
2036
2037
2038
2038
2038
2039
2039
2040
2040
2040
2041
2041
2042
2042
2042
2043
2044
2045
2045
2045
2045
2046
2046
2048
2050
2051
2052
2053
2052
2051
2050
2050
2050
2051
2052
2054
2055
2055
2056
2057
2058
2059
2059
2058
2058
2057
2057
2056
2057
2056
2056
2055
2053
2051
2050
2050
2051
2053
2052
2050
2049
2048
2048
2048
2048
2048
2048
2048
2048
2048
2048
2049
2049
2049
2050
2050
2050
2050
2048
2049
2049
2049
2049
2048
2048
2049
2051
2053
2054
2054
2053
2051
2050
2050
2051
2050
2051
2051
2051
2051
2051
2051
2051
2051
2052
2052
2051
2051
2051
2050
2052
2052
2052
2051
2049
2048
2048
2051
2055
2057
2057
2055
2053
2051
2051
2052
2052
2052
2051
2051
2052
2052
2052
2053
2053
2052
2052
2051
2050
2050
2049
2050
2051
2051
2051
2050
2049
2049
2051
2054
2055
2055
2053
2051
2049
2048
2048
2048
2048
2049
2050
2051
2052
2052
2053
2052
2052
2052
2052
2051
2051
2052
2052
2054
2054
2053
2052
2050
2049
2050
2054
2057
2058
2057
2054
2052
2050
2052
2052
2053
2054
2054
2054
2054
2053
2053
2053
2053
2053
2053
2054
2054
2055
2055
2057
2057
2057
2055
2053
2052
2053
2056
2058
2059
2058
2056
2054
2053
2054
2053
2051
2048
2049
2054
2064
2076
2087
2092
2091
2087
2081
2075
2071
2066
2063
2058
2058
2058
2057
2055
2052
2050
2052
2057
2061
2063
2061
2058
2055
2053
2054
2054
2056
2055
2056
2056
2056
2057
2057
2057
2058
2058
2058
2059
2059
2059
2058
2059
2059
2060
2059
2060
2059
2060
2061
2063
2064
2064
2064
2064
2063
2063
2063
2063
2063
2064
2065
2066
2066
2067
2067
2067
2067
2067
2067
2067
2068
2067
2067
2066
2065
2063
2062
2060
2059
2059
2060
2060
2058
2057
2055
2054
2054
2055
2055
2056
2056
2056
2056
2056
2056
2057
2057
2057
2057
2056
2056
2056
2055
2057
2057
2056
2055
2053
2052
2053
2054
2057
2058
2057
2055
2054
2052
2053
2053
2053
2053
2053
2053
2053
2054
2054
2054
2055
2054
2054
2053
2053
2053
2054
2054
2055
2054
2054
2053
2052
2052
2054
2056
2058
2058
2057
2056
2056
2056
2058
2058
2058
2057
2056
2057
2057
2058
2059
2060
2060
2059
2058
2056
2055
2055
2055
2058
2058
2058
2056
2054
2054
2055
2057
2060
2061
2061
2059
2058
2057
2058
2057
2057
2057
2057
2058
2058
2059
2059
2059
2059
2060
2060
2060
2059
2059
2058
2060
2059
2058
2057
2055
2055
2056
2060
2063
2065
2065
2062
2060
2057
2058
2057
2057
2058
2058
2058
2059
2058
2058
2057
2057
2057
2058
2058
2059
2060
2059
2061
2061
2060
2059
2057
2057
2058
2061
2064
2065
2064
2062
2060
2058
2059
2059
2060
2061
2061
2061
2061
2061
2060
2059
2059
2059
2059
2059
2059
2058
2059
2058
2060
2060
2059
2057
2054
2052
2052
2057
2066
2077
2086
2093
2095
2092
2090
2085
2081
2076
2071
2067
2064
2063
2062
2061
2061
2060
2059
2059
2059
2059
2059
2060
2059
2058
2057
2057
2057
2058
2061
2062
2062
2062
2061
2061
2061
2061
2061
2061
2060
2061
2060
2061
2061
2062
2063
2063
2064
2064
2065
2065
2065
2065
2065
2065
2065
2065
2065
2065
2066
2068
2070
2071
2071
2069
2069
2068
2070
2071
2072
2072
2072
2072
2071
2071
2070
2068
2067
2066
2065
2064
2063
2062
2060
2061
2060
2060
2058
2056
2056
2056
2058
2060
2061
2060
2058
2056
2055
2056
2056
2056
2057
2058
2058
2056
2054
2053
2054
2057
2061
2063
2062
2059
2056
2054
2056
2058
2060
2059
2057
2054
2053
2055
2058
2062
2063
2062
2059
2057
2056
2056
2056
2056
2056
2056
2056
2057
2057
2056
2056
2056
2055
2055
2055
2054
2055
2055
2057
2057
2058
2056
2055
2054
2055
2057
2059
2059
2058
2057
2055
2053
2054
2054
2054
2054
2053
2053
2053
2054
2055
2055
2055
2055
2055
2055
2055
2055
2054
2057
2056
2056
2054
2052
2052
2053
2057
2060
2062
2061
2058
2056
2054
2055
2055
2055
2056
2057
2057
2057
2057
2057
2057
2057
2057
2057
2057
2057
2057
2057
2058
2058
2058
2057
2055
2055
2056
2059
2062
2062
2061
2059
2056
2055
2056
2056
2057
2058
2058
2058
2058
2057
2057
2056
2056
2057
2057
2058
2057
2057
2056
2056
2058
2058
2057
2055
2054
2054
2057
2061
2063
2063
2060
2055
2052
2051
2054
2055
2057
2056
2053
2049
2048
2050
2059
2072
2084
2093
2094
2091
2085
2079
2073
2069
2065
2062
2058
2056
2055
2056
2057
2058
2057
2055
2053
2053
2054
2056
2058
2057
2056
2054
2052
2053
2053
2053
2054
2055
2055
2055
2055
2055
2054
2055
2055
2056
2056
2056
2056
2056
2058
2060
2062
2063
2061
2059
2058
2057
2058
2059
2060
2061
2061
2062
2063
2065
2066
2068
2068
2068
2068
2067
2067
2067
2067
2068
2068
2067
2065
2063
2063
2063
2065
2066
2065
2062
2059
2056
2055
2056
2057
2057
2056
2055
2054
2053
2054
2055
2056
2056
2055
2054
2053
2053
2053
2054
2056
2058
2059
2058
2056
2055
2056
2059
2063
2065
2066
2064
2062
2061
2062
2062
2061
2061
2060
2060
2060
2060
2060
2060
2060
2060
2059
2057
2055
2055
2055
2056
2058
2058
2057
2055
2053
2053
2054
2057
2059
2058
2056
2053
2050
2048
2048
2048
2048
2048
2048
2048
2048
2048
2048
2047
2046
2046
2046
2046
2046
2045
2043
2043
2042
2041
2040
2038
2038
2039
2043
2046
2046
2044
2040
2038
2036
2039
2040
2041
2041
2040
2038
2036
2034
2034
2033
2033
2033
2033
2032
2032
2032
2031
2032
2032
2032
2031
2030
2030
2031
2033
2035
2036
2035
2032
2030
2028
2029
2029
2029
2028
2027
2027
2028
2029
2029
2030
2030
2031
2032
2033
2032
2031
2031
2029
2031
2031
2032
2030
2027
2026
2028
2033
2037
2038
2037
2034
2032
2030
2032
2032
2033
2033
2033
2034
2035
2035
2035
2035
2035
2035
2035
2036
2035
2033
2030
2030
2034
2043
2054
2065
2073
2075
2075
2070
2064
2057
2050
2046
2043
2043
2043
2043
2041
2040
2040
2040
2041
2041
2041
2041
2041
2042
2042
2043
2043
2044
2045
2046
2046
2044
2043
2043
2044
2047
2049
2051
2050
2049
2048
2048
2049
2049
2049
2049
2050
2051
2051
2053
2053
2055
2055
2056
2056
2056
2056
2056
2057
2059
2060
2061
2059
2058
2058
2059
2062
2066
2068
2068
2067
2065
2064
2064
2064
2063
2062
2061
2059
2058
2058
2058
2058
2058
2058
2057
2057
2057
2057
2058
2058
2059
2059
2058
2056
2055
2055
2056
2059
2061
2060
2059
2057
2056
2056
2057
2056
2057
2056
2057
2058
2058
2059
2059
2059
2058
2058
2058
2058
2058
2058
2059
2060
2060
2060
2058
2057
2057
2057
2059
2061
2061
2060
2057
2055
2053
2054
2055
2055
2056
2055
2055
2055
2054
2054
2054
2054
2054
2053
2054
2054
2054
2054
2056
2055
2053
2050
2048
2048
2051
2055
2058
2060
2058
2055
2054
2052
2053
2053
2052
2052
2051
2051
2051
2051
2050
2050
2050
2049
2049
2049
2049
2049
2049
2050
2048
2048
2046
2045
2045
2048
2050
2053
2053
2051
2048
2046
2044
2044
2044
2045
2046
2046
2046
2046
2045
2044
2044
2044
2044
2044
2045
2044
2043
2042
2041
2043
2042
2040
2038
2038
2039
2040
2041
2041
2042
2043
2046
2046
2045
2042
2037
2035
2035
2038
2039
2038
2037
2036
2035
2035
2035
2035
2035
2034
2033
2034
2034
2035
2034
2031
2027
2025
2028
2037
2049
2063
2071
2072
2067
2061
2056
2053
2050
2048
2044
2039
2037
2036
2035
2036
2036
2034
2033
2033
2033
2034
2033
2034
2033
2033
2032
2031
2030
2030
2031
2033
2034
2034
2033
2032
2030
2030
2031
2031
2032
2032
2032
2032
2032
2033
2034
2034
2035
2035
2034
2035
2036
2036
2038
2038
2039
2038
2038
2039
2041
2044
2046
2047
2046
2045
2044
2043
2044
2044
2044
2043
2043
2042
2042
2042
2042
2041
2039
2038
2037
2036
2035
2034
2034
2033
2034
2034
2033
2032
2030
2031
2032
2035
2038
2038
2037
2035
2034
2034
2033
2033
2032
2031
2031
2032
2033
2034
2034
2035
2035
2034
2034
2033
2033
2034
2035
2036
2036
2035
2033
2031
2031
2032
2034
2037
2038
2038
2036
2034
2033
2033
2034
2035
2036
2037
2037
2037
2036
2036
2036
2036
2036
2036
2036
2036
2036
2035
2038
2038
2038
2037
2035
2034
2035
2038
2041
2042
2042
2040
2038
2035
2036
2036
2036
2037
2038
2038
2036
2034
2033
2033
2035
2038
2040
2041
2040
2040
2039
2040
2040
2039
2038
2036
2035
2035
2038
2042
2044
2043
2041
2038
2036
2037
2037
2039
2039
2038
2037
2037
2036
2037
2038
2039
2040
2041
2041
2041
2041
2041
2040
2043
2044
2043
2041
2037
2036
2039
2043
2047
2048
2045
2041
2037
2035
2037
2037
2039
2039
2039
2039
2039
2039
2039
2039
2040
2040
2041
2041
2042
2041
2040
2040
2040
2039
2038
2037
2037
2038
2042
2045
2046
2045
2044
2042
2041
2041
2041
2042
2043
2045
2045
2044
2042
2040
2039
2039
2040
2040
2040
2039
2036
2034
2032
2033
2038
2046
2056
2067
2074
2078
2077
2073
2065
2059
2052
2048
2044
2043
2043
2043
2043
2043
2042
2041
2040
2039
2040
2040
2041
2041
2040
2040
2040
2041
2041
2041
2039
2038
2038
2040
2045
2048
2049
2048
2046
2043
2042
2043
2044
2045
2045
2045
2045
2046
2046
2046
2046
2045
2045
2045
2046
2047
2048
2048
2048
2049
2049
2049
2048
2048
2048
2052
2056
2059
2060
2058
2056
2054
2054
2054
2053
2053
2052
2051
2051
2050
2049
2048
2047
2045
2044
2044
2043
2043
2043
2043
2045
2044
2043
2039
2034
2032
2035
2041
2048
2050
2049
2045
2040
2037
2039
2040
2041
2041
2041
2041
2042
2042
2042
2042
2042
2042
2042
2042
2043
2043
2042
2043
2043
2043
2041
2040
2039
2040
2044
2047
2048
2047
2045
2042
2040
2042
2042
2043
2042
2042
2042
2042
2042
2042
2042
2042
2042
2042
2042
2042
2042
2041
2042
2042
2042
2042
2040
2039
2039
2041
2043
2046
2046
2044
2041
2039
2038
2039
2040
2041
2042
2042
2041
2041
2041
2041
2041
2042
2041
2041
2040
2039
2039
2040
2041
2042
2041
2039
2038
2038
2041
2044
2046
2047
2044
2042
2039
2039
2040
2042
2043
2043
2042
2042
2040
2040
2040
2041
2041
2041
2041
2040
2039
2039
2038
2038
2038
2038
2037
2037
2038
2041
2044
2047
2047
2045
2042
2039
2039
2040
2041
2041
2041
2040
2041
2043
2044
2044
2044
2043
2043
2042
2042
2042
2041
2041
2043
2044
2044
2041
2039
2036
2038
2042
2047
2050
2051
2049
2046
2043
2042
2042
2042
2042
2042
2041
2040
2039
2039
2039
2041
2041
2041
2039
2035
2032
2034
2043
2055
2068
2076
2077
2073
2068
2064
2061
2058
2055
2049
2045
2043
2042
2042
2042
2042
2042
2041
2041
2041
2041
2041
2042
2043
2042
2042
2042
2042
2043
2044
2045
2045
2045
2044
2043
2044
2047
2050
2052
2052
2050
2048
2046
2045
2046
2047
2048
2048
2047
2045
2044
2046
2049
2053
2056
2055
2052
2048
2047
2048
2049
2054
2055
2056
2053
2050
2048
2049
2054
2060
2062
2061
2057
2052
2049
2049
2050
2049
2048
2047
2047
2047
2047
2046
2045
2044
2043
2042
2042
2042
2041
2040
2041
2040
2039
2037
2035
2036
2038
2041
2044
2045
2043
2041
2039
2038
2040
2040
2040
2040
2040
2041
2042
2042
2042
2042
2042
2042
2043
2043
2043
2043
2043
2043
2044
2043
2042
2041
2041
2042
2045
2047
2048
2048
2046
2044
2043
2043
2044
2044
2045
2044
2044
2043
2043
2042
2043
2043
2043
2044
2044
2043
2043
2043
2044
2045
2045
2044
2043
2042
2043
2045
2048
2049
2049
2047
2045
2043
2043
2044
2045
2046
2047
2047
2046
2046
2046
2046
2046
2046
2046
2046
2047
2047
2048
2048
2048
2048
2047
2045
2045
2046
2048
2050
2052
2051
2050
2048
2047
2048
2049
2049
2049
2048
2048
2048
2049
2050
2050
2050
2050
2049
2048
2048
2048
2048
2048
2049
2048
2048
2047
2046
2047
2048
2049
2050
2049
2048
2048
2048
2048
2049
2049
2049
2050
2050
2050
2050
2050
2051
2051
2051
2052
2053
2053
2053
2053
2052
2052
2052
2051
2050
2049
2048
2047
2048
2050
2051
2052
2050
2048
2045
2043
2044
2049
2060
2072
2082
2089
2089
2085
2080
2074
2069
2065
2060
2057
2054
2054
2054
2055
2055
2054
2052
2050
2050
2052
2054
2056
2056
2055
2053
2052
2052
2052
2052
2052
2051
2051
2053
2054
2055
2055
2056
2056
2056
2056
2056
2056
2057
2057
2061
2063
2064
2062
2059
2057
2059
2063
2069
2073
2072
2069
2066
2063
2065
2066
2067
2067
2067
2068
2068
2069
2069
2069
2068
2068
2067
2067
2068
2068
2066
2067
2066
2065
2063
2060
2058
2058
2060
2063
2064
2063
2060
2057
2053
2054
2054
2054
2054
2054
2054
2054
2054
2054
2054
2056
2057
2058
2058
2058
2057
2056
2057
2059
2058
2059
2057
2057
2058
2060
2062
2064
2064
2063
2061
2060
2059
2060
2060
2061
2061
2061
2061
2061
2060
2060
2060
2059
2059
2059
2059
2059
2059
2059
2059
2060
2060
2059
2058
2058
2060
2063
2065
2065
2064
2061
2059
2058
2059
2061
2061
2062
2062
2063
2063
2064
2064
2064
2064
2064
2064
2064
2064
2064
2063
2063
2063
2063
2062
2062
2063
2064
2066
2068
2068
2067
2065
2063
2063
2064
2064
2066
2065
2064
2063
2063
2064
2064
2065
2066
2066
2067
2067
2067
2066
2066
2067
2066
2066
2066
2066
2066
2068
2069
2070
2069
2068
2066
2065
2065
2066
2066
2066
2067
2067
2067
2066
2066
2066
2066
2066
2066
2066
2065
2065
2065
2065
2067
2068
2068
2067
2065
2064
2065
2067
2069
2070
2069
2067
2066
2066
2066
2066
2066
2065
2065
2065
2065
2066
2067
2067
2067
2067
2066
2066
2066
2065
2065
2066
2066
2065
2064
2063
2063
2063
2066
2068
2068
2068
2066
2064
2063
2063
2063
2063
2062
2061
2061
2062
2062
2063
2063
2063
2062
2060
2057
2054
2057
2064
2077
2090
2099
2101
2096
2089
2083
2081
2080
2078
2074
2069
2065
2061
2060
2060
2060
2059
2058
2057
2056
2056
2056
2055
2055
2055
2055
2056
2056
2057
2057
2055
2057
2057
2056
2055
2053
2052
2054
2058
2061
2063
2062
2059
2057
2055
2057
2058
2058
2058
2058
2059
2059
2059
2059
2058
2058
2057
2058
2058
2059
2059
2060
2061
2061
2061
2060
2058
2058
2059
2061
2064
2064
2063
2059
2056
2053
2052
2051
2050
2049
2048
2048
2047
2046
2046
2045
2044
2043
2042
2041
2040
2040
2039
2039
2041
2041
2041
2037
2033
2031
2032
2037
2042
2044
2043
2040
2037
2034
2035
2035
2036
2036
2035
2036
2036
2036
2035
2034
2034
2033
2033
2033
2033
2032
2033
2033
2032
2030
2028
2028
2029
2031
2033
2033
2030
2027
2026
2025
2027
2028
2028
2028
2028
2028
2027
2027
2026
2027
2028
2029
2029
2027
2026
2024
2024
2022
2024
2025
2024
2023
2021
2019
2020
2022
2025
2026
2026
2025
2023
2021
2021
2022
2022
2022
2021
2021
2021
2021
2021
2021
2021
2021
2021
2021
2020
2020
2018
2018
2019
2018
2017
2016
2015
2014
2016
2018
2020
2020
2019
2017
2016
2016
2017
2016
2017
2017
2017
2017
2017
2017
2017
2016
2016
2016
2015
2016
2016
2016
2016
2016
2017
2016
2015
2013
2013
2014
2015
2017
2018
2017
2016
2015
2014
2014
2015
2014
2013
2013
2013
2014
2014
2016
2017
2017
2017
2016
2016
2016
2016
2017
2017
2018
2018
2016
2015
2015
2016
2018
2022
2022
2020
2015
2011
2009
2016
2027
2041
2050
2055
2055
2050
2045
2040
2035
2030
2026
2022
2020
2019
2019
2018
2019
2018
2017
2016
2014
2013
2014
2017
2020
2022
2022
2020
2019
2017
2019
2020
2020
2021
2021
2021
2022
2022
2023
2023
2024
2024
2025
2024
2023
2023
2023
2024
2025
2024
2023
2022
2022
2024
2027
2029
2030
2030
2028
2027
2027
2029
2030
2031
2031
2032
2032
2033
2034
2035
2036
2037
2037
2037
2037
2036
2035
2034
2032
2033
2032
2032
2028
2023
2021
2021
2025
2029
2031
2029
2025
2021
2018
2020
2021
2023
2023
2023
2023
2023
2024
2024
2025
2026
2026
2025
2025
2025
2025
2024
2027
2026
2026
2024
2023
2023
2025
2029
2032
2032
2031
2029
2028
2027
2030
2031
2031
2031
2032
2032
2031
2031
2030
2030
2031
2032
2033
2034
2033
2032
2032
2032
2033
2034
2034
2033
2032
2033
2034
2036
2037
2037
2036
2035
2033
2033
2033
2033
2033
2032
2033
2033
2034
2034
2034
2034
2034
2034
2034
2034
2034
2033
2033
2034
2035
2034
2034
2033
2034
2035
2038
2040
2040
2039
2037
2036
2036
2037
2039
2039
2039
2039
2038
2038
2039
2039
2039
2039
2039
2039
2040
2040
2040
2040
2040
2040
2039
2038
2038
2039
2040
2042
2042
2042
2040
2039
2039
2040
2041
2041
2040
2040
2040
2041
2042
2042
2042
2042
2041
2041
2041
2040
2040
2041
2041
2042
2044
2044
2043
2042
2041
2043
2046
2048
2048
2048
2046
2044
2042
2042
2042
2042
2042
2042
2042
2043
2043
2043
2043
2043
2044
2044
2044
2044
2044
2044
2047
2048
2048
2046
2043
2042
2043
2048
2052
2055
2054
2049
2046
2043
2044
2045
2048
2048
2047
2046
2043
2041
2044
2051
2063
2075
2083
2086
2082
2077
2071
2068
2065
2062
2058
2053
2050
2050
2051
2054
2055
2054
2052
2050
2049
2050
2052
2053
2053
2052
2052
2052
2052
2052
2052
2053
2054
2055
2056
2056
2056
2057
2057
2058
2059
2059
2057
2055
2055
2057
2060
2064
2065
2063
2061
2059
2058
2060
2061
2063
2064
2065
2065
2066
2066
2067
2067
2068
2069
2070
2070
2071
2070
2070
2071
2071
2072
2071
2070
2068
2068
2068
2068
2068
2066
2063
2060
2059
2058
2058
2058
2058
2058
2058
2058
2058
2057
2056
2056
2057
2058
2059
2058
2057
2057
2057
2057
2057
2055
2054
2054
2056
2058
2060
2061
2060
2057
2055
2055
2056
2057
2058
2058
2058
2058
2058
2058
2058
2058
2059
2059
2059
2059
2058
2058
2058
2058
2058
2058
2056
2055
2054
2054
2056
2058
2059
2058
2057
2056
2056
2056
2056
2056
2056
2056
2056
2057
2057
2057
2057
2056
2056
2055
2055
2055
2055
2055
2056
2057
2056
2055
2053
2052
2053
2055
2057
2057
2056
2054
2052
2051
2052
2052
2052
2052
2052
2052
2053
2054
2055
2056
2057
2056
2056
2055
2055
2055
2055
2056
2058
2057
2057
2054
2053
2054
2057
2061
2064
2064
2062
2060
2058
2057
2059
2063
2063
2059
2054
2051
2053
2061
2073
2080
2079
2072
2064
2059
2058
2062
2064
2066
2065
2065
2063
2061
2060
2062
2065
2068
2070
2069
2067
2065
2063
2066
2066
2067
2067
2067
2067
2068
2067
2066
2065
2064
2063
2063
2063
2063
2063
2064
2066
2068
2068
2068
2066
2065
2065
2066
2069
2070
2070
2069
2066
2065
2064
2064
2064
2065
2065
2064
2062
2058
2056
2058
2067
2081
2096
2107
2111
2108
2102
2094
2090
2085
2081
2073
2065
2061
2062
2066
2072
2075
2074
2069
2065
2061
2063
2063
2066
2065
2065
2064
2064
2064
2064
2064
2065
2065
2065
2065
2064
2065
2064
2065
2065
2065
2064
2062
2061
2063
2066
2069
2071
2070
2066
2065
2064
2067
2068
2067
2065
2062
2060
2062
2064
2066
2067
2067
2067
2070
2075
2080
2082
2079
2077
2074
2071
2070
2069
2069
2071
2074
2076
2074
2070
2065
2062
2060
2061
2062
2061
2059
2058
2058
2059
2059
2059
2059
2059
2058
2058
2057
2056
2055
2053
2053
2053
2053
2053
2050
2049
2048
2050
2053
2054
2054
2052
2049
2048
2048
2048
2049
2049
2048
2048
2048
2048
2048
2048
2048
2047
2045
2042
2039
2039
2040
2042
2043
2043
2041
2037
2033
2032
2033
2036
2038
2038
2036
2035
2034
2034
2035
2036
2037
2036
2035
2035
2035
2036
2037
2037
2037
2036
2034
2034
2034
2034
2035
2037
2036
2036
2034
2032
2031
2032
2035
2039
2040
2039
2035
2031
2027
2027
2028
2030
2031
2031
2031
2032
2033
2034
2034
2034
2034
2035
2036
2035
2033
2029
2028
2026
2027
2026
2026
2026
2028
2031
2032
2032
2028
2023
2020
2019
2021
2020
2020
2020
2020
2020
2021
2020
2019
2018
2018
2018
2018
2018
2018
2018
2018
2019
2019
2018
2016
2014
2013
2015
2018
2020
2021
2019
2016
2014
2013
2014
2015
2016
2016
2015
2014
2013
2012
2011
2011
2011
2012
2013
2014
2014
2013
2010
2007
2006
2006
2011
2017
2025
2034
2043
2048
2050
2047
2039
2028
2018
2010
2008
2005
2005
2004
2004
2004
2002
2002
2001
2001
2002
2002
2002
2001
2000
1999
1999
2000
2000
2000
1998
1996
1997
2000
2004
2007
2007
2005
2001
1999
1998
2000
2001
2002
2002
2003
2003
2003
2004
2004
2004
2003
2003
2004
2005
2007
2008
2007
2009
2009
2010
2011
2011
2011
2013
2015
2017
2019
2018
2017
2016
2014
2016
2016
2015
2014
2013
2012
2011
2011
2011
2010
2009
2008
2007
2006
2005
2005
2005
2005
2005
2005
2005
2004
2004
2004
2006
2008
2009
2009
2008
2007
2006
2006
2007
2007
2007
2008
2009
2009
2009
2008
2008
2008
2008
2009
2010
2010
2010
2010
2009
2009
2009
2009
2008
2008
2007
2009
2010
2011
2012
2011
2009
2008
2008
2008
2008
2008
2007
2007
2008
2008
2008
2009
2009
2009
2008
2008
2007
2007
2007
2008
2009
2010
2010
2009
2007
2006
2007
2010
2012
2013
2012
2011
2009
2007
2008
2009
2010
2011
2011
2010
2010
2010
2010
2010
2010
2010
2010
2011
2011
2012
2011
2013
2013
2013
2012
2010
2010
2010
2013
2016
2018
2018
2016
2015
2013
2014
2014
2015
2015
2016
2017
2017
2017
2018
2017
2017
2017
2017
2017
2016
2014
2013
2013
2013
2013
2013
2013
2012
2012
2012
2011
2012
2015
2023
2033
2044
2050
2052
2049
2045
2040
2035
2031
2026
2022
2019
2018
2019
2019
2019
2018
2017
2017
2016
2018
2019
2020
2016
2011
2008
2009
2014
2021
2025
2024
2020
2015
2012
2013
2015
2016
2015
2015
2015
2016
2017
2018
2018
2019
2019
2019
2019
2020
2020
2020
2021
2021
2020
2019
2017
2018
2020
2025
2028
2028
2027
2024
2023
2022
2025
2025
2026
2027
2027
2027
2027
2025
2026
2025
2024
2021
2020
2018
2017
2014
2012
2010
2011
2013
2014
2014
2012
2009
2008
2007
2009
2009
2009
2009
2008
2009
2009
2009
2009
2008
2008
2009
2009
2009
2009
2009
2009
2009
2009
2009
2009
2009
2009
2010
2009
2009
2008
2008
2009
2011
2013
2014
2014
2013
2012
2011
2012
2013
2013
2012
2012
2011
2012
2012
2012
2013
2012
2012
2011
2011
2011
2012
2012
2013
2013
2011
2009
2007
2007
2009
2014
2019
2022
2021
2018
2016
2014
2014
2015
2016
2017
2017
2017
2018
2019
2020
2020
2020
2020
2020
2019
2018
2018
2017
2019
2021
2022
2022
2020
2018
2018
2020
2023
2025
2026
2024
2023
2022
2021
2023
2023
2023
2024
2025
2026
2027
2027
2027
2027
2027
2027
2028
2028
2029
2029
2028
2029
2029
2029
2026
2024
2022
2024
2027
2032
2035
2035
2032
2030
2029
2031
2033
2034
2033
2033
2033
2035
2035
2035
2035
2035
2034
2033
2034
2034
2035
2035
2037
2037
2037
2036
2034
2033
2034
2037
2042
2045
2045
2042
2038
2035
2034
2035
2036
2038
2039
2040
2040
2041
2041
2041
2040
2040
2041
2041
2040
2040
2040
2040
2043
2043
2045
2042
2039
2036
2036
2038
2042
2048
2056
2064
2073
2077
2081
2078
2075
2070
2066
2063
2059
2055
2052
2049
2048
2048
2048
2048
2048
2048
2047
2048
2048
2048
2047
2046
2046
2048
2051
2053
2054
2053
2050
2049
2048
2049
2051
2053
2053
2053
2054
2054
2054
2054
2055
2056
2056
2056
2055
2054
2054
2055
2057
2058
2059
2057
2056
2054
2058
2061
2064
2067
2067
2065
2065
2063
2065
2066
2067
2067
2067
2067
2066
2066
2066
2065
2065
2063
2062
2061
2060
2059
2057
2057
2057
2056
2055
2053
2051
2051
2053
2056
2057
2057
2054
2051
2049
2049
2050
2051
2051
2051
2050
2050
2050
2051
2051
2052
2053
2053
2053
2054
2054
2054
2054
2055
2055
2054
2053
2053
2053
2055
2058
2061
2061
2059
2057
2055
2054
2055
2056
2057
2056
2055
2055
2055
2055
2055
2056
2056
2056
2056
2056
2055
2055
2056
2057
2057
2058
2056
2053
2052
2053
2056
2060
2062
2062
2059
2057
2055
2055
2056
2057
2058
2058
2059
2059
2059
2059
2058
2056
2056
2055
2055
2055
2056
2055
2056
2055
2054
2052
2050
2049
2052
2056
2060
2062
2060
2057
2055
2053
2055
2055
2055
2055
2054
2055
2057
2057
2058
2058
2059
2059
2059
2058
2057
2057
2056
2057
2058
2058
2056
2053
2052
2053
2057
2062
2065
2065
2063
2060
2058
2059
2060
2061
2062
2062
2063
2062
2061
2059
2059
2060
2062
2063
2063
2063
2061
2058
2055
2053
2054
2058
2066
2076
2088
2099
2107
2108
2103
2093
2082
2072
2066
2064
2062
2062
2061
2060
2060
2060
2060
2061
2061
2061
2061
2061
2061
2061
2061
2062
2063
2062
2061
2060
2060
2061
2064
2068
2070
2070
2067
2065
2063
2063
2065
2066
2068
2068
2068
2068
2068
2069
2071
2074
2074
2075
2075
2074
2074
2076
2077
2078
2078
2077
2076
2076
2076
2078
2080
2082
2084
2083
2082
2081
2079
2080
2080
2079
2078
2077
2076
2076
2074
2073
2072
2071
2070
2068
2067
2066
2066
2066
2066
2068
2068
2068
2068
2067
2067
2068
2070
2071
2071
2069
2068
2068
2068
2069
2069
2069
2068
2068
2068
2068
2068
2068
2068
2069
2069
2069
2070
2070
2070
2070
2070
2070
2069
2069
2069
2069
2071
2072
2073
2073
2072
2071
2071
2071
2071
2071
2070
2069
2069
2069
2069
2070
2070
2070
2071
2071
2071
2071
2070
2070
2070
2072
2073
2073
2071
2070
2069
2069
2072
2074
2075
2073
2071
2070
2067
2069
2069
2070
2070
2071
2071
2071
2071
2071
2072
2072
2072
2072
2072
2072
2072
2071
2073
2072
2072
2071
2069
2068
2069
2072
2075
2075
2075
2074
2073
2069
2067
2067
2068
2074
2079
2082
2080
2075
2071
2068
2069
2071
2074
2075
2075
2075
2074
2075
2076
2075
2075
2073
2072
2071
2073
2074
2075
2075
2073
2072
2071
2071
2072
2073
2073
2074
2074
2074
2073
2073
2073
2073
2074
2075
2076
2077
2077
2077
2076
2078
2077
2077
2074
2071
2069
2070
2074
2079
2082
2081
2077
2072
2066
2066
2067
2077
2088
2100
2110
2114
2113
2108
2102
2096
2091
2087
2083
2080
2077
2076
2077
2077
2076
2074
2072
2071
2072
2075
2077
2077
2076
2073
2071
2070
2071
2073
2074
2075
2075
2076
2076
2075
2075
2075
2075
2075
2076
2077
2076
2076
2076
2076
2078
2079
2080
2079
2078
2077
2078
2080
2084
2085
2085
2084
2082
2082
2083
2084
2085
2086
2086
2087
2087
2087
2087
2087
2087
2087
2087
2086
2086
2085
2085
2084
2083
2081
2079
2078
2078
2079
2081
2080
2079
2076
2074
2072
2072
2073
2073
2073
2073
2073
2073
2074
2074
2075
2075
2075
2075
2075
2075
2074
2074
2075
2075
2075
2075
2073
2071
2071
2071
2073
2075
2076
2076
2074
2073
2072
2072
2071
2072
2072
2072
2072
2072
2072
2072
2072
2071
2070
2069
2069
2069
2070
2071
2073
2072
2071
2070
2068
2068
2069
2072
2075
2076
2075
2073
2071
2069
2070
2069
2068
2068
2067
2067
2067
2068
2068
2068
2068
2068
2067
2067
2067
2068
2068
2069
2068
2068
2066
2064
2063
2064
2066
2069
2071
2071
2070
2068
2066
2066
2067
2068
2069
2069
2069
2069
2069
2069
2069
2070
2071
2071
2072
2072
2072
2070
2071
2070
2070
2069
2067
2066
2066
2067
2070
2072
2071
2068
2064
2060
2061
2067
2078
2092
2104
2110
2108
2102
2095
2088
2083
2079
2076
2072
2069
2067
2067
2066
2067
2068
2068
2065
2062
2060
2062
2066
2071
2075
2074
2072
2068
2065
2067
2067
2069
2069
2070
2070
2070
2071
2070
2070
2071
2071
2072
2073
2074
2074
2074
2075
2075
2074
2074
2073
2073
2075
2079
2082
2083
2083
2081
2081
2080
2082
2083
2084
2085
2085
2085
2085
2084
2084
2084
2084
2084
2083
2084
2082
2080
2077
2078
2077
2078
2076
2073
2070
2069
2071
2073
2075
2077
2075
2073
2071
2072
2072
2073
2073
2073
2073
2073
2074
2076
2077
2078
2079
2079
2079
2080
2080
2080
2082
2083
2084
2084
2082
2081
2081
2083
2086
2087
2087
2086
2084
2082
2083
2083
2083
2083
2083
2082
2082
2082
2082
2082
2083
2083
2082
2082
2082
2081
2081
2081
2081
2081
2080
2078
2076
2075
2076
2078
2080
2080
2079
2078
2076
2076
2076
2077
2077
2076
2076
2076
2076
2075
2075
2074
2073
2073
2073
2073
2073
2074
2074
2075
2076
2075
2073
2070
2068
2069
2073
2077
2078
2077
2074
2071
2068
2069
2070
2070
2070
2069
2068
2067
2067
2067
2067
2067
2067
2067
2066
2066
2065
2065
2065
2065
2064
2062
2060
2058
2058
2059
2061
2063
2064
2062
2060
2055
2053
2050
2051
2057
2069
2082
2093
2097
2095
2089
2083
2077
2072
2068
2064
2060
2057
2056
2055
2053
2052
2048
2048
2048
2050
2053
2054
2054
2052
2050
2049
2048
2048
2048
2048
2048
2047
2048
2047
2046
2045
2044
2044
2044
2043
2043
2042
2042
2042
2043
2040
2040
2036
2033
2032
2035
2040
2045
2048
2047
2044
2039
2036
2038
2037
2040
2039
2038
2038
2037
2037
2037
2037
2037
2037
2037
2037
2036
2034
2032
2031
2028
2026
2023
2020
2019
2019
2021
2022
2022
2021
2018
2016
2013
2014
2013
2013
2012
2011
2010
2010
2009
2009
2010
2009
2009
2008
2007
2007
2006
2004
2003
2003
2004
2004
2006
2006
2007
2007
2007
2007
2005
2005
2003
2001
2001
2001
2002
2001
2001
2001
2000
2000
2000
2000
1999
1999
1999
1998
1996
1993
1992
1994
1998
2002
2003
1999
1994
1991
1990
1993
1996
1998
1996
1995
1993
1992
1992
1992
1991
1991
1991
1992
1992
1993
1994
1994
1994
1994
1994
1993
1993
1993
1992
1992
1993
1991
1990
1989
1988
1988
1990
1991
1992
1991
1990
1989
1989
1989
1988
1988
1988
1988
1989
1989
1990
1990
1990
1991
1991
1991
1991
1991
1991
1992
1994
1994
1993
1992
1990
1990
1992
1994
1996
1996
1994
1993
1991
1989
1990
1990
1990
1990
1990
1991
1991
1991
1992
1992
1993
1993
1993
1994
1994
1995
1996
1996
1997
1997
1997
1996
1995
1995
1997
1998
1999
1998
1996
1995
1993
1994
1995
1996
1995
1993
1990
1989
1994
2003
2017
2029
2036
2037
2034
2028
2022
2016
2013
2009
2004
2001
1998
1998
2000
2003
2006
2007
2007
2004
2001
2000
2000
2001
2002
2002
2002
2002
2002
2002
2002
2002
2002
2003
2003
2004
2004
2003
2004
2004
2007
2007
2007
2004
2002
2003
2006
2010
2013
2014
2011
2009
2008
2007
2010
2010
2011
2012
2012
2013
2014
2014
2015
2016
2017
2018
2018
2018
2019
2019
2018
2021
2020
2020
2017
2014
2011
2011
2012
2015
2015
2013
2010
2007
2004
2004
2004
2004
2004
2003
2002
2001
2000
2000
2000
2001
2001
2001
2002
2001
2001
2001
2002
2002
2003
2004
2003
2003
2004
2005
2007
2009
2009
2008
2006
2006
2007
2007
2008
2009
2008
2008
2008
2008
2010
2011
2013
2013
2012
2012
2012
2011
2011
2011
2012
2013
2013
2011
2011
2011
2012
2015
2018
2019
2018
2016
2014
2013
2014
2015
2017
2017
2017
2017
2016
2017
2017
2018
2019
2019
2018
2018
2018
2018
2018
2019
2019
2019
2018
2017
2017
2018
2021
2024
2026
2026
2025
2023
2022
2022
2022
2023
2023
2023
2023
2023
2024
2025
2026
2026
2026
2026
2025
2025
2025
2026
2028
2029
2029
2027
2023
2021
2021
2024
2028
2031
2032
2031
2029
2026
2027
2027
2028
2030
2030
2030
2031
2033
2034
2035
2035
2035
2035
2035
2035
2036
2037
2038
2038
2039
2038
2037
2036
2036
2036
2037
2038
2037
2036
2035
2034
2034
2035
2036
2037
2038
2038
2036
2033
2032
2036
2046
2058
2070
2077
2078
2075
2068
2063
2058
2054
2049
2045
2041
2041
2042
2044
2046
2045
2044
2042
2042
2043
2044
2045
2045
2044
2044
2044
2045
2045
2045
2046
2046
2046
2047
2047
2047
2047
2047
2048
2047
2046
2044
2043
2044
2048
2051
2054
2055
2054
2051
2049
2048
2050
2051
2052
2053
2053
2054
2055
2055
2056
2055
2055
2055
2055
2055
2056
2056
2056
2057
2057
2058
2056
2055
2054
2055
2056
2058
2058
2056
2053
2050
2048
2048
2048
2048
2048
2048
2048
2048
2048
2048
2048
2049
2049
2049
2049
2049
2049
2049
2051
2050
2050
2048
2046
2045
2046
2049
2054
2056
2055
2052
2049
2048
2049
2050
2051
2050
2050
2050
2050
2050
2050
2050
2049
2050
2051
2052
2052
2051
2049
2049
2050
2050
2049
2048
2047
2047
2048
2050
2052
2052
2050
2048
2047
2047
2048
2047
2047
2047
2047
2048
2048
2049
2050
2050
2051
2051
2051
2051
2051
2051
2051
2053
2053
2052
2050
2048
2048
2050
2054
2057
2058
2056
2053
2051
2050
2051
2051
2052
2051
2051
2051
2052
2052
2052
2053
2053
2053
2053
2053
2053
2054
2055
2057
2057
2057
2056
2054
2053
2054
2057
2060
2061
2060
2058
2056
2054
2055
2055
2055
2056
2056
2056
2056
2056
2057
2057
2057
2057
2057
2057
2057
2058
2057
2059
2059
2058
2057
2054
2052
2051
2053
2055
2057
2058
2057
2055
2052
2052
2051
2049
2048
2048
2050
2058
2069
2081
2088
2090
2086
2081
2076
2071
2068
2063
2060
2057
2055
2054
2052
2051
2051
2051
2053
2056
2057
2055
2051
2047
2046
2047
2050
2055
2057
2056
2053
2050
2048
2048
2048
2049
2048
2049
2050
2050
2051
2052
2053
2053
2052
2050
2049
2049
2051
2054
2056
2057
2055
2052
2050
2049
2050
2051
2052
2053
2053
2052
2053
2053
2053
2054
2054
2055
2055
2056
2056
2055
2054
2056
2055
2053
2050
2047
2044
2043
2045
2047
2048
2047
2043
2040
2036
2036
2036
2035
2036
2035
2034
2033
2032
2032
2032
2032
2032
2031
2031
2031
2031
2030
2031
2031
2031
2031
2029
2029
2029
2030
2032
2033
2032
2030
2027
2025
2026
2025
2025
2025
2024
2024
2025
2026
2026
2026
2025
2024
2023
2023
2022
2021
2020
2019
2020
2019
2017
2015
2014
2015
2018
2022
2022
2020
2014
2009
2006
2005
2006
2006
2006
2005
2005
2005
2005
2004
2004
2003
2003
2002
2002
2002
2001
2001
1999
1999
1998
1997
1996
1994
1994
1996
1998
2000
2000
1998
1996
1994
1993
1994
1995
1996
1995
1996
1995
1995
1994
1993
1992
1992
1992
1991
1991
1991
1991
1991
1993
1992
1988
1983
1980
1984
1995
2012
2026
2032
2028
2019
2009
2000
1998
1994
1992
1988
1985
1984
1983
1983
1983
1983
1983
1983
1984
1983
1984
1984
1984
1985
1984
1985
1984
1983
1983
1983
1984
1986
1987
1986
1985
1983
1982
1983
1984
1985
1985
1985
1985
1984
1984
1984
1984
1985
1985
1986
1986
1987
1987
1987
1988
1990
1991
1992
1991
1991
1992
1994
1997
1999
1999
1998
1996
1994
1994
1994
1995
1995
1994
1993
1991
1989
1988
1987
1987
1986
1986
1985
1984
1983
1983
1982
1983
1983
1983
1981
1979
1978
1980
1982
1985
1986
1984
1982
1980
1980
1981
1982
1983
1983
1984
1984
1984
1984
1984
1985
1986
1986
1986
1986
1986
1986
1986
1989
1989
1988
1987
1985
1985
1987
1991
1994
1996
1995
1994
1992
1991
1993
1993
1993
1993
1994
1994
1994
1994
1995
1995
1996
1997
1998
1999
2000
2001
2000
2002
2001
2000
1998
1996
1995
1996
1998
2002
2004
2004
2002
2000
1999
2000
2001
2001
2003
2004
2005
2006
2007
2008
2008
2009
2009
2010
2009
2008
2008
2007
2007
2009
2008
2007
2005
2004
2004
2005
2006
2006
2007
2011
2019
2030
2038
2043
2039
2034
2027
2023
2020
2018
2015
2012
2011
2011
2010
2010
2010
2009
2008
2010
2012
2012
2012
2010
2008
2008
2011
2015
2018
2019
2019
2017
2016
2015
2016
2016
2016
2017
2018
2019
2020
2021
2021
2021
2021
2022
2023
2023
2023
2023
2023
2026
2027
2028
2028
2026
2027
2029
2034
2038
2041
2040
2038
2037
2035
2037
2038
2038
2040
2040
2040
2040
2040
2039
2038
2037
2036
2035
2035
2034
2034
2033
2034
2034
2033
2031
2029
2028
2029
2032
2035
2037
2037
2034
2032
2030
2031
2032
2033
2034
2034
2035
2035
2036
2036
2035
2036
2036
2037
2038
2038
2038
2038
2039
2039
2040
2040
2039
2039
2040
2042
2044
2045
2045
2044
2042
2042
2041
2041
2042
2042
2042
2042
2042
2043
2043
2043
2042
2042
2042
2042
2042
2042
2042
2043
2044
2044
2044
2043
2042
2042
2045
2047
2048
2048
2046
2045
2044
2044
2045
2045
2045
2045
2044
2044
2044
2044
2044
2045
2045
2045
2045
2045
2046
2046
2045
2047
2047
2046
2044
2042
2042
2044
2048
2051
2051
2048
2043
2038
2035
2042
2050
2064
2076
2083
2085
2082
2076
2070
2065
2060
2056
2053
2050
2049
2049
2048
2049
2048
2048
2047
2045
2043
2043
2046
2048
2051
2051
2049
2047
2043
2043
2042
2042
2044
2043
2044
2044
2045
2045
2046
2046
2046
2046
2046
2046
2046
2045
2045
2047
2048
2048
2047
2045
2045
2048
2053
2058
2058
2056
2052
2049
2048
2050
2052
2052
2052
2053
2053
2054
2054
2054
2054
2054
2051
2048
2044
2042
2043
2046
2049
2048
2045
2037
2031
2028
2031
2036
2040
2040
2038
2034
2032
2031
2031
2032
2033
2032
2032
2033
2033
2033
2033
2034
2034
2035
2035
2036
2036
2035
2034
2036
2036
2036
2033
2030
2029
2031
2035
2040
2043
2042
2038
2034
2031
2034
2034
2035
2035
2035
2035
2034
2034
2034
2034
2033
2032
2032
2032
2032
2032
2033
2034
2035
2035
2032
2031
2029
2030
2033
2037
2039
2038
2036
2032
2030
2030
2031
2033
2034
2034
2034
2033
2032
2032
2031
2031
2030
2030
2030
2031
2032
2031
2032
2032
2031
2030
2028
2028
2030
2034
2038
2039
2038
2035
2032
2031
2032
2034
2036
2036
2036
2036
2036
2036
2037
2037
2036
2036
2037
2037
2037
2037
2036
2037
2037
2038
2037
2034
2032
2032
2035
2040
2044
2045
2043
2040
2037
2037
2038
2038
2039
2039
2038
2038
2038
2038
2038
2039
2040
2040
2040
2040
2040
2039
2039
2040
2039
2038
2035
2033
2033
2035
2039
2043
2045
2044
2041
2038
2037
2039
2039
2040
2040
2039
2038
2038
2038
2039
2040
2041
2042
2042
2042
2042
2042
2042
2044
2044
2044
2042
2039
2038
2038
2039
2042
2044
2045
2043
2042
2039
2037
2033
2032
2035
2042
2055
2067
2075
2077
2074
2068
2063
2058
2055
2051
2048
2045
2044
2045
2043
2042
2039
2037
2038
2041
2047
2049
2049
2048
2044
2041
2040
2042
2043
2044
2044
2044
2044
2044
2044
2045
2044
2044
2044
2044
2045
2045
2046
2046
2047
2047
2047
2045
2043
2043
2046
2049
2053
2054
2052
2049
2048
2047
2048
2049
2050
2049
2050
2050
2051
2053
2055
2056
2056
2056
2055
2055
2054
2054
2054
2057
2058
2056
2052
2048
2047
2048
2052
2056
2056
2052
2047
2042
2039
2041
2042
2043
2043
2044
2045
2045
2045
2045
2045
2044
2045
2045
2046
2047
2047
2047
2048
2048
2048
2047
2045
2044
2045
2047
2049
2051
2050
2048
2047
2044
2045
2044
2045
2046
2046
2048
2048
2048
2048
2048
2048
2048
2048
2049
2048
2049
2048
2048
2049
2048
2048
2046
2045
2045
2047
2049
2050
2050
2049
2048
2047
2047
2048
2048
2048
2048
2048
2048
2048
2048
2047
2047
2047
2048
2048
2048
2048
2048
2048
2049
2049
2048
2047
2045
2045
2047
2049
2051
2051
2049
2048
2047
2046
2047
2048
2048
2048
2048
2048
2048
2048
2048
2048
2048
2048
2048
2048
2048
2048
2047
2049
2049
2049
2048
2048
2048
2048
2051
2053
2053
2051
2049
2048
2047
2049
2049
2050
2051
2052
2050
2048
2044
2043
2048
2059
2074
2088
2096
2097
2092
2084
2079
2073
2069
2063
2058
2055
2056
2058
2060
2061
2058
2056
2055
2056
2058
2058
2058
2056
2055
2055
2056
2056
2056
2056
2055
2055
2056
2057
2058
2059
2059
2060
2061
2060
2059
2057
2057
2059
2064
2069
2071
2070
2067
2064
2063
2063
2066
2066
2067
2068
2068
2069
2069
2070
2071
2072
2072
2072
2072
2073
2073
2073
2075
2076
2075
2074
2071
2069
2068
2070
2071
2072
2071
2068
2064
2061
2061
2061
2061
2061
2060
2060
2060
2060
2061
2061
2062
2061
2060
2059
2059
2060
2059
2060
2063
2064
2063
2061
2058
2057
2060
2065
2071
2072
2071
2067
2063
2061
2062
2063
2063
2064
2064
2065
2066
2066
2066
2065
2064
2063
2062
2062
2062
2063
2063
2063
2063
2063
2062
2062
2062
2062
2064
2065
2066
2066
2064
2063
2061
2062
2063
2064
2064
2064
2064
2064
2063
2062
2062
2062
2063
2064
2065
2066
2066
2066
2066
2066
2066
2066
2065
2064
2066
2067
2069
2070
2069
2067
2066
2065
2066
2067
2068
2068
2068
2068
2069
2069
2069
2069
2070
2070
2071
2071
2071
2071
2071
2070
2071
2071
2071
2070
2069
2069
2071
2073
2072
2069
2064
2064
2072
2089
2108
2122
2126
2119
2109
2099
2091
2087
2084
2081
2078
2077
2077
2077
2077
2077
2075
2077
2075
2075
2073
2073
2074
2076
2080
2082
2083
2082
2080
2079
2077
2079
2080
2080
2080
2081
2081
2081
2082
2083
2084
2084
2085
2085
2086
2086
2086
2086
2088
2088
2089
2089
2088
2087
2087
2091
2094
2096
2095
2094
2094
2094
2096
2097
2098
2097
2097
2097
2097
2099
2099
2099
2099
2098
2097
2096
2094
2092
2091
2090
2091
2090
2088
2085
2082
2083
2085
2089
2090
2088
2085
2081
2080
2080
2083
2084
2084
2084
2083
2083
2084
2084
2085
2085
2084
2083
2082
2082
2082
2083
2084
2085
2085
2085
2082
2080
2079
2080
2082
2085
2085
2085
2083
2081
2080
2080
2081
2081
2080
2080
2080
2080
2080
2079
2079
2079
2079
2079
2078
2078
2077
2076
2078
2079
2078
2076
2072
2071
2072
2075
2079
2080
2077
2073
2070
2067
2070
2070
2071
2071
2070
2070
2070
2070
2070
2070
2070
2070
2069
2069
2068
2068
2067
2067
2066
2065
2063
2062
2062
2063
2065
2066
2066
2064
2061
2059
2057
2057
2056
2056
2056
2055
2054
2053
2052
2050
2048
2048
2048
2048
2047
2047
2048
2047
2048
2047
2046
2044
2042
2041
2042
2044
2047
2047
2045
2042
2039
2037
2036
2037
2037
2038
2038
2037
2036
2034
2031
2029
2028
2027
2027
2026
2025
2024
2023
2024
2024
2024
2020
2016
2014
2018
2030
2044
2055
2060
2058
2051
2044
2038
2033
2029
2024
2020
2017
2016
2015
2014
2013
2012
2012
2011
2011
2011
2011
2010
2010
2011
2009
2008
2006
2004
2005
2007
2010
2013
2014
2013
2011
2009
2007
2009
2009
2010
2009
2009
2008
2008
2008
2008
2008
2007
2008
2008
2009
2010
2010
2011
2010
2012
2013
2012
2010
2008
2008
2012
2016
2021
2021
2018
2015
2012
2012
2013
2015
2013
2012
2011
2011
2010
2010
2009
2008
2007
2005
2004
2002
2002
2001
2001
2001
2001
2000
1998
1996
1996
1997
2000
2002
2003
2002
2001
2000
2000
2000
1999
1998
1996
1996
1996
1997
1997
1998
1998
1998
1999
1999
1999
1999
2000
2000
2001
2001
2000
1997
1995
1994
1996
1999
2002
2003
2001
1999
1997
1996
1998
1998
1999
1999
2000
2001
2001
2001
2002
2002
2003
2004
2005
2006
2006
2007
2008
2010
2010
2010
2009
2007
2007
2009
2012
2015
2017
2016
2014
2013
2011
2014
2014
2014
2013
2013
2013
2014
2014
2015
2016
2016
2017
2018
2018
2018
2019
2019
2021
2021
2021
2019
2017
2016
2016
2019
2021
2023
2024
2022
2021
2019
2020
2021
2022
2024
2025
2026
2025
2023
2022
2021
2022
2023
2025
2026
2027
2028
2027
2027
2027
2027
2026
2025
2025
2025
2026
2028
2029
2029
2028
2027
2026
2024
2022
2020
2019
2023
2032
2044
2054
2061
2062
2059
2053
2049
2046
2042
2039
2035
2032
2031
2031
2030
2028
2027
2026
2027
2029
2030
2031
2031
2029
2028
2027
2028
2029
2030
2030
2030
2030
2030
2029
2030
2030
2032
2033
2034
2034
2033
2033
2032
2034
2035
2035
2035
2034
2035
2038
2042
2045
2046
2046
2044
2042
2042
2044
2045
2046
2046
2045
2046
2046
2047
2047
2047
2046
2047
2047
2048
2049
2049
2048
2048
2048
2048
2044
2041
2037
2037
2038
2044
2046
2045
2041
2038
2036
2037
2039
2040
2039
2039
2038
2039
2039
2040
2039
2040
2039
2039
2039
2038
2038
2038
2039
2041
2041
2041
2039
2038
2038
2040
2044
2046
2046
2044
2042
2041
2042
2043
2043
2044
2044
2045
2045
2046
2045
2044
2042
2041
2040
2039
2040
2040
2041
2040
2041
2040
2039
2037
2036
2037
2040
2043
2046
2047
2045
2043
2041
2040
2042
2042
2042
2042
2042
2043
2043
2043
2044
2045
2044
2041
2039
2037
2039
2044
2048
2051
2049
2047
2042
2039
2039
2042
2045
2047
2048
2047
2045
2043
2041
2042
2042
2043
2044
2046
2048
2048
2048
2048
2047
2047
2047
2047
2047
2048
2048
2048
2049
2049
2048
2048
2047
2047
2049
2052
2055
2056
2055
2052
2050
2049
2050
2052
2054
2054
2054
2054
2054
2054
2054
2054
2055
2055
2055
2055
2055
2056
2057
2058
2058
2058
2057
2056
2057
2059
2062
2064
2064
2063
2061
2059
2058
2059
2061
2062
2063
2062
2060
2058
2056
2058
2066
2078
2091
2100
2102
2099
2092
2086
2082
2080
2077
2074
2069
2066
2066
2068
2071
2073
2072
2070
2068
2065
2066
2067
2068
2069
2069
2070
2070
2070
2070
2070
2070
2070
2071
2072
2072
2072
2072
2072
2074
2074
2074
2072
2071
2071
2073
2077
2079
2080
2079
2076
2076
2076
2079
2080
2081
2081
2081
2081
2082
2082
2083
2084
2084
2085
2085
2086
2086
2086
2085
2087
2087
2087
2086
2085
2083
2083
2084
2084
2086
2083
2080
2077
2075
2076
2076
2077
2077
2075
2075
2074
2075
2075
2076
2076
2077
2077
2077
2078
2078
2078
2078
2079
2079
2079
2077
2077
2078
2082
2088
2091
2091
2088
2085
2082
2080
2083
2084
2086
2086
2086
2085
2085
2085
2086
2086
2087
2086
2086
2085
2084
2085
2086
2087
2087
2087
2084
2082
2081
2083
2085
2088
2088
2087
2085
2083
2082
2082
2083
2084
2083
2083
2083
2083
2084
2084
2084
2084
2084
2084
2084
2084
2084
2083
2085
2085
2086
2084
2082
2081
2081
2084
2087
2088
2086
2083
2080
2077
2079
2079
2080
2080
2080
2081
2081
2081
2081
2081
2080
2080
2080
2081
2082
2082
2082
2082
2082
2082
2082
2081
2081
2081
2082
2084
2086
2085
2084
2083
2082
2082
2083
2084
2084
2084
2085
2086
2086
2086
2086
2086
2087
2087
2087
2088
2087
2087
2086
2086
2086
2085
2084
2083
2084
2086
2088
2087
2084
2079
2076
2080
2088
2101
2114
2120
2121
2117
2110
2105
2100
2097
2094
2091
2089
2087
2086
2086
2086
2085
2085
2086
2086
2085
2083
2082
2083
2084
2085
2085
2084
2083
2082
2082
2083
2085
2086
2086
2086
2085
2084
2084
2084
2084
2084
2085
2085
2085
2085
2084
2083
2085
2085
2085
2085
2083
2083
2084
2087
2090
2091
2091
2089
2088
2086
2088
2089
2090
2091
2091
2091
2090
2090
2090
2090
2089
2089
2088
2087
2086
2085
2083
2082
2083
2081
2078
2074
2073
2074
2077
2081
2082
2081
2077
2074
2073
2073
2074
2075
2076
2076
2076
2075
2075
2075
2074
2075
2074
2074
2073
2073
2074
2073
2073
2075
2074
2073
2071
2071
2072
2076
2081
2083
2081
2078
2074
2073
2073
2075
2075
2075
2075
2075
2075
2075
2075
2074
2074
2074
2074
2074
2074
2075
2075
2076
2076
2075
2073
2071
2070
2071
2074
2076
2078
2079
2078
2076
2074
2075
2075
2076
2076
2076
2076
2077
2077
2078
2078
2077
2077
2076
2075
2075
2074
2074
2075
2076
2075
2075
2073
2071
2071
2073
2076
2078
2079
2078
2076
2074
2072
2073
2073
2074
2074
2074
2074
2074
2074
2074
2074
2075
2075
2075
2074
2074
2073
2072
2072
2072
2072
2070
2069
2069
2070
2072
2075
2076
2075
2073
2071
2070
2070
2070
2071
2071
2071
2071
2070
2070
2070
2070
2071
2071
2072
2072
2072
2072
2072
2072
2071
2071
2070
2068
2067
2067
2069
2072
2074
2073
2070
2064
2062
2064
2073
2086
2098
2105
2106
2102
2096
2090
2086
2082
2078
2075
2072
2070
2069
2069
2068
2068
2069
2068
2068
2067
2068
2068
2070
2071
2070
2068
2067
2066
2065
2066
2067
2068
2068
2068
2069
2069
2069
2069
2069
2069
2069
2069
2070
2070
2070
2070
2071
2071
2071
2071
2070
2070
2072
2074
2075
2073
2069
2067
2069
2073
2080
2083
2081
2077
2073
2071
2073
2075
2077
2077
2077
2077
2077
2077
2077
2076
2074
2075
2074
2073
2071
2068
2066
2066
2067
2070
2070
2071
2069
2067
2065
2064
2064
2065
2065
2065
2065
2065
2065
2065
2066
2068
2068
2067
2067
2066
2066
2067
2067
2070
2070
2069
2066
2064
2064
2066
2070
2072
2072
2070
2068
2066
2064
2066
2065
2066
2067
2068
2068
2068
2067
2067
2066
2066
2066
2066
2066
2066
2066
2066
2067
2067
2067
2066
2065
2065
2067
2070
2073
2074
2073
2071
2069
2068
2068
2069
2069
2068
2069
2069
2070
2070
2070
2070
2070
2070
2070
2070
2070
2070
2069
2071
2071
2072
2071
2069
2068
2068
2070
2073
2074
2074
2071
2069
2066
2067
2067
2067
2067
2067
2067
2066
2065
2065
2064
2064
2064
2064
2064
2064
2065
2065
2067
2066
2064
2062
2060
2060
2062
2066
2069
2070
2068
2065
2062
2060
2061
2061
2062
2062
2062
2062
2062
2062
2061
2061
2061
2060
2060
2059
2059
2059
2059
2060
2059
2059
2057
2055
2055
2056
2059
2060
2061
2059
2057
2054
2054
2054
2056
2058
2058
2058
2057
2056
2055
2054
2053
2052
2051
2051
2051
2051
2051
2051
2052
2053
2052
2048
2043
2041
2044
2055
2070
2084
2090
2087
2079
2069
2063
2060
2058
2056
2052
2049
2048
2046
2046
2045
2045
2045
2045
2045
2044
2043
2042
2041
2043
2042
2041
2039
2037
2037
2039
2042
2045
2045
2042
2039
2038
2037
2039
2039
2039
2038
2037
2036
2036
2035
2035
2035
2035
2034
2034
2034
2034
2034
2034
2035
2035
2035
2035
2034
2033
2034
2035
2037
2038
2037
2035
2033
2031
2030
2030
2030
2030
2030
2029
2027
2025
2023
2022
2021
2020
2018
2017
2016
2014
2013
2013
2012
2011
2010
2008
2007
2007
2008
2010
2010
2009
2007
2005
2004
2004
2005
2004
2004
2004
2004
2004
2003
2003
2003
2003
2002
2002
2001
2000
1999
1999
1999
2000
2000
2000
1998
1996
1995
1996
1997
1999
1999
1998
1997
1995
1994
1994
1994
1994
1994
1994
1994
1994
1994
1993
1994
1993
1994
1994
1994
1994
1994
1993
1994
1993
1995
1992
1989
1986
1986
1990
1995
1999
1999
1994
1988
1983
1983
1983
1986
1985
1985
1984
1984
1984
1984
1984
1984
1984
1984
1984
1984
1984
1984
1985
1984
1984
1983
1982
1982
1982
1984
1986
1988
1987
1985
1983
1981
1982
1982
1983
1984
1984
1985
1985
1985
1986
1986
1986
1986
1986
1987
1986
1985
1984
1982
1982
1983
1985
1986
1986
1986
1988
1990
1992
1992
1990
1987
1985
1983
1984
1985
1985
1985
1985
1985
1985
1985
1985
1984
1982
1982
1985
1994
2006
2018
2025
2027
2025
2018
2011
2005
2001
1999
1998
1998
1998
1996
1993
1991
1989
1990
1991
1992
1992
1993
1992
1992
1992
1992
1992
1992
1992
1993
1993
1995
1995
1995
1996
1996
1996
1995
1994
1995
1997
2000
2004
2005
2005
2002
2000
1999
2001
2002
2003
2003
2003
2003
2003
2003
2004
2004
2005
2006
2006
2005
2005
2006
2007
2009
2009
2009
2007
2006
2006
2008
2012
2016
2017
2014
2010
2007
2005
2005
2004
2002
2001
2001
2002
2002
2002
2002
2001
2002
2001
2003
2002
2002
2002
2002
2003
2006
2006
2006
2003
2001
2002
2007
2012
2016
2017
2014
2010
2008
2007
2009
2010
2010
2010
2011
2011
2012
2011
2011
2011
2012
2012
2012
2012
2012
2012
2012
2013
2014
2013
2011
2009
2009
2012
2016
2020
2021
2019
2017
2013
2013
2013
2014
2015
2015
2016
2016
2017
2017
2017
2017
2017
2018
2017
2017
2017
2017
2018
2020
2021
2021
2018
2014
2013
2015
2021
2027
2030
2029
2025
2020
2017
2018
2020
2021
2023
2023
2024
2024
2024
2025
2023
2021
2019
2019
2021
2026
2030
2032
2031
2028
2026
2023
2023
2023
2025
2027
2030
2032
2031
2029
2027
2025
2027
2028
2030
2031
2032
2033
2033
2032
2033
2032
2033
2032
2033
2033
2033
2034
2034
2034
2035
2035
2034
2031
2031
2032
2035
2039
2043
2044
2041
2038
2036
2036
2037
2038
2039
2039
2039
2039
2039
2039
2039
2040
2041
2042
2042
2041
2041
2041
2040
2042
2043
2043
2042
2041
2041
2043
2046
2048
2048
2047
2045
2043
2042
2043
2044
2044
2043
2043
2043
2044
2045
2045
2045
2043
2040
2038
2039
2045
2055
2066
2077
2081
2078
2073
2065
2060
2056
2055
2055
2053
2051
2048
2046
2044
2044
2044
2044
2044
2044
2044
2045
2045
2045
2046
2047
2048
2048
2048
2048
2047
2046
2048
2048
2048
2048
2047
2047
2048
2049
2053
2055
2055
2052
2049
2048
2048
2048
2049
2048
2048
2049
2051
2053
2055
2055
2054
2053
2052
2052
2053
2054
2055
2056
2057
2057
2058
2056
2056
2056
2058
2060
2062
2062
2061
2059
2057
2055
2055
2053
2052
2051
2051
2050
2049
2049
2048
2048
2048
2047
2046
2045
2044
2044
2044
2046
2046
2046
2044
2042
2042
2044
2048
2051
2053
2051
2048
2047
2046
2047
2048
2048
2048
2048
2048
2048
2048
2048
2048
2048
2048
2048
2048
2048
2048
2049
2051
2052
2052
2051
2049
2048
2049
2050
2052
2052
2051
2049
2048
2048
2049
2049
2049
2049
2048
2048
2048
2048
2048
2048
2048
2048
2049
2050
2050
2051
2051
2053
2052
2051
2049
2047
2047
2048
2052
2056
2058
2056
2053
2051
2050
2050
2052
2052
2053
2053
2053
2053
2053
2053
2053
2054
2054
2054
2055
2054
2054
2054
2054
2053
2053
2052
2051
2051
2052
2056
2059
2061
2060
2057
2055
2054
2055
2055
2056
2056
2056
2056
2055
2055
2055
2056
2057
2058
2059
2060
2059
2059
2058
2058
2058
2058
2057
2055
2054
2055
2058
2060
2062
2060
2057
2055
2052
2053
2054
2055
2056
2056
2057
2058
2058
2058
2057
2057
2056
2056
2056
2056
2056
2053
2053
2054
2055
2055
2053
2050
2048
2048
2055
2067
2079
2088
2092
2090
2085
2081
2076
2072
2068
2065
2061
2059
2058
2058
2058
2058
2058
2058
2058
2058
2057
2056
2057
2056
2056
2055
2054
2054
2055
2057
2059
2060
2059
2058
2057
2056
2057
2057
2058
2058
2058
2057
2056
2056
2058
2060
2061
2062
2061
2060
2060
2060
2062
2063
2064
2063
2062
2061
2060
2061
2063
2067
2070
2070
2070
2069
2067
2067
2068
2068
2068
2069
2069
2069
2068
2067
2066
2065
2064
2062
2060
2059
2057
2057
2057
2057
2056
2055
2053
2052
2051
2052
2054
2056
2056
2056
2054
2053
2052
2053
2053
2055
2055
2056
2057
2057
2057
2057
2057
2057
2056
2056
2055
2055
2055
2055
2058
2058
2060
2057
2053
2051
2051
2056
2062
2066
2066
2062
2057
2053
2054
2053
2056
2056
2056
2056
2056
2056
2055
2055
2054
2054
2054
2054
2054
2054
2053
2054
2054
2053
2052
2050
2049
2049
2051
2053
2055
2055
2054
2052
2050
2050
2050
2050
2051
2051
2051
2051
2050
2050
2050
2051
2051
2051
2051
2050
2050
2049
2050
2050
2049
2049
2048
2047
2046
2047
2048
2049
2050
2049
2048
2048
2047
2047
2048
2048
2048
2048
2048
2048
2048
2048
2048
2048
2048
2049
2050
2050
2051
2050
2051
2052
2052
2052
2051
2050
2051
2052
2054
2056
2055
2054
2053
2052
2052
2053
2054
2054
2054
2054
2053
2053
2053
2053
2053
2054
2054
2055
2056
2057
2056
2057
2058
2058
2057
2056
2057
2058
2060
2062
2063
2062
2060
2059
2058
2060
2061
2062
2062
2062
2062
2062
2063
2063
2063
2064
2064
2064
2064
2064
2065
2064
2066
2066
2065
2062
2059
2059
2061
2064
2066
2065
2062
2062
2064
2066
2066
2061
2056
2056
2063
2077
2090
2099
2100
2096
2091
2086
2082
2078
2073
2069
2066
2065
2065
2064
2063
2059
2057
2058
2061
2065
2067
2066
2063
2059
2057
2056
2058
2058
2059
2059
2059
2058
2057
2056
2056
2056
2056
2056
2056
2055
2055
2055
2055
2055
2055
2054
2052
2051
2052
2055
2058
2061
2061
2059
2057
2055
2055
2057
2058
2059
2059
2060
2061
2061
2062
2062
2062
2061
2060
2060
2060
2060
2059
2059
2060
2058
2057
2054
2050
2049
2049
2051
2053
2053
2050
2047
2043
2041
2043
2044
2044
2044
2043
2042
2041
2040
2040
2040
2040
2040
2040
2040
2041
2042
2042
2043
2043
2043
2042
2042
2041
2042
2044
2046
2048
2047
2045
2043
2041
2041
2041
2042
2043
2043
2044
2044
2044
2044
2044
2044
2043
2043
2043
2043
2044
2044
2044
2044
2044
2043
2041
2040
2041
2043
2046
2047
2047
2046
2044
2043
2043
2044
2045
2046
2047
2047
2047
2046
2046
2045
2045
2046
2046
2046
2046
2046
2046
2045
2045
2046
2046
2045
2045
2045
2046
2048
2049
2049
2048
2047
2047
2047
2048
2048
2049
2048
2048
2048
2048
2048
2048
2048
2048
2048
2049
2049
2049
2048
2048
2048
2048
2048
2048
2047
2048
2049
2051
2053
2053
2052
2050
2050
2050
2052
2052
2052
2052
2052
2052
2052
2052
2052
2052
2052
2053
2053
2054
2054
2055
2054
2055
2055
2055
2054
2054
2053
2054
2055
2058
2059
2058
2056
2055
2053
2053
2054
2055
2055
2056
2055
2054
2053
2052
2052
2053
2054
2055
2054
2053
2053
2052
2052
2054
2052
2049
2046
2046
2052
2066
2082
2093
2097
2094
2086
2079
2072
2069
2064
2060
2056
2054
2053
2053
2054
2054
2053
2053
2053
2053
2052
2052
2052
2052
2052
2052
2051
2050
2050
2050
2051
2053
2055
2055
2054
2053
2052
2052
2053
2054
2054
2054
2055
2055
2056
2056
2055
2055
2056
2056
2055
2054
2054
2054
2054
2056
2057
2059
2056
2053
2051
2052
2056
2063
2068
2069
2066
2061
2057
2058
2058
2061
2061
2060
2059
2058
2057
2056
2055
2054
2053
2052
2050
2048
2048
2047
2047
2047
2046
2044
2043
2042
2043
2045
2047
2048
2047
2045
2043
2041
2041
2041
2042
2043
2043
2044
2044
2044
2044
2043
2043
2043
2042
2042
2042
2043
2043
2044
2044
2043
2043
2041
2041
2042
2044
2046
2047
2046
2044
2042
2040
2041
2041
2041
2041
2040
2040
2039
2039
2038
2039
2039
2039
2039
2038
2037
2037
2035
2036
2036
2035
2033
2031
2030
2031
2033
2036
2036
2035
2032
2029
2027
2027
2028
2029
2029
2028
2027
2026
2025
2025
2024
2024
2024
2024
2024
2023
2023
2021
2019
2019
2018
2018
2017
2016
2016
2018
2021
2023
2023
2020
2017
2015
2014
2015
2015
2016
2015
2015
2014
2014
2013
2013
2013
2012
2011
2010
2009
2009
2008
2007
2008
2008
2007
2006
2005
2004
2004
2005
2007
2007
2006
2004
2003
2002
2002
2002
2002
2002
2001
2000
2000
1999
1999
1998
1997
1997
1997
1998
1998
1998
1998
1998
1998
1997
1996
1993
1992
1993
1996
1999
2002
2002
2001
1999
1999
1997
1997
1996
1995
1993
1993
1992
1992
1992
1992
1992
1992
1992
1992
1991
1988
1986
1986
1991
2001
2014
2024
2028
2027
2024
2020
2016
2011
2005
1999
1994
1990
1990
1990
1990
1989
1989
1988
1988
1988
1988
1988
1988
1988
1988
1987
1987
1987
1987
1990
1990
1992
1990
1986
1983
1983
1986
1991
1995
1997
1994
1990
1985
1985
1985
1987
1989
1989
1989
1989
1989
1989
1989
1989
1988
1989
1989
1991
1992
1992
1993
1993
1992
1991
1990
1990
1990
1992
1994
1996
1996
1995
1994
1992
1992
1992
1991
1991
1990
1989
1988
1987
1985
1981
1977
1976
1977
1981
1985
1986
1983
1980
1977
1976
1976
1975
1976
1976
1978
1980
1981
1981
1979
1977
1976
1975
1976
1977
1977
1977
1977
1978
1979
1979
1979
1979
1980
1980
1981
1981
1981
1981
1981
1981
1982
1981
1981
1980
1980
1981
1983
1984
1984
1983
1981
1980
1980
1981
1982
1983
1983
1984
1984
1984
1984
1984
1985
1986
1986
1987
1987
1987
1987
1986
1988
1988
1988
1987
1987
1986
1987
1990
1992
1993
1991
1989
1988
1988
1989
1991
1991
1991
1991
1991
1991
1991
1992
1993
1994
1994
1995
1995
1996
1996
1995
1997
1997
1996
1995
1993
1993
1995
1998
2002
2003
2003
2000
1998
1997
1998
1999
2000
2001
2001
2001
2001
2001
2001
2000
2000
2001
2003
2004
2005
2006
2005
2005
2006
2004
2004
2002
2001
2003
2006
2010
2011
2011
2009
2008
2008
2008
2009
2008
2008
2009
2010
2011
2012
2013
2013
2013
2013
2013
2013
2013
2014
2014
2016
2017
2017
2016
2014
2013
2014
2016
2019
2021
2021
2020
2018
2016
2016
2017
2017
2015
2012
2010
2012
2019
2031
2045
2054
2057
2053
2048
2042
2038
2036
2032
2031
2027
2026
2023
2020
2019
2020
2025
2031
2035
2034
2031
2025
2022
2022
2022
2025
2025
2025
2026
2027
2028
2029
2029
2029
2030
2031
2032
2033
2034
2033
2035
2035
2035
2035
2034
2034
2035
2037
2039
2040
2040
2039
2038
2037
2037
2038
2039
2041
2042
2043
2044
2044
2045
2046
2047
2047
2048
2048
2048
2048
2049
2049
2049
2048
2048
2046
2045
2045
2046
2047
2047
2046
2043
2041
2039
2038
2038
2038
2038
2038
2038
2038
2038
2037
2037
2037
2037
2037
2037
2038
2038
2039
2039
2040
2041
2040
2040
2039
2040
2041
2043
2045
2046
2045
2044
2043
2043
2044
2044
2045
2044
2044
2044
2044
2044
2044
2044
2044
2045
2045
2046
2046
2046
2045
2046
2047
2047
2046
2045
2045
2046
2048
2050
2051
2050
2049
2048
2047
2048
2048
2048
2048
2048
2048
2048
2048
2048
2048
2049
2049
2049
2050
2050
2050
2050
2050
2051
2051
2050
2050
2050
2050
2052
2054
2055
2054
2052
2051
2050
2051
2052
2053
2053
2053
2054
2054
2055
2055
2054
2053
2053
2054
2055
2056
2056
2056
2056
2057
2057
2057
2056
2055
2055
2056
2059
2061
2062
2061
2059
2057
2057
2058
2058
2059
2060
2060
2061
2060
2060
2060
2060
2060
2059
2058
2058
2057
2057
2056
2058
2059
2059
2058
2056
2055
2057
2060
2064
2065
2063
2060
2057
2055
2057
2058
2058
2057
2058
2058
2059
2057
2055
2052
2052
2057
2067
2081
2092
2097
2096
2092
2085
2080
2074
2068
2065
2062
2062
2063
2064
2063
2061
2059
2057
2058
2059
2060
2060
2061
2061
2062
2062
2061
2061
2061
2061
2061
2061
2062
2063
2063
2064
2065
2064
2062
2060
2059
2061
2065
2069
2071
2071
2068
2066
2065
2065
2067
2067
2068
2068
2069
2069
2069
2069
2070
2071
2072
2073
2074
2075
2075
2076
2076
2076
2076
2076
2075
2075
2076
2078
2079
2079
2077
2074
2070
2068
2068
2068
2068
2068
2067
2066
2066
2065
2064
2064
2064
2064
2063
2063
2063
2062
2062
2063
2064
2064
2063
2062
2061
2062
2065
2067
2068
2067
2064
2062
2060
2059
2061
2061
2062
2062
2061
2061
2061
2061
2062
2063
2063
2064
2064
2064
2063
2063
2063
2065
2064
2063
2061
2060
2060
2063
2066
2068
2067
2065
2062
2060
2060
2062
2063
2063
2062
2061
2060
2059
2060
2060
2061
2061
2061
2060
2060
2060
2059
2058
2058
2059
2059
2059
2059
2058
2058
2059
2061
2062
2062
2061
2060
2060
2060
2061
2061
2061
2061
2061
2061
2061
2062
2062
2063
2063
2062
2062
2062
2062
2063
2063
2063
2062
2060
2060
2058
2060
2060
2060
2061
2062
2063
2065
2066
2065
2062
2060
2058
2058
2059
2060
2060
2060
2060
2061
2061
2061
2061
2061
2061
2061
2061
2063
2063
2064
2063
2062
2062
2063
2066
2068
2069
2068
2067
2065
2064
2065
2065
2065
2065
2066
2066
2066
2067
2067
2068
2068
2069
2068
2068
2068
2068
2068
2071
2071
2070
2068
2065
2065
2066
2068
2071
2072
2072
2070
2067
2063
2063
2066
2074
2086
2099
2109
2112
2109
2103
2097
2091
2086
2082
2077
2074
2072
2071
2073
2074
2073
2071
2068
2067
2068
2070
2074
2076
2075
2072
2070
2068
2068
2070
2070
2070
2069
2069
2069
2069
2070
2070
2070
2071
2071
2072
2072
2072
2071
2070
2073
2072
2072
2069
2068
2069
2072
2077
2081
2081
2078
2074
2073
2072
2075
2075
2075
2075
2075
2076
2076
2076
2076
2076
2077
2077
2077
2077
2077
2077
2077
2076
2075
2073
2070
2068
2067
2067
2068
2068
2067
2065
2062
2060
2058
2058
2057
2057
2057
2057
2057
2056
2054
2053
2053
2053
2054
2055
2056
2056
2055
2054
2054
2054
2055
2054
2053
2052
2053
2055
2056
2056
2054
2051
2049
2048
2049
2051
2051
2051
2051
2051
2051
2051
2051
2052
2051
2051
2050
2049
2049
2049
2048
2049
2049
2049
2048
2047
2046
2047
2048
2050
2050
2048
2046
2044
2042
2042
2042
2042
2042
2042
2042
2041
2041
2041
2041
2039
2040
2039
2037
2036
2035
2034
2034
2035
2035
2034
2031
2028
2027
2027
2030
2032
2034
2034
2033
2032
2031
2030
2029
2029
2029
2029
2029
2029
2028
2028
2028
2028
2028
2027
2027
2026
2025
2025
2026
2026
2025
2023
2021
2021
2024
2028
2031
2033
2031
2028
2023
2020
2021
2022
2024
2027
2028
2028
2028
2027
2027
2027
2027
2026
2026
2025
2025
2025
2025
2027
2027
2026
2023
2020
2018
2020
2024
2029
2031
2029
2025
2022
2019
2020
2023
2024
2024
2024
2025
2026
2026
2026
2026
2025
2025
2024
2024
2025
2025
2024
2024
2024
2023
2022
2021
2020
2021
2024
2027
2027
2024
2019
2017
2020
2032
2046
2056
2061
2058
2052
2046
2040
2036
2032
2029
2026
2024
2023
2023
2024
2023
2023
2023
2024
2023
2022
2022
2022
2025
2028
2031
2031
2029
2026
2024
2023
2024
2025
2026
2027
2028
2029
2029
2029
2028
2028
2028
2028
2028
2028
2028
2028
2029
2030
2032
2032
2031
2029
2028
2030
2033
2037
2038
2037
2035
2034
2034
2035
2037
2038
2038
2038
2038
2039
2040
2041
2041
2041
2041
2040
2040
2040
2039
2036
2037
2034
2031
2029
2026
2026
2026
2028
2028
2028
2026
2023
2023
2022
2025
2025
2024
2024
2023
2023
2024
2024
2024
2024
2024
2024
2024
2025
2025
2025
2024
2025
2025
2025
2024
2023
2022
2024
2027
2031
2034
2033
2030
2028
2026
2026
2027
2028
2027
2026
2026
2026
2027
2028
2029
2030
2030
2030
2030
2029
2028
2027
2027
2029
2030
2032
2030
2028
2026
2028
2031
2034
2037
2036
2034
2032
2032
2031
2031
2032
2032
2033
2034
2035
2035
2034
2034
2033
2033
2033
2033
2033
2033
2033
2035
2036
2037
2033
2030
2027
2029
2035
2043
2048
2047
2042
2037
2033
2034
2035
2038
2038
2038
2039
2039
2040
2039
2039
2039
2039
2039
2040
2040
2041
2040
2042
2043
2042
2040
2037
2035
2037
2041
2045
2047
2047
2043
2039
2036
2037
2039
2039
2040
2039
2039
2038
2038
2039
2040
2041
2042
2042
2041
2041
2041
2040
2041
2041
2039
2038
2036
2035
2036
2039
2043
2046
2047
2043
2038
2033
2034
2041
2053
2068
2078
2083
2080
2074
2067
2062
2058
2054
2051
2048
2046
2046
2045
2046
2046
2044
2043
2041
2039
2039
2041
2045
2048
2048
2048
2045
2042
2041
2042
2044
2046
2046
2047
2048
2047
2045
2044
2044
2048
2052
2056
2057
2055
2051
2050
2049
2050
2051
2051
2050
2050
2053
2056
2058
2058
2057
2054
2053
2052
2054
2057
2059
2060
2061
2061
2062
2062
2062
2062
2063
2064
2064
2065
2065
2064
2063
2062
2061
2059
2057
2055
2054
2054
2056
2057
2056
2054
2052
2050
2050
2050
2051
2051
2051
2050
2050
2050
2050
2050
2051
2051
2051
2051
2051
2051
2052
2052
2053
2053
2054
2053
2053
2053
2053
2055
2056
2058
2058
2057
2055
2054
2054
2055
2056
2056
2055
2055
2055
2055
2056
2056
2056
2056
2056
2056
2056
2055
2055
2055
2056
2056
2056
2055
2055
2055
2057
2059
2061
2061
2059
2057
2056
2056
2056
2057
2057
2057
2057
2057
2058
2058
2058
2058
2058
2058
2057
2057
2057
2058
2057
2059
2058
2058
2057
2056
2056
2057
2060
2062
2063
2062
2060
2059
2057
2057
2056
2057
2056
2057
2058
2058
2059
2058
2059
2059
2059
2059
2058
2058
2058
2057
2060
2060
2061
2060
2059
2058
2060
2062
2065
2067
2067
2065
2063
2061
2061
2061
2062
2062
2063
2064
2064
2064
2065
2065
2066
2066
2066
2066
2065
2065
2064
2066
2067
2066
2064
2061
2060
2060
2063
2067
2070
2069
2067
2065
2063
2062
2063
2063
2063
2063
2062
2062
2062
2062
2062
2063
2063
2062
2060
2057
2056
2059
2068
2080
2092
2100
2101
2096
2090
2086
2082
2079
2075
2070
2065
2062
2060
2060
2060
2060
2060
2060
2060
2060
2060
2061
2061
2061
2061
2062
2062
2061
2061
2060
2062
2062
2062
2060
2057
2056
2058
2063
2066
2068
2066
2062
2060
2057
2060
2061
2062
2062
2062
2063
2063
2063
2063
2064
2064
2064
2064
2063
2063
2063
2063
2065
2066
2066
2065
2064
2063
2064
2066
2068
2070
2069
2068
2066
2065
2065
2065
2064
2062
2061
2059
2058
2057
2056
2056
2055
2055
2054
2054
2054
2053
2053
2053
2053
2053
2052
2051
2050
2050
2051
2053
2055
2055
2054
2052
2050
2049
2049
2050
2050
2051
2051
2052
2052
2053
2053
2053
2052
2052
2051
2050
2051
2051
2051
2051
2050
2051
2049
2049
2048
2049
2050
2051
2052
2050
2049
2048
2047
2046
2046
2047
2047
2047
2046
2046
2045
2046
2046
2046
2046
2045
2045
2045
2045
2045
2048
2048
2048
2047
2045
2045
2047
2048
2051
2053
2053
2051
2050
2048
2048
2048
2047
2048
2047
2048
2048
2049
2049
2048
2048
2048
2047
2047
2047
2047
2047
2049
2049
2049
2048
2047
2047
2047
2049
2051
2053
2053
2052
2051
2049
2050
2050
2050
2051
2051
2051
2051
2051
2051
2051
2051
2051
2050
2050
2049
2050
2049
2051
2052
2052
2051
2048
2048
2048
2051
2055
2058
2059
2056
2053
2051
2050
2052
2052
2053
2052
2053
2052
2052
2051
2051
2051
2051
2051
2051
2052
2052
2052
2053
2054
2053
2053
2051
2051
2051
2054
2057
2059
2059
2057
2055
2053
2053
2053
2053
2053
2053
2053
2053
2053
2053
2052
2050
2048
2047
2049
2057
2068
2080
2088
2094
2091
2086
2078
2070
2065
2063
2063
2064
2064
2062
2059
2057
2054
2056
2056
2057
2057
2057
2057
2057
2057
2057
2058
2059
2059
2059
2058
2058
2058
2058
2061
2062
2063
2062
2060
2059
2060
2063
2066
2067
2067
2066
2065
2063
2064
2065
2066
2067
2067
2068
2068
2068
2068
2068
2068
2069
2069
2070
2070
2071
2071
2072
2073
2073
2073
2072
2072
2072
2074
2075
2076
2075
2073
2071
2069
2069
2068
2068
2067
2065
2063
2061
2060
2059
2059
2059
2059
2059
2059
2058
2059
2059
2059
2059
2059
2058
2058
2058
2058
2059
2061
2062
2062
2060
2059
2057
2057
2058
2058
2058
2057
2057
2056
2056
2057
2057
2057
2057
2055
2054
2053
2053
2053
2053
2055
2054
2053
2051
2049
2048
2048
2048
2048
2049
2051
2054
2056
2055
2053
2049
2046
2044
2045
2047
2048
2048
2048
2048
2047
2046
2045
2044
2044
2045
2044
2046
2046
2045
2043
2040
2039
2040
2042
2044
2045
2044
2042
2040
2038
2039
2039
2039
2040
2040
2041
2041
2040
2039
2038
2038
2038
2038
2037
2037
2036
2035
2035
2035
2034
2033
2031
2030
2030
2031
2034
2036
2037
2036
2033
2030
2029
2029
2029
2031
2031
2031
2030
2029
2028
2027
2027
2026
2026
2027
2027
2027
2026
2025
2026
2025
2024
2022
2020
2020
2022
2026
2029
2030
2028
2025
2022
2019
2021
2020
2021
2021
2020
2020
2019
2018
2018
2018
2019
2019
2019
2019
2019
2019
2019
2019
2018
2017
2016
2015
2015
2016
2018
2020
2021
2019
2015
2010
2006
2010
2018
2032
2044
2051
2052
2048
2041
2034
2030
2026
2024
2020
2017
2015
2014
2012
2014
2013
2011
2010
2007
2005
2005
2008
2013
2016
2015
2013
2010
2007
2008
2009
2010
2011
2010
2010
2010
2010
2011
2012
2012
2011
2011
2010
2010
2010
2010
2011
2011
2011
2011
2009
2008
2008
2010
2012
2015
2016
2016
2015
2013
2014
2014
2016
2017
2017
2018
2018
2018
2018
2019
2020
2020
2021
2020
2020
2018
2017
2016
2015
2013
2011
2007
2005
2005
2006
2008
2009
2008
2006
2002
2002
2001
2001
2001
2001
2001
2001
2001
2001
2001
2001
2001
2001
2001
2001
2001
2001
2001
2001
2001
2002
2002
2002
2001
2001
2002
2003
2006
2007
2007
2005
2004
2002
2003
2003
2004
2003
2003
2003
2003
2003
2004
2004
2003
2003
2002
2002
2003
2003
2003
2006
2005
2007
2003
2000
1996
1996
2000
2007
2013
2014
2011
2006
2001
2002
2002
2006
2006
2006
2006
2006
2007
2007
2008
2008
2008
2008
2008
2008
2009
2009
2010
2010
2010
2009
2008
2007
2008
2010
2013
2015
2015
2014
2013
2011
2011
2012
2012
2013
2013
2013
2014
2014
2014
2014
2014
2013
2013
2014
2014
2015
2015
2016
2017
2017
2017
2015
2015
2015
2017
2019
2021
2021
2019
2017
2015
2015
2016
2017
2017
2017
2018
2018
2018
2018
2018
2019
2019
2019
2019
2018
2017
2017
2017
2018
2020
2020
2019
2017
2016
2017
2019
2021
2022
2020
2018
2016
2015
2016
2017
2018
2019
2019
2020
2020
2021
2021
2021
2020
2020
2020
2020
2020
2020
2018
2018
2018
2018
2017
2014
2011
2011
2016
2026
2039
2050
2057
2058
2054
2049
2044
2039
2034
2029
2024
2021
2020
2019
2020
2020
2019
2019
2018
2018
2017
2017
2017
2017
2016
2016
2015
2015
2016
2018
2019
2020
2018
2017
2017
2017
2018
2019
2019
2019
2019
2018
2018
2018
2019
2019
2020
2020
2020
2019
2019
2019
2020
2021
2022
2021
2022
2020
2019
2019
2021
2023
2026
2029
2029
2028
2027
2026
2025
2025
2026
2026
2026
2026
2026
2025
2024
2022
2021
2020
2018
2017
2015
2014
2013
2013
2012
2011
2007
2004
2003
2005
2009
2012
2013
2011
2009
2007
2005
2006
2005
2005
2005
2005
2006
2006
2006
2006
2006
2006
2006
2006
2006
2006
2007
2006
2007
2007
2007
2005
2003
2003
2004
2007
2010
2010
2009
2007
2005
2002
2003
2003
2003
2004
2004
2004
2004
2004
2004
2004
2004
2005
2005
2004
2004
2004
2004
2005
2006
2005
2002
1999
1997
1998
2002
2006
2009
2009
2005
2002
1999
1998
2000
2001
2001
2001
2001
2001
2000
2000
2000
2001
2001
2002
2002
2002
2002
2001
2001
2001
2001
2000
1999
1997
1998
2000
2003
2005
2004
2002
2000
1998
1997
1998
1998
1999
2000
2000
2000
2000
2000
2000
2000
2000
1999
2000
2000
2000
2001
2000
2002
2001
2000
1998
1995
1995
1997
2001
2004
2005
2003
2001
1999
1998
2001
2002
2003
2003
2004
2004
2002
2000
2000
2002
2006
2009
2011
2009
2007
2005
2004
2005
2006
2007
2006
2005
2006
2007
2010
2012
2013
2012
2010
2009
2009
2011
2012
2014
2014
2014
2013
2013
2013
2014
2014
2014
2014
2015
2015
2016
2016
2017
2017
2018
2018
2017
2016
2016
2017
2018
2021
2022
2021
2019
2018
2017
2017
2016
2014
2012
2012
2017
2028
2041
2052
2058
2058
2053
2048
2042
2038
2036
2033
2031
2029
2027
2027
2025
2024
2023
2023
2025
2028
2030
2030
2029
2028
2027
2027
2027
2029
2029
2028
2029
2030
2031
2032
2032
2032
2033
2032
2033
2033
2033
2034
2035
2035
2035
2034
2033
2034
2036
2039
2042
2044
2044
2043
2043
2042
2043
2043
2044
2045
2046
2047
2048
2048
2048
2048
2048
2049
2049
2049
2049
2049
2049
2051
2053
2053
2050
2047
2044
2044
2047
2050
2051
2049
2046
2042
2039
2039
2040
2040
2041
2042
2043
2043
2042
2041
2040
2040
2040
2040
2041
2041
2042
2042
2044
2044
2044
2042
2041
2040
2042
2046
2048
2050
2049
2047
2045
2042
2044
2044
2044
2044
2044
2044
2045
2045
2046
2046
2046
2045
2045
2046
2046
2046
2045
2045
2046
2045
2044
2042
2041
2041
2044
2048
2051
2052
2050
2048
2046
2044
2045
2045
2046
2046
2046
2046
2046
2047
2048
2048
2048
2049
2048
2048
2048
2048
2049
2050
2050
2049
2048
2046
2047
2049
2053
2056
2058
2056
2054
2052
2051
2052
2052
2053
2052
2052
2052
2052
2053
2053
2054
2054
2054
2053
2053
2053
2054
2053
2055
2055
2056
2056
2054
2054
2055
2057
2059
2061
2061
2059
2057
2055
2056
2056
2056
2057
2057
2057
2057
2057
2057
2057
2058
2058
2059
2059
2060
2059
2059
2059
2060
2060
2059
2058
2057
2057
2058
2060
2062
2062
2061
2061
2061
2062
2063
2064
2064
2064
2064
2063
2063
2062
2062
2061
2061
2060
2060
2060
2061
2062
2064
2064
2061
2058
2056
2058
2067
2081
2096
2105
2107
2103
2095
2088
2083
2078
2074
2070
2067
2065
2065
2064
2064
2064
2063
2063
2063
2063
2063
2063
2063
2062
2063
2063
2062
2061
2060
2059
2061
2064
2067
2068
2068
2066
2065
2063
2064
2064
2064
2065
2065
2066
2067
2068
2068
2068
2068
2068
2069
2069
2070
2071
2072
2074
2075
2076
2073
2070
2068
2069
2072
2078
2084
2086
2084
2081
2076
2076
2077
2078
2080
2080
2079
2079
2077
2076
2075
2074
2073
2072
2071
2070
2069
2068
2067
2067
2066
2065
2062
2061
2062
2065
2069
2072
2072
2070
2067
2064
2064
2066
2066
2068
2067
2068
2068
2068
2069
2069
2070
2070
2069
2070
2070
2071
2071
2070
2072
2070
2069
2066
2064
2064
2067
2071
2074
2074
2072
2069
2068
2067
2069
2069
2069
2070
2070
2071
2072
2072
2072
2072
2072
2071
2071
2070
2069
2069
2069
2070
2071
2071
2070
2069
2069
2070
2072
2073
2074
2072
2071
2069
2068
2068
2069
2069
2070
2069
2069
2069
2068
2068
2069
2069
2069
2070
2070
2071
2071
2070
2071
2070
2069
2069
2068
2068
2068
2070
2071
2071
2071
2069
2068
2068
2069
2070
2071
2072
2071
2071
2071
2070
2070
2070
2071
2071
2071
2071
2070
2069
2068
2068
2068
2068
2067
2066
2065
2065
2067
2069
2072
2074
2073
2072
2070
2070
2070
2070
2070
2070
2070
2071
2071
2071
2071
2070
2069
2069
2069
2068
2068
2068
2068
2070
2069
2068
2066
2065
2065
2066
2069
2070
2070
2068
2068
2068
2068
2070
2069
2068
2068
2068
2068
2069
2069
2070
2070
2071
2070
2070
2069
2068
2068
2067
2067
2067
2067
2066
2064
2064
2065
2065
2065
2065
2066
2070
2078
2089
2099
2104
2105
2101
2095
2090
2086
2082
2078
2074
2072
2070
2069
2068
2067
2066
2065
2067
2068
2069
2066
2063
2061
2060
2061
2063
2065
2068
2071
2072
2070
2068
2064
2062
2061
2064
2066
2067
2066
2066
2066
2066
2066
2066
2066
2066
2067
2068
2069
2070
2069
2067
2064
2063
2064
2067
2071
2074
2074
2072
2071
2070
2071
2073
2073
2074
2074
2075
2075
2075
2076
2076
2075
2074
2073
2072
2071
2069
2067
2065
2065
2062
2060
2057
2054
2053
2055
2059
2062
2063
2060
2057
2055
2053
2055
2055
2056
2057
2057
2057
2057
2056
2055
2055
2054
2055
2055
2055
2056
2056
2056
2057
2056
2055
2054
2053
2052
2054
2055
2057
2058
2056
2055
2053
2051
2053
2053
2054
2054
2054
2054
2053
2052
2052
2052
2053
2053
2053
2053
2052
2052
2052
2052
2053
2053
2052
2050
2050
2051
2053
2054
2055
2054
2052
2050
2049
2051
2052
2053
2053
2052
2052
2052
2051
2050
2051
2052
2052
2052
2050
2048
2048
2048
2051
2054
2056
2054
2052
2049
2049
2051
2054
2057
2056
2055
2052
2050
2050
2051
2052
2052
2052
2052
2051
2050
2050
2051
2052
2053
2053
2052
2051
2051
2050
2050
2050
2050
2049
2048
2048
2048
2050
2053
2055
2054
2052
2050
2049
2050
2051
2051
2050
2049
2048
2048
2050
2050
2050
2050
2050
2049
2049
2049
2049
2049
2049
2050
2050
2049
2048
2046
2046
2047
2050
2053
2054
2053
2051
2050
2049
2050
2050
2050
2049
2050
2051
2053
2054
2055
2055
2054
2054
2053
2052
2052
2051
2051
2053
2054
2054
2052
2049
2048
2048
2050
2054
2054
2055
2056
2063
2072
2084
2092
2093
2089
2082
2076
2073
2069
2066
2063
2061
2059
2059
2059
2060
2061
2060
2062
2061
2060
2058
2056
2055
2056
2060
2064
2066
2065
2062
2059
2057
2057
2058
2060
2062
2062
2063
2064
2064
2063
2063
2063
2063
2063
2064
2064
2065
2065
2066
2068
2068
2068
2066
2065
2066
2071
2076
2080
2081
2078
2075
2073
2072
2075
2075
2077
2077
2077
2077
2078
2078
2078
2078
2077
2077
2076
2075
2074
2073
2073
2074
2073
2071
2068
2066
2065
2067
2069
2071
2071
2069
2067
2064
2063
2065
2065
2065
2065
2064
2064
2063
2063
2064
2064
2065
2065
2065
2065
2065
2065
2064
2065
2065
2065
2064
2062
2061
2063
2066
2068
2069
2068
2066
2064
2062
2063
2063
2064
2064
2064
2064
2065
2064
2064
2064
2063
2063
2063
2063
2063
2062
2062
2062
2062
2063
2061
2059
2058
2058
2060
2063
2065
2064
2061
2059
2057
2057
2057
2058
2057
2057
2058
2057
2057
2057
2057
2057
2056
2056
2055
2054
2054
2053
2054
2054
2055
2054
2053
2052
2051
2054
2057
2058
2057
2054
2052
2051
2052
2053
2053
2051
2050
2049
2048
2050
2049
2048
2048
2048
2048
2048
2048
2048
2048
2047
2047
2046
2046
2043
2040
2039
2040
2043
2046
2048
2047
2044
2041
2039
2039
2038
2038
2037
2037
2037
2038
2038
2037
2036
2035
2034
2033
2033
2033
2034
2034
2035
2035
2035
2032
2028
2025
2024
2027
2032
2037
2038
2036
2032
2027
2026
2025
2025
2026
2026
2027
2028
2027
2025
2023
2021
2019
2019
2020
2020
2021
2020
2021
2021
2020
2019
2017
2015
2015
2017
2020
2023
2024
2022
2019
2017
2016
2018
2018
2019
2018
2017
2016
2015
2015
2015
2016
2016
2016
2015
2015
2014
2014
2014
2015
2013
2012
2010
2008
2008
2010
2014
2016
2014
2009
2003
2000
2001
2012
2024
2037
2043
2044
2039
2032
2027
2022
2019
2016
2012
2010
2009
2008
2008
2007
2007
2006
2005
2004
2002
2001
2002
2004
2006
2007
2005
2003
2001
1999
2000
2000
2001
2001
2001
2001
2001
2001
2001
2002
2002
2002
2003
2003
2004
2004
2004
2004
2005
2005
2005
2004
2004
2004
2006
2007
2008
2008
2008
2007
2006
2007
2008
2009
2010
2011
2010
2008
2008
2009
2014
2018
2021
2020
2017
2014
2011
2011
2012
2013
2011
2009
2006
2005
2005
2007
2009
2009
2007
2004
2001
2000
2000
2000
2001
2001
2001
2000
2000
2000
2000
2001
2001
2001
2001
2001
2001
2001
2002
2003
2004
2004
2003
2001
2001
2002
2005
2007
2007
2006
2005
2005
2004
2006
2006
2006
2004
2004
2003
2003
2004
2004
2005
2005
2006
2006
2006
2005
2005
2004
2005
2005
2005
2004
2004
2003
2004
2006
2009
2011
2010
2008
2005
2003
2003
2005
2006
2007
2008
2008
2008
2008
2009
2010
2011
2011
2011
2010
2010
2010
2010
2011
2013
2014
2014
2012
2009
2007
2009
2014
2019
2022
2021
2017
2013
2011
2011
2014
2014
2015
2016
2016
2016
2016
2016
2015
2015
2016
2016
2017
2017
2018
2018
2019
2021
2021
2020
2017
2015
2015
2018
2022
2025
2025
2023
2020
2018
2018
2020
2021
2021
2021
2022
2023
2023
2023
2023
2023
2023
2023
2024
2024
2025
2024
2025
2025
2025
2025
2023
2023
2023
2024
2027
2029
2030
2029
2028
2027
2027
2026
2027
2027
2028
2029
2029
2028
2028
2027
2027
2028
2028
2029
2029
2029
2029
2029
2030
2031
2031
2030
2029
2028
2029
2031
2033
2034
2032
2029
2026
2025
2025
2025
2026
2028
2029
2030
2029
2027
2023
2022
2027
2038
2051
2063
2069
2069
2063
2056
2050
2047
2044
2041
2038
2036
2037
2038
2038
2038
2036
2034
2033
2034
2034
2034
2034
2033
2033
2034
2034
2035
2036
2037
2037
2038
2038
2038
2038
2037
2038
2038
2038
2038
2037
2037
2038
2040
2041
2042
2041
2041
2042
2042
2043
2044
2044
2045
2045
2045
2046
2047
2048
2048
2049
2050
2051
2051
2051
2052
2053
2054
2055
2055
2055
2053
2053
2053
2054
2057
2058
2057
2054
2050
2049
2048
2049
2048
2048
2046
2045
2044
2043
2044
2043
2043
2043
2043
2042
2042
2042
2043
2043
2044
2044
2043
2042
2040
2040
2042
2045
2047
2048
2047
2046
2046
2045
2046
2046
2046
2046
2046
2046
2046
2045
2045
2045
2045
2045
2045
2045
2045
2045
2045
2048
2049
2049
2047
2043
2041
2042
2046
2050
2053
2052
2049
2046
2044
2044
2046
2046
2047
2048
2048
2048
2048
2048
2048
2048
2048
2048
2048
2048
2048
2048
2049
2049
2048
2047
2045
2044
2045
2048
2050
2052
2051
2049
2047
2046
2046
2047
2047
2048
2048
2048
2048
2047
2047
2046
2045
2045
2045
2045
2045
2045
2045
2045
2046
2044
2043
2041
2040
2042
2046
2050
2052
2052
2049
2047
2045
2044
2047
2047
2047
2047
2047
2047
2046
2046
2046
2046
2046
2046
2046
2047
2047
2047
2048
2048
2048
2047
2045
2045
2045
2047
2049
2051
2051
2049
2048
2047
2047
2048
2048
2050
2050
2050
2050
2050
2049
2049
2048
2048
2048
2048
2048
2049
2048
2048
2049
2048
2048
2046
2045
2046
2048
2050
2053
2053
2052
2050
2048
2048
2050
2052
2053
2054
2055
2055
2055
2055
2055
2055
2055
2054
2054
2053
2053
2052
2052
2053
2054
2055
2053
2050
2047
2048
2055
2068
2083
2093
2096
2092
2086
2080
2076
2073
2069
2064
2060
2058
2057
2057
2057
2057
2056
2056
2056
2055
2055
2055
2056
2057
2058
2058
2057
2056
2056
2057
2059
2061
2061
2060
2059
2058
2059
2061
2062
2062
2062
2061
2060
2061
2061
2064
2064
2064
2064
2064
2064
2064
2065
2066
2068
2069
2070
2070
2070
2070
2071
2073
2075
2076
2076
2076
2075
2074
2075
2076
2077
2077
2077
2077
2077
2077
2077
2078
2077
2075
2073
2071
2070
2069
2068
2070
2070
2070
2067
2064
2060
2060
2063
2067
2072
2073
2071
2068
2064
2063
2063
2063
2064
2064
2064
2065
2065
2065
2065
2065
2065
2064
2064
2065
2066
2067
2067
2068
2067
2065
2065
2064
2066
2066
2066
2066
2066
2068
2070
2071
2070
2067
2063
2060
2060
2061
2064
2063
2062
2062
2063
2062
2063
2062
2062
2063
2063
2063
2064
2063
2062
2060
2058
2058
2061
2065
2068
2068
2066
2063
2061
2059
2061
2061
2061
2061
2061
2061
2061
2062
2062
2061
2061
2062
2062
2062
2062
2062
2062
2064
2064
2064
2063
2061
2060
2061
2063
2064
2064
2063
2062
2061
2060
2061
2060
2061
2060
2059
2059
2059
2059
2059
2059
2060
2060
2060
2061
2060
2060
2059
2059
2059
2059
2059
2058
2057
2057
2058
2060
2060
2059
2058
2057
2056
2056
2057
2058
2058
2058
2058
2058
2058
2058
2059
2059
2058
2058
2058
2057
2056
2056
2056
2056
2057
2056
2055
2054
2055
2057
2058
2058
2058
2057
2056
2056
2057
2057
2057
2057
2056
2056
2056
2056
2057
2057
2058
2058
2059
2059
2058
2057
2056
2055
2055
2054
2054
2053
2053
2054
2057
2058
2057
2053
2051
2052
2058
2070
2082
2090
2092
2089
2083
2077
2071
2067
2063
2059
2058
2056
2055
2055
2054
2053
2054
2055
2055
2054
2052
2051
2051
2053
2056
2059
2059
2058
2056
2054
2053
2053
2053
2053
2053
2054
2054
2054
2054
2054
2055
2056
2056
2056
2055
2055
2055
2056
2058
2058
2058
2056
2054
2053
2055
2058
2061
2062
2061
2059
2058
2057
2058
2059
2060
2061
2061
2062
2062
2062
2062
2062
2062
2062
2061
2061
2060
2059
2057
2056
2056
2054
2051
2048
2046
2047
2049
2053
2054
2053
2050
2048
2046
2046
2047
2047
2048
2048
2048
2049
2048
2049
2049
2049
2049
2049
2049
2048
2049
2048
2049
2049
2048
2048
2046
2045
2044
2046
2048
2049
2050
2048
2047
2045
2044
2045
2045
2047
2047
2047
2047
2047
2047
2047
2047
2047
2047
2047
2047
2047
2047
2046
2048
2049
2049
2048
2044
2043
2044
2048
2051
2053
2051
2048
2046
2045
2046
2048
2048
2048
2048
2048
2048
2048
2048
2048
2048
2048
2048
2047
2047
2046
2047
2048
2048
2048
2046
2045
2044
2044
2046
2048
2049
2048
2048
2046
2044
2044
2045
2045
2045
2045
2044
2044
2044
2044
2044
2044
2044
2044
2044
2043
2043
2043
2044
2044
2044
2043
2042
2042
2043
2044
2045
2046
2045
2044
2043
2042
2043
2044
2046
2045
2044
2044
2043
2043
2044
2044
2045
2045
2045
2045
2045
2045
2045
2045
2045
2045
2044
2043
2041
2041
2043
2046
2047
2048
2048
2047
2046
2045
2044
2043
2042
2043
2044
2046
2046
2045
2045
2044
2044
2044
2044
2043
2043
2043
2043
2044
2045
2045
2044
2043
2043
2045
2046
2047
2046
2044
2042
2041
2039
2040
2039
2039
2039
2040
2041
2041
2040
2038
2035
2035
2040
2048
2059
2069
2075
2075
2074
2070
2065
2059
2052
2047
2043
2043
2044
2045
2044
2043
2042
2040
2040
2040
2039
2038
2038
2038
2038
2038
2037
2037
2037
2037
2037
2037
2038
2038
2038
2038
2040
2040
2038
2035
2033
2034
2038
2043
2047
2047
2044
2041
2038
2038
2041
2042
2042
2042
2042
2042
2041
2042
2042
2042
2043
2044
2045
2046
2046
2046
2048
2048
2048
2047
2045
2044
2046
2048
2052
2054
2053
2049
2047
2044
2043
2042
2041
2039
2037
2036
2035
2034
2033
2033
2033
2032
2032
2032
2032
2032
2031
2031
2034
2033
2032
2030
2028
2027
2029
2033
2035
2036
2033
2031
2029
2029
2032
2033
2034
2033
2033
2032
2032
2033
2034
2034
2034
2034
2033
2033
2033
2033
2033
2034
2033
2032
2031
2030
2029
2030
2033
2035
2036
2036
2034
2032
2032
2032
2033
2034
2035
2034
2033
2033
2033
2033
2033
2034
2034
2034
2034
2033
2033
2032
2033
2033
2034
2033
2033
2033
2034
2035
2037
2038
2036
2035
2033
2032
2032
2033
2034
2035
2034
2033
2032
2033
2037
2040
2042
2041
2038
2034
2032
2033
2034
2035
2036
2036
2035
2033
2032
2031
2033
2036
2039
2039
2037
2036
2034
2034
2035
2034
2034
2033
2033
2034
2035
2036
2036
2036
2036
2035
2034
2033
2034
2034
2034
2035
2036
2036
2035
2034
2033
2034
2035
2036
2037
2036
2035
2035
2035
2036
2037
2039
2038
2038
2037
2037
2036
2036
2036
2036
2036
2036
2036
2036
2037
2037
2038
2036
2034
2032
2035
2043
2055
2069
2079
2081
2076
2067
2059
2053
2049
2047
2044
2042
2041
2040
2041
2041
2040
2040
2039
2039
2039
2039
2039
2039
2039
2039
2039
2039
2039
2038
2038
2039
2041
2044
2046
2046
2045
2043
2041
2041
2041
2041
2042
2042
2043
2044
2044
2044
2044
2044
2044
2045
2045
2045
2045
2045
2046
2048
2048
2048
2047
2047
2048
2050
2054
2056
2057
2055
2053
2051
2051
2052
2053
2054
2054
2054
2053
2052
2050
2048
2047
2045
2044
2043
2042
2041
2041
2040
2042
2042
2042
2039
2035
2033
2033
2038
2043
2047
2047
2044
2040
2036
2038
2038
2041
2041
2041
2042
2042
2042
2042
2042
2043
2043
2043
2044
2044
2044
2043
2043
2043
2042
2042
2041
2041
2042
2044
2046
2048
2047
2046
2044
2042
2042
2043
2044
2044
2044
2043
2043
2042
2041
2041
2041
2042
2042
2042
2042
2042
2040
2040
2040
2040
2040
2039
2039
2039
2041
2042
2043
2043
2042
2042
2041
2041
2042
2042
2041
2040
2040
2040
2040
2040
2040
2040
2040
2040
2040
2040
2040
2040
2040
2040
2040
2038
2037
2036
2037
2038
2040
2040
2038
2036
2035
2035
2036
2037
2037
2038
2038
2037
2037
2037
2037
2038
2039
2040
2039
2039
2038
2038
2037
2038
2039
2038
2037
2036
2036
2037
2039
2041
2042
2041
2039
2038
2037
2037
2038
2037
2037
2037
2037
2037
2037
2037
2037
2037
2038
2039
2039
2039
2039
2039
2039
2041
2041
2041
2040
2038
2038
2038
2041
2044
2044
2044
2042
2039
2038
2038
2039
2040
2041
2041
2042
2043
2043
2042
2041
2041
2040
2040
2040
2039
2039
2038
2040
2040
2041
2039
2035
2030
2029
2035
2046
2059
2072
2078
2079
2074
2068
2061
2056
2052
2048
2046
2044
2042
2041
2040
2040
2038
2038
2038
2038
2039
2039
2040
2040
2040
2039
2037
2036
2037
2038
2041
2043
2043
2042
2041
2040
2040
2042
2043
2044
2044
2043
2043
2043
2043
2044
2044
2044
2044
2044
2043
2043
2044
2043
2046
2046
2048
2047
2044
2042
2043
2047
2052
2057
2058
2055
2051
2048
2049
2050
2053
2054
2054
2053
2053
2053
2052
2052
2051
2050
2048
2048
2046
2045
2043
2045
2043
2043
2041
2039
2039
2040
2042
2045
2046
2044
2042
2040
2038
2039
2039
2040
2040
2040
2040
2041
2042
2042
2042
2042
2042
2042
2043
2044
2045
2045
2045
2045
2046
2045
2045
2045
2045
2046
2048
2048
2048
2048
2047
2046
2046
2047
2047
2047
2047
2047
2047
2048
2048
2048
2048
2049
2050
2050
2050
2051
2050
2050
2051
2051
2051
2050
2050
2050
2052
2054
2055
2055
2054
2053
2053
2053
2054
2054
2053
2052
2053
2053
2054
2054
2054
2054
2055
2056
2056
2056
2055
2055
2055
2055
2057
2056
2056
2055
2055
2055
2057
2058
2059
2059
2058
2058
2057
2058
2058
2059
2059
2060
2060
2061
2061
2062
2062
2063
2063
2063
2063
2063
2063
2062
2064
2064
2065
2063
2060
2059
2059
2063
2067
2069
2068
2065
2062
2060
2060
2061
2062
2062
2062
2061
2061
2061
2061
2061
2061
2061
2061
2062
2062
2063
2063
2064
2064
2063
2062
2059
2058
2058
2061
2064
2067
2066
2064
2062
2059
2059
2059
2060
2060
2060
2061
2061
2061
2060
2060
2059
2059
2059
2059
2058
2058
2058
2060
2059
2057
2055
2053
2054
2058
2063
2064
2061
2056
2050
2048
2048
2052
2055
2057
2057
2055
2052
2048
2048
2053
2062
2073
2082
2085
2081
2074
2066
2060
2057
2056
2054
2051
2047
2044
2042
2043
2047
2049
2049
2047
2044
2040
2038
2039
2039
2040
2039
2039
2038
2038
2037
2036
2035
2035
2035
2035
2035
2035
2034
2032
2034
2033
2032
2030
2027
2026
2027
2031
2035
2037
2034
2030
2027
2025
2027
2028
2029
2029
2028
2028
2027
2027
2027
2027
2027
2027
2028
2028
2027
2026
2024
2025
2025
2025
2023
2021
2018
2017
2019
2022
2024
2022
2017
2012
2008
2007
2007
2006
2005
2004
2003
2001
2001
2000
2000
1999
1999
1998
1998
1997
1996
1995
1993
1994
1994
1993
1991
1989
1988
1990
1995
2000
2000
1998
1993
1990
1988
1991
1992
1993
1992
1990
1990
1989
1988
1988
1987
1986
1986
1987
1987
1987
1986
1984
1984
1983
1983
1982
1980
1979
1981
1983
1986
1987
1986
1983
1981
1979
1979
1980
1980
1980
1980
1980
1979
1979
1979
1979
1979
1979
1979
1978
1978
1977
1977
1979
1979
1979
1977
1974
1972
1972
1974
1978
1981
1981
1979
1976
1973
1973
1973
1973
1974
1973
1973
1973
1973
1973
1973
1972
1972
1972
1972
1972
1973
1972
1973
1974
1974
1973
1971
1969
1970
1972
1976
1979
1978
1976
1974
1973
1973
1975
1975
1976
1976
1976
1977
1976
1975
1974
1973
1972
1973
1973
1973
1974
1974
1975
1975
1974
1971
1966
1963
1966
1977
1993
2009
2017
2014
2004
1994
1986
1983
1982
1981
1978
1976
1974
1973
1972
1972
1972
1972
1972
1971
1970
1970
1971
1971
1974
1974
1976
1973
1969
1966
1967
1972
1979
1984
1985
1981
1977
1972
1974
1975
1978
1979
1979
1979
1979
1979
1979
1979
1980
1980
1981
1981
1982
1982
1981
1983
1984
1985
1984
1982
1982
1984
1988
1993
1996
1996
1994
1991
1990
1991
1993
1994
1995
1995
1995
1995
1994
1993
1992
1990
1988
1987
1986
1985
1984
1983
1983
1984
1984
1984
1982
1981
1982
1983
1986
1988
1988
1987
1984
1982
1982
1983
1985
1985
1985
1984
1984
1984
1985
1985
1985
1985
1986
1987
1989
1989
1988
1989
1990
1991
1993
1992
1991
1989
1989
1991
1993
1993
1994
1992
1992
1991
1992
1992
1992
1992
1992
1992
1994
1994
1994
1994
1994
1995
1996
1997
1997
1997
1997
1998
1998
1999
1999
1998
1999
2001
2003
2005
2006
2005
2004
2003
2003
2003
2002
2002
2002
2002
2003
2003
2004
2005
2005
2004
2005
2005
2005
2005
2005
2004
2006
2006
2007
2007
2006
2006
2007
2011
2014
2015
2014
2011
2009
2007
2008
2008
2009
2010
2011
2011
2011
2011
2011
2012
2012
2013
2013
2013
2014
2014
2015
2016
2017
2017
2015
2012
2010
2011
2015
2020
2024
2025
2023
2019
2017
2016
2017
2018
2019
2019
2019
2019
2019
2019
2020
2020
2020
2020
2020
2020
2021
2022
2023
2025
2026
2026
2024
2023
2023
2024
2027
2030
2030
2028
2025
2023
2022
2024
2026
2027
2026
2024
2021
2021
2026
2036
2048
2060
2065
2064
2059
2052
2048
2043
2042
2039
2036
2032
2030
2029
2030
2033
2037
2038
2037
2034
2032
2030
2032
2032
2033
2034
2035
2035
2035
2035
2035
2036
2036
2038
2039
2039
2040
2040
2040
2041
2041
2042
2042
2042
2042
2042
2043
2045
2046
2047
2047
2047
2047
2048
2048
2049
2050
2050
2050
2051
2052
2053
2054
2055
2057
2058
2059
2059
2059
2059
2059
2058
2059
2058
2057
2057
2057
2057
2058
2058
2057
2055
2052
2050
2048
2048
2048
2047
2047
2046
2046
2045
2045
2045
2045
2044
2044
2044
2044
2044
2045
2044
2045
2044
2044
2043
2043
2044
2045
2047
2048
2048
2047
2046
2045
2045
2046
2047
2045
2042
2041
2042
2046
2049
2051
2049
2046
2043
2040
2042
2043
2045
2044
2045
2044
2043
2041
2041
2041
2043
2045
2047
2046
2045
2043
2043
2042
2044
2044
2044
2044
2044
2044
2044
2045
2045
2045
2045
2046
2045
2045
2045
2044
2044
2046
2046
2046
2045
2043
2042
2043
2045
2048
2049
2049
2048
2045
2043
2044
2044
2045
2046
2046
2047
2048
2048
2048
2048
2047
2047
2047
2048
2048
2050
2050
2050
2049
2049
2048
2048
2047
2047
2048
2051
2053
2052
2050
2048
2047
2047
2048
2048
2049
2049
2050
2051
2050
2050
2049
2049
2049
2049
2049
2048
2048
2048
2048
2048
2048
2048
2047
2047
2047
2049
2051
2052
2052
2049
2048
2046
2046
2047
2047
2048
2048
2049
2049
2048
2045
2042
2045
2052
2065
2078
2086
2088
2083
2077
2073
2067
2064
2057
2050
2046
2046
2049
2055
2059
2058
2054
2048
2045
2045
2045
2048
2048
2048
2048
2047
2047
2047
2048
2048
2048
2048
2048
2049
2049
2048
2051
2050
2050
2048
2047
2047
2048
2051
2054
2055
2054
2052
2050
2049
2051
2052
2054
2055
2055
2055
2055
2055
2055
2056
2057
2058
2058
2058
2059
2059
2059
2060
2061
2062
2061
2060
2059
2059
2061
2063
2064
2062
2059
2056
2053
2053
2052
2052
2051
2050
2049
2048
2048
2047
2047
2046
2046
2045
2045
2044
2044
2044
2044
2044
2045
2045
2044
2043
2042
2043
2045
2046
2047
2046
2044
2044
2043
2044
2044
2044
2044
2044
2044
2044
2045
2044
2045
2044
2043
2042
2042
2042
2044
2045
2045
2045
2044
2042
2041
2040
2042
2043
2045
2045
2044
2043
2041
2040
2041
2041
2041
2041
2041
2041
2040
2040
2040
2040
2039
2040
2039
2039
2039
2039
2038
2040
2041
2041
2040
2039
2037
2037
2039
2042
2044
2044
2042
2039
2037
2037
2037
2037
2038
2038
2038
2038
2038
2038
2037
2037
2037
2037
2037
2037
2037
2036
2036
2037
2037
2035
2033
2031
2031
2033
2037
2040
2040
2038
2035
2033
2031
2033
2034
2034
2035
2035
2035
2035
2035
2035
2035
2035
2034
2034
2034
2035
2035
2035
2035
2035
2034
2033
2032
2032
2033
2036
2038
2038
2037
2034
2032
2031
2032
2032
2033
2033
2033
2033
2033
2033
2033
2033
2033
2033
2033
2034
2034
2034
2033
2035
2035
2034
2033
2030
2029
2030
2033
2036
2037
2035
2032
2030
2028
2029
2029
2027
2026
2028
2035
2047
2059
2069
2072
2069
2063
2057
2052
2048
2045
2041
2038
2036
2036
2036
2035
2035
2034
2036
2038
2039
2039
2038
2037
2036
2037
2038
2038
2039
2039
2039
2040
2040
2040
2040
2039
2040
2040
2040
2041
2041
2041
2040
2041
2042
2041
2041
2041
2041
2043
2045
2047
2048
2048
2047
2046
2047
2048
2049
2049
2050
2051
2051
2052
2052
2053
2053
2053
2053
2053
2053
2053
2053
2054
2054
2054
2053
2051
2049
2048
2049
2050
2049
2048
2046
2043
2042
2041
2041
2041
2041
2040
2039
2038
2038
2037
2037
2036
2035
2036
2035
2035
2034
2034
2034
2036
2036
2035
2034
2033
2033
2036
2038
2039
2038
2035
2033
2033
2032
2033
2033
2033
2033
2033
2033
2033
2032
2032
2032
2031
2031
2031
2031
2031
2030
2029
2030
2030
2030
2029
2027
2025
2026
2029
2032
2033
2033
2030
2028
2026
2025
2025
2025
2024
2024
2024
2025
2025
2025
2025
2025
2026
2025
2025
2024
2024
2024
2024
2024
2024
2022
2020
2019
2019
2021
2024
2025
2025
2023
2021
2019
2020
2020
2021
2021
2021
2021
2021
2020
2020
2019
2019
2019
2019
2019
2019
2019
2019
2018
2019
2018
2016
2013
2011
2010
2013
2018
2021
2022
2020
2017
2014
2012
2013
2013
2014
2014
2014
2014
2014
2014
2014
2015
2015
2016
2016
2015
2012
2011
2010
2014
2017
2019
2019
2016
2013
2012
2014
2017
2018
2016
2013
2012
2010
2013
2014
2015
2015
2015
2014
2013
2012
2012
2012
2011
2011
2011
2011
2011
2011
2011
2010
2007
2005
2006
2012
2022
2035
2045
2049
2048
2041
2032
2026
2023
2021
2020
2017
2016
2014
2013
2012
2012
2012
2011
2011
2011
2011
2011
2012
2013
2013
2013
2013
2014
2014
2013
2013
2014
2015
2017
2019
2019
2019
2018
2016
2016
2017
2018
2018
2019
2019
2019
2018
2018
2019
2020
2022
2023
2023
2023
2023
2023
2024
2025
2026
2026
2026
2025
2026
2028
2030
2032
2032
2031
2031
2030
2031
2032
2033
2033
2033
2033
2033
2033
2032
2031
2030
2028
2028
2026
2024
2022
2022
2022
2024
2024
2024
2022
2020
2019
2019
2020
2021
2021
2020
2020
2020
2020
2021
2020
2020
2020
2021
2021
2022
2023
2023
2024
2024
2024
2024
2023
2023
2024
2025
2027
2028
2029
2028
2026
2025
2026
2029
2033
2035
2035
2033
2029
2027
2027
2027
2029
2030
2030
2030
2030
2031
2031
2031
2031
2031
2031
2031
2032
2032
2032
2032
2032
2032
2032
2031
2031
2031
2033
2035
2037
2037
2036
2036
2035
2035
2036
2036
2035
2035
2036
2036
2037
2037
2037
2037
2037
2037
2037
2036
2037
2037
2038
2040
2039
2038
2034
2032
2034
2038
2044
2048
2048
2045
2041
2038
2037
2039
2039
2038
2037
2037
2037
2038
2039
2039
2040
2041
2040
2038
2035
2035
2038
2048
2061
2073
2079
2077
2071
2064
2060
2060
2061
2059
2055
2051
2048
2048
2049
2049
2049
2048
2048
2049
2049
2049
2049
2049
2050
2050
2051
2051
2051
2051
2051
2053
2053
2053
2053
2052
2053
2055
2057
2060
2060
2059
2057
2056
2056
2057
2057
2058
2058
2059
2060
2061
2061
2062
2063
2063
2065
2066
2066
2067
2067
2067
2069
2070
2071
2070
2068
2068
2070
2074
2077
2079
2077
2074
2071
2069
2069
2070
2069
2068
2067
2066
2065
2064
2064
2063
2062
2062
2062
2062
2062
2062
2061
2062
2062
2063
2062
2061
2060
2060
2061
2064
2066
2067
2066
2064
2063
2063
2063
2064
2063
2063
2063
2063
2063
2063
2064
2064
2064
2065
2064
2065
2064
2064
2063
2063
2064
2065
2066
2066
2065
2065
2065
2066
2067
2067
2065
2064
2063
2063
2063
2064
2063
2063
2063
2064
2064
2064
2064
2064
2064
2064
2064
2064
2064
2064
2065
2066
2067
2066
2064
2063
2063
2064
2066
2068
2068
2067
2065
2064
2064
2063
2064
2064
2064
2065
2065
2066
2066
2066
2065
2065
2064
2064
2064
2064
2064
2064
2065
2064
2063
2061
2060
2061
2064
2068
2071
2071
2068
2065
2063
2063
2064
2065
2066
2066
2067
2067
2067
2067
2066
2066
2066
2066
2066
2066
2066
2066
2065
2067
2066
2065
2061
2057
2055
2059
2069
2082
2095
2102
2102
2097
2090
2085
2080
2077
2073
2070
2067
2065
2065
2065
2065
2064
2064
2064
2064
2064
2064
2062
2063
2063
2062
2062
2061
2061
2062
2063
2065
2066
2064
2063
2062
2061
2063
2063
2064
2064
2065
2065
2065
2065
2064
2064
2065
2066
2067
2068
2068
2067
2066
2068
2069
2069
2068
2067
2067
2068
2072
2075
2077
2077
2074
2073
2071
2072
2074
2075
2076
2077
2076
2076
2075
2074
2073
2072
2071
2069
2068
2067
2066
2065
2064
2062
2062
2061
2059
2058
2058
2059
2060
2061
2061
2060
2058
2057
2057
2058
2059
2059
2059
2059
2058
2058
2058
2058
2058
2058
2058
2058
2058
2059
2059
2059
2060
2059
2059
2058
2056
2056
2056
2058
2060
2062
2062
2061
2060
2058
2058
2058
2058
2059
2059
2059
2059
2059
2059
2059
2059
2059
2060
2059
2061
2061
2060
2060
2059
2058
2058
2057
2058
2060
2062
2063
2064
2062
2060
2056
2053
2054
2055
2059
2062
2064
2063
2060
2059
2057
2058
2058
2059
2059
2059
2060
2060
2059
2060
2060
2061
2061
2059
2058
2059
2061
2066
2069
2069
2067
2064
2061
2060
2061
2061
2062
2062
2063
2063
2063
2062
2062
2061
2061
2061
2062
2062
2063
2064
2065
2065
2064
2063
2062
2061
2062
2065
2067
2068
2068
2066
2064
2063
2063
2063
2063
2063
2063
2064
2064
2064
2065
2065
2066
2066
2066
2066
2066
2065
2065
2064
2065
2065
2064
2063
2062
2063
2065
2067
2068
2068
2066
2063
2060
2057
2058
2064
2074
2087
2098
2105
2105
2099
2092
2086
2080
2077
2073
2070
2067
2066
2065
2065
2065
2065
2065
2064
2063
2064
2065
2067
2069
2068
2067
2065
2064
2064
2064
2065
2066
2066
2066
2066
2066
2065
2066
2066
2067
2068
2068
2068
2069
2068
2069
2069
2068
2067
2067
2067
2069
2071
2071
2071
2070
2070
2070
2071
2072
2072
2073
2073
2074
2075
2076
2076
2076
2076
2077
2077
2078
2079
2079
2079
2079
2079
2078
2078
2076
2074
2072
2070
2070
2071
2071
2070
2069
2068
2067
2067
2067
2067
2066
2066
2066
2066
2066
2066
2066
2066
2066
2066
2066
2065
2065
2065
2065
2066
2066
2065
2065
2064
2064
2066
2067
2068
2069
2068
2067
2066
2065
2066
2066
2066
2066
2066
2065
2066
2066
2066
2066
2066
2065
2065
2065
2064
2066
2066
2066
2066
2065
2064
2064
2064
2065
2066
2067
2067
2067
2065
2064
2062
2063
2063
2064
2063
2063
2064
2064
2064
2065
2065
2064
2064
2064
2063
2064
2063
2063
2063
2063
2063
2062
2062
2062
2062
2063
2065
2065
2065
2064
2063
2062
2062
2062
2062
2063
2063
2063
2063
2063
2063
2063
2063
2063
2063
2063
2063
2063
2062
2063
2063
2063
2062
2061
2060
2060
2062
2065
2067
2067
2065
2063
2062
2062
2062
2063
2063
2063
2063
2063
2063
2063
2062
2062
2062
2062
2062
2062
2062
2062
2062
2062
2060
2059
2058
2058
2059
2062
2065
2067
2066
2064
2061
2059
2059
2060
2060
2060
2060
2060
2060
2060
2060
2059
2058
2056
2053
2052
2055
2063
2075
2085
2094
2095
2091
2083
2074
2068
2065
2066
2068
2069
2067
2063
2058
2054
2053
2053
2053
2054
2053
2053
2053
2053
2053
2053
2053
2054
2054
2055
2055
2055
2055
2056
2056
2056
2056
2055
2055
2055
2056
2058
2060
2060
2058
2057
2055
2056
2056
2056
2058
2058
2058
2058
2057
2057
2058
2059
2060
2061
2061
2061
2061
2061
2062
2062
2063
2063
2062
2062
2062
2064
2066
2068
2068
2067
2065
2062
2060
2060
2059
2059
2058
2056
2055
2053
2052
2051
2051
2050
2049
2049
2048
2048
2048
2048
2048
2048
2047
2046
2045
2046
2048
2050
2052
2053
2052
2051
2049
2048
2048
2048
2048
2048
2048
2048
2048
2048
2048
2048
2048
2048
2048
2048
2048
2048
2048
2048
2048
2048
2048
2046
2045
2045
2046
2048
2048
2048
2047
2046
2043
2043
2043
2043
2043
2043
2043
2043
2043
2043
2043
2042
2040
2039
2039
2041
2043
2044
2046
2047
2046
2043
2041
2039
2038
2040
2043
2046
2046
2044
2041
2039
2039
2039
2040
2041
2041
2041
2041
2041
2041
2040
2039
2039
2038
2038
2038
2038
2038
2039
2039
2039
2039
2039
2038
2039
2041
2044
2047
2047
2045
2042
2039
2039
2038
2039
2040
2039
2040
2040
2038
2036
2033
2031
2034
2043
2055
2068
2076
2076
2071
2065
2058
2054
2049
2045
2041
2039
2041
2043
2044
2042
2039
2035
2033
2034
2035
2036
2036
2035
2035
2035
2034
2034
2034
2034
2035
2034
2035
2035
2036
2035
2037
2037
2038
2036
2033
2031
2031
2035
2041
2045
2045
2043
2039
2035
2036
2037
2039
2039
2040
2041
2041
2041
2041
2041
2042
2043
2043
2041
2040
2040
2042
2048
2050
2052
2049
2046
2043
2043
2046
2049
2050
2048
2045
2041
2038
2038
2038
2038
2037
2035
2034
2034
2033
2032
2032
2031
2031
2031
2031
2031
2031
2030
2029
2031
2031
2030
2028
2026
2026
2029
2035
2040
2040
2037
2033
2030
2029
2031
2032
2033
2032
2032
2032
2032
2032
2033
2033
2032
2032
2032
2031
2032
2031
2032
2032
2032
2032
2030
2029
2029
2032
2036
2039
2039
2037
2034
2032
2030
2032
2032
2033
2033
2033
2033
2034
2034
2034
2034
2034
2034
2034
2034
2034
2034
2034
2035
2035
2035
2034
2032
2031
2032
2034
2038
2041
2041
2040
2038
2035
2035
2034
2035
2035
2035
2035
2035
2035
2034
2034
2033
2033
2033
2033
2033
2034
2034
2037
2037
2037
2035
2033
2032
2032
2035
2038
2040
2040
2038
2035
2033
2033
2033
2033
2034
2034
2034
2035
2036
2036
2037
2038
2038
2038
2038
2037
2037
2037
2036
2036
2035
2035
2033
2031
2032
2034
2037
2039
2038
2035
2034
2038
2048
2059
2070
2074
2072
2066
2060
2054
2050
2048
2045
2042
2040
2040
2039
2039
2038
2037
2038
2038
2038
2036
2034
2034
2036
2039
2043
2044
2043
2040
2037
2035
2037
2038
2038
2038
2037
2036
2036
2037
2037
2038
2038
2039
2039
2040
2040
2041
2041
2044
2044
2046
2044
2041
2040
2041
2046
2051
2056
2056
2053
2048
2045
2047
2048
2052
2053
2052
2051
2048
2048
2048
2050
2051
2052
2051
2051
2050
2049
2048
2048
2046
2045
2043
2041
2040
2039
2040
2042
2043
2042
2040
2038
2037
2037
2037
2038
2038
2038
2038
2038
2038
2038
2038
2038
2039
2039
2039
2039
2039
2039
2040
2040
2041
2040
2039
2039
2039
2040
2041
2043
2043
2042
2041
2041
2041
2041
2042
2042
2041
2040
2040
2040
2040
2041
2041
2041
2041
2041
2041
2041
2042
2042
2043
2043
2043
2042
2040
2040
2041
2042
2043
2044
2043
2042
2041
2040
2040
2041
2041
2041
2041
2041
2041
2041
2042
2042
2042
2042
2042
2042
2042
2042
2042
2044
2044
2043
2044
2044
2044
2045
2046
2046
2046
2045
2045
2045
2044
2045
2045
2044
2045
2044
2045
2045
2046
2047
2047
2047
2047
2046
2045
2045
2045
2046
2047
2048
2048
2047
2046
2045
2046
2048
2050
2051
2051
2050
2049
2048
2049
2048
2048
2048
2048
2049
2050
2050
2049
2048
2048
2048
2048
2048
2049
2050
2050
2048
2045
2044
2046
2052
2064
2076
2085
2089
2086
2080
2072
2066
2060
2057
2054
2051
2050
2049
2049
2049
2048
2048
2048
2048
2048
2048
2048
2049
2049
2049
2050
2050
2050
2049
2048
2048
2049
2051
2054
2057
2057
2056
2054
2053
2053
2054
2054
2054
2055
2055
2055
2055
2055
2055
2055
2055
2056
2057
2057
2057
2057
2055
2057
2058
2059
2058
2055
2052
2052
2056
2064
2069
2071
2067
2062
2057
2057
2057
2059
2060
2059
2059
2058
2057
2055
2054
2054
2053
2053
2052
2051
2050
2048
2049
2048
2048
2048
2046
2046
2047
2050
2053
2054
2052
2049
2048
2046
2047
2048
2048
2048
2048
2048
2048
2048
2048
2048
2048
2048
2048
2048
2048
2048
2049
2049
2050
2051
2052
2051
2049
2048
2048
2050
2052
2053
2052
2051
2049
2048
2048
2048
2049
2049
2049
2049
2049
2049
2050
2050
2050
2050
2050
2049
2050
2050
2050
2051
2052
2051
2050
2050
2049
2050
2053
2054
2055
2054
2053
2052
2051
2051
2051
2051
2051
2052
2052
2052
2052
2052
2051
2051
2051
2051
2052
2052
2053
2054
2054
2054
2054
2054
2053
2053
2053
2054
2055
2056
2057
2057
2056
2055
2055
2054
2054
2054
2054
2055
2055
2056
2057
2057
2056
2056
2055
2054
2054
2054
2054
2056
2056
2057
2056
2054
2053
2053
2054
2058
2060
2060
2058
2054
2053
2054
2059
2064
2066
2064
2060
2058
2056
2058
2059
2061
2061
2061
2061
2061
2061
2061
2062
2062
2061
2060
2058
2057
2058
2061
2065
2068
2068
2067
2064
2063
2063
2063
2064
2064
2064
2064
2064
2063
2064
2063
2064
2065
2064
2063
2060
2060
2064
2073
2087
2097
2102
2099
2093
2087
2083
2083
2082
2081
2076
2071
2068
2066
2067
2067
2067
2067
2066
2066
2065
2065
2065
2066
2066
2066
2066
2067
2067
2067
2066
2068
2069
2069
2067
2064
2063
2064
2068
2073
2077
2077
2073
2069
2065
2066
2067
2069
2070
2069
2070
2070
2070
2070
2070
2071
2072
2072
2073
2074
2074
2073
2075
2075
2075
2074
2073
2074
2076
2079
2082
2083
2081
2079
2077
2075
2077
2076
2076
2074
2073
2071
2070
2069
2068
2067
2067
2066
2065
2065
2064
2063
2063
2063
2063
2062
2063
2063
2062
2063
2064
2065
2067
2068
2068
2066
2064
2063
2062
2063
2064
2064
2064
2064
2064
2064
2064
2064
2064
2064
2065
2064
2065
2064
2064
2064
2063
2063
2062
2060
2059
2059
2062
2064
2066
2066
2064
2061
2058
2059
2059
2059
2060
2059
2059
2060
2060
2061
2061
2061
2060
2059
2059
2059
2059
2059
2060
2060
2060
2060
2058
2058
2059
2060
2062
2063
2063
2062
2061
2060
2060
2060
2059
2059
2058
2059
2059
2059
2058
2058
2057
2057
2057
2056
2057
2057
2058
2059
2060
2060
2060
2058
2058
2058
2059
2062
2063
2063
2062
2060
2058
2058
2058
2059
2060
2060
2059
2059
2059
2059
2059
2059
2059
2058
2058
2058
2059
2059
2059
2059
2058
2058
2056
2056
2057
2059
2062
2063
2062
2060
2057
2056
2056
2056
2056
2057
2056
2056
2056
2055
2053
2050
2051
2056
2066
2079
2089
2095
2093
2088
2082
2076
2072
2067
2063
2060
2060
2061
2062
2062
2060
2058
2056
2054
2055
2055
2056
2056
2057
2057
2057
2057
2057
2056
2056
2056
2056
2056
2056
2056
2056
2058
2058
2060
2059
2056
2053
2053
2056
2061
2065
2066
2063
2059
2056
2057
2057
2059
2061
2061
2061
2062
2062
2063
2064
2064
2065
2065
2065
2065
2065
2065
2066
2067
2068
2068
2067
2066
2066
2066
2067
2067
2066
2064
2061
2059
2058
2057
2056
2055
2054
2053
2053
2053
2053
2054
2054
2054
2054
2053
2053
2052
2052
2051
2051
2051
2051
2051
2050
2050
2051
2053
2054
2054
2053
2052
2052
2051
2052
2052
2052
2052
2052
2052
2052
2052
2052
2053
2052
2052
2051
2050
2050
2049
2049
2050
2051
2051
2050
2050
2050
2050
2052
2054
2055
2054
2053
2052
2051
2051
2051
2051
2051
2051
2051
2052
2052
2052
2051
2051
2051
2051
