1984
1985
1987
1990
1992
1995
1998
2001
2004
2006
2008
2009
2009
2010
2011
2012
2013
2014
2013
2010
2006
2001
1994
1988
1982
1976
1972
1968
1965
1962
1959
1957
1956
1955
1955
1955
1956
1956
1956
1955
1955
1955
1954
1954
1955
1956
1957
1957
1957
1957
1956
1956
1956
1956
1957
1958
1959
1959
1959
1959
1960
1960
1960
1960
1961
1961
1962
1963
1963
1963
1963
1963
1962
1962
1963
1963
1964
1965
1965
1965
1964
1964
1963
1963
1963
1964
1964
1965
1966
1966
1965
1964
1964
1964
1964
1965
1966
1967
1967
1966
1965
1965
1964
1964
1963
1963
1963
1965
1968
1972
1975
1977
1977
1976
1975
1974
1974
1974
1974
1973
1971
1970
1968
1967
1967
1967
1968
1968
1968
1968
1968
1968
1968
1968
1968
1968
1969
1970
1970
1969
1965
1961
1963
1977
2004
2041
2077
2100
2099
2072
2028
1981
1945
1927
1927
1938
1953
1964
1971
1973
1973
1973
1972
1972
1973
1974
1975
1977
1978
1978
1979
1979
1979
1979
1980
1981
1982
1983
1984
1984
1984
1984
1985
1986
1987
1988
1990
1991
1992
1993
1995
1996
1997
1998
2000
2003
2006
2009
2011
2013
2016
2017
2019
2021
2023
2026
2028
2029
2031
2032
2032
2031
2030
2028
2025
2021
2017
2011
2006
2001
1995
1991
1987
1985
1983
1982
1981
1981
1981
1980
1980
1979
1979
1978
1979
1979
1980
1981
1981
1981
1981
1980
1980
1980
1980
1981
1982
1983
1984
1984
1984
1984
1984
1984
1984
1984
1985
1985
1985
1985
1985
1985
1984
1984
1984
1985
1986
1987
1987
1987
1986
1985
1985
1985
1985
1985
1985
1985
1985
1985
1985
1984
1984
1984
1984
1984
1985
1985
1985
1985
1985
1984
1984
1983
1983
1983
1984
1984
1985
1985
1985
1984
1984
1983
1983
1983
1984
1984
1985
1985
1984
1984
1983
1983
1983
1984
1984
1984
1985
1984
1984
1983
1982
1982
1983
1986
1989
1993
1995
1995
1994
1992
1991
1990
1990
1990
1990
1990
1989
1987
1986
1985
1984
1984
1984
1985
1985
1986
1986
1986
1985
1985
1985
1985
1986
1985
1983
1979
1977
1981
1996
2025
2060
2093
2109
2102
2070
2027
1985
1958
1949
1955
1968
1979
1985
1987
1986
1986
1986
1985
1985
1986
1986
1986
1986
1987
1988
1989
1990
1990
1990
1990
1990
1990
1990
1991
1992
1993
1994
1994
1994
1994
1995
1995
1997
1998
2000
2002
2003
2004
2005
2006
2007
2009
2011
2014
2017
2019
2021
2023
2025
2026
2027
2029
2030
2032
2033
2034
2035
2034
2032
2028
2024
2019
2014
2010
2005
2001
1998
1995
1992
1989
1987
1985
1984
1984
1984
1984
1984
1984
1984
1983
1983
1983
1984
1984
1985
1986
1986
1986
1985
1985
1985
1984
1984
1985
1985
1986
1986
1986
1986
1985
1985
1985
1985
1985
1985
1986
1986
1986
1985
1985
1984
1984
1984
1985
1985
1986
1986
1985
1985
1984
1983
1983
1983
1983
1984
1984
1984
1984
1983
1983
1982
1982
1982
1982
1982
1983
1983
1983
1982
1981
1981
1980
1980
1981
1981
1982
1982
1982
1982
1981
1980
1980
1980
1980
1981
1981
1981
1981
1981
1980
1980
1979
1980
1980
1980
1980
1980
1981
1980
1980
1980
1980
1980
1980
1981
1981
1981
1981
1980
1979
1979
1979
1979
1981
1985
1988
1991
1992
1991
1990
1988
1987
1986
1987
1987
1986
1985
1983
1982
1980
1980
1979
1979
1979
1980
1980
1980
1980
1980
1980
1980
1980
1980
1980
1978
1974
1972
1977
1993
2021
2055
2086
2102
2094
2063
2021
1979
1950
1941
1946
1958
1970
1977
1979
1980
1980
1980
1980
1980
1980
1980
1980
1981
1982
1983
1984
1985
1985
1985
1985
1985
1985
1986
1986
1987
1988
1989
1990
1990
1990
1990
1991
1992
1993
1995
1997
1998
1999
2000
2001
2003
2004
2006
2009
2012
2014
2016
2018
2019
2020
2021
2022
2023
2025
2026
2027
2028
2027
2025
2022
2018
2013
2009
2004
1999
1995
1991
1987
1984
1980
1977
1975
1974
1974
1974
1974
1973
1972
1972
1971
1970
1970
1970
1970
1971
1971
1971
1971
1970
1969
1969
1968
1968
1968
1969
1970
1970
1970
1969
1968
1967
1967
1967
1968
1968
1968
1968
1968
1967
1967
1966
1965
1965
1965
1965
1966
1966
1966
1965
1964
1963
1963
1963
1964
1964
1964
1964
1963
1962
1961
1960
1961
1961
1962
1962
1962
1962
1961
1961
1961
1961
1961
1961
1961
1961
1961
1960
1959
1958
1957
1956
1957
1960
1964
1968
1970
1971
1970
1968
1966
1964
1963
1963
1963
1962
1962
1961
1961
1960
1959
1958
1957
1957
1958
1958
1958
1958
1957
1956
1956
1956
1957
1958
1957
1953
1950
1953
1968
1997
2035
2071
2092
2087
2057
2012
1964
1928
1910
1909
1919
1932
1944
1952
1956
1958
1958
1957
1957
1957
1958
1958
1958
1959
1960
1961
1962
1963
1963
1964
1964
1964
1964
1964
1964
1965
1966
1967
1968
1969
1970
1971
1972
1973
1974
1976
1978
1980
1982
1984
1985
1986
1988
1990
1993
1997
2000
2002
2004
2006
2007
2008
2010
2011
2012
2013
2014
2013
2011
2007
2002
1996
1989
1983
1978
1974
1970
1967
1963
1960
1957
1955
1954
1954
1954
1955
1955
1956
1955
1955
1954
1954
1953
1953
1954
1954
1955
1955
1955
1955
1955
1955
1956
1956
1956
1957
1957
1957
1957
1957
1957
1957
1957
1957
1958
1959
1960
1961
1961
1960
1959
1958
1958
1958
1958
1959
1960
1960
1960
1959
1959
1958
1958
1959
1959
1960
1960
1960
1960
1959
1958
1958
1958
1959
1960
1960
1960
1960
1959
1957
1956
1955
1955
1956
1960
1965
1969
1971
1971
1970
1968
1966
1966
1966
1966
1965
1965
1964
1962
1961
1960
1960
1960
1960
1961
1961
1962
1962
1961
1961
1961
1962
1962
1963
1963
1962
1958
1955
1958
1972
1999
2036
2072
2095
2095
2068
2024
1975
1938
1919
1918
1928
1942
1954
1961
1964
1966
1966
1966
1966
1966
1966
1967
1968
1970
1971
1972
1972
1972
1972
1972
1972
1973
1974
1975
1977
1978
1979
1979
1979
1979
1980
1981
1982
1984
1986
1988
1989
1991
1992
1994
1995
1997
2000
2003
2006
2009
2012
2014
2016
2017
2019
2020
2021
2023
2024
2026
2026
2025
2023
2019
2014
2008
2002
1997
1993
1988
1984
1981
1978
1976
1974
1973
1973
1973
1973
1974
1974
1974
1974
1973
1973
1973
1973
1974
1974
1975
1976
1976
1976
1976
1976
1976
1977
1977
1978
1979
1980
1980
1980
1980
1980
1980
1981
1981
1982
1983
1984
1984
1984
1984
1983
1983
1983
1983
1984
1985
1985
1985
1985
1985
1984
1984
1984
1985
1985
1985
1986
1986
1985
1985
1984
1984
1984
1984
1985
1985
1986
1986
1985
1985
1985
1985
1985
1985
1985
1986
1986
1985
1985
1985
1985
1984
1984
1984
1984
1984
1983
1984
1985
1987
1990
1993
1994
1994
1994
1993
1992
1992
1991
1991
1990
1988
1987
1986
1986
1985
1986
1986
1985
1985
1984
1984
1984
1985
1985
1986
1986
1986
1986
1985
1982
1978
1976
1983
2002
2033
2070
2101
2113
2099
2063
2017
1977
1953
1949
1959
1972
1983
1987
1987
1985
1984
1984
1985
1987
1988
1989
1989
1989
1989
1989
1990
1990
1991
1992
1993
1993
1994
1994
1994
1994
1994
1995
1995
1996
1997
1998
1999
2000
2001
2002
2003
2004
2006
2008
2010
2012
2014
2016
2018
2019
2021
2024
2026
2029
2031
2033
2034
2035
2036
2036
2036
2036
2035
2033
2030
2026
2021
2015
2009
2004
1999
1995
1993
1991
1989
1988
1987
1986
1985
1984
1983
1983
1984
1984
1985
1985
1985
1985
1985
1984
1984
1984
1984
1985
1985
1986
1986
1985
1985
1984
1984
1984
1985
1985
1986
1986
1986
1985
1985
1984
1984
1985
1986
1986
1987
1987
1987
1986
1986
1985
1985
1985
1985
1985
1985
1986
1985
1985
1984
1984
1983
1983
1983
1983
1983
1983
1983
1983
1983
1983
1982
1982
1983
1983
1984
1984
1984
1983
1982
1982
1982
1982
1982
1983
1983
1983
1982
1982
1982
1981
1981
1981
1981
1982
1982
1982
1982
1982
1981
1981
1981
1981
1981
1982
1982
1982
1982
1981
1981
1980
1980
1980
1980
1981
1984
1987
1990
1992
1992
1992
1990
1989
1988
1988
1988
1988
1987
1985
1983
1981
1980
1980
1980
1980
1980
1980
1980
1980
1979
1979
1979
1980
1981
1982
1983
1982
1978
1973
1972
1980
2001
2033
2069
2097
2103
2083
2043
1997
1960
1942
1943
1955
1969
1979
1982
1982
1981
1980
1980
1980
1980
1981
1982
1982
1983
1984
1984
1984
1984
1983
1984
1984
1985
1986
1986
1987
1987
1987
1988
1988
1988
1989
1990
1992
1993
1994
1995
1996
1997
1998
1999
2001
2003
2005
2008
2010
2012
2013
2015
2017
2018
2020
2022
2024
2025
2026
2027
2027
2027
2026
2024
2022
2019
2015
2011
2006
2002
1997
1992
1988
1986
1984
1983
1982
1982
1982
1981
1980
1980
1979
1979
1979
1980
1981
1982
1982
1981
1981
1980
1980
1979
1979
1980
1981
1981
1981
1981
1980
1980
1979
1979
1978
1978
1979
1979
1979
1978
1978
1977
1976
1976
1975
1975
1976
1976
1976
1975
1974
1973
1972
1972
1972
1972
1972
1972
1972
1971
1971
1970
1969
1968
1968
1968
1968
1969
1969
1969
1968
1967
1966
1966
1966
1966
1967
1967
1968
1968
1967
1967
1966
1965
1965
1965
1966
1967
1967
1967
1966
1965
1964
1964
1964
1964
1964
1964
1964
1963
1963
1964
1966
1970
1973
1975
1976
1975
1973
1971
1970
1969
1968
1967
1966
1965
1964
1964
1964
1964
1963
1962
1961
1960
1961
1962
1963
1963
1963
1963
1963
1962
1960
1957
1953
1956
1969
1996
2032
2067
2090
2090
2063
2021
1973
1935
1914
1911
1920
1934
1946
1954
1957
1959
1959
1959
1960
1961
1962
1962
1962
1962
1962
1962
1962
1963
1964
1965
1965
1965
1965
1965
1965
1966
1967
1968
1970
1971
1972
1972
1973
1974
1975
1976
1977
1979
1981
1983
1985
1987
1989
1991
1993
1995
1997
2000
2002
2005
2007
2008
2009
2010
2011
2012
2012
2012
2011
2009
2006
2001
1995
1988
1982
1976
1972
1968
1966
1963
1961
1960
1958
1956
1955
1955
1955
1955
1956
1957
1957
1957
1957
1956
1956
1956
1957
1958
1959
1960
1960
1960
1960
1960
1961
1961
1962
1963
1964
1965
1966
1967
1967
1967
1967
1967
1968
1969
1970
1971
1971
1971
1971
1971
1971
1971
1972
1972
1973
1974
1974
1974
1974
1974
1973
1973
1973
1974
1974
1975
1975
1975
1975
1975
1974
1974
1974
1974
1974
1974
1973
1972
1971
1971
1973
1976
1979
1982
1984
1983
1982
1981
1980
1979
1978
1977
1976
1975
1975
1974
1974
1973
1973
1972
1971
1971
1971
1972
1972
1973
1973
1973
1973
1973
1973
1972
1969
1965
1963
1969
1987
2018
2054
2086
2099
2087
2052
2007
1965
1940
1933
1941
1954
1966
1972
1974
1975
1975
1975
1975
1976
1977
1977
1977
1978
1978
1979
1980
1981
1982
1983
1983
1984
1984
1984
1984
1985
1986
1987
1988
1988
1989
1990
1991
1992
1993
1994
1996
1998
2000
2001
2003
2004
2006
2008
2010
2013
2016
2018
2021
2023
2024
2026
2027
2028
2029
2030
2031
2031
2030
2028
2025
2020
2015
2009
2004
2000
1996
1993
1991
1988
1987
1985
1984
1982
1982
1982
1982
1982
1983
1983
1983
1983
1982
1982
1982
1982
1983
1984
1984
1984
1984
1984
1984
1984
1984
1984
1985
1986
1986
1986
1986
1985
1985
1984
1984
1985
1985
1986
1986
1986
1986
1986
1985
1985
1985
1985
1985
1985
1986
1986
1985
1984
1983
1983
1983
1983
1983
1983
1984
1984
1984
1984
1983
1982
1982
1982
1982
1982
1983
1983
1982
1981
1980
1979
1978
1977
1978
1981
1984
1988
1990
1990
1989
1987
1985
1985
1985
1985
1985
1984
1983
1981
1979
1978
1977
1977
1978
1978
1978
1978
1978
1977
1977
1977
1977
1977
1978
1978
1978
1975
1971
1970
1978
1998
2031
2066
2094
2101
2081
2043
1997
1960
1940
1939
1950
1964
1974
1979
1980
1980
1980
1979
1979
1979
1980
1981
1982
1983
1985
1986
1986
1986
1986
1986
1986
1986
1987
1989
1990
1990
1991
1990
1990
1990
1990
1991
1992
1993
1993
1994
1995
1997
1998
2000
2002
2003
2006
2009
2012
2014
2016
2018
2019
2021
2022
2024
2025
2026
2028
2030
2031
2031
2030
2027
2024
2020
2016
2011
2007
2003
2000
1996
1994
1991
1989
1988
1987
1988
1988
1989
1990
1990
1990
1989
1990
1990
1991
1992
1993
1994
1994
1994
1994
1994
1994
1994
1994
1995
1996
1997
1998
1999
1998
1998
1997
1997
1998
1999
2000
2000
2000
1999
1998
1998
1998
1999
2000
2001
2001
2000
1999
1999
1999
1999
1999
1998
1998
1997
1997
1996
1996
1995
1995
1994
1994
1995
1996
1997
1997
1997
1996
1995
1993
1992
1991
1990
1989
1989
1989
1990
1993
1996
1998
1999
1999
1998
1997
1996
1995
1994
1993
1992
1990
1989
1988
1987
1987
1986
1986
1987
1987
1987
1986
1985
1985
1985
1985
1986
1987
1986
1984
1979
1974
1976
1989
2015
2051
2086
2106
2102
2073
2029
1984
1952
1940
1944
1957
1971
1980
1984
1984
1982
1980
1979
1979
1979
1980
1981
1982
1982
1983
1983
1982
1982
1982
1983
1983
1984
1984
1985
1985
1985
1986
1986
1986
1986
1987
1988
1990
1991
1991
1992
1993
1993
1994
1995
1997
1999
2002
2005
2007
2009
2010
2012
2013
2015
2017
2019
2020
2022
2023
2023
2022
2020
2018
2015
2012
2008
2003
1997
1992
1987
1983
1979
1976
1974
1973
1972
1972
1972
1971
1971
1970
1969
1969
1969
1969
1969
1970
1970
1970
1970
1970
1970
1970
1971
1971
1972
1972
1972
1971
1970
1970
1970
1971
1972
1973
1973
1973
1973
1972
1972
1972
1971
1971
1971
1971
1972
1972
1973
1973
1972
1971
1971
1970
1970
1971
1971
1971
1971
1971
1970
1969
1968
1967
1966
1966
1965
1965
1966
1968
1971
1974
1976
1977
1975
1974
1973
1973
1973
1973
1971
1970
1967
1966
1965
1964
1965
1965
1965
1965
1964
1964
1963
1963
1963
1963
1964
1964
1965
1964
1962
1958
1953
1953
1963
1987
2021
2058
2084
2086
2063
2022
1975
1938
1919
1919
1929
1943
1954
1960
1962
1962
1962
1961
1961
1961
1962
1963
1963
1963
1963
1963
1963
1964
1964
1965
1966
1967
1967
1967
1967
1967
1968
1968
1968
1969
1970
1971
1973
1974
1974
1974
1975
1975
1977
1979
1981
1984
1986
1987
1989
1991
1992
1994
1996
1998
2000
2002
2003
2004
2004
2004
2003
2002
2000
1998
1994
1989
1983
1977
1972
1966
1961
1958
1955
1954
1953
1952
1951
1951
1950
1949
1949
1948
1948
1948
1948
1948
1948
1948
1948
1947
1947
1947
1947
1948
1949
1949
1950
1950
1950
1949
1949
1949
1949
1950
1950
1951
1952
1953
1953
1952
1952
1952
1952
1952
1952
1953
1953
1952
1952
1951
1950
1950
1950
1950
1950
1951
1951
1951
1951
1950
1949
1949
1948
1948
1948
1947
1947
1949
1952
1955
1958
1960
1960
1959
1958
1957
1956
1956
1955
1954
1952
1951
1951
1951
1952
1952
1952
1952
1951
1951
1950
1950
1951
1952
1952
1953
1954
1954
1954
1950
1946
1944
1952
1973
2007
2047
2077
2087
2070
2033
1985
1943
1917
1909
1915
1928
1941
1951
1955
1957
1958
1958
1957
1958
1959
1961
1962
1963
1964
1964
1964
1964
1965
1966
1967
1968
1968
1969
1969
1969
1970
1971
1972
1973
1974
1975
1976
1977
1978
1979
1981
1982
1984
1987
1989
1991
1994
1996
1997
1999
2001
2003
2005
2007
2009
2011
2013
2014
2015
2015
2015
2014
2013
2010
2007
2002
1997
1991
1986
1981
1976
1973
1970
1968
1967
1967
1966
1966
1965
1964
1964
1963
1964
1964
1965
1966
1966
1966
1966
1966
1966
1966
1966
1967
1967
1968
1969
1969
1969
1969
1969
1969
1970
1970
1971
1972
1972
1972
1972
1971
1971
1972
1972
1972
1973
1973
1973
1973
1972
1972
1972
1972
1972
1972
1972
1972
1972
1972
1971
1970
1970
1969
1969
1970
1971
1971
1972
1972
1971
1970
1970
1969
1969
1970
1970
1970
1970
1970
1969
1968
1966
1965
1966
1967
1970
1974
1977
1979
1979
1977
1975
1974
1974
1974
1975
1974
1973
1972
1970
1969
1969
1969
1969
1970
1970
1970
1970
1970
1970
1969
1969
1969
1970
1971
1971
1968
1964
1962
1970
1990
2021
2057
2086
2096
2081
2046
2000
1960
1936
1930
1938
1951
1963
1969
1972
1973
1973
1972
1972
1972
1972
1973
1974
1975
1976
1977
1978
1978
1978
1978
1978
1978
1978
1979
1980
1981
1982
1983
1984
1984
1985
1986
1986
1987
1988
1990
1991
1992
1994
1995
1997
1999
2001
2003
2006
2008
2011
2013
2014
2016
2017
2018
2020
2021
2023
2024
2025
2025
2023
2020
2016
2012
2007
2002
1998
1994
1990
1986
1983
1980
1978
1977
1976
1976
1976
1977
1977
1977
1976
1976
1975
1975
1975
1975
1976
1976
1977
1978
1978
1978
1978
1978
1978
1978
1979
1979
1979
1979
1979
1978
1978
1978
1978
1978
1979
1979
1980
1979
1979
1978
1978
1977
1977
1977
1978
1978
1977
1977
1976
1976
1975
1975
1975
1975
1976
1977
1977
1977
1976
1975
1974
1974
1974
1975
1976
1976
1976
1976
1976
1975
1974
1974
1974
1974
1975
1975
1975
1974
1973
1973
1973
1973
1972
1972
1972
1971
1971
1972
1974
1976
1979
1980
1981
1980
1980
1979
1979
1979
1978
1977
1975
1973
1972
1972
1972
1973
1973
1973
1972
1972
1971
1971
1971
1971
1972
1973
1974
1974
1974
1972
1967
1963
1965
1977
2003
2039
2075
2098
2098
2072
2031
1985
1952
1937
1940
1952
1965
1973
1976
1976
1975
1974
1974
1975
1976
1977
1977
1977
1977
1977
1977
1978
1978
1979
1980
1981
1981
1981
1982
1982
1982
1982
1983
1984
1985
1986
1986
1987
1988
1989
1989
1990
1991
1993
1995
1998
2000
2002
2004
2005
2007
2009
2011
2014
2016
2018
2020
2021
2022
2022
2022
2022
2022
2022
2020
2017
2013
2008
2003
1997
1993
1988
1985
1982
1981
1980
1979
1978
1977
1977
1976
1975
1975
1976
1976
1977
1977
1978
1977
1977
1976
1976
1977
1977
1978
1979
1979
1979
1979
1978
1978
1978
1978
1978
1978
1979
1979
1980
1980
1979
1979
1978
1978
1979
1979
1979
1980
1980
1979
1979
1978
1978
1978
1978
1978
1978
1979
1979
1978
1978
1977
1977
1977
1977
1977
1977
1978
1978
1977
1977
1976
1976
1977
1977
1977
1978
1978
1978
1978
1977
1977
1977
1977
1977
1977
1978
1978
1977
1976
1975
1975
1975
1976
1978
1981
1985
1987
1988
1987
1985
1984
1983
1982
1982
1982
1982
1981
1979
1978
1977
1976
1975
1975
1976
1976
1977
1977
1977
1976
1976
1975
1975
1976
1976
1975
1972
1968
1969
1979
2003
2037
2071
2094
2094
2070
2029
1984
1951
1936
1937
1949
1962
1971
1975
1976
1976
1975
1975
1975
1974
1974
1974
1974
1975
1976
1976
1977
1977
1976
1976
1976
1976
1976
1976
1977
1978
1978
1979
1979
1979
1979
1979
1980
1981
1982
1983
1985
1987
1989
1992
1995
1998
2000
2003
2006
2008
2010
2012
2014
2015
2016
2016
2017
2017
2018
2019
2019
2018
2016
2012
2008
2004
1999
1995
1991
1986
1982
1977
1972
1969
1966
1964
1962
1962
1962
1962
1962
1961
1960
1959
1958
1957
1957
1958
1958
1959
1959
1959
1958
1958
1957
1957
1957
1957
1958
1958
1959
1959
1959
1958
1958
1958
1958
1958
1959
1959
1960
1960
1959
1958
1958
1957
1957
1956
1956
1956
1956
1956
1956
1956
1955
1955
1956
1956
1957
1957
1957
1957
1955
1954
1954
1954
1955
1955
1955
1954
1953
1952
1953
1957
1961
1965
1966
1966
1964
1962
1961
1961
1961
1961
1960
1958
1957
1956
1955
1955
1956
1956
1955
1955
1955
1955
1956
1957
1957
1958
1957
1956
1955
1955
1954
1951
1948
1949
1959
1983
2018
2055
2082
2086
2063
2022
1974
1934
1913
1910
1919
1933
1945
1953
1957
1960
1960
1960
1960
1959
1960
1961
1963
1964
1965
1966
1967
1968
1968
1967
1966
1966
1967
1968
1970
1972
1972
1972
1972
1973
1974
1977
1981
1983
1984
1983
1983
1983
1983
1985
1988
1993
1999
2003
2004
2003
2001
2001
2003
2006
2010
2011
2012
2012
2012
2014
2016
2017
2017
2015
2011
2006
1999
1992
1985
1980
1975
1972
1969
1967
1966
1966
1965
1965
1964
1965
1966
1967
1967
1966
1964
1963
1962
1963
1965
1966
1967
1968
1969
1970
1970
1969
1968
1967
1968
1970
1973
1975
1976
1974
1971
1969
1968
1969
1971
1972
1973
1974
1974
1974
1974
1974
1974
1974
1974
1975
1976
1977
1978
1977
1976
1973
1971
1969
1970
1970
1971
1972
1972
1972
1972
1972
1972
1973
1973
1975
1976
1976
1976
1975
1974
1972
1970
1968
1966
1964
1964
1966
1969
1974
1978
1981
1980
1978
1976
1976
1978
1980
1980
1977
1972
1968
1966
1966
1966
1966
1967
1968
1970
1971
1970
1969
1967
1965
1965
1966
1967
1968
1969
1968
1964
1963
1969
1985
2012
2045
2073
2087
2079
2052
2013
1973
1945
1933
1936
1948
1961
1970
1974
1974
1975
1975
1976
1976
1976
1974
1972
1970
1970
1971
1973
1975
1976
1976
1975
1975
1975
1976
1978
1981
1983
1984
1983
1981
1979
1978
1979
1982
1985
1987
1989
1988
1987
1986
1987
1990
1993
1995
1997
1999
2000
2003
2005
2006
2008
2010
2012
2015
2016
2017
2016
2015
2014
2013
2011
2009
2005
1999
1994
1989
1985
1981
1978
1974
1972
1971
1971
1972
1974
1974
1973
1971
1971
1970
1971
1971
1971
1971
1972
1974
1975
1976
1975
1974
1974
1975
1977
1979
1980
1980
1979
1977
1977
1976
1977
1977
1978
1978
1979
1980
1979
1979
1980
1980
1981
1981
1981
1980
1980
1979
1980
1980
1981
1982
1981
1980
1978
1975
1974
1974
1976
1978
1978
1976
1975
1976
1980
1984
1987
1985
1979
1973
1969
1969
1970
1971
1970
1970
1971
1976
1982
1988
1989
1987
1983
1980
1979
1980
1981
1982
1982
1982
1980
1979
1978
1977
1977
1977
1978
1978
1978
1977
1977
1976
1976
1975
1974
1974
1975
1977
1978
1976
1970
1965
1967
1981
2007
2041
2072
2089
2083
2056
2017
1977
1950
1939
1943
1954
1965
1972
1974
1973
1971
1970
1969
1971
1976
1981
1985
1986
1982
1977
1972
1971
1973
1979
1983
1985
1984
1983
1984
1987
1990
1991
1989
1986
1984
1984
1986
1989
1992
1994
1995
1995
1995
1995
1997
2000
2002
2002
2001
2001
2002
2005
2010
2012
2013
2014
2014
2016
2018
2018
2018
2016
2014
2012
2010
2005
1999
1993
1988
1985
1981
1978
1974
1970
1966
1964
1962
1962
1962
1963
1963
1962
1961
1958
1956
1955
1956
1957
1959
1960
1961
1961
1960
1959
1959
1960
1961
1961
1961
1961
1961
1961
1962
1962
1963
1963
1963
1963
1964
1964
1964
1964
1964
1965
1965
1965
1965
1965
1965
1966
1967
1966
1964
1963
1963
1964
1965
1966
1966
1965
1964
1965
1966
1967
1967
1967
1968
1969
1969
1969
1968
1966
1964
1963
1963
1965
1969
1972
1976
1978
1978
1977
1976
1976
1976
1976
1976
1975
1974
1972
1970
1969
1968
1968
1968
1970
1971
1972
1972
1971
1970
1970
1970
1971
1971
1971
1969
1966
1963
1965
1978
2003
2037
2070
2090
2086
2059
2019
1978
1950
1937
1939
1948
1958
1966
1971
1973
1974
1973
1972
1971
1970
1970
1971
1973
1974
1976
1977
1978
1978
1978
1977
1977
1977
1977
1978
1979
1980
1980
1980
1980
1980
1981
1983
1985
1987
1988
1988
1988
1989
1990
1991
1992
1994
1996
2000
2004
2008
2010
2010
2010
2010
2012
2014
2016
2018
2019
2020
2020
2019
2017
2013
2009
2004
1999
1994
1990
1986
1982
1978
1974
1972
1972
1972
1974
1974
1974
1973
1972
1971
1971
1972
1973
1973
1973
1973
1973
1973
1973
1972
1972
1972
1973
1973
1973
1974
1974
1975
1975
1976
1976
1976
1976
1976
1976
1977
1979
1980
1981
1980
1979
1977
1975
1975
1974
1975
1976
1977
1977
1977
1976
1975
1974
1974
1973
1972
1972
1972
1972
1971
1970
1970
1971
1973
1977
1980
1982
1982
1981
1980
1978
1977
1976
1975
1973
1972
1971
1970
1970
1972
1973
1973
1973
1972
1971
1970
1970
1971
1972
1972
1972
1972
1972
1970
1966
1961
1961
1971
1993
2027
2062
2086
2088
2066
2027
1984
1952
1937
1938
1948
1960
1968
1971
1972
1972
1973
1974
1975
1976
1976
1975
1974
1975
1975
1977
1978
1979
1980
1981
1982
1983
1983
1982
1981
1981
1981
1982
1984
1986
1987
1989
1989
1989
1989
1990
1991
1994
1996
1998
1999
2000
2001
2002
2004
2006
2009
2012
2014
2016
2017
2018
2019
2020
2021
2021
2022
2021
2019
2016
2012
2007
2002
1996
1991
1986
1982
1980
1979
1978
1977
1975
1974
1972
1972
1972
1973
1973
1974
1974
1974
1974
1973
1973
1972
1973
1973
1974
1975
1976
1976
1975
1974
1973
1973
1973
1974
1976
1977
1977
1977
1977
1978
1978
1978
1977
1977
1977
1978
1978
1978
1977
1976
1975
1975
1975
1976
1976
1976
1976
1975
1975
1974
1973
1973
1973
1974
1974
1975
1975
1973
1972
1970
1969
1970
1973
1977
1980
1983
1984
1984
1982
1981
1979
1978
1977
1976
1975
1975
1974
1974
1973
1972
1971
1971
1971
1971
1971
1971
1971
1972
1972
1972
1973
1973
1973
1972
1968
1964
1963
1972
1993
2026
2061
2087
2091
2071
2033
1989
1955
1938
1938
1948
1961
1971
1976
1977
1977
1977
1976
1975
1975
1975
1975
1976
1977
1979
1980
1980
1981
1982
1983
1984
1984
1984
1984
1985
1985
1986
1987
1988
1989
1990
1990
1990
1990
1991
1992
1994
1996
1999
2000
2001
2002
2003
2004
2006
2009
2011
2014
2016
2017
2019
2020
2021
2022
2022
2023
2023
2023
2022
2019
2016
2011
2005
2000
1995
1992
1989
1987
1985
1983
1981
1979
1978
1977
1977
1977
1977
1978
1978
1978
1977
1976
1976
1976
1977
1978
1979
1979
1979
1978
1978
1978
1978
1978
1978
1978
1978
1979
1980
1980
1979
1977
1975
1975
1976
1978
1979
1980
1980
1979
1978
1977
1976
1976
1977
1978
1978
1978
1977
1975
1974
1974
1974
1975
1976
1977
1978
1978
1977
1976
1975
1974
1974
1973
1973
1973
1973
1975
1977
1979
1981
1982
1983
1982
1982
1981
1981
1981
1981
1980
1978
1976
1975
1974
1974
1974
1975
1975
1975
1975
1974
1973
1972
1972
1973
1974
1976
1977
1976
1972
1967
1964
1969
1987
2017
2052
2082
2092
2078
2043
1999
1960
1937
1932
1940
1953
1965
1973
1975
1975
1974
1972
1971
1971
1972
1973
1973
1974
1974
1973
1973
1972
1972
1972
1973
1974
1974
1975
1975
1975
1975
1976
1977
1978
1979
1981
1982
1984
1984
1985
1985
1986
1987
1989
1991
1993
1995
1997
1999
2000
2002
2003
2005
2008
2010
2011
2012
2013
2013
2013
2012
2011
2009
2006
2003
1999
1995
1990
1985
1980
1975
1970
1967
1965
1964
1963
1963
1962
1960
1959
1957
1956
1956
1957
1958
1959
1960
1960
1959
1958
1958
1957
1957
1958
1959
1959
1960
1961
1961
1960
1960
1959
1959
1959
1959
1960
1961
1961
1960
1960
1960
1960
1959
1959
1959
1959
1959
1959
1959
1958
1957
1956
1955
1955
1955
1955
1954
1953
1954
1956
1959
1963
1965
1966
1966
1965
1964
1963
1963
1962
1960
1958
1957
1956
1955
1956
1956
1956
1956
1955
1954
1953
1952
1952
1953
1954
1955
1956
1956
1955
1953
1949
1946
1947
1959
1984
2019
2052
2073
2070
2045
2002
1958
1924
1908
1907
1917
1931
1943
1951
1955
1957
1958
1958
1958
1959
1959
1960
1961
1962
1963
1963
1964
1964
1965
1966
1967
1968
1968
1969
1969
1969
1970
1971
1972
1974
1975
1976
1977
1978
1979
1980
1981
1982
1984
1986
1988
1991
1994
1996
1998
1999
2001
2002
2004
2007
2008
2010
2011
2011
2011
2011
2010
2009
2007
2005
2002
1997
1992
1987
1981
1976
1972
1970
1969
1967
1966
1965
1965
1964
1964
1964
1965
1965
1965
1966
1967
1967
1968
1968
1967
1967
1966
1966
1967
1968
1968
1969
1969
1970
1970
1970
1970
1970
1970
1971
1971
1972
1972
1972
1971
1971
1970
1970
1971
1972
1972
1972
1971
1970
1969
1969
1969
1969
1970
1970
1970
1970
1970
1969
1968
1968
1968
1967
1967
1966
1966
1967
1968
1971
1973
1975
1976
1976
1976
1976
1976
1975
1974
1973
1971
1969
1968
1967
1967
1967
1968
1968
1967
1967
1967
1966
1966
1966
1966
1967
1967
1967
1967
1966
1962
1958
1958
1969
1992
2026
2060
2084
2084
2059
2018
1974
1941
1927
1929
1942
1956
1966
1969
1969
1969
1968
1967
1968
1969
1970
1971
1972
1973
1973
1973
1973
1974
1974
1974
1975
1975
1975
1976
1977
1978
1979
1980
1980
1981
1982
1983
1984
1986
1987
1987
1988
1989
1991
1993
1995
1998
2000
2002
2003
2004
2005
2007
2009
2011
2013
2014
2015
2016
2017
2018
2018
2017
2015
2012
2008
2004
1999
1994
1990
1985
1981
1978
1975
1974
1973
1973
1973
1973
1972
1971
1971
1970
1971
1971
1972
1972
1972
1971
1970
1970
1970
1971
1972
1973
1973
1973
1973
1973
1973
1973
1973
1973
1973
1974
1974
1975
1976
1975
1975
1974
1974
1973
1974
1974
1975
1976
1975
1975
1974
1973
1973
1973
1973
1973
1973
1973
1973
1972
1971
1970
1969
1969
1971
1974
1977
1980
1981
1981
1980
1979
1978
1977
1977
1977
1976
1975
1974
1972
1972
1971
1970
1970
1970
1970
1970
1970
1970
1970
1970
1969
1969
1970
1971
1970
1967
1963
1962
1970
1990
2022
2057
2083
2087
2067
2030
1986
1952
1934
1934
1943
1956
1965
1970
1971
1972
1971
1971
1972
1972
1973
1974
1974
1975
1975
1976
1977
1977
1978
1977
1977
1977
1978
1979
1980
1981
1982
1982
1982
1982
1982
1983
1984
1985
1986
1988
1989
1991
1993
1995
1996
1998
2000
2002
2004
2006
2009
2010
2012
2013
2013
2014
2016
2017
2018
2019
2020
2019
2016
2013
2008
2003
1998
1993
1989
1985
1982
1979
1977
1975
1973
1972
1971
1971
1971
1971
1971
1971
1971
1971
1971
1971
1971
1972
1972
1973
1973
1973
1973
1973
1972
1972
1972
1972
1973
1974
1974
1974
1974
1974
1973
1973
1973
1973
1973
1974
1974
1974
1974
1973
1972
1972
1972
1972
1973
1974
1974
1973
1972
1970
1969
1968
1968
1968
1968
1968
1969
1971
1973
1976
1978
1979
1979
1977
1976
1976
1977
1978
1977
1976
1973
1970
1968
1968
1969
1969
1969
1968
1967
1966
1966
1966
1966
1966
1967
1969
1971
1972
1969
1963
1958
1960
1975
2003
2039
2070
2087
2079
2048
2005
1961
1930
1918
1923
1936
1951
1961
1965
1966
1967
1967
1968
1969
1970
1970
1971
1973
1974
1975
1976
1975
1974
1973
1973
1974
1975
1976
1977
1978
1980
1981
1982
1982
1983
1984
1986
1987
1989
1990
1993
1996
1999
2001
2002
2003
2005
2007
2011
2014
2017
2019
2021
2023
2025
2026
2027
2028
2030
2032
2033
2033
2032
2028
2024
2019
2014
2009
2004
2000
1995
1991
1987
1984
1982
1981
1981
1981
1982
1982
1980
1977
1975
1973
1973
1975
1977
1978
1979
1980
1982
1983
1982
1980
1978
1977
1978
1980
1981
1981
1980
1979
1978
1978
1978
1978
1979
1980
1981
1981
1980
1978
1976
1975
1975
1976
1977
1977
1977
1977
1978
1981
1983
1986
1989
1989
1988
1987
1985
1984
1983
1982
1980
1978
1976
1976
1978
1980
1982
1981
1979
1978
1978
1979
1980
1980
1979
1978
1977
1977
1978
1979
1977
1973
1970
1973
1988
2015
2050
2084
2101
2094
2063
2018
1973
1941
1928
1930
1943
1957
1969
1976
1978
1979
1978
1977
1978
1979
1980
1980
1980
1980
1982
1983
1985
1987
1987
1988
1987
1986
1986
1985
1985
1987
1988
1990
1993
1995
1997
1999
1998
1997
1996
1996
1999
2003
2007
2009
2011
2012
2014
2017
2019
2021
2023
2025
2028
2031
2034
2035
2035
2034
2033
2033
2032
2031
2028
2024
2019
2014
2009
2005
2000
1994
1990
1987
1986
1986
1986
1985
1983
1981
1980
1979
1979
1980
1981
1983
1985
1985
1984
1983
1983
1984
1986
1988
1988
1987
1984
1983
1983
1985
1986
1988
1988
1987
1987
1988
1990
1992
1993
1991
1988
1984
1982
1983
1986
1991
1994
1994
1992
1989
1987
1987
1986
1986
1984
1983
1983
1985
1989
1994
1998
2001
2002
2002
2000
1997
1994
1991
1989
1988
1987
1987
1986
1984
1983
1981
1982
1984
1987
1989
1989
1988
1987
1987
1988
1988
1988
1989
1988
1986
1980
1977
1981
1997
2028
2067
2100
2113
2098
2058
2009
1968
1948
1948
1961
1977
1988
1992
1993
1992
1991
1989
1988
1988
1989
1992
1994
1995
1993
1991
1990
1990
1993
1996
1999
2000
2000
1999
1998
1997
1997
1998
1999
2000
2001
2002
2003
2004
2006
2007
2007
2007
2007
2009
2012
2016
2019
2021
2022
2023
2025
2028
2031
2034
2036
2038
2039
2039
2040
2039
2037
2034
2030
2026
2022
2018
2014
2009
2004
1999
1995
1992
1990
1990
1990
1991
1992
1991
1989
1986
1984
1983
1984
1986
1987
1988
1988
1988
1988
1989
1989
1989
1989
1991
1992
1994
1995
1994
1992
1989
1988
1988
1989
1990
1991
1991
1991
1990
1989
1988
1987
1986
1986
1987
1988
1989
1990
1989
1988
1985
1983
1982
1982
1982
1984
1987
1991
1994
1996
1995
1992
1990
1988
1987
1987
1986
1985
1984
1984
1983
1981
1978
1975
1973
1973
1974
1975
1976
1975
1975
1974
1974
1973
1974
1974
1972
1967
1963
1964
1975
2001
2037
2072
2092
2087
2054
2007
1961
1929
1918
1925
1940
1955
1964
1968
1968
1968
1967
1967
1966
1966
1966
1967
1968
1970
1971
1971
1971
1971
1971
1972
1973
1974
1975
1974
1974
1975
1976
1977
1977
1976
1976
1977
1979
1981
1983
1984
1984
1985
1985
1986
1988
1990
1993
1995
1997
1998
2000
2001
2002
2002
2002
2002
2004
2007
2009
2010
2008
2005
2000
1994
1989
1983
1979
1975
1970
1965
1961
1957
1953
1951
1950
1950
1950
1951
1950
1949
1948
1948
1948
1948
1949
1949
1949
1950
1950
1950
1950
1950
1950
1949
1948
1947
1947
1948
1949
1950
1950
1948
1947
1946
1947
1949
1950
1951
1951
1950
1950
1950
1950
1951
1954
1958
1961
1962
1962
1960
1957
1955
1953
1951
1950
1949
1949
1950
1952
1953
1952
1951
1948
1946
1945
1944
1944
1945
1946
1948
1950
1951
1952
1950
1948
1944
1942
1948
1968
2000
2040
2071
2083
2067
2029
1980
1937
1909
1899
1904
1916
1930
1941
1947
1951
1953
1954
1954
1954
1954
1954
1955
1955
1956
1956
1957
1958
1959
1961
1962
1963
1963
1963
1963
1964
1965
1967
1970
1971
1972
1972
1972
1973
1973
1974
1976
1979
1983
1987
1990
1991
1993
1994
1996
1999
2002
2005
2008
2009
2010
2011
2012
2013
2014
2014
2013
2012
2009
2006
2001
1996
1990
1984
1979
1975
1973
1971
1970
1969
1967
1966
1965
1964
1964
1965
1965
1966
1966
1967
1967
1967
1968
1968
1969
1969
1969
1970
1971
1972
1972
1973
1972
1972
1972
1973
1973
1974
1975
1976
1976
1976
1976
1976
1976
1975
1975
1975
1975
1974
1973
1972
1970
1970
1970
1971
1973
1977
1982
1986
1987
1986
1983
1980
1978
1977
1976
1975
1974
1974
1973
1972
1970
1969
1968
1968
1969
1971
1972
1972
1972
1971
1970
1970
1971
1971
1970
1967
1963
1963
1973
1995
2030
2066
2091
2093
2069
2028
1983
1950
1935
1937
1948
1960
1968
1972
1972
1972
1970
1969
1969
1969
1970
1971
1971
1972
1974
1975
1976
1976
1976
1976
1977
1977
1977
1977
1978
1979
1980
1981
1982
1982
1982
1981
1981
1982
1985
1988
1992
1995
1996
1997
1998
1999
2001
2003
2005
2008
2011
2013
2016
2017
2017
2018
2019
2019
2020
2021
2021
2020
2016
2011
2004
1998
1992
1988
1984
1981
1978
1976
1974
1974
1974
1973
1973
1971
1970
1969
1969
1970
1972
1972
1972
1971
1970
1970
1970
1972
1973
1974
1974
1974
1973
1973
1973
1973
1974
1975
1975
1976
1976
1976
1975
1975
1974
1974
1974
1974
1974
1974
1975
1975
1976
1976
1975
1974
1973
1973
1975
1979
1982
1984
1985
1984
1983
1981
1979
1978
1976
1975
1975
1974
1973
1972
1971
1969
1968
1967
1968
1970
1972
1972
1971
1970
1969
1970
1971
1971
1970
1967
1963
1961
1967
1985
2015
2050
2080
2092
2080
2047
2002
1962
1937
1932
1941
1955
1966
1971
1971
1970
1968
1968
1968
1970
1970
1971
1971
1971
1972
1973
1974
1974
1974
1974
1974
1975
1976
1976
1977
1977
1978
1978
1978
1978
1979
1979
1980
1981
1983
1985
1988
1990
1991
1991
1991
1992
1994
1998
2002
2006
2008
2010
2012
2013
2014
2015
2017
2018
2020
2021
2021
2019
2016
2011
2005
1999
1994
1989
1985
1982
1979
1977
1975
1973
1971
1970
1969
1969
1969
1970
1970
1970
1970
1969
1969
1969
1968
1968
1969
1969
1969
1970
1970
1969
1968
1968
1967
1968
1969
1970
1970
1970
1969
1968
1967
1966
1966
1967
1968
1969
1969
1969
1968
1966
1964
1962
1962
1962
1962
1962
1962
1961
1960
1961
1963
1966
1969
1971
1972
1972
1970
1968
1967
1965
1963
1961
1960
1959
1959
1959
1959
1959
1959
1958
1957
1957
1957
1957
1958
1959
1959
1959
1958
1957
1955
1951
1947
1949
1963
1989
2025
2059
2080
2077
2049
2007
1962
1928
1911
1910
1920
1933
1944
1951
1954
1955
1956
1956
1957
1957
1958
1958
1959
1959
1959
1960
1960
1961
1962
1962
1962
1962
1962
1962
1963
1963
1963
1964
1966
1967
1969
1970
1971
1972
1973
1974
1975
1977
1980
1982
1984
1986
1988
1990
1992
1994
1996
1997
1999
2001
2003
2004
2006
2007
2007
2006
2004
2002
1999
1995
1990
1984
1978
1972
1966
1962
1958
1956
1955
1953
1952
1950
1949
1948
1947
1947
1947
1947
1947
1948
1948
1948
1948
1947
1946
1946
1947
1948
1950
1950
1950
1949
1948
1948
1948
1948
1950
1950
1951
1951
1951
1951
1951
1951
1951
1951
1951
1950
1949
1949
1949
1950
1952
1955
1958
1961
1962
1962
1961
1959
1958
1956
1954
1952
1951
1950
1950
1951
1951
1951
1951
1951
1951
1950
1949
1949
1949
1950
1951
1951
1951
1951
1950
1948
1945
1942
1948
1967
1998
2038
2071
2086
2075
2041
1993
1947
1915
1902
1905
1917
1931
1942
1948
1952
1953
1954
1954
1954
1955
1955
1956
1957
1957
1958
1958
1959
1960
1961
1962
1963
1964
1964
1964
1965
1965
1966
1966
1967
1968
1969
1971
1972
1973
1974
1975
1977
1979
1982
1984
1987
1989
1992
1994
1996
1998
1999
2001
2003
2005
2008
2011
2013
2015
2015
2013
2011
2007
2003
1998
1992
1986
1980
1974
1969
1965
1962
1960
1958
1957
1956
1955
1954
1954
1953
1953
1953
1954
1955
1955
1955
1953
1952
1952
1952
1952
1952
1952
1952
1952
1952
1953
1953
1954
1955
1956
1957
1957
1957
1957
1957
1958
1959
1959
1959
1958
1957
1956
1955
1955
1954
1954
1956
1959
1963
1967
1969
1970
1968
1966
1964
1964
1963
1962
1960
1958
1957
1957
1958
1959
1959
1958
1958
1957
1957
1958
1958
1959
1960
1962
1963
1963
1962
1958
1955
1957
1970
1996
2032
2068
2092
2093
2069
2028
1980
1942
1922
1920
1930
1945
1957
1963
1965
1965
1966
1966
1968
1969
1971
1971
1971
1971
1972
1972
1972
1971
1971
1971
1972
1974
1976
1978
1979
1980
1980
1979
1979
1980
1982
1984
1986
1988
1989
1989
1991
1993
1995
1996
1998
2001
2005
2009
2013
2016
2017
2018
2018
2020
2023
2025
2027
2028
2027
2027
2025
2022
2018
2011
2004
1995
1988
1982
1978
1974
1972
1971
1968
1967
1965
1964
1965
1966
1968
1968
1967
1964
1962
1962
1964
1967
1968
1967
1965
1963
1962
1963
1964
1966
1967
1968
1969
1970
1971
1971
1971
1970
1969
1968
1969
1971
1973
1975
1975
1975
1974
1974
1974
1973
1972
1970
1970
1971
1974
1980
1985
1989
1990
1988
1985
1984
1983
1983
1983
1983
1981
1979
1979
1978
1978
1978
1978
1978
1978
1977
1975
1973
1973
1974
1977
1980
1982
1981
1977
1969
1963
1966
1985
2020
2062
2101
2118
2107
2069
2020
1973
1944
1936
1944
1958
1971
1977
1978
1978
1976
1975
1975
1975
1977
1978
1979
1979
1979
1978
1978
1979
1980
1981
1982
1983
1983
1983
1983
1984
1985
1985
1986
1986
1986
1987
1989
1991
1993
1994
1995
1995
1996
1998
2000
2002
2004
2007
2009
2011
2012
2013
2014
2015
2016
2018
2019
2021
2022
2021
2020
2016
2011
2005
1999
1993
1988
1983
1979
1975
1971
1967
1965
1964
1963
1963
1964
1964
1964
1963
1963
1963
1963
1963
1963
1963
1964
1964
1965
1965
1965
1965
1965
1965
1965
1966
1966
1967
1967
1967
1967
1966
1965
1965
1966
1967
1967
1967
1967
1967
1967
1966
1966
1966
1965
1965
1965
1965
1964
1963
1961
1959
1959
1962
1966
1970
1974
1975
1975
1973
1972
1970
1970
1969
1968
1967
1967
1966
1966
1966
1965
1965
1964
1964
1964
1964
1964
1965
1965
1966
1966
1966
1966
1963
1958
1954
1955
1968
1995
2033
2072
2097
2097
2070
2025
1978
1943
1929
1931
1943
1954
1960
1961
1961
1960
1961
1961
1962
1963
1964
1965
1966
1966
1967
1969
1970
1972
1973
1974
1974
1975
1975
1974
1974
1975
1977
1979
1980
1981
1982
1983
1984
1985
1986
1987
1988
1990
1992
1995
1997
1998
2000
2002
2004
2007
2010
2013
2015
2017
2018
2018
2018
2019
2019
2018
2017
2015
2011
2007
2001
1995
1990
1985
1981
1978
1976
1975
1974
1973
1972
1971
1970
1970
1970
1970
1971
1972
1973
1974
1975
1975
1975
1975
1975
1976
1977
1978
1978
1979
1979
1980
1980
1980
1980
1980
1981
1981
1982
1982
1983
1983
1983
1983
1983
1983
1984
1984
1984
1984
1984
1983
1983
1983
1983
1983
1984
1984
1985
1985
1985
1985
1985
1985
1985
1986
1986
1987
1988
1988
1988
1987
1985
1983
1982
1983
1984
1987
1990
1993
1995
1995
1996
1996
1996
1997
1997
1997
1996
1994
1993
1991
1989
1988
1988
1988
1989
1989
1990
1990
1990
1990
1989
1989
1990
1990
1988
1984
1980
1981
1993
2018
2053
2091
2116
2118
2094
2052
2009
1976
1963
1965
1975
1985
1991
1992
1992
1992
1992
1992
1992
1992
1991
1991
1992
1992
1993
1994
1995
1996
1996
1996
1995
1995
1995
1996
1997
1998
1999
2000
2000
2000
2001
2002
2003
2005
2006
2008
2009
2011
2012
2014
2015
2017
2019
2022
2026
2030
2033
2035
2037
2038
2039
2041
2043
2046
2047
2048
2048
2047
2044
2040
2035
2029
2024
2019
2015
2011
2008
2005
2003
2002
2000
1999
1999
1999
1999
2000
2001
2001
2002
2002
2002
2002
2001
2001
2001
2002
2002
2002
2002
2001
2001
2000
2000
2000
2001
2003
2004
2005
2005
2004
2002
2000
1999
1999
2000
2001
2002
2002
2001
2000
1999
1998
1997
1997
1997
1997
1997
1997
1996
1996
1995
1995
1994
1994
1995
1995
1995
1995
1994
1992
1991
1989
1989
1991
1994
1997
2000
2002
2001
2000
1998
1996
1996
1996
1996
1995
1994
1993
1992
1990
1989
1989
1989
1989
1989
1989
1989
1989
1989
1989
1990
1990
1990
1989
1986
1982
1980
1987
2007
2038
2073
2101
2108
2091
2054
2011
1975
1956
1955
1965
1977
1986
1990
1990
1990
1989
1989
1990
1990
1990
1991
1991
1992
1992
1993
1994
1994
1994
1995
1995
1995
1995
1995
1995
1996
1997
1998
1999
2000
2000
2000
2001
2001
2002
2004
2006
2007
2009
2010
2011
2013
2014
2016
2018
2020
2022
2024
2025
2026
2027
2028
2028
2029
2030
2031
2031
2031
2029
2026
2022
2017
2012
2007
2003
1999
1996
1993
1991
1989
1987
1985
1984
1983
1983
1983
1984
1984
1985
1985
1985
1984
1984
1984
1984
1985
1985
1986
1986
1986
1985
1985
1984
1984
1984
1985
1985
1986
1986
1986
1985
1985
1984
1984
1985
1985
1985
1985
1985
1985
1984
1983
1983
1982
1982
1983
1983
1983
1983
1983
1983
1982
1981
1981
1981
1981
1981
1980
1980
1978
1978
1978
1979
1982
1985
1988
1989
1989
1988
1987
1986
1985
1984
1983
1982
1981
1980
1980
1980
1979
1979
1978
1977
1977
1977
1977
1977
1977
1978
1978
1978
1978
1975
1971
1967
1968
1979
2003
2037
2070
2091
2089
2063
2023
1980
1950
1938
1942
1954
1967
1975
1978
1978
1978
1977
1977
1978
1979
1979
1980
1980
1980
1980
1980
1981
1982
1983
1984
1984
1984
1984
1983
1983
1983
1984
1985
1986
1987
1989
1990
1990
1991
1992
1993
1994
1996
1998
2000
2002
2004
2005
2006
2007
2009
2010
2012
2014
2016
2017
2017
2018
2018
2019
2019
2019
2018
2017
2014
2011
2006
2001
1996
1991
1987
1984
1981
1980
1978
1977
1976
1975
1974
1974
1974
1974
1974
1975
1976
1976
1976
1976
1975
1975
1975
1975
1976
1976
1977
1977
1977
1977
1977
1976
1976
1976
1977
1977
1977
1978
1978
1977
1976
1976
1975
1975
1976
1976
1976
1976
1976
1975
1974
1974
1973
1973
1974
1974
1974
1974
1974
1973
1973
1973
1973
1973
1973
1973
1973
1972
1971
1970
1969
1969
1970
1973
1977
1980
1981
1981
1980
1979
1977
1977
1977
1977
1976
1975
1974
1973
1972
1971
1971
1970
1970
1970
1971
1971
1971
1971
1970
1970
1970
1971
1970
1966
1962
1961
1970
1990
2022
2056
2080
2084
2064
2026
1983
1949
1933
1933
1944
1957
1966
1971
1971
1971
1971
1971
1971
1972
1973
1973
1973
1973
1974
1974
1975
1977
1977
1978
1978
1977
1977
1977
1977
1978
1979
1981
1982
1983
1983
1984
1984
1985
1986
1987
1989
1990
1992
1993
1994
1995
1997
1998
1999
2001
2003
2005
2007
2009
2010
2011
2011
2012
2013
2014
2014
2014
2013
2011
2008
2003
1998
1994
1989
1985
1982
1980
1978
1977
1975
1974
1972
1971
1971
1971
1971
1972
1972
1972
1972
1972
1971
1971
1971
1972
1973
1973
1974
1974
1974
1974
1973
1973
1973
1973
1974
1974
1975
1975
1975
1974
1974
1973
1973
1973
1973
1973
1973
1973
1973
1973
1972
1971
1971
1971
1971
1971
1972
1971
1971
1971
1970
1969
1969
1969
1969
1969
1969
1968
1967
1968
1969
1971
1974
1977
1978
1978
1977
1976
1975
1975
1974
1972
1971
1970
1969
1968
1968
1968
1968
1967
1967
1966
1966
1966
1967
1967
1968
1968
1968
1968
1966
1961
1958
1960
1973
1998
2033
2064
2082
2076
2048
2005
1964
1936
1926
1931
1944
1957
1966
1969
1970
1969
1969
1969
1969
1971
1972
1973
1973
1973
1974
1974
1974
1975
1976
1976
1977
1977
1978
1978
1978
1979
1979
1980
1982
1983
1984
1985
1986
1987
1988
1988
1989
1991
1993
1995
1997
1998
2000
2001
2003
2004
2005
2007
2009
2010
2011
2012
2013
2014
2014
2014
2015
2014
2012
2010
2007
2003
1999
1994
1989
1985
1981
1979
1977
1976
1975
1974
1973
1973
1972
1971
1971
1972
1972
1973
1974
1974
1974
1974
1973
1973
1973
1973
1974
1974
1975
1975
1974
1974
1973
1973
1973
1973
1973
1973
1974
1974
1973
1973
1972
1971
1970
1970
1970
1970
1970
1970
1969
1968
1968
1967
1967
1966
1966
1966
1965
1965
1965
1964
1963
1962
1961
1961
1963
1966
1970
1973
1974
1973
1971
1969
1967
1966
1966
1966
1965
1964
1962
1960
1959
1959
1959
1959
1959
1960
1960
1960
1960
1959
1959
1959
1959
1959
1958
1955
1951
1953
1965
1989
2024
2056
2075
2070
2043
2000
1957
1927
1914
1917
1929
1942
1952
1958
1960
1962
1962
1962
1963
1963
1963
1963
1964
1964
1965
1967
1968
1969
1969
1969
1969
1969
1969
1970
1971
1973
1974
1975
1975
1976
1977
1978
1979
1980
1982
1984
1985
1987
1989
1991
1992
1994
1996
1998
2001
2004
2006
2008
2009
2010
2011
2011
2012
2014
2015
2016
2017
2016
2014
2011
2007
2002
1998
1994
1991
1987
1984
1981
1979
1977
1976
1975
1974
1974
1975
1975
1976
1976
1976
1975
1975
1974
1974
1974
1974
1975
1975
1976
1976
1975
1975
1975
1975
1976
1976
1977
1977
1977
1977
1976
1976
1976
1976
1977
1977
1977
1977
1977
1977
1977
1976
1975
1975
1975
1976
1976
1977
1977
1977
1977
1976
1976
1975
1974
1974
1975
1977
1979
1982
1984
1984
1983
1981
1980
1980
1980
1980
1979
1977
1975
1973
1971
1971
1971
1972
1973
1973
1974
1973
1972
1971
1971
1971
1971
1972
1973
1971
1967
1963
1964
1976
2001
2036
2069
2089
2084
2055
2013
1971
1943
1933
1939
1952
1965
1973
1977
1978
1977
1976
1976
1975
1976
1977
1978
1979
1980
1981
1982
1983
1983
1983
1983
1983
1983
1983
1984
1985
1985
1986
1986
1986
1986
1986
1987
1988
1990
1991
1993
1994
1995
1996
1997
1999
2001
2003
2006
2008
2010
2011
2012
2013
2014
2015
2016
2018
2019
2020
2020
2020
2018
2014
2010
2006
2001
1997
1994
1991
1988
1985
1983
1981
1980
1979
1979
1978
1977
1976
1975
1974
1974
1973
1973
1972
1972
1972
1973
1973
1973
1973
1972
1972
1971
1971
1970
1971
1971
1972
1972
1972
1972
1971
1971
1970
1970
1970
1970
1970
1970
1970
1970
1969
1969
1968
1968
1968
1968
1968
1967
1967
1966
1965
1964
1963
1963
1962
1962
1964
1966
1970
1973
1974
1974
1972
1970
1969
1969
1969
1969
1967
1965
1963
1962
1961
1960
1960
1961
1961
1961
1961
1961
1960
1959
1960
1961
1962
1963
1961
1956
1951
1950
1960
1984
2020
2058
2084
2086
2063
2023
1978
1945
1929
1930
1940
1951
1960
1963
1963
1963
1962
1961
1960
1960
1961
1961
1963
1964
1965
1966
1966
1965
1965
1965
1965
1965
1966
1967
1968
1968
1968
1969
1969
1970
1971
1973
1974
1976
1977
1979
1980
1981
1983
1984
1986
1988
1991
1993
1996
1998
2000
2001
2002
2004
2005
2006
2007
2008
2009
2010
2009
2008
2005
2001
1996
1992
1987
1983
1979
1976
1973
1970
1967
1966
1965
1965
1965
1965
1965
1965
1964
1964
1964
1964
1964
1964
1964
1964
1965
1965
1965
1966
1966
1965
1965
1965
1966
1966
1967
1968
1968
1968
1967
1967
1967
1968
1969
1970
1971
1971
1971
1970
1969
1969
1970
1971
1971
1970
1969
1967
1967
1966
1965
1964
1964
1965
1968
1972
1975
1978
1978
1977
1974
1973
1972
1972
1972
1971
1970
1968
1967
1966
1965
1965
1964
1964
1964
1965
1965
1965
1965
1965
1965
1965
1965
1963
1959
1955
1956
1968
1994
2030
2065
2087
2085
2059
2017
1974
1943
1931
1934
1946
1958
1965
1967
1967
1967
1967
1967
1968
1969
1969
1970
1970
1970
1971
1973
1975
1976
1977
1977
1977
1977
1978
1978
1979
1980
1981
1982
1983
1984
1984
1985
1986
1987
1988
1990
1991
1993
1995
1997
1998
2000
2001
2002
2004
2007
2009
2011
2013
2013
2014
2015
2015
2016
2016
2017
2016
2015
2012
2009
2004
1999
1994
1990
1986
1982
1980
1977
1975
1973
1972
1970
1969
1969
1969
1969
1970
1970
1970
1970
1970
1970
1970
1970
1970
1970
1971
1971
1971
1971
1971
1971
1971
1971
1972
1972
1972
1972
1971
1971
1971
1971
1970
1970
1970
1971
1971
1971
1971
1970
1969
1968
1967
1967
1967
1967
1967
1967
1968
1970
1973
1976
1977
1976
1975
1974
1974
1974
1974
1974
1972
1971
1969
1968
1968
1968
1969
1969
1969
1969
1968
1967
1967
1967
1969
1970
1972
1972
1970
1965
1962
1966
1983
2013
2050
2083
2098
2086
2051
2006
1965
1941
1935
1943
1956
1967
1973
1974
1974
1974
1973
1972
1972
1973
1974
1975
1976
1977
1978
1979
1979
1979
1979
1979
1979
1980
1981
1981
1982
1982
1982
1982
1982
1982
1983
1985
1986
1987
1989
1990
1991
1992
1993
1994
1996
1998
2000
2003
2005
2006
2007
2008
2009
2010
2011
2012
2014
2015
2016
2015
2013
2010
2006
2002
1998
1993
1989
1986
1982
1979
1976
1973
1971
1970
1970
1970
1970
1971
1971
1971
1971
1970
1970
1969
1969
1970
1970
1971
1971
1971
1971
1971
1970
1970
1970
1970
1970
1970
1970
1970
1969
1969
1968
1968
1968
1968
1969
1969
1969
1969
1968
1968
1968
1967
1967
1966
1965
1965
1964
1965
1966
1969
1971
1973
1973
1972
1971
1971
1970
1969
1968
1966
1964
1963
1962
1962
1962
1963
1963
1963
1963
1962
1962
1962
1962
1963
1965
1967
1968
1967
1962
1957
1959
1972
1999
2037
2071
2091
2086
2055
2011
1968
1938
1929
1935
1948
1960
1967
1969
1969
1968
1967
1966
1967
1968
1969
1970
1970
1971
1971
1971
1972
1973
1973
1974
1976
1977
1979
1981
1981
1981
1981
1980
1981
1982
1983
1985
1987
1988
1988
1989
1990
1990
1991
1993
1995
1997
2000
2002
2003
2004
2005
2005
2006
2007
2008
2009
2011
2012
2013
2012
2011
2008
2005
2001
1996
1992
1987
1982
1978
1974
1971
1969
1968
1966
1966
1965
1965
1965
1964
1963
1963
1962
1962
1962
1963
1963
1964
1964
1964
1963
1962
1962
1961
1961
1961
1962
1962
1962
1962
1961
1961
1960
1960
1961
1961
1962
1962
1962
1961
1960
1959
1958
1957
1956
1956
1956
1956
1958
1961
1965
1967
1967
1967
1965
1964
1964
1964
1964
1963
1961
1959
1958
1957
1957
1957
1958
1958
1957
1957
1957
1957
1957
1957
1958
1958
1958
1956
1952
1948
1951
1966
1993
2030
2063
2081
2072
2040
1994
1949
1920
1910
1917
1931
1945
1955
1960
1962
1962
1962
1961
1962
1962
1964
1965
1967
1968
1969
1970
1970
1971
1971
1971
1971
1971
1972
1973
1974
1974
1975
1976
1976
1977
1978
1979
1981
1982
1984
1985
1987
1988
1989
1990
1992
1994
1996
1999
2001
2003
2004
2005
2006
2007
2008
2009
2010
2011
2012
2011
2010
2007
2003
1998
1993
1988
1984
1980
1977
1974
1972
1970
1968
1967
1966
1965
1965
1965
1965
1965
1965
1965
1965
1965
1964
1965
1965
1967
1968
1970
1971
1971
1971
1972
1973
1974
1975
1976
1976
1976
1976
1975
1975
1975
1976
1976
1977
1977
1977
1977
1976
1976
1975
1974
1973
1972
1971
1972
1975
1978
1982
1984
1985
1984
1982
1981
1981
1981
1980
1980
1978
1976
1975
1973
1973
1973
1973
1974
1974
1975
1975
1974
1973
1973
1973
1974
1975
1974
1970
1965
1965
1976
2000
2035
2070
2093
2092
2066
2025
1981
1951
1940
1944
1955
1966
1973
1974
1974
1975
1975
1975
1976
1976
1976
1977
1977
1978
1979
1980
1980
1980
1980
1980
1980
1980
1980
1981
1981
1982
1983
1984
1984
1985
1985
1986
1987
1989
1990
1991
1991
1992
1992
1992
1993
1994
1996
1998
2001
2002
2004
2005
2006
2006
2007
2008
2009
2011
2012
2012
2010
2008
2003
1999
1993
1989
1985
1981
1979
1976
1974
1973
1971
1970
1970
1970
1970
1969
1969
1968
1968
1968
1968
1968
1967
1967
1967
1968
1968
1968
1969
1969
1969
1969
1969
1970
1970
1971
1972
1972
1972
1972
1971
1971
1970
1970
1971
1971
1972
1972
1972
1971
1971
1970
1970
1969
1969
1968
1967
1965
1965
1966
1969
1972
1976
1979
1980
1980
1980
1980
1980
1980
1980
1979
1977
1976
1975
1976
1977
1979
1980
1981
1981
1981
1981
1981
1983
1984
1986
1987
1986
1981
1976
1974
1983
2005
2039
2076
2104
2110
2091
2052
2008
1972
1954
1954
1964
1976
1985
1988
1988
1987
1986
1984
1984
1985
1986
1987
1988
1989
1990
1990
1990
1990
1990
1990
1991
1991
1992
1993
1994
1995
1995
1995
1996
1996
1997
1999
2000
2002
2003
2004
2005
2006
2006
2007
2009
2010
2013
2015
2017
2019
2020
2020
2021
2021
2022
2022
2023
2024
2024
2025
2024
2023
2020
2016
2012
2007
2002
1997
1994
1991
1988
1987
1985
1983
1982
1981
1980
1979
1978
1977
1976
1975
1975
1974
1974
1974
1975
1975
1976
1975
1975
1974
1973
1973
1973
1973
1973
1973
1973
1973
1972
1972
1971
1969
1968
1966
1966
1965
1965
1966
1966
1965
1963
1961
1959
1956
1954
1952
1950
1949
1949
1951
1954
1957
1959
1960
1960
1959
1958
1957
1956
1955
1954
1953
1952
1952
1952
1953
1953
1952
1951
1950
1950
1951
1952
1953
1954
1955
1956
1955
1951
1946
1946
1958
1983
2018
2051
2071
2065
2037
1992
1949
1918
1906
1910
1922
1935
1946
1951
1953
1953
1953
1952
1952
1952
1954
1955
1956
1957
1957
1957
1957
1957
1958
1958
1959
1960
1961
1962
1963
1963
1964
1965
1966
1967
1968
1970
1971
1972
1973
1975
1977
1980
1983
1985
1987
1989
1990
1991
1993
1994
1996
1997
1998
1999
2001
2003
2004
2005
2004
2004
2002
2000
1997
1994
1989
1985
1980
1976
1971
1968
1965
1963
1961
1961
1961
1961
1961
1961
1961
1961
1960
1959
1959
1960
1961
1962
1964
1964
1964
1964
1964
1963
1964
1964
1965
1967
1968
1968
1969
1968
1968
1968
1968
1968
1968
1969
1969
1969
1969
1968
1967
1967
1967
1967
1967
1967
1967
1967
1967
1966
1965
1964
1962
1961
1962
1965
1969
1973
1975
1976
1975
1973
1972
1971
1971
1971
1971
1970
1968
1967
1966
1966
1966
1966
1967
1967
1967
1968
1968
1968
1968
1968
1968
1967
1965
1960
1958
1965
1983
2013
2049
2078
2089
2074
2039
1994
1957
1937
1934
1943
1955
1964
1968
1968
1968
1968
1968
1969
1969
1970
1970
1971
1971
1972
1973
1974
1975
1976
1977
1978
1978
1977
1977
1977
1978
1979
1981
1981
1982
1982
1983
1985
1987
1989
1991
1992
1994
1995
1997
1998
1999
2001
2003
2005
2008
2010
2012
2013
2014
2015
2016
2017
2018
2018
2018
2017
2016
2013
2009
2004
1999
1994
1989
1985
1982
1980
1979
1977
1976
1975
1973
1973
1973
1973
1973
1973
1974
1974
1974
1974
1974
1974
1974
1975
1975
1975
1976
1976
1976
1976
1976
1976
1977
1978
1978
1979
1979
1979
1980
1980
1980
1980
1980
1980
1980
1980
1980
1980
1979
1979
1978
1978
1979
1979
1979
1979
1978
1976
1974
1973
1971
1970
1968
1966
1964
1963
1964
1967
1970
1973
1975
1975
1974
1972
1971
1971
1972
1972
1972
1970
1969
1967
1966
1967
1968
1969
1970
1970
1969
1968
1968
1968
1968
1969
1970
1968
1964
1959
1958
1967
1988
2021
2056
2083
2089
2070
2033
1990
1955
1938
1937
1947
1959
1968
1973
1975
1976
1977
1977
1978
1978
1979
1979
1980
1980
1980
1979
1979
1979
1979
1978
1978
1977
1978
1978
1979
1980
1981
1981
1982
1982
1983
1983
1985
1986
1988
1989
1991
1993
1994
1995
1996
1997
2000
2002
2005
2007
2009
2010
2011
2011
2011
2012
2013
2015
2015
2015
2014
2012
2008
2004
1999
1994
1989
1985
1981
1978
1976
1974
1972
1971
1970
1969
1969
1968
1969
1969
1969
1969
1969
1968
1968
1968
1968
1969
1970
1970
1971
1970
1970
1969
1968
1967
1967
1968
1968
1968
1968
1968
1968
1968
1967
1967
1967
1967
1967
1967
1967
1967
1967
1966
1965
1965
1966
1968
1970
1972
1974
1974
1972
1970
1968
1967
1966
1966
1965
1964
1962
1962
1962
1964
1967
1970
1973
1974
1974
1973
1972
1971
1971
1970
1969
1968
1967
1966
1965
1966
1966
1965
1965
1965
1964
1964
1964
1965
1965
1966
1968
1967
1964
1959
1954
1957
1971
1999
2037
2071
2090
2083
2053
2010
1968
1941
1933
1939
1951
1962
1967
1968
1967
1966
1965
1964
1965
1966
1967
1968
1969
1969
1969
1969
1970
1971
1971
1972
1973
1974
1974
1974
1974
1974
1975
1975
1976
1977
1979
1980
1981
1982
1983
1984
1985
1986
1988
1990
1993
1995
1996
1998
1999
2000
2001
2003
2004
2006
2007
2009
2010
2010
2010
2008
2006
2003
2000
1996
1992
1987
1982
1977
1973
1970
1968
1966
1965
1965
1965
1965
1964
1964
1963
1963
1962
1961
1961
1962
1963
1964
1965
1964
1963
1962
1961
1961
1961
1962
1963
1963
1963
1963
1962
1962
1961
1962
1962
1963
1964
1965
1965
1964
1964
1963
1962
1962
1962
1962
1963
1963
1963
1963
1963
1963
1962
1961
1961
1961
1961
1961
1961
1961
1960
1959
1958
1957
1956
1955
1956
1959
1963
1966
1968
1968
1966
1965
1965
1965
1965
1965
1963
1962
1960
1959
1958
1958
1958
1958
1958
1958
1958
1957
1957
1957
1958
1958
1959
1958
1955
1950
1950
1960
1983
2016
2049
2071
2071
2048
2007
1964
1932
1916
1917
1927
1940
1950
1956
1959
1960
1961
1960
1961
1961
1961
1962
1963
1963
1964
1964
1964
1965
1965
1966
1966
1966
1966
1966
1967
1968
1969
1970
1971
1972
1972
1973
1974
1975
1977
1978
1979
1980
1982
1983
1984
1986
1988
1990
1992
1995
1997
1999
2001
2003
2004
2005
2006
2006
2006
2006
2005
2004
2002
1999
1994
1989
1983
1977
1973
1970
1967
1966
1964
1963
1961
1960
1958
1957
1956
1957
1957
1958
1958
1957
1956
1956
1955
1955
1955
1956
1957
1958
1958
1958
1958
1957
1957
1958
1959
1960
1961
1961
1961
1960
1959
1959
1959
1959
1960
1961
1961
1961
1961
1960
1959
1959
1959
1959
1960
1961
1961
1961
1960
1959
1958
1957
1956
1955
1955
1957
1960
1965
1968
1969
1969
1967
1966
1965
1965
1966
1965
1964
1962
1961
1959
1958
1958
1958
1959
1959
1960
1960
1960
1960
1960
1960
1960
1960
1959
1956
1952
1951
1959
1979
2010
2045
2070
2074
2055
2017
1973
1938
1919
1918
1928
1942
1953
1959
1962
1963
1964
1964
1964
1964
1965
1965
1966
1966
1967
1968
1969
1970
1970
1971
1971
1971
1970
1971
1972
1973
1974
1975
1976
1976
1977
1978
1979
1980
1981
1983
1984
1986
1988
1990
1991
1993
1994
1996
1999
2001
2003
2005
2007
2008
2008
2009
2010
2011
2012
2012
2012
2010
2006
2001
1996
1990
1984
1980
1976
1974
1971
1970
1968
1967
1966
1965
1964
1964
1965
1965
1966
1966
1966
1965
1964
1964
1964
1965
1966
1966
1967
1967
1968
1968
1968
1967
1967
1968
1969
1970
1970
1971
1970
1970
1970
1970
1970
1971
1971
1972
1972
1972
1971
1971
1970
1970
1970
1970
1971
1972
1972
1972
1972
1972
1971
1971
1970
1971
1971
1972
1973
1974
1974
1973
1972
1971
1970
1970
1969
1969
1969
1970
1972
1975
1978
1980
1981
1980
1980
1979
1980
1980
1980
1979
1978
1976
1975
1974
1975
1975
1976
1976
1975
1975
1974
1974
1975
1976
1977
1977
1977
1974
1969
1966
1971
1986
2015
2051
2084
2101
2093
2062
2019
1979
1954
1947
1954
1967
1977
1981
1982
1981
1980
1979
1979
1980
1981
1981
1982
1983
1984
1984
1985
1985
1985
1985
1986
1987
1988
1989
1990
1990
1990
1990
1990
1991
1991
1992
1994
1996
1998
1999
2001
2002
2003
2004
2006
2009
2011
2014
2016
2018
2020
2022
2024
2026
2027
2028
2030
2031
2033
2033
2033
2031
2028
2024
2019
2015
2010
2006
2002
1998
1995
1993
1990
1988
1987
1986
1986
1987
1988
1988
1988
1988
1988
1988
1988
1989
1989
1990
1990
1991
1991
1991
1991
1991
1991
1991
1991
1991
1992
1992
1992
1992
1992
1991
1990
1990
1991
1991
1992
1992
1992
1991
1990
1989
1989
1989
1989
1990
1991
1990
1990
1989
1987
1987
1986
1987
1987
1988
1987
1987
1987
1986
1986
1985
1985
1985
1985
1985
1984
1983
1981
1981
1981
1983
1987
1990
1992
1993
1992
1990
1989
1988
1988
1987
1986
1984
1983
1982
1982
1982
1982
1981
1981
1980
1979
1978
1978
1979
1979
1980
1979
1977
1972
1967
1965
1973
1994
2027
2063
2090
2097
2077
2039
1994
1959
1941
1940
1950
1962
1970
1974
1974
1973
1972
1972
1972
1973
1973
1974
1974
1975
1976
1976
1976
1975
1975
1976
1977
1977
1978
1978
1977
1977
1977
1977
1978
1979
1981
1983
1984
1985
1985
1986
1986
1988
1989
1991
1993
1994
1996
1998
2000
2001
2003
2004
2006
2008
2010
2012
2013
2014
2013
2012
2009
2006
2003
1999
1995
1990
1986
1981
1976
1971
1967
1965
1963
1962
1962
1961
1961
1960
1960
1959
1958
1957
1957
1958
1959
1959
1960
1960
1959
1958
1958
1957
1958
1959
1960
1961
1961
1961
1960
1960
1960
1960
1960
1960
1960
1960
1960
1960
1960
1960
1959
1959
1958
1958
1958
1958
1958
1958
1958
1957
1957
1956
1956
1956
1956
1957
1956
1956
1954
1953
1951
1950
1950
1952
1956
1961
1964
1966
1966
1964
1962
1960
1960
1961
1961
1960
1959
1957
1956
1955
1954
1954
1954
1954
1955
1955
1955
1955
1954
1954
1954
1955
1954
1952
1949
1949
1958
1980
2012
2048
2072
2075
2054
2015
1971
1934
1914
1911
1919
1932
1943
1951
1955
1957
1958
1958
1958
1959
1959
1960
1960
1960
1961
1962
1964
1965
1965
1966
1966
1966
1965
1966
1966
1968
1969
1971
1973
1974
1975
1975
1976
1977
1978
1979
1981
1983
1985
1987
1989
1990
1992
1994
1997
1999
2002
2004
2006
2008
2009
2010
2010
2011
2012
2012
2012
2009
2006
2001
1995
1989
1983
1978
1974
1970
1968
1966
1965
1965
1964
1963
1962
1961
1961
1961
1961
1961
1962
1962
1962
1962
1961
1961
1962
1963
1964
1965
1965
1966
1966
1966
1966
1966
1966
1967
1968
1969
1969
1970
1970
1969
1969
1969
1969
1969
1970
1970
1971
1971
1971
1970
1969
1969
1969
1969
1970
1971
1970
1970
1969
1969
1969
1968
1969
1969
1969
1969
1969
1968
1966
1965
1966
1969
1973
1977
1979
1980
1979
1977
1976
1976
1976
1975
1974
1973
1972
1971
1971
1971
1970
1970
1969
1969
1969
1969
1970
1970
1970
1971
1971
1970
1966
1961
1958
1964
1981
2011
2047
2077
2089
2076
2042
1997
1958
1936
1933
1942
1955
1966
1971
1971
1971
1971
1971
1972
1973
1973
1974
1974
1974
1974
1974
1975
1976
1977
1978
1978
1979
1979
1979
1979
1979
1979
1980
1981
1982
1983
1985
1985
1986
1987
1987
1989
1991
1993
1995
1997
1999
2001
2002
2004
2006
2009
2011
2013
2015
2017
2018
2019
2020
2020
2019
2018
2016
2013
2009
2004
1999
1993
1988
1983
1979
1976
1974
1973
1972
1972
1972
1972
1971
1970
1970
1970
1970
1971
1972
1973
1974
1974
1973
1973
1973
1973
1973
1974
1975
1976
1976
1976
1975
1975
1974
1974
1974
1975
1975
1976
1976
1976
1976
1976
1976
1976
1976
1976
1977
1977
1977
1977
1976
1975
1974
1974
1974
1975
1975
1976
1976
1975
1974
1974
1973
1973
1973
1973
1973
1974
1973
1972
1971
1969
1968
1968
1971
1975
1979
1982
1982
1981
1980
1979
1978
1977
1977
1977
1976
1975
1975
1974
1973
1972
1972
1972
1971
1971
1971
1971
1972
1972
1973
1973
1973
1970
1966
1961
1962
1972
1995
2030
2066
2092
2095
2072
2033
1989
1957
1943
1944
1954
1964
1970
1972
1972
1971
1971
1971
1971
1972
1972
1972
1972
1972
1972
1973
1973
1974
1975
1975
1975
1975
1975
1974
1975
1975
1975
1976
1977
1978
1980
1981
1981
1981
1981
1982
1983
1986
1988
1990
1992
1993
1995
1996
1998
2000
2002
2005
2007
2008
2009
2009
2010
2011
2011
2010
2009
2007
2003
1998
1993
1986
1980
1975
1971
1968
1965
1964
1962
1961
1960
1959
1958
1957
1957
1956
1957
1957
1958
1958
1958
1957
1956
1956
1956
1956
1956
1957
1957
1957
1957
1957
1956
1955
1954
1954
1955
1955
1956
1957
1956
1956
1955
1955
1955
1956
1956
1956
1956
1956
1956
1955
1955
1954
1954
1953
1954
1954
1955
1955
1955
1954
1953
1952
1952
1952
1953
1952
1952
1951
1951
1953
1956
1960
1963
1963
1962
1961
1959
1958
1959
1959
1958
1956
1954
1952
1951
1952
1952
1952
1952
1952
1951
1951
1950
1950
1951
1952
1952
1953
1951
1947
1943
1945
1958
1984
2019
2053
2074
2070
2044
2001
1957
1924
1908
1909
1919
1933
1944
1950
1952
1953
1952
1951
1951
1952
1954
1956
1958
1958
1958
1958
1958
1959
1959
1960
1961
1962
1963
1963
1964
1964
1964
1964
1965
1966
1967
1969
1971
1972
1973
1974
1974
1975
1977
1979
1982
1985
1988
1990
1992
1994
1995
1997
1999
2000
2002
2004
2006
2007
2007
2006
2003
1999
1995
1990
1985
1981
1976
1971
1967
1963
1960
1957
1956
1956
1956
1956
1956
1956
1955
1955
1954
1953
1953
1954
1954
1955
1956
1956
1956
1956
1956
1956
1957
1958
1958
1959
1960
1961
1961
1961
1961
1961
1961
1961
1961
1962
1963
1964
1964
1963
1963
1962
1961
1961
1961
1962
1963
1963
1963
1963
1962
1961
1961
1962
1962
1963
1963
1963
1963
1962
1961
1960
1959
1958
1959
1963
1967
1971
1974
1974
1973
1971
1970
1970
1970
1970
1970
1969
1967
1966
1966
1965
1966
1966
1966
1966
1967
1967
1967
1967
1967
1967
1967
1968
1967
1964
1960
1961
1972
1995
2028
2061
2083
2082
2057
2018
1976
1945
1931
1933
1944
1957
1966
1970
1972
1973
1973
1973
1973
1973
1973
1974
1974
1975
1975
1976
1977
1978
1979
1979
1979
1979
1980
1981
1982
1983
1984
1985
1986
1987
1988
1988
1989
1990
1992
1994
1996
1998
1999
2000
2001
2003
2005
2008
2011
2014
2016
2018
2019
2021
2022
2023
2025
2026
2026
2026
2025
2022
2018
2013
2007
2001
1995
1991
1988
1985
1983
1982
1980
1979
1978
1977
1976
1976
1977
1978
1978
1978
1977
1977
1976
1976
1977
1977
1977
1978
1978
1978
1978
1978
1978
1978
1978
1978
1979
1979
1980
1981
1981
1980
1980
1980
1980
1980
1981
1981
1981
1981
1981
1981
1981
1981
1980
1980
1980
1981
1981
1982
1982
1981
1981
1980
1979
1979
1980
1980
1980
1980
1980
1979
1978
1977
1976
1975
1976
1978
1981
1985
1988
1989
1988
1986
1985
1985
1985
1986
1987
1986
1984
1982
1980
1979
1979
1980
1981
1982
1982
1982
1982
1981
1981
1981
1981
1982
1983
1981
1977
1973
1973
1983
2006
2041
2078
2105
2108
2086
2046
2003
1972
1958
1961
1971
1981
1986
1987
1987
1987
1987
1987
1988
1988
1988
1988
1989
1990
1992
1993
1994
1994
1994
1994
1994
1995
1995
1996
1997
1998
1999
1999
1999
1999
2000
2000
2001
2003
2005
2007
2009
2010
2012
2013
2014
2016
2018
2021
2023
2026
2028
2030
2031
2032
2033
2034
2036
2037
2038
2038
2036
2033
2028
2023
2017
2012
2007
2003
1999
1996
1994
1991
1990
1988
1987
1987
1986
1986
1987
1987
1987
1987
1987
1987
1986
1986
1985
1986
1986
1987
1987
1986
1985
1984
1983
1984
1984
1985
1985
1985
1984
1983
1982
1982
1982
1981
1980
1980
1979
1979
1979
1979
1979
1978
1977
1977
1977
1977
1977
1977
1977
1976
1975
1974
1974
1974
1973
1973
1973
1972
1971
1970
1969
1967
1966
1966
1969
1973
1977
1980
1981
1980
1978
1976
1974
1973
1973
1973
1971
1970
1968
1967
1966
1965
1964
1964
1963
1963
1963
1964
1964
1965
1965
1964
1964
1962
1959
1954
1953
1959
1978
2009
2045
2072
2080
2063
2027
1983
1945
1925
1921
1930
1942
1952
1958
1960
1961
1962
1962
1962
1962
1962
1962
1962
1962
1963
1963
1964
1965
1966
1967
1968
1968
1968
1967
1968
1968
1969
1971
1973
1974
1975
1975
1975
1976
1976
1978
1980
1982
1984
1986
1988
1990
1991
1993
1995
1997
2000
2003
2005
2006
2007
2007
2008
2009
2010
2010
2009
2006
2002
1997
1992
1986
1981
1976
1971
1968
1964
1962
1960
1958
1957
1956
1956
1955
1954
1954
1954
1954
1955
1955
1955
1954
1953
1953
1953
1954
1955
1956
1956
1956
1957
1957
1957
1957
1956
1956
1957
1958
1960
1961
1960
1959
1958
1957
1957
1958
1959
1960
1960
1960
1959
1958
1957
1956
1956
1956
1956
1956
1955
1954
1953
1953
1955
1958
1962
1965
1966
1966
1965
1963
1962
1962
1962
1961
1960
1959
1958
1957
1957
1957
1957
1956
1956
1956
1956
1957
1957
1958
1958
1959
1959
1960
1958
1955
1951
1952
1964
1989
2024
2058
2079
2076
2050
2009
1965
1934
1920
1922
1933
1946
1955
1960
1962
1963
1964
1964
1964
1965
1966
1967
1967
1968
1968
1968
1968
1969
1970
1971
1972
1973
1973
1973
1973
1973
1974
1975
1976
1977
1979
1980
1982
1983
1984
1985
1986
1988
1990
1993
1995
1998
2000
2002
2004
2006
2008
2010
2012
2014
2015
2017
2017
2018
2017
2015
2013
2010
2006
2002
1996
1991
1985
1980
1976
1973
1970
1969
1968
1967
1967
1967
1967
1966
1965
1965
1964
1965
1965
1966
1967
1968
1968
1968
1968
1968
1968
1968
1969
1970
1970
1971
1971
1971
1971
1971
1971
1972
1972
1973
1974
1975
1975
1975
1974
1974
1974
1974
1974
1975
1976
1976
1976
1976
1975
1975
1974
1974
1975
1975
1976
1976
1975
1973
1971
1970
1971
1973
1977
1982
1985
1986
1985
1983
1981
1981
1981
1981
1981
1980
1979
1978
1977
1976
1976
1976
1975
1975
1976
1976
1977
1977
1977
1977
1977
1977
1976
1974
1969
1966
1970
1986
2014
2050
2083
2100
2091
2059
2016
1976
1952
1946
1953
1964
1973
1978
1978
1978
1978
1978
1979
1979
1980
1981
1981
1981
1981
1982
1983
1984
1985
1985
1986
1986
1986
1986
1986
1986
1987
1988
1989
1990
1991
1992
1992
1993
1994
1995
1997
1999
2002
2003
2005
2007
2009
2011
2013
2015
2017
2020
2023
2025
2027
2028
2029
2030
2030
2030
2029
2027
2024
2019
2014
2008
2003
1998
1994
1991
1988
1987
1985
1984
1983
1983
1982
1982
1982
1982
1983
1983
1984
1984
1984
1984
1984
1983
1983
1983
1983
1984
1985
1985
1986
1986
1986
1985
1985
1985
1985
1986
1986
1986
1986
1986
1986
1986
1986
1986
1986
1987
1987
1987
1987
1987
1987
1986
1986
1986
1986
1987
1987
1987
1986
1985
1984
1982
1981
1980
1980
1981
1983
1987
1990
1991
1992
1991
1989
1988
1989
1989
1990
1989
1988
1986
1984
1982
1982
1982
1982
1983
1983
1983
1982
1982
1981
1981
1981
1982
1983
1983
1981
1977
1972
1972
1981
2005
2041
2079
2105
2109
2086
2045
2001
1968
1954
1956
1966
1976
1982
1983
1983
1982
1982
1982
1982
1982
1983
1984
1984
1985
1985
1986
1986
1986
1986
1986
1986
1987
1987
1988
1989
1990
1990
1990
1990
1990
1991
1991
1992
1994
1995
1996
1998
1999
2000
2001
2002
2004
2006
2009
2011
2013
2015
2015
2016
2017
2018
2020
2022
2023
2023
2022
2019
2015
2010
2004
1998
1993
1989
1985
1982
1978
1975
1972
1970
1969
1968
1968
1967
1967
1967
1967
1967
1967
1966
1966
1965
1964
1965
1965
1965
1965
1965
1964
1963
1963
1963
1963
1964
1964
1965
1965
1965
1964
1963
1962
1961
1962
1962
1963
1963
1963
1963
1962
1961
1960
1960
1960
1961
1961
1962
1961
1961
1960
1958
1957
1957
1956
1956
1957
1960
1964
1967
1969
1969
1968
1967
1965
1965
1965
1965
1964
1962
1960
1958
1957
1957
1958
1958
1959
1959
1959
1959
1958
1958
1958
1958
1959
1959
1959
1957
1953
1951
1954
1969
1997
2032
2063
2078
2068
2038
1994
1954
1927
1917
1921
1933
1945
1953
1958
1960
1960
1960
1959
1959
1959
1960
1961
1962
1963
1964
1964
1965
1965
1965
1964
1964
1965
1966
1968
1969
1969
1970
1970
1970
1970
1971
1973
1974
1976
1978
1979
1981
1982
1983
1984
1986
1989
1992
1995
1997
1999
2000
2001
2002
2003
2005
2007
2008
2009
2009
2007
2004
1999
1994
1988
1983
1978
1974
1970
1966
1964
1961
1959
1957
1956
1955
1954
1954
1954
1954
1955
1955
1955
1955
1955
1955
1955
1956
1956
1957
1957
1958
1958
1958
1958
1959
1959
1960
1961
1961
1961
1962
1962
1962
1962
1963
1963
1963
1963
1963
1963
1963
1963
1963
1963
1963
1963
1964
1964
1964
1964
1963
1962
1961
1960
1959
1959
1959
1960
1963
1967
1971
1973
1974
1972
1970
1969
1968
1968
1969
1969
1967
1966
1964
1962
1962
1962
1963
1964
1964
1964
1964
1963
1963
1962
1962
1963
1964
1964
1963
1960
1956
1957
1969
1994
2028
2060
2080
2077
2050
2009
1966
1936
1923
1926
1938
1951
1961
1966
1968
1968
1968
1968
1967
1968
1968
1969
1971
1972
1973
1973
1974
1974
1974
1974
1974
1975
1975
1977
1978
1979
1979
1980
1980
1980
1981
1983
1984
1986
1988
1989
1990
1992
1993
1995
1998
2001
2003
2006
2008
2010
2012
2013
2015
2016
2018
2019
2020
2021
2021
2020
2017
2014
2009
2003
1998
1993
1988
1984
1981
1979
1977
1975
1973
1972
1971
1970
1970
1971
1972
1972
1972
1971
1971
1970
1970
1971
1971
1972
1973
1973
1973
1973
1973
1973
1973
1974
1974
1975
1976
1976
1977
1977
1977
1977
1977
1977
1977
1978
1978
1979
1978
1978
1978
1978
1978
1978
1978
1978
1978
1978
1978
1977
1976
1976
1976
1976
1977
1977
1977
1976
1974
1973
1974
1975
1978
1982
1985
1986
1987
1986
1985
1984
1984
1983
1982
1981
1980
1980
1979
1979
1978
1978
1977
1976
1975
1975
1976
1976
1977
1978
1979
1980
1979
1976
1971
1966
1968
1981
2008
2045
2080
2102
2099
2071
2029
1987
1959
1950
1955
1967
1976
1980
1980
1979
1978
1978
1979
1980
1981
1982
1983
1983
1983
1983
1983
1983
1984
1985
1986
1986
1987
1987
1987
1987
1987
1988
1989
1991
1992
1994
1995
1996
1996
1996
1997
1998
2000
2003
2006
2008
2011
2013
2015
2017
2018
2021
2023
2025
2027
2029
2030
2031
2031
2030
2028
2025
2022
2018
2014
2009
2004
1999
1994
1990
1987
1985
1983
1983
1983
1983
1982
1982
1981
1981
1981
1981
1982
1982
1982
1982
1982
1982
1982
1982
1981
1981
1981
1982
1982
1983
1982
1982
1981
1980
1979
1979
1980
1980
1980
1979
1979
1978
1978
1978
1978
1978
1978
1978
1978
1978
1978
1977
1977
1976
1975
1975
1975
1975
1975
1974
1974
1973
1971
1970
1969
1970
1972
1975
1979
1981
1982
1981
1979
1978
1976
1976
1976
1975
1974
1973
1971
1969
1968
1967
1967
1968
1968
1968
1968
1967
1967
1967
1967
1967
1967
1967
1965
1961
1957
1960
1973
2000
2036
2068
2086
2079
2049
2007
1965
1937
1927
1931
1943
1955
1963
1967
1968
1969
1968
1968
1968
1968
1968
1968
1968
1969
1970
1971
1972
1973
1973
1973
1973
1972
1973
1973
1974
1975
1976
1977
1977
1978
1979
1979
1980
1981
1983
1985
1987
1988
1990
1991
1993
1994
1997
1999
2002
2005
2007
2009
2011
2012
2012
2012
2013
2014
2014
2014
2012
2008
2002
1996
1990
1984
1980
1976
1973
1970
1968
1966
1964
1963
1961
1960
1960
1960
1960
1961
1961
1961
1961
1960
1960
1959
1959
1959
1960
1960
1961
1961
1961
1961
1961
1962
1963
1963
1964
1964
1964
1964
1964
1964
1964
1963
1963
1964
1964
1965
1965
1965
1965
1964
1964
1963
1963
1962
1962
1962
1961
1961
1960
1960
1961
1964
1968
1971
1973
1974
1973
1971
1970
1970
1969
1968
1967
1966
1965
1964
1964
1964
1964
1964
1964
1964
1964
1964
1964
1964
1965
1965
1966
1966
1965
1962
1957
1955
1961
1980
2011
2047
2075
2085
2069
2034
1990
1952
1931
1927
1936
1949
1961
1967
1970
1971
1971
1971
1972
1973
1974
1975
1975
1975
1975
1975
1976
1977
1978
1979
1980
1980
1981
1981
1982
1982
1983
1984
1985
1986
1988
1989
1990
1991
1992
1993
1994
1996
1999
2001
2004
2006
2008
2010
2012
2014
2016
2018
2021
2023
2024
2026
2027
2027
2026
2025
2022
2019
2015
2010
2005
2000
1994
1990
1986
1982
1980
1979
1979
1978
1978
1978
1977
1976
1976
1975
1976
1976
1977
1977
1977
1978
1978
1978
1978
1978
1978
1978
1979
1980
1981
1982
1983
1983
1983
1983
1983
1983
1984
1985
1986
1987
1987
1986
1985
1985
1985
1986
1987
1988
1988
1988
1988
1988
1988
1987
1988
1988
1989
1989
1989
1989
1988
1987
1986
1984
1983
1984
1987
1991
1995
1998
1998
1997
1995
1994
1993
1993
1994
1995
1995
1993
1992
1991
1989
1989
1989
1989
1989
1990
1991
1992
1992
1992
1992
1992
1992
1992
1990
1985
1981
1982
1994
2020
2055
2093
2117
2117
2091
2049
2007
1978
1967
1971
1980
1989
1992
1992
1991
1991
1991
1992
1992
1992
1992
1992
1992
1992
1993
1994
1995
1995
1996
1996
1996
1996
1995
1996
1997
1998
1999
2000
2001
2001
2001
2002
2003
2004
2006
2007
2009
2011
2013
2014
2016
2017
2019
2022
2024
2027
2029
2031
2033
2034
2034
2035
2036
2036
2037
2036
2034
2031
2026
2021
2016
2011
2006
2002
1999
1997
1996
1995
1994
1993
1992
1991
1990
1990
1991
1991
1992
1992
1992
1992
1991
1991
1990
1990
1991
1991
1991
1991
1991
1990
1989
1989
1988
1988
1988
1989
1989
1989
1989
1989
1988
1987
1986
1986
1986
1986
1987
1987
1987
1986
1986
1985
1985
1985
1985
1985
1984
1984
1984
1983
1982
1981
1980
1979
1980
1982
1986
1989
1991
1992
1990
1989
1988
1987
1987
1987
1986
1985
1983
1981
1980
1979
1978
1978
1978
1978
1977
1976
1976
1975
1976
1976
1977
1978
1978
1975
1970
1967
1969
1984
2011
2048
2079
2095
2086
2053
2010
1968
1942
1934
1941
1953
1965
1972
1974
1975
1975
1974
1973
1972
1971
1971
1972
1973
1974
1975
1975
1976
1975
1975
1975
1974
1974
1974
1975
1975
1976
1977
1978
1979
1979
1978
1978
1979
1980
1982
1984
1986
1988
1989
1990
1992
1994
1996
1999
2001
2003
2005
2007
2008
2008
2009
2010
2011
2011
2011
2010
2007
2003
1997
1991
1985
1979
1975
1972
1969
1967
1965
1962
1960
1958
1957
1956
1957
1957
1957
1956
1956
1956
1956
1956
1956
1956
1956
1956
1957
1957
1958
1958
1958
1958
1958
1958
1958
1958
1958
1958
1959
1959
1959
1958
1958
1958
1958
1959
1959
1960
1960
1960
1960
1959
1958
1957
1956
1956
1956
1958
1961
1964
1968
1969
1969
1968
1966
1965
1964
1964
1964
1963
1962
1960
1959
1958
1958
1958
1958
1959
1959
1959
1958
1958
1957
1957
1958
1959
1960
1961
1960
1956
1951
1952
1963
1987
2022
2056
2079
2078
2053
2012
1967
1933
1918
1918
1930
1943
1955
1961
1964
1964
1964
1963
1963
1963
1964
1964
1965
1966
1967
1968
1969
1969
1970
1970
1971
1972
1973
1973
1974
1974
1974
1975
1976
1977
1978
1979
1981
1983
1984
1986
1987
1988
1989
1991
1993
1996
1998
2001
2003
2005
2007
2008
2010
2011
2012
2014
2015
2015
2015
2013
2010
2006
2001
1995
1990
1985
1981
1978
1975
1972
1969
1967
1965
1965
1965
1965
1966
1966
1967
1967
1967
1966
1966
1966
1967
1967
1968
1968
1969
1969
1969
1970
1970
1970
1970
1971
1972
1973
1974
1974
1974
1974
1973
1973
1973
1973
1973
1974
1974
1974
1974
1973
1973
1972
1972
1973
1973
1973
1973
1972
1971
1969
1967
1966
1967
1969
1974
1978
1981
1982
1981
1979
1977
1976
1977
1978
1978
1977
1976
1974
1973
1972
1972
1972
1972
1972
1973
1973
1974
1974
1974
1974
1974
1975
1975
1974
1970
1966
1967
1978
2002
2036
2072
2096
2098
2075
2035
1993
1962
1950
1953
1964
1974
1979
1981
1980
1981
1981
1981
1981
1981
1981
1982
1982
1983
1984
1985
1986
1987
1987
1987
1987
1987
1987
1988
1989
1991
1992
1992
1993
1993
1993
1993
1994
1996
1997
1999
2001
2003
2004
2006
2007
2009
2011
2013
2015
2018
2020
2022
2024
2025
2027
2028
2028
2028
2028
2026
2024
2021
2017
2012
2007
2001
1997
1993
1990
1988
1986
1985
1984
1983
1982
1981
1981
1981
1983
1984
1985
1986
1986
1985
1984
1984
1984
1984
1984
1985
1985
1985
1985
1984
1983
1982
1982
1982
1983
1984
1984
1984
1984
1983
1982
1982
1981
1981
1981
1982
1982
1983
1982
1982
1981
1981
1980
1980
1979
1978
1977
1976
1975
1976
1978
1980
1983
1985
1986
1986
1985
1984
1983
1982
1981
1979
1978
1976
1975
1974
1974
1973
1973
1972
1971
1970
1970
1970
1970
1971
1972
1972
1973
1973
1970
1965
1960
1961
1973
1999
2036
2072
2095
2092
2064
2021
1978
1949
1939
1945
1957
1967
1972
1972
1970
1969
1968
1967
1968
1969
1969
1970
1969
1969
1969
1970
1970
1971
1972
1972
1972
1972
1972
1972
1972
1972
1972
1973
1974
1975
1976
1976
1976
1977
1977
1979
1981
1982
1984
1987
1989
1991
1993
1995
1995
1996
1997
1998
2000
2002
2004
2005
2006
2006
2004
2003
2000
1997
1993
1988
1984
1979
1974
1970
1966
1963
1960
1959
1958
1958
1957
1957
1957
1957
1956
1956
1955
1955
1956
1957
1958
1958
1957
1957
1956
1955
1955
1955
1956
1957
1958
1959
1959
1958
1956
1956
1956
1957
1958
1959
1960
1959
1959
1958
1957
1957
1957
1956
1956
1957
1957
1956
1956
1956
1957
1959
1962
1966
1968
1969
1968
1966
1965
1964
1963
1961
1960
1958
1957
1957
1957
1957
1957
1957
1957
1957
1957
1957
1957
1958
1959
1960
1960
1961
1960
1956
1952
1949
1954
1971
2001
2038
2069
2083
2071
2037
1992
1950
1924
1916
1922
1934
1947
1955
1958
1960
1961
1961
1961
1962
1962
1963
1963
1963
1964
1965
1966
1966
1967
1967
1968
1968
1969
1969
1969
1969
1970
1970
1971
1973
1974
1976
1977
1977
1978
1978
1980
1982
1984
1987
1989
1991
1992
1993
1995
1996
1998
2000
2002
2004
2005
2007
2007
2007
2006
2005
2003
2001
1997
1992
1987
1982
1977
1973
1968
1965
1962
1960
1959
1959
1959
1959
1958
1957
1957
1956
1957
1958
1959
1960
1961
1961
1961
1961
1961
1962
1962
1963
1963
1964
1965
1965
1966
1967
1967
1966
1966
1966
1966
1968
1969
1969
1969
1969
1968
1968
1967
1968
1968
1969
1970
1969
1968
1967
1965
1964
1965
1969
1973
1978
1980
1980
1979
1977
1975
1975
1974
1973
1972
1971
1969
1968
1968
1967
1967
1966
1966
1967
1967
1968
1968
1968
1969
1969
1969
1970
1968
1965
1960
1959
1967
1988
2021
2056
2082
2088
2068
2029
1985
1949
1930
1930
1940
1954
1964
1969
1971
1972
1972
1972
1972
1972
1973
1973
1974
1975
1975
1976
1977
1978
1979
1980
1980
1980
1980
1980
1980
1981
1982
1984
1985
1985
1986
1987
1987
1988
1989
1990
1992
1993
1996
1998
2000
2003
2004
2006
2007
2008
2010
2013
2014
2016
2017
2017
2018
2017
2017
2016
2015
2012
2008
2004
1998
1993
1988
1983
1980
1977
1975
1973
1972
1970
1969
1969
1968
1968
1969
1969
1969
1970
1970
1970
1971
1971
1972
1973
1974
1975
1976
1977
1977
1976
1976
1975
1975
1974
1974
1975
1976
1976
1977
1977
1977
1977
1977
1977
1976
1976
1976
1976
1977
1977
1977
1976
1975
1973
1972
1970
1970
1972
1976
1980
1984
1986
1986
1984
1982
1981
1981
1981
1981
1980
1979
1976
1974
1972
1972
1972
1973
1974
1975
1974
1973
1972
1971
1971
1972
1973
1974
1974
1973
1969
1964
1964
1974
1996
2029
2063
2086
2085
2060
2019
1976
1946
1935
1939
1951
1964
1972
1975
1976
1976
1975
1975
1974
1974
1975
1976
1977
1978
1979
1980
1981
1981
1981
1981
1981
1982
1983
1984
1985
1986
1986
1986
1986
1987
1988
1990
1991
1993
1995
1996
1997
1999
2000
2002
2004
2006
2009
2011
2013
2015
2017
2019
2020
2020
2021
2022
2022
2023
2024
2023
2020
2016
2011
2006
2001
1997
1993
1990
1987
1984
1981
1979
1977
1976
1976
1976
1977
1977
1977
1977
1977
1976
1976
1975
1975
1975
1976
1977
1978
1978
1978
1977
1977
1977
1977
1978
1979
1980
1981
1982
1982
1981
1980
1979
1979
1980
1981
1982
1982
1981
1981
1980
1980
1980
1980
1979
1979
1979
1979
1978
1976
1975
1974
1976
1979
1983
1986
1988
1989
1988
1986
1985
1984
1983
1981
1980
1978
1978
1977
1977
1977
1977
1976
1975
1975
1974
1974
1974
1974
1974
1975
1976
1976
1975
1971
1965
1963
1970
1988
2019
2053
2079
2086
2067
2031
1988
1953
1935
1934
1944
1957
1967
1972
1973
1973
1973
1972
1972
1973
1973
1973
1973
1973
1973
1973
1973
1974
1975
1976
1976
1976
1976
1976
1976
1977
1977
1978
1978
1979
1980
1981
1982
1982
1983
1984
1986
1988
1989
1991
1993
1994
1995
1997
1998
2001
2003
2005
2007
2008
2009
2009
2009
2009
2008
2007
2005
2003
1999
1994
1989
1983
1978
1973
1969
1966
1963
1962
1961
1960
1960
1959
1959
1958
1957
1957
1957
1958
1959
1959
1959
1959
1959
1959
1958
1958
1958
1958
1959
1960
1960
1961
1961
1961
1961
1961
1961
1961
1962
1963
1963
1963
1963
1962
1962
1961
1961
1961
1961
1961
1960
1960
1959
1958
1956
1955
1954
1955
1958
1962
1967
1971
1972
1971
1969
1967
1966
1966
1966
1966
1965
1963
1962
1960
1959
1958
1958
1959
1960
1960
1961
1960
1960
1959
1958
1958
1959
1959
1959
1956
1952
1952
1960
1981
2013
2048
2071
2074
2053
2015
1972
1938
1921
1921
1931
1944
1955
1962
1964
1965
1965
1965
1965
1965
1966
1966
1966
1968
1969
1971
1971
1972
1972
1972
1973
1973
1974
1975
1975
1976
1977
1979
1980
1980
1980
1981
1983
1985
1987
1990
1992
1993
1995
1996
1997
1998
2000
2003
2007
2010
2012
2013
2013
2013
2013
2013
2014
2015
2016
2016
2014
2010
2005
1999
1993
1987
1983
1980
1978
1975
1973
1970
1969
1967
1966
1966
1965
1965
1965
1966
1967
1967
1967
1967
1966
1966
1966
1967
1968
1968
1968
1968
1968
1967
1967
1967
1968
1969
1970
1971
1971
1971
1970
1970
1970
1970
1970
1970
1971
1971
1971
1971
1971
1970
1970
1970
1970
1970
1970
1970
1970
1969
1968
1967
1967
1968
1971
1975
1980
1982
1983
1982
1979
1977
1976
1975
1976
1976
1975
1973
1971
1970
1970
1970
1971
1971
1970
1970
1970
1971
1971
1971
1971
1970
1970
1969
1966
1962
1960
1966
1982
2010
2044
2072
2084
2072
2039
1996
1958
1937
1933
1942
1956
1967
1972
1974
1974
1973
1973
1973
1973
1973
1974
1974
1975
1976
1976
1977
1978
1979
1980
1981
1981
1981
1981
1981
1981
1981
1982
1984
1985
1986
1987
1987
1987
1988
1990
1993
1995
1996
1998
1999
2001
2003
2005
2007
2009
2011
2014
2016
2017
2019
2019
2020
2020
2020
2020
2019
2017
2013
2009
2004
1998
1992
1987
1984
1982
1980
1980
1978
1977
1976
1975
1975
1974
1974
1973
1973
1974
1975
1976
1976
1976
1976
1975
1975
1975
1976
1977
1977
1978
1977
1977
1976
1976
1976
1977
1977
1978
1978
1978
1979
1978
1978
1978
1977
1978
1979
1980
1980
1980
1980
1979
1979
1979
1978
1978
1979
1979
1980
1980
1979
1978
1976
1975
1974
1974
1974
1977
1980
1984
1988
1989
1988
1986
1984
1984
1984
1984
1984
1983
1981
1979
1977
1976
1975
1975
1976
1976
1977
1977
1977
1976
1976
1976
1977
1978
1979
1979
1975
1970
1968
1974
1992
2022
2057
2085
2093
2076
2040
1997
1961
1943
1943
1953
1966
1975
1979
1979
1979
1978
1978
1978
1978
1979
1979
1980
1981
1982
1982
1983
1983
1983
1983
1982
1982
1983
1983
1984
1985
1986
1986
1986
1987
1987
1988
1989
1991
1993
1995
1996
1998
1999
2000
2001
2004
2006
2009
2011
2013
2015
2016
2017
2018
2019
2020
2021
2022
2022
2022
2021
2018
2013
2008
2003
1998
1993
1990
1987
1985
1983
1982
1980
1978
1977
1976
1976
1977
1977
1978
1977
1977
1976
1976
1976
1976
1977
1977
1977
1977
1977
1976
1976
1976
1976
1977
1977
1978
1978
1978
1977
1977
1976
1974
1973
1973
1973
1973
1974
1974
1974
1974
1973
1972
1971
1971
1971
1971
1971
1971
1971
1971
1970
1970
1969
1969
1969
1969
1969
1969
1968
1967
1966
1965
1966
1968
1972
1976
1979
1980
1979
1977
1975
1974
1974
1973
1971
1970
1968
1968
1968
1968
1968
1967
1967
1966
1966
1966
1966
1967
1967
1967
1968
1967
1965
1960
1956
1956
1967
1990
2023
2057
2080
2079
2055
2015
1971
1938
1923
1925
1936
1949
1959
1964
1965
1965
1964
1963
1963
1965
1966
1967
1967
1967
1967
1967
1967
1968
1969
1969
1970
1970
1970
1969
1969
1970
1971
1971
1973
1974
1975
1976
1977
1978
1978
1979
1980
1982
1984
1987
1989
1990
1992
1993
1994
1995
1997
1999
2000
2002
2004
2005
2006
2006
2006
2004
2002
1999
1995
1991
1986
1980
1975
1970
1966
1963
1961
1960
1959
1959
1958
1957
1956
1955
1955
1955
1955
1956
1956
1957
1957
1957
1956
1956
1956
1956
1956
1957
1957
1958
1959
1959
1959
1959
1958
1958
1958
1959
1960
1961
1962
1962
1961
1960
1959
1959
1958
1958
1959
1959
1959
1959
1958
1957
1957
1957
1957
1957
1957
1956
1956
1955
1955
1955
1956
1959
1963
1966
1968
1968
1967
1965
1964
1963
1962
1961
1960
1959
1959
1959
1959
1959
1958
1958
1957
1956
1956
1957
1957
1958
1959
1959
1960
1960
1958
1954
1949
1950
1961
1985
2020
2053
2074
2073
2047
2005
1962
1930
1917
1920
1933
1946
1956
1961
1963
1963
1964
1964
1964
1965
1965
1965
1965
1965
1965
1965
1965
1966
1967
1967
1968
1968
1969
1969
1970
1970
1971
1971
1972
1974
1975
1976
1977
1978
1979
1980
1981
1983
1986
1988
1991
1993
1994
1995
1997
1999
2001
2002
2004
2006
2007
2008
2009
2009
2009
2008
2005
2002
1998
1993
1988
1983
1977
1973
1969
1966
1964
1964
1964
1965
1965
1965
1965
1964
1963
1963
1963
1963
1963
1964
1964
1964
1963
1963
1962
1962
1962
1963
1963
1964
1964
1963
1963
1963
1963
1964
1964
1964
1965
1965
1966
1966
1966
1965
1964
1964
1963
1964
1964
1965
1966
1966
1965
1964
1964
1963
1964
1964
1965
1965
1965
1965
1964
1964
1963
1962
1961
1960
1962
1964
1969
1973
1975
1976
1975
1974
1973
1973
1974
1974
1974
1973
1972
1971
1970
1969
1969
1970
1970
1970
1971
1970
1970
1970
1970
1970
1971
1972
1973
1971
1967
1963
1965
1978
2004
2041
2075
2096
2091
2062
2019
1978
1951
1943
1949
1961
1971
1976
1977
1977
1977
1976
1976
1976
1977
1978
1979
1980
1981
1982
1983
1983
1984
1984
1984
1984
1984
1985
1986
1987
1989
1989
1990
1990
1990
1991
1993
1995
1996
1998
1999
2000
2001
2002
2003
2005
2007
2010
2012
2014
2016
2018
2019
2020
2020
2021
2021
2023
2024
2024
2024
2021
2017
2012
2007
2002
1997
1993
1989
1986
1984
1982
1980
1978
1977
1976
1975
1975
1976
1977
1977
1978
1977
1977
1977
1976
1977
1977
1978
1978
1978
1978
1978
1978
1977
1977
1978
1978
1979
1979
1979
1979
1979
1979
1978
1978
1978
1979
1979
1980
1980
1979
1978
1978
1977
1977
1977
1977
1978
1978
1978
1977
1977
1976
1974
1974
1973
1972
1971
1971
1971
1972
1975
1978
1981
1982
1982
1981
1979
1979
1978
1978
1977
1975
1973
1971
1970
1969
1969
1970
1970
1969
1968
1967
1966
1965
1965
1966
1967
1967
1967
1965
1961
1956
1957
1968
1992
2027
2062
2084
2081
2054
2011
1967
1936
1925
1931
1944
1958
1966
1968
1967
1965
1963
1962
1963
1964
1965
1966
1967
1968
1968
1968
1967
1967
1967
1967
1969
1970
1971
1971
1971
1971
1971
1970
1971
1971
1972
1974
1975
1977
1978
1980
1981
1983
1984
1985
1986
1988
1990
1992
1995
1997
1998
1998
1999
2000
2001
2003
2005
2005
2005
2003
2000
1996
1992
1987
1983
1978
1974
1970
1966
1963
1960
1958
1957
1956
1955
1955
1955
1955
1955
1955
1955
1954
1954
1955
1955
1956
1957
1958
1958
1958
1958
1957
1956
1956
1956
1957
1958
1958
1959
1959
1959
1958
1958
1958
1958
1959
1960
1961
1961
1961
1960
1959
1958
1958
1958
1959
1959
1958
1958
1957
1955
1954
1954
1954
1957
1961
1965
1968
1969
1968
1966
1964
1963
1963
1963
1962
1961
1959
1958
1956
1955
1954
1955
1955
1955
1956
1955
1955
1955
1956
1956
1956
1956
1955
1954
1951
1948
1949
1961
1986
2020
2053
2073
2071
2046
2005
1962
1930
1916
1917
1927
1940
1950
1956
1959
1960
1961
1961
1961
1961
1961
1961
1962
1963
1964
1965
1967
1968
1968
1968
1968
1968
1968
1968
1970
1971
1973
1974
1975
1975
1975
1976
1977
1979
1980
1982
1984
1985
1987
1989
1991
1993
1995
1998
2000
2002
2004
2005
2006
2007
2008
2009
2010
2010
2010
2009
2007
2004
1999
1993
1987
1981
1976
1972
1969
1967
1965
1964
1963
1963
1962
1962
1962
1962
1962
1962
1963
1963
1963
1963
1963
1963
1963
1964
1964
1965
1966
1966
1967
1967
1967
1967
1967
1968
1968
1969
1970
1971
1971
1971
1970
1970
1970
1971
1972
1972
1973
1972
1972
1972
1971
1971
1970
1969
1969
1970
1970
1970
1968
1967
1966
1968
1972
1976
1980
1981
1981
1980
1979
1978
1977
1977
1975
1974
1973
1973
1973
1973
1973
1973
1972
1971
1970
1971
1971
1972
1973
1974
1974
1974
1973
1969
1964
1961
1965
1982
2011
2048
2081
2096
2086
2052
2008
1967
1943
1939
1948
1961
1972
1976
1976
1975
1974
1973
1974
1975
1976
1977
1977
1978
1978
1978
1979
1979
1980
1981
1981
1982
1983
1983
1983
1982
1983
1983
1984
1986
1988
1989
1990
1990
1991
1991
1993
1995
1997
1999
2001
2003
2005
2007
2009
2010
2012
2014
2016
2018
2020
2021
2022
2022
2021
2020
2018
2015
2011
2006
2002
1997
1993
1989
1985
1982
1980
1979
1978
1977
1977
1977
1977
1977
1976
1976
1976
1976
1976
1978
1979
1979
1979
1979
1978
1978
1978
1978
1980
1980
1981
1981
1980
1980
1980
1980
1980
1981
1981
1981
1981
1981
1981
1981
1981
1981
1980
1980
1980
1980
1981
1981
1981
1980
1978
1976
1975
1974
1975
1976
1979
1983
1986
1987
1987
1986
1984
1983
1983
1983
1983
1982
1981
1979
1978
1977
1976
1976
1976
1976
1976
1976
1976
1976
1976
1975
1975
1976
1977
1977
1973
1968
1965
1970
1989
2021
2059
2091
2102
2088
2052
2009
1972
1952
1949
1957
1968
1976
1978
1978
1978
1977
1977
1976
1976
1976
1976
1976
1977
1978
1979
1980
1981
1982
1982
1982
1982
1982
1982
1983
1983
1984
1984
1984
1984
1985
1986
1987
1989
1991
1992
1993
1993
1994
1994
1995
1997
1999
2002
2004
2006
2008
2010
2011
2012
2012
2012
2013
2013
2014
2013
2012
2008
2004
1998
1992
1986
1982
1978
1975
1972
1970
1968
1966
1965
1964
1963
1963
1963
1964
1964
1965
1965
1964
1964
1963
1963
1963
1963
1963
1963
1964
1964
1964
1964
1963
1962
1961
1961
1962
1962
1963
1963
1963
1962
1961
1961
1961
1962
1963
1963
1964
1963
1962
1960
1958
1957
1956
1956
1956
1957
1959
1961
1964
1966
1968
1968
1967
1966
1966
1965
1964
1963
1961
1959
1957
1956
1956
1955
1955
1956
1956
1955
1955
1955
1955
1956
1956
1957
1957
1957
1955
1952
1948
1947
1955
1976
2008
2046
2073
2080
2060
2021
1974
1935
1914
1911
1920
1934
1947
1954
1957
1958
1958
1958
1958
1958
1959
1960
1961
1963
1964
1964
1965
1965
1965
1965
1965
1965
1966
1967
1968
1969
1971
1971
1972
1972
1972
1973
1974
1976
1978
1980
1981
1982
1983
1984
1986
1988
1991
1993
1996
1998
1999
2000
2001
2003
2004
2006
2007
2008
2007
2005
2001
1997
1992
1987
1981
1976
1971
1967
1964
1962
1960
1958
1957
1955
1954
1953
1953
1954
1954
1955
1955
1954
1953
1952
1952
1953
1954
1956
1957
1957
1956
1956
1956
1956
1957
1958
1960
1961
1961
1960
1959
1959
1959
1959
1960
1961
1961
1961
1961
1961
1960
1959
1958
1958
1958
1959
1958
1957
1956
1956
1958
1961
1965
1969
1971
1971
1970
1969
1968
1967
1966
1965
1964
1962
1961
1961
1961
1962
1962
1962
1962
1961
1960
1960
1960
1961
1962
1964
1965
1964
1962
1957
1954
1957
1973
2001
2039
2073
2090
2081
2048
2001
1956
1926
1916
1924
1940
1956
1967
1971
1972
1971
1970
1970
1971
1972
1973
1973
1974
1974
1974
1973
1973
1973
1974
1975
1976
1977
1976
1976
1976
1976
1977
1977
1978
1979
1980
1982
1985
1986
1987
1986
1986
1986
1989
1992
1995
1997
1998
1999
2001
2002
2004
2006
2009
2012
2014
2015
2014
2013
2011
2008
2003
1997
1990
1983
1977
1972
1967
1962
1957
1952
1948
1946
1945
1946
1948
1949
1950
1950
1948
1947
1946
1946
1947
1947
1947
1947
1947
1947
1948
1948
1949
1950
1951
1951
1949
1947
1946
1945
1946
1947
1949
1949
1948
1946
1946
1945
1946
1946
1946
1946
1946
1946
1947
1948
1948
1947
1945
1943
1942
1943
1946
1950
1956
1960
1961
1960
1957
1954
1953
1953
1954
1954
1953
1951
1949
1948
1948
1949
1951
1953
1953
1951
1949
1947
1946
1946
1948
1949
1951
1950
1948
1943
1939
1941
1956
1984
2023
2059
2080
2075
2045
1997
1950
1917
1906
1912
1926
1941
1950
1954
1954
1955
1954
1955
1955
1956
1957
1957
1957
1957
1957
1958
1959
1961
1963
1964
1964
1965
1965
1966
1967
1968
1969
1970
1972
1973
1975
1976
1977
1978
1979
1980
1982
1985
1988
1990
1992
1994
1997
2000
2002
2005
2007
2009
2011
2012
2014
2014
2014
2013
2011
2009
2005
2001
1996
1991
1985
1979
1974
1970
1966
1962
1960
1960
1959
1960
1960
1960
1960
1960
1959
1959
1959
1960
1962
1963
1964
1965
1964
1962
1962
1963
1964
1965
1966
1966
1966
1966
1965
1965
1964
1963
1962
1962
1964
1966
1968
1969
1968
1965
1963
1961
1960
1961
1963
1965
1966
1964
1962
1958
1956
1957
1961
1967
1973
1977
1978
1976
1973
1971
1969
1968
1968
1967
1966
1965
1964
1963
1963
1962
1962
1962
1963
1963
1963
1963
1964
1964
1965
1966
1967
1966
1964
1960
1957
1962
1980
2011
2050
2085
2102
2091
2055
2008
1962
1934
1927
1936
1951
1965
1972
1974
1974
1973
1973
1973
1973
1974
1974
1976
1977
1978
1979
1980
1980
1980
1980
1981
1982
1983
1983
1983
1983
1984
1985
1987
1988
1990
1992
1993
1994
1996
1997
1999
2002
2004
2007
2009
2011
2013
2015
2017
2019
2022
2024
2026
2028
2029
2030
2030
2030
2029
2028
2025
2021
2016
2010
2005
1998
1992
1987
1983
1981
1979
1979
1978
1977
1976
1975
1974
1973
1973
1973
1973
1974
1974
1975
1975
1975
1974
1974
1974
1974
1975
1976
1977
1977
1978
1977
1976
1976
1976
1978
1979
1980
1981
1980
1980
1980
1980
1979
1979
1979
1979
1979
1980
1980
1980
1979
1978
1977
1974
1972
1971
1972
1976
1982
1988
1990
1990
1988
1985
1984
1984
1984
1984
1982
1981
1979
1977
1976
1976
1977
1977
1978
1978
1978
1977
1977
1977
1977
1978
1978
1979
1977
1972
1968
1969
1982
2008
2044
2080
2103
2101
2074
2032
1987
1955
1943
1946
1959
1971
1978
1980
1979
1979
1978
1978
1979
1979
1979
1980
1981
1982
1983
1984
1985
1985
1986
1986
1986
1986
1986
1986
1987
1988
1988
1989
1989
1990
1990
1991
1992
1994
1995
1997
1999
2001
2002
2004
2005
2007
2009
2012
2014
2017
2019
2020
2020
2020
2020
2021
2021
2021
2020
2018
2014
2009
2003
1997
1991
1986
1983
1980
1977
1976
1975
1974
1973
1972
1971
1970
1970
1970
1971
1971
1971
1971
1971
1972
1972
1973
1973
1974
1974
1974
1974
1974
1974
1974
1974
1975
1975
1975
1976
1976
1977
1977
1977
1977
1977
1978
1980
1981
1983
1984
1984
1983
1981
1980
1978
1978
1978
1977
1977
1977
1976
1975
1973
1972
1972
1975
1979
1983
1986
1988
1987
1985
1984
1983
1983
1983
1982
1981
1980
1980
1980
1979
1979
1978
1978
1978
1978
1978
1979
1979
1980
1980
1980
1979
1975
1969
1965
1969
1985
2015
2054
2090
2109
2102
2071
2027
1985
1960
1953
1960
1971
1979
1981
1979
1977
1976
1976
1977
1978
1979
1980
1980
1980
1980
1981
1981
1982
1983
1983
1984
1984
1985
1985
1986
1987
1987
1988
1989
1990
1991
1992
1993
1994
1994
1995
1996
1998
2000
2002
2004
2007
2009
2011
2013
2014
2016
2018
2019
2022
2024
2026
2027
2028
2027
2026
2023
2020
2016
2012
2008
2003
1999
1995
1992
1991
1990
1989
1989
1988
1987
1986
1986
1985
1984
1984
1984
1985
1985
1986
1987
1988
1988
1987
1987
1987
1987
1988
1988
1989
1989
1990
1990
1989
1989
1988
1988
1987
1987
1988
1989
1989
1989
1989
1989
1988
1988
1988
1988
1989
1989
1989
1989
1988
1987
1985
1983
1982
1982
1985
1988
1992
1996
1997
1996
1994
1993
1993
1994
1995
1995
1993
1991
1990
1988
1987
1987
1987
1987
1987
1987
1988
1988
1988
1988
1988
1989
1988
1987
1983
1977
1974
1979
1996
2027
2065
2099
2115
2104
2070
2027
1987
1964
1959
1965
1975
1982
1984
1983
1982
1982
1982
1982
1982
1982
1982
1982
1983
1984
1984
1985
1986
1986
1986
1986
1986
1986
1987
1987
1988
1989
1989
1990
1990
1990
1991
1992
1993
1995
1997
1999
2001
2002
2003
2004
2006
2007
2009
2011
2013
2015
2017
2018
2019
2019
2020
2021
2021
2021
2021
2019
2016
2012
2007
2001
1996
1991
1987
1985
1982
1981
1980
1979
1978
1977
1976
1975
1975
1976
1977
1977
1978
1978
1977
1977
1977
1977
1977
1978
1979
1979
1979
1979
1979
1978
1978
1977
1977
1978
1979
1980
1980
1980
1980
1979
1979
1979
1979
1979
1980
1980
1981
1980
1979
1979
1978
1977
1977
1977
1976
1975
1975
1976
1978
1982
1984
1986
1986
1985
1984
1984
1984
1984
1983
1981
1979
1978
1977
1977
1977
1977
1977
1977
1976
1976
1975
1975
1975
1976
1977
1978
1978
1975
1970
1966
1970
1985
2015
2052
2085
2100
2089
2055
2011
1971
1948
1943
1951
1964
1975
1980
1981
1981
1981
1980
1979
1979
1980
1981
1982
1983
1983
1984
1984
1983
1983
1983
1984
1985
1986
1987
1988
1988
1989
1989
1990
1990
1991
1993
1995
1996
1997
1998
1999
2000
2001
2002
2004
2006
2009
2011
2013
2014
2016
2017
2018
2019
2020
2022
2023
2024
2024
2024
2022
2020
2017
2013
2009
2006
2002
1999
1996
1994
1991
1989
1988
1987
1987
1988
1989
1989
1990
1990
1990
1989
1990
1991
1992
1992
1993
1993
1993
1993
1992
1992
1992
1992
1993
1993
1994
1995
1995
1995
1994
1994
1993
1993
1992
1993
1993
1993
1993
1993
1992
1991
1990
1990
1990
1990
1989
1989
1989
1991
1993
1996
1998
1999
1999
1998
1997
1996
1995
1995
1993
1991
1989
1987
1987
1986
1987
1987
1987
1987
1987
1986
1985
1985
1985
1986
1986
1987
1988
1985
1981
1976
1979
1993
2020
2054
2086
2101
2090
2056
2012
1971
1947
1942
1951
1965
1977
1985
1987
1986
1985
1984
1984
1984
1985
1986
1987
1988
1989
1989
1989
1989
1989
1989
1989
1990
1991
1992
1993
1993
1993
1993
1993
1994
1995
1997
1998
1999
2000
2001
2002
2003
2003
2005
2006
2008
2011
2013
2014
2015
2016
2016
2016
2016
2017
2018
2019
2021
2021
2021
2019
2017
2013
2009
2004
2000
1997
1994
1991
1988
1986
1984
1982
1981
1980
1979
1979
1979
1979
1979
1979
1979
1979
1978
1978
1979
1979
1980
1980
1980
1980
1979
1979
1979
1980
1980
1981
1981
1981
1981
1980
1980
1979
1978
1978
1978
1978
1978
1978
1978
1978
1977
1976
1975
1975
1974
1973
1973
1973
1974
1977
1979
1982
1983
1983
1982
1980
1979
1978
1977
1976
1974
1971
1970
1969
1968
1968
1968
1968
1967
1967
1966
1965
1964
1964
1964
1965
1965
1965
1963
1959
1956
1958
1972
1999
2034
2065
2081
2071
2040
1996
1955
1930
1923
1930
1945
1960
1969
1974
1976
1975
1974
1973
1973
1974
1974
1975
1976
1977
1978
1978
1977
1976
1975
1974
1974
1974
1976
1977
1979
1979
1978
1978
1977
1977
1978
1980
1982
1983
1985
1985
1986
1986
1988
1990
1992
1994
1997
1998
1999
2000
2000
2001
2001
2002
2004
2005
2006
2006
2005
2003
1999
1995
1991
1986
1982
1978
1975
1971
1968
1965
1962
1960
1959
1958
1957
1957
1957
1957
1958
1957
1957
1956
1956
1956
1957
1958
1959
1959
1959
1959
1959
1959
1959
1960
1960
1961
1961
1961
1961
1960
1960
1960
1961
1962
1962
1963
1963
1963
1962
1961
1960
1959
1959
1962
1965
1969
1972
1973
1973
1972
1970
1968
1967
1966
1965
1964
1963
1962
1961
1960
1960
1959
1959
1959
1959
1959
1960
1960
1960
1960
1960
1960
1959
1957
1954
1952
1958
1977
2007
2043
2071
2080
2063
2026
1980
1941
1917
1910
1918
1931
1944
1954
1960
1963
1965
1965
1965
1965
1966
1967
1967
1968
1968
1969
1969
1970
1971
1972
1973
1973
1973
1974
1974
1975
1976
1977
1979
1980
1981
1981
1982
1983
1984
1986
1988
1990
1992
1994
1996
1997
1999
2000
2002
2004
2006
2008
2009
2011
2012
2012
2012
2012
2012
2011
2010
2007
2004
2000
1995
1990
1985
1981
1978
1976
1974
1973
1972
1972
1971
1971
1970
1970
1970
1970
1971
1971
1972
1972
1972
1972
1972
1971
1971
1972
1973
1974
1974
1974
1974
1974
1974
1974
1974
1974
1975
1975
1976
1976
1976
1975
1975
1974
1974
1975
1975
1975
1975
1974
1973
1971
1970
1969
1970
1973
1977
1981
1983
1984
1983
1981
1979
1978
1977
1976
1975
1974
1973
1973
1972
1972
1971
1970
1970
1970
1970
1971
1972
1972
1972
1971
1971
1970
1967
1962
1960
1965
1982
2011
2048
2078
2091
2078
2044
2000
1961
1939
1936
1945
1957
1967
1971
1972
1972
1972
1972
1972
1973
1974
1975
1975
1974
1974
1974
1975
1976
1978
1979
1980
1980
1979
1979
1979
1980
1981
1982
1983
1985
1986
1987
1987
1988
1989
1991
1993
1995
1997
1999
2001
2003
2005
2006
2007
2008
2009
2011
2012
2014
2015
2016
2017
2017
2016
2015
2013
2011
2008
2004
1999
1995
1990
1986
1982
1979
1977
1976
1976
1976
1975
1975
1974
1974
1973
1973
1974
1974
1975
1976
1977
1977
1978
1978
1977
1977
1977
1977
1977
1978
1978
1978
1978
1978
1977
1977
1977
1977
1977
1978
1978
1978
1978
1977
1977
1976
1976
1976
1977
1977
1977
1976
1975
1973
1971
1971
1973
1976
1980
1983
1984
1984
1982
1980
1978
1978
1978
1977
1976
1975
1974
1973
1972
1971
1970
1970
1970
1970
1970
1971
1971
1971
1971
1971
1971
1970
1967
1962
1960
1967
1986
2017
2053
2083
2092
2076
2041
1997
1961
1942
1940
1949
1961
1970
1974
1975
1975
1975
1975
1976
1976
1977
1977
1978
1978
1978
1979
1980
1981
1982
1982
1983
1983
1983
1983
1984
1985
1987
1988
1989
1990
1991
1991
1992
1993
1994
1996
1998
2000
2003
2005
2007
2008
2009
2011
2012
2014
2016
2018
2020
2021
2022
2022
2022
2022
2021
2019
2017
2014
2011
2006
2001
1997
1992
1989
1985
1983
1982
1981
1980
1979
1979
1978
1977
1977
1977
1977
1978
1978
1979
1979
1979
1979
1978
1978
1978
1978
1979
1979
1979
1979
1979
1979
1978
1978
1978
1978
1979
1979
1980
1979
1979
1978
1977
1977
1977
1977
1977
1978
1978
1979
1978
1978
1977
1976
1975
1974
1973
1972
1972
1973
1975
1977
1980
1983
1983
1983
1982
1981
1980
1980
1979
1978
1976
1974
1973
1972
1972
1973
1973
1973
1973
1973
1972
1972
1971
1972
1973
1974
1974
1972
1967
1963
1964
1977
2003
2039
2073
2094
2090
2061
2019
1977
1948
1939
1944
1956
1967
1974
1976
1976
1975
1975
1974
1974
1975
1975
1976
1977
1978
1979
1980
1980
1980
1981
1981
1982
1983
1984
1985
1985
1986
1987
1987
1988
1989
1990
1991
1993
1995
1996
1998
1999
2000
2002
2003
2005
2007
2009
2011
2012
2013
2015
2015
2016
2017
2018
2019
2019
2020
2019
2017
2014
2010
2005
2000
1995
1990
1986
1982
1979
1977
1975
1973
1971
1970
1969
1968
1968
1968
1969
1969
1968
1968
1967
1967
1967
1967
1968
1968
1968
1968
1968
1968
1968
1968
1968
1968
1968
1969
1969
1969
1968
1968
1968
1968
1968
1968
1969
1969
1969
1968
1967
1966
1965
1965
1965
1966
1966
1966
1966
1964
1963
1962
1963
1965
1968
1972
1974
1975
1975
1973
1971
1970
1969
1968
1967
1966
1965
1964
1963
1963
1963
1962
1962
1962
1963
1963
1963
1963
1963
1963
1964
1963
1960
1956
1954
1961
1982
2014
2050
2078
2085
2066
2028
1983
1944
1922
1916
1923
1936
1949
1958
1963
1964
1965
1965
1965
1966
1967
1968
1968
1969
1969
1969
1969
1970
1970
1972
1973
1973
1974
1974
1974
1974
1975
1976
1977
1978
1980
1981
1983
1983
1984
1985
1987
1989
1991
1994
1996
1998
2000
2001
2003
2004
2006
2008
2010
2011
2012
2013
2013
2012
2012
2010
2008
2005
2001
1996
1991
1985
1980
1975
1971
1968
1966
1964
1963
1962
1962
1961
1960
1960
1959
1959
1959
1960
1960
1961
1961
1961
1961
1961
1961
1961
1961
1960
1961
1961
1962
1964
1965
1965
1964
1963
1962
1962
1962
1963
1964
1963
1962
1959
1957
1956
1955
1955
1955
1954
1954
1954
1955
1955
1955
1955
1954
1953
1951
1950
1949
1950
1951
1954
1957
1961
1964
1966
1967
1966
1965
1964
1962
1961
1959
1957
1955
1954
1954
1955
1956
1956
1956
1956
1955
1955
1956
1958
1960
1963
1964
1964
1961
1956
1953
1959
1979
2011
2048
2080
2091
2076
2040
1993
1951
1927
1921
1930
1944
1957
1965
1969
1970
1971
1970
1969
1969
1970
1971
1972
1972
1973
1973
1973
1974
1975
1976
1977
1979
1980
1981
1982
1982
1983
1983
1983
1984
1985
1987
1988
1990
1992
1994
1995
1996
1998
2000
2002
2004
2007
2009
2011
2013
2015
2016
2017
2019
2020
2022
2023
2024
2024
2022
2020
2016
2011
2005
2000
1995
1991
1987
1984
1982
1979
1978
1976
1975
1975
1975
1975
1975
1975
1975
1975
1975
1975
1975
1976
1977
1977
1978
1978
1979
1979
1979
1979
1980
1980
1981
1982
1983
1983
1984
1984
1983
1983
1983
1984
1984
1985
1986
1986
1986
1986
1985
1985
1984
1984
1984
1985
1985
1985
1985
1985
1984
1984
1984
1984
1984
1984
1985
1985
1984
1983
1981
1980
1979
1980
1984
1988
1992
1995
1995
1994
1991
1989
1988
1988
1988
1988
1988
1987
1986
1985
1984
1984
1984
1984
1984
1985
1985
1985
1985
1985
1985
1985
1984
1980
1976
1975
1984
2004
2037
2073
2102
2109
2091
2053
2010
1974
1956
1955
1965
1977
1985
1988
1987
1987
1987
1987
1988
1989
1989
1990
1990
1990
1990
1991
1992
1993
1994
1995
1995
1996
1996
1996
1996
1997
1997
1998
1999
2000
2001
2002
2003
2004
2005
2007
2009
2011
2013
2015
2017
2019
2020
2022
2024
2026
2028
2030
2032
2033
2035
2035
2036
2035
2035
2033
2031
2027
2023
2018
2013
2007
2002
1998
1994
1992
1990
1989
1988
1988
1987
1986
1985
1985
1985
1985
1986
1986
1987
1987
1987
1987
1987
1986
1986
1986
1987
1987
1988
1988
1987
1987
1987
1986
1986
1986
1986
1986
1987
1987
1987
1986
1986
1985
1985
1985
1986
1986
1986
1986
1986
1986
1985
1984
1984
1984
1984
1984
1984
1984
1984
1984
1983
1983
1983
1983
1983
1984
1984
1984
1983
1982
1980
1978
1977
1977
1980
1984
1988
1990
1991
1990
1988
1986
1986
1986
1986
1986
1985
1984
1982
1981
1980
1980
1979
1979
1980
1980
1981
1981
1981
1981
1981
1981
1980
1977
1972
1970
1976
1995
2025
2062
2093
2106
2093
2059
2015
1977
1954
1950
1957
1969
1978
1981
1981
1981
1981
1981
1982
1982
1983
1983
1983
1983
1983
1984
1985
1986
1986
1987
1987
1987
1987
1987
1987
1988
1989
1990
1991
1992
1993
1993
1993
1994
1995
1997
1999
2001
2003
2005
2007
2009
2010
2012
2014
2016
2019
2021
2023
2024
2026
2027
2027
2028
2028
2027
2025
2022
2018
2013
2008
2003
1997
1993
1990
1987
1985
1984
1983
1983
1982
1981
1980
1979
1979
1979
1980
1981
1981
1982
1982
1982
1981
1981
1981
1981
1981
1982
1983
1983
1983
1983
1982
1982
1981
1981
1982
1982
1983
1983
1983
1983
1983
1982
1982
1982
1982
1983
1983
1983
1983
1982
1982
1981
1981
1981
1981
1981
1981
1981
1980
1980
1979
1978
1978
1978
1978
1978
1978
1978
1978
1977
1976
1975
1973
1973
1974
1977
1980
1984
1986
1986
1985
1983
1981
1981
1981
1981
1981
1980
1978
1976
1974
1973
1973
1974
1974
1974
1974
1974
1973
1972
1972
1971
1972
1972
1971
1967
1964
1965
1977
2002
2038
2072
2093
2089
2060
2017
1973
1942
1931
1935
1946
1958
1966
1969
1970
1970
1970
1969
1969
1969
1969
1969
1970
1970
1971
1971
1971
1971
1972
1971
1971
1971
1971
1972
1973
1974
1975
1975
1975
1975
1976
1976
1977
1979
1980
1981
1983
1985
1987
1988
1989
1991
1992
1995
1997
2000
2002
2003
2004
2005
2006
2007
2008
2009
2009
2008
2006
2002
1997
1991
1985
1979
1974
1969
1965
1963
1961
1959
1958
1957
1956
1954
1953
1953
1953
1954
1955
1955
1955
1954
1954
1953
1952
1952
1952
1953
1954
1955
1955
1955
1955
1954
1954
1954
1954
1955
1955
1956
1956
1956
1956
1956
1956
1955
1955
1955
1954
1954
1953
1953
1954
1954
1954
1954
1954
1955
1954
1953
1952
1950
1948
1949
1952
1956
1961
1964
1966
1965
1963
1961
1959
1958
1958
1957
1957
1956
1955
1954
1954
1954
1954
1953
1953
1953
1953
1954
1954
1954
1954
1954
1953
1950
1946
1944
1950
1969
2001
2039
2072
2086
2074
2039
1990
1945
1915
1905
1911
1925
1939
1949
1953
1955
1955
1955
1955
1956
1958
1959
1960
1960
1961
1961
1961
1961
1962
1963
1964
1965
1966
1965
1964
1964
1966
1968
1970
1972
1972
1972
1972
1973
1975
1977
1979
1981
1984
1986
1988
1990
1992
1994
1995
1997
2000
2002
2004
2006
2006
2006
2005
2005
2005
2005
2003
1999
1994
1987
1981
1975
1970
1965
1959
1954
1950
1947
1945
1944
1944
1943
1942
1942
1942
1942
1944
1945
1946
1946
1946
1946
1946
1946
1946
1946
1945
1944
1944
1945
1946
1948
1950
1951
1951
1950
1950
1949
1948
1948
1949
1950
1950
1950
1950
1950
1950
1950
1949
1950
1950
1950
1950
1950
1950
1949
1948
1947
1946
1945
1944
1945
1948
1952
1956
1959
1960
1959
1957
1956
1956
1956
1956
1955
1953
1951
1949
1948
1948
1948
1949
1950
1950
1949
1949
1949
1949
1951
1952
1953
1952
1950
1945
1941
1945
1962
1994
2035
2071
2090
2081
2046
1996
1947
1915
1904
1911
1927
1944
1955
1961
1963
1964
