1995
1992
1990
1988
1987
1986
1986
1985
1984
1982
1980
1977
1976
1976
1978
1981
1983
1983
1982
1979
1977
1977
1978
1981
1982
1983
1982
1980
1978
1977
1976
1977
1979
1981
1981
1980
1979
1978
1978
1979
1980
1981
1980
1978
1977
1977
1978
1979
1981
1981
1980
1977
1976
1976
1978
1980
1981
1979
1976
1974
1974
1977
1980
1984
1985
1986
1986
1985
1984
1983
1982
1982
1982
1981
1980
1979
1978
1977
1977
1976
1977
1977
1978
1979
1980
1982
1983
1981
1976
1969
1964
1964
1974
1998
2029
2057
2071
2061
2031
1991
1957
1941
1942
1955
1968
1975
1975
1973
1971
1969
1969
1970
1973
1976
1978
1979
1978
1976
1974
1972
1972
1972
1973
1973
1974
1976
1978
1979
1980
1980
1980
1979
1979
1979
1978
1977
1976
1976
1977
1978
1979
1981
1982
1984
1985
1986
1986
1985
1984
1984
1986
1988
1990
1991
1990
1988
1987
1987
1989
1991
1991
1990
1989
1987
1985
1983
1980
1979
1979
1981
1983
1984
1983
1981
1980
1979
1979
1979
1979
1978
1977
1978
1979
1980
1981
1981
1981
1981
1981
1980
1978
1977
1976
1977
1979
1982
1985
1986
1985
1982
1981
1981
1983
1984
1985
1983
1982
1980
1979
1980
1980
1981
1981
1981
1980
1979
1977
1977
1978
1979
1981
1982
1982
1982
1981
1980
1979
1977
1977
1978
1980
1981
1983
1983
1982
1981
1981
1980
1980
1981
1981
1981
1981
1982
1982
1982
1982
1981
1980
1980
1981
1984
1987
1989
1991
1990
1989
1986
1985
1984
1983
1984
1984
1983
1982
1981
1981
1981
1982
1982
1982
1982
1982
1983
1985
1984
1981
1975
1969
1968
1976
1999
2033
2068
2091
2089
2061
2019
1977
1951
1945
1952
1964
1974
1979
1982
1984
1984
1983
1982
1981
1982
1983
1985
1987
1987
1987
1986
1985
1986
1987
1988
1989
1990
1990
1989
1989
1989
1989
1990
1991
1991
1991
1990
1989
1989
1990
1990
1989
1988
1988
1990
1993
1997
1999
2000
1999
1998
1997
1997
1997
1997
1996
1994
1993
1994
1996
1998
1999
1999
1997
1996
1995
1994
1992
1990
1988
1986
1983
1982
1979
1977
1974
1971
1969
1969
1970
1972
1973
1974
1974
1972
1971
1971
1971
1972
1972
1970
1967
1965
1964
1966
1969
1972
1974
1975
1975
1974
1973
1972
1971
1971
1972
1971
1971
1970
1969
1970
1970
1970
1971
1971
1973
1975
1976
1974
1971
1966
1963
1962
1963
1965
1966
1965
1965
1965
1967
1969
1970
1970
1968
1965
1961
1958
1957
1958
1961
1965
1969
1971
1970
1968
1966
1964
1963
1963
1963
1963
1964
1965
1965
1965
1964
1963
1962
1962
1963
1964
1964
1963
1963
1964
1966
1967
1967
1967
1967
1967
1968
1968
1967
1966
1965
1965
1966
1967
1967
1967
1968
1969
1971
1972
1972
1970
1965
1957
1953
1954
1969
1997
2032
2059
2067
2051
2016
1977
1948
1937
1942
1952
1962
1966
1965
1964
1964
1965
1966
1967
1967
1969
1971
1975
1978
1978
1976
1974
1973
1973
1974
1974
1974
1975
1978
1982
1985
1986
1982
1976
1972
1972
1976
1982
1988
1990
1989
1987
1987
1989
1991
1992
1992
1990
1988
1987
1986
1986
1988
1992
1996
2000
2002
2002
2000
1998
1997
1998
1999
1999
1999
1997
1994
1992
1990
1989
1989
1990
1990
1989
1987
1986
1984
1983
1983
1982
1982
1981
1982
1983
1984
1985
1985
1986
1985
1984
1982
1980
1979
1981
1982
1984
1986
1986
1986
1985
1983
1981
1979
1979
1980
1983
1986
1986
1985
1982
1980
1980
1982
1984
1984
1984
1984
1983
1982
1982
1981
1980
1979
1980
1982
1985
1987
1986
1984
1982
1983
1985
1987
1988
1986
1983
1981
1981
1981
1981
1982
1983
1984
1983
1983
1983
1984
1986
1987
1986
1985
1983
1982
1983
1984
1985
1985
1985
1987
1988
1988
1986
1984
1982
1982
1985
1989
1992
1993
1991
1988
1987
1986
1986
1984
1982
1981
1983
1986
1988
1989
1987
1984
1982
1983
1984
1985
1984
1981
1980
1985
2001
2027
2052
2068
2066
2044
2010
1977
1957
1951
1957
1968
1979
1985
1988
1989
1987
1984
1983
1982
1982
1982
1983
1984
1984
1983
1983
1982
1983
1984
1986
1987
1987
1985
1983
1981
1981
1982
1983
1984
1984
1983
1981
1979
1979
1982
1984
1986
1985
1984
1982
1980
1980
1980
1980
1980
1981
1982
1985
1989
1992
1992
1991
1988
1985
1983
1983
1984
1985
1988
1990
1990
1989
1986
1982
1980
1978
1978
1979
1979
1977
1973
1968
1966
1966
1968
1970
1970
1970
1969
1969
1971
1972
1973
1972
1972
1971
1971
1971
1970
1970
1970
1970
1972
1972
1972
1970
1969
1968
1968
1970
1971
1972
1972
1971
1970
1969
1968
1969
1969
1969
1968
1967
1966
1967
1968
1969
1969
1968
1966
1964
1962
1962
1963
1965
1967
1968
1968
1967
1966
1964
1963
1963
1964
1965
1967
1967
1966
1964
1962
1961
1962
1964
1966
1968
1970
1971
1971
1970
1969
1968
1969
1970
1971
1970
1967
1963
1960
1958
1959
1962
1964
1965
1964
1962
1960
1959
1960
1959
1956
1952
1950
1954
1968
1994
2026
2049
2056
2039
2005
1966
1936
1921
1922
1931
1942
1951
1957
1962
1966
1967
1966
1965
1964
1964
1964
1966
1967
1967
1965
1963
1962
1962
1962
1963
1964
1965
1967
1969
1970
1969
1965
1962
1960
1962
1966
1970
1972
1973
1972
1971
1972
1972
1972
1972
1972
1973
1975
1977
1979
1981
1982
1984
1984
1984
1983
1982
1982
1984
1986
1987
1988
1988
1988
1988
1986
1983
1978
1974
1972
1971
1971
1970
1968
1968
1970
1973
1975
1975
1972
1969
1966
1965
1965
1966
1967
1967
1967
1966
1967
1971
1974
1977
1978
1977
1974
1971
1970
1971
1973
1976
1977
1976
1974
1973
1974
1976
1978
1978
1977
1975
1974
1975
1977
1977
1977
1976
1975
1976
1977
1979
1979
1979
1978
1976
1974
1972
1972
1973
1975
1977
1978
1977
1975
1972
1971
1971
1972
1973
1974
1976
1980
1984
1987
1988
1987
1984
1980
1976
1973
1971
1972
1975
1978
1981
1983
1983
1981
1978
1975
1973
1973
1975
1977
1979
1977
1973
1966
1959
1958
1967
1989
2022
2054
2074
2073
2049
2012
1974
1949
1941
1947
1957
1966
1970
1971
1971
1972
1975
1978
1980
1981
1979
1978
1976
1976
1976
1976
1976
1975
1975
1974
1974
1974
1973
1973
1973
1974
1976
1976
1977
1976
1975
1974
1972
1972
1971
1972
1974
1975
1977
1978
1979
1978
1977
1975
1974
1974
1977
1980
1982
1982
1979
1977
1977
1980
1984
1987
1989
1989
1988
1986
1983
1980
1977
1974
1972
1970
1968
1967
1968
1970
1973
1975
1975
1974
1972
1970
1969
1968
1969
1970
1972
1973
1974
1974
1974
1975
1976
1976
1975
1973
1970
1970
1971
1975
1978
1980
1979
1978
1976
1975
1973
1971
1969
1970
1972
1977
1981
1982
1982
1980
1979
1979
1980
1980
1979
1979
1980
1981
1982
1982
1980
1978
1977
1978
1980
1983
1985
1986
1985
1983
1981
1979
1979
1979
1981
1983
1985
1986
1986
1984
1982
1981
1980
1981
1984
1987
1989
1989
1988
1986
1984
1984
1985
1986
1985
1985
1983
1982
1982
1982
1982
1982
1981
1981
1982
1983
1985
1984
1980
1973
1968
1968
1978
2000
2030
2057
2070
2061
2033
1997
1966
1950
1950
1958
1968
1975
1978
1979
1978
1976
1974
1973
1973
1974
1975
1976
1978
1979
1981
1982
1981
1980
1978
1978
1978
1979
1979
1979
1979
1979
1979
1978
1976
1976
1976
1978
1981
1984
1984
1984
1982
1981
1982
1983
1985
1986
1987
1986
1986
1986
1988
1991
1994
1996
1996
1995
1994
1994
1994
1994
1993
1993
1993
1995
1995
1995
1993
1991
1989
1988
1988
1988
1989
1989
1988
1986
1984
1983
1982
1983
1984
1985
1986
1987
1987
1987
1988
1989
1988
1987
1986
1985
1985
1987
1988
1990
1991
1991
1990
1989
1987
1987
1988
1990
1991
1992
1992
1991
1990
1988
1986
1984
1985
1988
1990
1993
1993
1993
1992
1991
1990
1989
1988
1986
1986
1987
1988
1989
1989
1987
1986
1987
1989
1991
1994
1994
1994
1992
1991
1989
1988
1988
1988
1990
1990
1990
1988
1986
1984
1985
1986
1987
1988
1989
1989
1990
1992
1994
1996
1997
1997
1995
1991
1986
1982
1982
1985
1988
1991
1991
1990
1988
1986
1986
1986
1986
1987
1987
1985
1980
1975
1972
1975
1989
2016
2048
2074
2083
2066
2032
1991
1959
1946
1949
1961
1972
1979
1982
1984
1985
1984
1982
1980
1978
1978
1979
1981
1983
1983
1983
1982
1981
1979
1978
1979
1981
1984
1986
1987
1986
1983
1981
1979
1979
1981
1982
1982
1982
1982
1983
1984
1984
1983
1982
1981
1982
1985
1987
1988
1988
1988
1987
1986
1986
1986
1986
1987
1988
1989
1989
1988
1987
1985
1985
1985
1985
1984
1981
1979
1977
1976
1977
1979
1981
1983
1984
1983
1981
1978
1975
1972
1969
1967
1965
1963
1963
1963
1964
1965
1965
1965
1964
1962
1959
1957
1956
1956
1958
1961
1963
1966
1967
1968
1967
1966
1966
1966
1966
1967
1967
1967
1965
1964
1964
1965
1966
1966
1965
1963
1963
1964
1967
1969
1970
1969
1967
1967
1968
1969
1969
1968
1966
1965
1965
1966
1967
1968
1968
1966
1965
1964
1963
1964
1966
1969
1972
1973
1972
1969
1966
1964
1963
1963
1963
1963
1963
1963
1963
1962
1961
1959
1959
1959
1961
1963
1966
1969
1970
1967
1961
1953
1950
1955
1974
2005
2038
2059
2060
2038
2001
1965
1942
1935
1941
1951
1960
1966
1970
1973
1974
1974
1973
1972
1971
1971
1972
1974
1975
1978
1980
1981
1981
1980
1979
1979
1981
1985
1989
1991
1992
1991
1990
1991
1992
1993
1993
1993
1994
1997
2001
2004
2004
2001
1998
1996
1998
2000
2003
2005
2006
2007
2010
2012
2014
2014
2014
2014
2014
2015
2016
2017
2017
2016
2015
2013
2012
2011
2011
2012
2012
2011
2008
2004
2002
2003
2004
2006
2005
2004
2001
2000
2000
2001
2001
2001
2001
2000
2000
2000
2001
2002
2001
2000
2000
2001
2003
2004
2005
2003
2000
1998
1997
1998
2000
2001
2002
2003
2003
2003
2002
2000
1998
1996
1995
1996
1997
1999
2001
2003
2003
2002
2001
1999
1997
1996
1996
1996
1997
1998
1999
1998
1996
1994
1993
1994
1996
1999
2000
2000
1999
1999
1999
2000
2001
2002
2004
2006
2007
2007
2004
1999
1995
1993
1996
2000
2004
2006
2004
2002
2000
1998
1997
1995
1995
1997
2001
2004
2004
1999
1991
1985
1986
1999
2025
2056
2082
2091
2077
2048
2011
1982
1968
1969
1978
1988
1994
1997
1998
1997
1994
1991
1991
1993
1997
2002
2006
2008
2007
2005
2002
2000
1999
1998
1998
1999
2000
2001
2002
2003
2003
2001
2001
2001
2003
2005
2007
2008
2008
2006
2003
2000
1999
1999
2002
2005
2007
2008
2007
2008
2008
2009
2009
2008
2007
2007
2008
2009
2010
2011
2011
2011
2010
2009
2007
2006
2004
2003
2002
2001
2000
1999
1998
1996
1995
1994
1993
1992
1991
1990
1989
1989
1989
1989
1990
1990
1989
1989
1990
1992
1994
1995
1995
1992
1991
1991
1992
1993
1993
1991
1990
1990
1992
1995
1997
1997
1995
1992
1990
1990
1992
1993
1993
1991
1990
1988
1989
1989
1989
1990
1990
1991
1993
1995
1995
1994
1991
1987
1985
1986
1987
1989
1989
1988
1987
1987
1988
1992
1995
1997
1998
1997
1995
1994
1994
1995
1995
1996
1995
1994
1993
1991
1990
1988
1988
1989
1989
1990
1990
1990
1990
1988
1983
1977
1971
1971
1981
2004
2037
2067
2083
2075
2046
2004
1966
1943
1940
1950
1963
1975
1980
1981
1980
1977
1974
1973
1973
1975
1978
1981
1984
1985
1985
1982
1980
1978
1979
1980
1980
1980
1980
1979
1981
1984
1987
1988
1987
1985
1983
1982
1983
1985
1987
1987
1986
1985
1983
1983
1985
1988
1990
1992
1992
1992
1992
1992
1993
1994
1995
1996
1996
1994
1992
1990
1989
1990
1991
1992
1992
1991
1989
1987
1983
1979
1976
1974
1974
1975
1976
1975
1973
1970
1969
1969
1969
1970
1971
1971
1971
1971
1971
1971
1970
1970
1971
1972
1974
1975
1975
1974
1971
1969
1968
1969
1970
1972
1973
1972
1971
1971
1971
1972
1972
1973
1973
1974
1975
1975
1973
1971
1968
1966
1966
1968
1969
1971
1971
1971
1969
1969
1969
1971
1973
1975
1976
1976
1976
1975
1974
1974
1974
1973
1971
1969
1967
1966
1967
1971
1974
1976
1975
1972
1969
1969
1972
1974
1974
1970
1966
1967
1980
2009
2044
2069
2074
2051
2010
1966
1938
1930
1938
1953
1965
1972
1975
1978
1979
1979
1977
1974
1972
1972
1975
1978
1981
1983
1983
1981
1980
1978
1979
1980
1982
1983
1983
1981
1979
1978
1978
1979
1981
1982
1983
1984
1986
1989
1990
1988
1986
1984
1984
1987
1992
1995
1996
1994
1991
1988
1988
1991
1995
1999
2002
2002
2002
2001
2002
2003
2004
2002
1999
1995
1990
1987
1986
1986
1987
1986
1983
1979
1976
1973
1973
1975
1977
1978
1976
1974
1971
1970
1970
1971
1972
1972
1972
1973
1974
1975
1976
1975
1974
1973
1973
1973
1974
1974
1973
1972
1972
1972
1971
1971
1972
1974
1976
1977
1977
1975
1973
1970
1968
1967
1967
1969
1972
1974
1974
1972
1969
1967
1966
1967
1968
1969
1970
1972
1973
1975
1975
1975
1973
1972
1971
1971
1971
1970
1969
1968
1966
1965
1964
1964
1964
1964
1964
1964
1965
1967
1969
1969
1965
1960
1955
1956
1967
1992
2024
2051
2062
2049
2017
1976
1944
1929
1933
1945
1958
1965
1967
1968
1968
1967
1965
1962
1961
1962
1966
1971
1975
1975
1972
1968
1964
1963
1965
1969
1973
1976
1977
1976
1973
1970
1967
1966
1968
1971
1975
1977
1977
1976
1975
1975
1976
1977
1978
1977
1977
1979
1981
1983
1984
1983
1983
1983
1986
1989
1992
1994
1995
1995
1995
1994
1993
1991
1988
1984
1983
1983
1986
1989
1989
1986
1980
1974
1970
1970
1974
1978
1980
1979
1977
1975
1976
1979
1981
1982
1980
1977
1975
1976
1978
1979
1979
1976
1974
1974
1976
1979
1981
1980
1977
1974
1972
1972
1973
1975
1977
1980
1981
1981
1980
1978
1975
1973
1972
1971
1971
1972
1972
1972
1972
1971
1969
1969
1969
1971
1973
1976
1977
1976
1974
1971
1970
1970
1970
1971
1972
1973
1972
1972
1972
1974
1976
1977
1976
1974
1971
1970
1970
1971
1972
1970
1967
1963
1960
1959
1961
1966
1973
1978
1977
1970
1959
1951
1951
1962
1987
2017
2042
2050
2039
2010
1975
1946
1930
1928
1936
1948
1959
1967
1971
1971
1967
1962
1957
1955
1956
1959
1963
1966
1968
1967
1966
1963
1960
1960
1961
1964
1968
1971
1973
1974
1976
1977
1977
1977
1975
1973
1971
1971
1971
1971
1971
1971
1973
1977
1981
1984
1984
1981
1975
1969
1967
1969
1975
1980
1983
1983
1981
1980
1980
1981
1982
1980
1976
1974
1973
1974
1974
1972
1970
1968
1969
1970
1971
1969
1967
1966
1965
1965
1966
1965
1964
1963
1963
1964
1965
1966
1967
1966
1965
1964
1963
1961
1961
1961
1962
1965
1967
1968
1966
1963
1963
1965
1969
1971
1970
1967
1965
1966
1969
1973
1975
1974
1974
1974
1976
1979
1981
1981
1977
1972
1967
1965
1966
1971
1976
1979
1982
1982
1981
1980
1978
1975
1974
1976
1980
1985
1988
1989
1986
1984
1983
1986
1992
1999
2005
2008
2008
2006
2005
2006
2010
2014
2017
2018
2016
2012
2009
2008
2009
2013
2017
2019
2018
2017
2016
2016
2018
2018
2016
2012
2008
2007
2008
2014
2030
2054
2083
2104
2105
2083
2047
2008
1980
1969
1974
1988
2004
2014
2019
2017
2008
1997
1992
1994
2001
2008
2012
2010
2004
1998
1991
1989
1992
2000
2011
2020
2023
2016
2004
1991
1985
1986
1993
1999
2004
2007
2008
2009
2008
2005
2001
1999
2002
2007
2012
2010
2003
1995
1993
1998
2009
2019
2023
2022
2017
2011
2007
2005
2005
2008
2013
2019
2022
2019
2012
2005
2002
2003
2007
2009
2008
2001
1993
1990
1992
1998
2004
2005
2000
1992
1986
1984
1989
1997
2004
2006
2003
1999
1999
2002
2007
2010
2007
2001
1996
1997
2004
2012
2016
2016
2012
2009
2009
2012
2015
2015
2011
2007
2007
2012
2019
2023
2023
2017
2010
2005
2003
2005
2008
2012
2017
2022
2025
2023
2016
2007
1998
1993
1994
2000
2009
2019
2026
2026
2021
2010
1999
1993
1994
1999
2004
2004
1999
1992
1986
1984
1988
1992
1996
1996
1993
1988
1986
1987
1991
1993
1992
1990
1991
2002
2027
2055
2076
2077
2055
2019
1982
1956
1947
1951
1963
1975
1981
1983
1981
1978
1976
1978
1983
1988
1990
1989
1987
1983
1979
1974
1973
1976
1984
1991
1994
1991
1985
1979
1975
1975
1977
1979
1982
1982
1981
1977
1975
1976
1981
1985
1988
1984
1977
1972
1972
1977
1984
1989
1990
1987
1984
1983
1984
1986
1989
1992
1995
1996
1994
1988
1983
1981
1986
1995
2000
1998
1987
1975
1968
1968
1975
1981
1981
1975
1967
1961
1962
1969
1978
1982
1980
1973
1965
1961
1961
1965
1969
1970
1968
1965
1965
1968
1973
1978
1978
1975
1971
1970
1972
1976
1980
1981
1980
1976
1970
1966
1966
1970
1975
1978
1975
1969
1965
1967
1975
1984
1988
1984
1976
1968
1966
1968
1971
1973
1973
1971
1968
1966
1965
1966
1969
1972
1975
1974
1971
1967
1964
1965
1970
1976
1981
1984
1984
1981
1976
1971
1967
1964
1964
1965
1966
1967
1971
1975
1979
1981
1979
1972
1964
1959
1963
1977
2004
2035
2061
2072
2060
2031
1993
1962
1947
1946
1954
1964
1972
1977
1980
1982
1982
1982
1982
1983
1984
1984
1983
1982
1982
1983
1984
1984
1982
1981
1980
1983
1987
1991
1994
1994
1990
1987
1985
1986
1990
1995
1997
1996
1993
1991
1992
1997
2003
2008
2009
2007
2004
2002
2001
2001
2002
2003
2006
2008
2009
2007
2005
2004
2004
2006
2006
2005
2003
2001
1998
1997
1997
1997
1998
1997
1995
1993
1992
1992
1992
1990
1987
1984
1981
1980
1981
1982
1984
1985
1985
1985
1984
1985
1987
1989
1990
1988
1986
1985
1985
1986
1987
1986
1984
1984
1984
1986
1987
1986
1983
1980
1979
1980
1982
1984
1984
1983
1982
1982
1982
1982
1981
1979
1976
1975
1976
1978
1981
1985
1986
1985
1981
1977
1974
1974
1977
1981
1982
1982
1981
1980
1982
1985
1987
1986
1983
1978
1974
1972
1972
1973
1974
1975
1975
1974
1974
1975
1975
1976
1975
1973
1971
1968
1965
1965
1973
1992
2022
2054
2074
2071
2045
2003
1963
1936
1928
1933
1945
1956
1963
1968
1970
1970
1969
1968
1968
1967
1966
1964
1963
1963
1964
1965
1966
1967
1967
1968
1969
1968
1966
1963
1961
1960
1961
1964
1967
1971
1973
1973
1970
1967
1964
1964
1965
1966
1968
1968
1970
1972
1973
1972
1971
1970
1970
1972
1974
1976
1978
1978
1978
1978
1980
1981
1983
1984
1983
1981
1978
1974
1971
1969
1966
1963
1961
1960
1962
1963
1963
1961
1957
1953
1953
1956
1960
1962
1962
1959
1955
1954
1954
1956
1958
1959
1959
1959
1959
1959
1959
1960
1960
1959
1957
1955
1955
1957
1960
1962
1963
1961
1960
1959
1959
1959
1960
1960
1960
1959
1958
1957
1957
1957
1959
1962
1964
1964
1962
1958
1955
1954
1955
1956
1958
1958
1959
1961
1964
1968
1969
1967
1964
1960
1958
1958
1958
1959
1960
1961
1962
1961
1959
1956
1954
1955
1958
1961
1962
1958
1952
1946
1944
1948
1959
1981
2010
2039
2054
2049
2022
1981
1942
1918
1912
1920
1933
1945
1953
1958
1960
1958
1954
1950
1949
1951
1956
1960
1959
1956
1950
1947
1947
1950
1956
1960
1962
1962
1961
1961
1961
1961
1961
1959
1957
1956
1957
1961
1968
1974
1978
1976
1969
1963
1960
1962
1969
1977
1982
1983
1980
1976
1972
1971
1972
1975
1980
1984
1986
1987
1985
1983
1981
1981
1983
1985
1985
1982
1976
1968
1962
1962
1966
1971
1975
1972
1965
1957
1954
1958
1965
1971
1975
1975
1972
1967
1963
1961
1961
1963
1966
1967
1967
1966
1965
1966
1968
1969
1970
1971
1973
1976
1977
1977
1972
1966
1961
1960
1962
1966
1968
1969
1968
1968
1967
1966
1966
1967
1969
1971
1972
1970
1967
1963
1960
1959
1958
1958
1959
1961
1965
1968
1970
1970
1966
1962
1960
1961
1965
1968
1970
1967
1962
1956
1954
1955
1958
1961
1962
1961
1960
1959
1959
1960
1960
1961
1963
1964
1962
1959
1955
1954
1960
1977
2004
2034
2055
2059
2042
2009
1974
1947
1935
1937
1945
1954
1960
1964
1966
1967
1966
1966
1966
1966
1965
1965
1966
1968
1970
1972
1972
1972
1973
1973
1974
1975
1977
1978
1979
1979
1978
1977
1976
1975
1973
1969
1965
1962
1961
1963
1965
1966
1966
1965
1965
1966
1967
1968
1969
1969
1969
1968
1967
1967
1969
1971
1974
1977
1979
1981
1982
1982
1981
1979
1976
1974
1973
1971
1969
1965
1960
1956
1954
1954
1956
1957
1958
1957
1957
1956
1955
1955
1954
1953
1954
1954
1954
1955
1954
1953
1952
1952
1952
1954
1956
1957
1957
1957
1957
1957
1959
1960
1959
1956
1953
1951
1952
1955
1960
1965
1967
1967
1964
1960
1957
1957
1957
1959
1960
1961
1962
1963
1964
1963
1963
1961
1960
1960
1960
1960
1961
1962
1963
1965
1967
1967
1968
1968
1969
1971
1971
1971
1969
1966
1964
1963
1963
1965
1967
1969
1970
1969
1969
1968
1968
1969
1970
1971
1971
1969
1966
1965
1968
1980
2004
2035
2060
2069
2053
2019
1979
1949
1937
1940
1952
1964
1971
1974
1976
1977
1977
1977
1976
1976
1975
1974
1975
1976
1977
1979
1980
1980
1979
1976
1973
1971
1972
1974
1978
1981
1982
1982
1981
1979
1978
1978
1978
1979
1980
1980
1979
1977
1975
1973
1974
1979
1984
1987
1988
1985
1983
1982
1984
1988
1991
1993
1995
1995
1994
1993
1990
1988
1986
1985
1985
1984
1984
1984
1983
1982
1980
1976
1973
1971
1970
1971
1972
1973
1974
1973
1972
1970
1969
1968
1968
1967
1966
1966
1968
1970
1971
1970
1967
1963
1961
1961
1964
1966
1967
1967
1967
1967
1967
1966
1966
1965
1964
1964
1964
1965
1965
1965
1963
1961
1960
1962
1965
1967
1968
1968
1968
1968
1969
1970
1970
1969
1969
1969
1969
1968
1967
1965
1964
1963
1964
1965
1967
1968
1970
1972
1974
1975
1975
1975
1975
1974
1973
1973
1973
1975
1976
1976
1974
1971
1969
1969
1971
1974
1975
1974
1973
1973
1975
1976
1974
1969
1962
1958
1960
1973
2000
2035
2066
2081
2070
2037
1992
1954
1933
1930
1939
1951
1960
1966
1969
1971
1971
1971
1971
1972
1972
1973
1973
1973
1973
1973
1974
1975
1976
1976
1976
1975
1973
1972
1972
1974
1975
1977
1978
1979
1979
1978
1977
1976
1975
1976
1977
1979
1981
1982
1982
1982
1983
1983
1984
1986
1987
1988
1989
1990
1991
1992
1992
1991
1991
1991
1991
1990
1989
1989
1989
1989
1989
1989
1988
1985
1982
1978
1975
1972
1971
1972
1974
1975
1976
1974
1973
1972
1972
1973
1973
1971
1969
1967
1967
1968
1970
1972
1973
1974
1974
1974
1973
1973
1973
1974
1976
1978
1978
1977
1974
1971
1969
1968
1970
1973
1976
1977
1978
1977
1977
1977
1978
1979
1979
1978
1979
1981
1983
1985
1985
1984
1982
1980
1979
1977
1977
1979
1982
1987
1991
1992
1990
1987
1984
1984
1987
1991
1994
1995
1994
1991
1988
1985
1982
1981
1981
1984
1988
1990
1989
1985
1981
1980
1981
1983
1981
1975
1971
1971
1986
2014
2048
2075
2083
2065
2030
1990
1961
1949
1952
1964
1975
1981
1983
1983
1983
1984
1985
1985
1984
1982
1981
1982
1983
1985
1985
1985
1984
1984
1985
1986
1988
1989
1989
1988
1987
1986
1986
1987
1987
1987
1986
1984
1982
1982
1983
1984
1986
1987
1987
1988
1988
1988
1988
1987
1988
1989
1990
1990
1989
1989
1988
1989
1989
1991
1992
1995
1996
1997
1996
1994
1992
1991
1991
1989
1986
1983
1980
1980
1981
1983
1984
1985
1984
1982
1981
1979
1978
1977
1977
1979
1981
1982
1982
1980
1978
1976
1976
1978
1980
1981
1981
1980
1980
1980
1980
1979
1977
1975
1975
1976
1980
1983
1984
1982
1978
1975
1973
1973
1976
1978
1980
1980
1979
1978
1976
1975
1975
1976
1977
1977
1978
1979
1979
1979
1979
1978
1975
1973
1972
1972
1975
1979
1984
1986
1987
1986
1985
1985
1986
1987
1988
1987
1985
1985
1984
1985
1986
1985
1984
1983
1982
1981
1981
1981
1981
1982
1983
1984
1981
1977
1972
1970
1977
1996
2025
2056
2077
2076
2052
2014
1976
1951
1945
1954
1968
1979
1985
1985
1984
1981
1978
1977
1978
1981
1983
1985
1984
1981
1979
1977
1976
1976
1976
1976
1976
1977
1979
1981
1984
1984
1983
1979
1975
1973
1973
1974
1976
1977
1976
1976
1978
1981
1984
1985
1984
1983
1983
1984
1985
1986
1985
1985
1985
1987
1989
1991
1992
1992
1992
1993
1993
1993
1993
1994
1995
1995
1995
1993
1990
1988
1986
1984
1983
1983
1983
1984
1987
1989
1991
1991
1989
1987
1986
1986
1985
1985
1985
1986
1987
1989
1989
1989
1988
1987
1987
1988
1990
1992
1994
1995
1994
1992
1988
1986
1985
1987
1991
1994
1996
1995
1993
1991
1990
1990
1990
1991
1992
1991
1990
1988
1986
1986
1987
1990
1993
1995
1996
1995
1994
1993
1992
1990
1989
1988
1988
1992
1996
2001
2004
2005
2004
2002
1999
1997
1994
1990
1987
1986
1986
1988
1990
1992
1992
1992
1990
1990
1990
1990
1990
1990
1990
1987
1982
1977
1976
1984
2006
2039
2070
2087
2078
2046
2003
1968
1950
1950
1962
1974
1982
1984
1984
1984
1984
1985
1986
1986
1985
1984
1984
1984
1984
1984
1984
1984
1985
1985
1984
1983
1981
1981
1984
1988
1992
1994
1993
1990
1985
1981
1979
1980
1982
1986
1990
1993
1995
1995
1994
1993
1993
1994
1996
1997
1997
1996
1996
1996
1998
2000
2002
2002
2000
1997
1995
1994
1995
1997
1999
2001
2002
2003
2004
2002
2000
1996
1993
1991
1989
1986
1982
1977
1973
1973
1978
1985
1993
1997
1998
1996
1993
1991
1989
1987
1985
1982
1980
1977
1976
1977
1979
1982
1985
1987
1988
1987
1986
1985
1985
1984
1982
1979
1975
1973
1972
1974
1978
1980
1980
1978
1976
1976
1977
1978
1977
1974
1971
1969
1971
1974
1976
1975
1973
1972
1973
1975
1978
1979
1980
1980
1979
1979
1978
1977
1973
1970
1967
1966
1969
1974
1980
1982
1981
1976
1970
1968
1969
1973
1975
1974
1969
1965
1965
1977
2002
2035
2063
2073
2056
2020
1978
1947
1935
1942
1956
1968
1973
1974
1973
1972
1973
1973
1974
1974
1975
1977
1978
1980
1983
1985
1984
1981
1976
1971
1970
1974
1980
1985
1987
1986
1983
1982
1982
1984
1983
1981
1979
1977
1977
1979
1980
1981
1981
1981
1983
1986
1990
1993
1992
1988
1983
1980
1979
1982
1986
1989
1990
1990
1989
1989
1988
1988
1988
1987
1986
1983
1979
1976
1973
1971
1970
1969
1969
1968
1967
1966
1965
1965
1966
1965
1963
1962
1962
1965
1970
1972
1970
1964
1958
1955
1956
1960
1963
1966
1969
1970
1971
1970
1967
1963
1961
1962
1962
1962
1961
1961
1962
1965
1969
1972
1973
1972
1968
1965
1963
1961
1959
1958
1957
1958
1960
1964
1966
1966
1964
1964
1966
1971
1975
1976
1975
1973
1974
1977
1979
1979
1977
1974
1973
1973
1973
1970
1967
1966
1967
1970
1971
1968
1962
1958
1960
1970
1982
1989
1985
1973
1957
1947
1949
1968
2001
2036
2059
2061
2039
1999
1957
1926
1914
1919
1934
1952
1966
1974
1978
1974
1967
1961
1960
1964
1970
1974
1973
1966
1956
1950
1952
1961
1972
1979
1978
1973
1968
1965
1967
1972
1977
1979
1980
1980
1979
1979
1981
1983
1986
1987
1984
1979
1974
1973
1977
1986
1994
1998
1997
1991
1985
1980
1978
1981
1990
2002
2014
2017
2010
1996
1980
1973
1977
1990
2003
2008
2006
2001
1996
1996
2000
2004
2004
1996
1986
1980
1984
1994
2004
2009
2007
2000
1992
1989
1992
1998
2004
2007
2010
2011
2013
2017
2018
2016
2012
2010
2013
2023
2034
2039
2032
2016
1998
1990
1996
2014
2032
2040
2034
2018
2003
1998
2005
2019
2031
2034
2030
2022
2016
2013
2013
2013
2015
2018
2024
2030
2033
2031
2025
2019
2014
2014
2014
2013
2012
2011
2011
2012
2011
2007
2003
2002
2006
2013
2020
2021
2016
2007
1995
1985
1980
1979
1980
1982
1984
1988
1996
2012
2037
2062
2079
2080
2061
2031
1999
1976
1968
1971
1978
1984
1986
1986
1988
1989
1991
1992
1993
1992
1990
1988
1987
1987
1988
1988
1989
1989
1988
1986
1982
1979
1976
1975
1975
1975
1976
1976
1975
1975
1974
1973
1973
1973
1975
1977
1978
1979
1978
1976
1975
1975
1977
1981
1984
1986
1987
1985
1983
1982
1982
1984
1987
1990
1991
1991
1990
1989
1989
1989
1990
1989
1989
1988
1987
1987
1988
1988
1989
1989
1988
1986
1984
1983
1984
1987
1990
1992
1991
1989
1986
1984
1984
1985
1986
1987
1987
1987
1986
1985
1985
1985
1985
1985
1985
1985
1984
1983
1982
1981
1981
1982
1983
1984
1983
1980
1976
1973
1971
1971
1972
1973
1974
1975
1975
1976
1977
1977
1978
1978
1977
1976
1975
1974
1973
1972
1972
1972
1972
1971
1971
1971
1971
1972
1972
1971
1971
1970
1970
1970
1968
1965
1959
1954
1953
1960
1979
2010
2043
2065
2065
2041
2000
1958
1929
1920
1926
1939
1950
1956
1959
1960
1960
1960
1959
1958
1959
1959
1960
1961
1962
1962
1963
1964
1965
1966
1966
1966
1967
1967
1965
1963
1960
1959
1960
1964
1969
1973
1975
1976
1977
1976
1976
1975
1974
1972
1970
1970
1972
1975
1980
1985
1988
1988
1988
1987
1987
1988
1988
1988
1989
1990
1990
1989
1986
1981
1977
1975
1976
1978
1979
1977
1974
1971
1968
1967
1965
1962
1958
1955
1954
1956
1962
1968
1973
1975
1974
1971
1967
1964
1963
1963
1964
1965
1965
1965
1964
1963
1963
1964
1964
1964
1964
1963
1962
1960
1959
1959
1960
1960
1961
1961
1962
1963
1965
1967
1968
1968
1966
1964
1961
1960
1962
1964
1967
1968
1968
1966
1965
1964
1965
1966
1966
1966
1966
1966
1965
1963
1960
1958
1957
1958
1958
1957
1955
1953
1955
1965
1987
2016
2040
2048
2035
2003
1966
1937
1925
1928
1939
1950
1956
1959
1961
1961
1962
1963
1964
1964
1963
1960
1957
1956
1958
1963
1968
1971
1972
1971
1968
1965
1963
1962
1962
1963
1965
1969
1973
1976
1977
1975
1971
1967
1965
1966
1968
1971
1973
1974
1974
1975
1975
1977
1979
1982
1983
1984
1984
1984
1984
1985
1985
1985
1985
1985
1987
1988
1988
1988
1986
1985
1984
1984
1984
1984
1983
1982
1981
1981
1980
1979
1979
1979
1979
1980
1982
1982
1981
1980
1979
1980
1981
1982
1983
1985
1986
1987
1987
1987
1987
1985
1985
1985
1986
1987
1988
1988
1987
1985
1982
1981
1981
1983
1986
1988
1988
1988
1987
1987
1989
1991
1993
1996
1997
1998
1997
1994
1990
1986
1983
1982
1982
1983
1984
1984
1983
1983
1983
1984
1984
1984
1983
1983
1982
1980
1977
1973
1972
1978
1996
2023
2050
2065
2060
2036
2000
1969
1952
1949
1956
1965
1972
1975
1976
1976
1974
1973
1973
1975
1977
1979
1979
1977
1974
1973
1974
1978
1983
1986
1986
1984
1980
1978
1977
1978
1979
1978
1976
1973
1972
1974
1978
1982
1985
1984
1983
1981
1980
1981
1982
1984
1985
1987
1987
1987
1987
1986
1986
1985
1986
1987
1988
1988
1988
1989
1990
1991
1991
1990
1987
1985
1984
1983
1983
1982
1982
1982
1983
1983
1981
1977
1974
1972
1972
1974
1976
1978
1979
1979
1978
1976
1974
1973
1975
1978
1982
1982
1980
1976
1973
1973
1976
1980
1983
1983
1981
1979
1976
1975
1976
1977
1978
1979
1980
1980
1979
1980
1981
1983
1985
1986
1987
1987
1986
1985
1985
1984
1984
1983
1982
1982
1981
1980
1979
1979
1979
1980
1981
1982
1982
1982
1983
1982
1980
1975
1971
1970
1978
1999
2029
2056
2068
2057
2028
1990
1960
1945
1947
1959
1972
1980
1982
1981
1979
1978
1977
1978
1979
1980
1981
1982
1982
1981
1979
1978
1978
1980
1983
1984
1983
1981
1978
1977
1977
1977
1978
1979
1980
1981
1981
1981
1980
1980
1980
1982
1984
1987
1990
1991
1989
1987
1987
1988
1991
1994
1997
1998
1997
1997
1997
1998
1999
2000
2000
2000
2000
1999
1999
1999
1997
1995
1993
1992
1991
1991
1990
1990
1988
1986
1985
1984
1984
1985
1985
1985
1985
1985
1987
1989
1990
1990
1988
1987
1986
1987
1989
1990
1991
1991
1991
1991
1993
1994
1996
1996
1996
1994
1993
1992
1993
1994
1994
1995
1996
1997
1997
1998
1999
2000
2000
2000
1999
1998
1997
1996
1995
1994
1994
1995
1995
1994
1992
1989
1986
1984
1983
1983
1983
1983
1984
1985
1984
1980
1973
1967
1964
1967
1980
2002
2029
2048
2053
2038
2006
1970
1943
1931
1933
1942
1951
1954
1954
1952
1949
1946
1943
1940
1938
1936
1933
1931
1928
1925
1923
1920
1918
1916
1915
1914
1913
1911
1909
1906
1904
1902
1902
1901
1901
1900
1900
1900
1900
1901
1901
1901
1901
1901
1901
1901
1902
1902
1903
1903
1903
1904
1906
1908
1910
1911
1911
1912
1913
1915
1917
1917
1918
1917
1917
1916
1915
1913
1911
1910
1909
1910
1911
1910
1909
1908
1909
1911
1913
1915
1916
1915
1914
1914
1914
1915
1917
1918
1919
1919
1918
1917
1916
1917
1918
1919
1921
1923
1925
1926
1927
1926
1925
1924
1923
1923
1922
1922
1922
1923
1925
1927
1929
1931
1931
1930
1931
1931
1932
1932
1932
1932
1932
1933
1933
1932
1930
1928
1927
1928
1930
1932
1934
1934
1933
1932
1931
1931
1930
1928
1925
1923
1923
1932
1953
1983
2013
2028
2021
1991
1952
1917
1897
1895
1904
1915
1924
1928
1931
1933
1934
1934
1935
1937
1937
1937
1936
1935
1935
1936
1938
1939
1940
1941
1941
1940
1940
1939
1939
1940
1943
1945
1947
1948
1948
1947
1945
1944
1945
1946
1948
1948
1948
1947
1947
1947
1948
1950
1950
1951
1952
1953
1955
1957
1958
1958
1957
1955
1954
1954
1954
1955
1956
1956
1954
1952
1949
1947
1944
1941
1939
1938
1937
1937
1938
1939
1939
1938
1937
1934
1932
1932
1932
1934
1936
1937
1937
1936
1936
1937
1940
1943
1946
1948
1948
1949
1950
1952
1952
1953
1955
1959
1964
1967
1968
1966
1963
1960
1961
1964
1968
1973
1977
1981
1984
1986
1986
1985
1983
1980
1978
1976
1975
1976
1979
1981
1982
1982
1982
1981
1980
1979
1979
1980
1979
1977
1975
1973
1975
1987
2011
2046
2078
2095
2088
2057
2017
1981
1962
1961
1970
1982
1992
1999
2004
2009
2012
2012
2011
2010
2009
2008
2007
2007
2007
2006
2004
2002
2001
2001
2003
2005
2007
2007
2006
2004
2002
2001
2001
2002
2003
2003
2003
2002
1999
1997
1996
1998
2001
2004
2007
2007
2005
2004
2004
2005
2006
2007
2006
2004
2003
2002
2002
2003
2004
2004
2003
2001
2000
1999
1999
1998
1996
1994
1992
1990
1988
1987
1985
1983
1982
1981
1980
1981
1986
1992
2000
2006
2009
2010
2009
2008
2007
2007
2008
2008
2009
2009
2010
2011
2011
2011
2009
2007
2006
2005
2006
2006
2006
2006
2005
2006
2007
2008
2009
2008
2008
2007
2008
2009
2010
2011
2012
2013
2014
2014
2013
2011
2010
2009
2008
2008
2008
2009
2009
2010
2009
2008
2007
2006
2006
2007
2008
2009
2008
2006
2002
1998
1997
2002
2019
2049
2083
2106
2106
2079
2036
1993
1966
1960
1969
1983
1996
2003
2005
2006
2005
2003
2002
2002
2002
2003
2005
2006
2007
2007
2006
2004
2002
2001
2002
2005
2008
2010
2010
2010
2009
2008
2007
2007
2008
2008
2007
2006
2006
2006
2007
2008
2010
2012
2013
2013
2013
2014
2014
2015
2016
2017
2018
2018
2018
2017
2016
2016
2017
2017
2018
2018
2017
2015
2012
2010
2009
2008
2007
2006
2003
2001
1999
1998
1997
1997
1996
1995
1994
1993
1993
1994
1995
1995
1994
1994
1993
1994
1995
1996
1995
1994
1992
1992
1993
1996
1998
2000
1999
1997
1994
1992
1992
1993
1994
1995
1995
1994
1993
1992
1992
1992
1992
1993
1992
1992
1991
1991
1991
1992
1992
1990
1988
1986
1985
1986
1988
1990
1991
1992
1992
1994
1995
1995
1995
1994
1993
1991
1990
1988
1987
1986
1986
1986
1986
1987
1987
1988
1988
1989
1989
1988
1985
1981
1976
1974
1976
1990
2017
2051
2081
2094
2081
2046
2003
1967
1950
1951
1963
1976
1984
1986
1986
1984
1982
1982
1984
1985
1987
1987
1987
1987
1987
1987
1987
1986
1986
1987
1988
1988
1988
1987
1986
1986
1986
1988
1990
1992
1993
1992
1991
1990
1989
1989
1990
1992
1994
1995
1996
1996
1996
1996
1996
1996
1996
1998
1999
2001
2001
2001
2001
2001
2001
2002
2002
2003
2004
2003
2002
2000
1997
1994
1992
1991
1991
1991
1991
1991
1991
1991
1991
1990
1989
1988
1987
1986
1987
1988
1990
1992
1993
1992
1990
1988
1986
1985
1987
1989
1990
1991
1990
1989
1987
1986
1986
1989
1991
1993
1993
1992
1990
1988
1986
1986
1987
1988
1989
1989
1989
1988
1987
1986
1985
1984
1984
1985
1986
1988
1990
1990
1989
1986
1984
1983
1983
1985
1988
1989
1989
1987
1984
1982
1981
1982
1984
1986
1988
1989
1990
1989
1988
1986
1985
1985
1984
1983
1982
1980
1980
1981
1983
1986
1988
1989
1989
1988
1987
1986
1986
1985
1984
1983
1983
1982
1982
1982
1982
1982
1982
1982
1982
1981
1981
1981
1981
1980
1977
1973
1970
1971
1982
2006
2039
2067
2079
2068
2037
1997
1965
1950
1951
1959
1969
1974
1976
1977
1978
1979
1979
1979
1978
1977
1977
1977
1978
1979
1980
1980
1981
1980
1980
1979
1979
1979
1980
1981
1981
1982
1983
1983
1983
1983
1983
1983
1983
1983
1983
1984
1985
1985
1986
1986
1987
1987
1987
1989
1991
1993
1995
1995
1994
1993
1992
1991
1991
1992
1994
1996
1998
1998
1997
1995
1993
1992
1991
1991
1991
1990
1988
1986
1985
1983
1982
1982
1984
1987
1989
1990
1990
1988
1986
1984
1982
1982
1983
1984
1984
1983
1982
1982
1982
1984
1986
1987
1987
1986
1986
1985
1985
1985
1985
1984
1983
1983
1983
1983
1984
1983
1983
1982
1982
1982
1982
1982
1983
1983
1984
1985
1984
1983
1981
1980
1980
1981
1981
1981
1982
1982
1982
1983
1984
1983
1982
1981
1980
1981
1982
1983
1985
1985
1985
1983
1982
1981
1981
1982
1983
1984
1985
1985
1984
1983
1981
1980
1980
1980
1981
1982
1983
1983
1982
1981
1980
1979
1980
1982
1984
1986
1986
1985
1983
1982
1981
1981
1982
1982
1983
1983
1982
1981
1980
1979
1978
1978
1978
1979
1980
1982
1983
1983
1980
1975
1970
1967
1970
1984
2009
2039
2062
2069
2054
2023
1986
1958
1946
1949
1959
1969
1974
1976
1977
1976
1975
1975
1976
1977
1977
1976
1976
1976
1976
1976
1976
1977
1978
1978
1978
1978
1978
1978
1978
1978
1978
1979
1979
1980
1980
1980
1980
1979
1979
1979
1980
1980
1980
1981
1982
1983
1984
1984
1984
1985
1986
1987
1989
1990
1991
1991
1990
1990
1989
1988
1987
1987
1987
1987
1987
1987
1987
1986
1985
1984
1983
1982
1981
1979
1978
1977
1977
1977
1977
1976
1975
1974
1974
1974
1975
1976
1976
1977
1977
1976
1975
1973
1972
1972
1973
1975
1977
1978
1977
1975
1973
1971
1970
1971
1973
1974
1975
1974
1973
1972
1971
1972
1973
1973
1972
1971
1971
1971
1972
1972
1973
1973
1973
1973
1972
1971
1970
1969
1969
1970
1970
1971
1971
1971
1972
1973
1973
1972
1971
1971
1971
1972
1973
1973
1971
1969
1968
1968
1969
1971
1972
1973
1973
1973
1973
1974
1974
1974
1974
1973
1972
1971
1970
1970
1970
1970
1970
1970
1970
1970
1969
1968
1968
1968
1967
1965
1962
1959
1958
1964
1982
2012
2045
2066
2066
2042
2000
1959
1932
1923
1928
1939
1951
1959
1965
1968
1969
1967
1965
1963
1963
1964
1964
1965
1967
1968
1968
1968
1967
1966
1964
1963
1963
1963
1963
1966
1968
1971
1972
1971
1969
1968
1968
1970
1972
1973
1974
1974
1973
1972
1972
1972
1973
1974
1975
1977
1979
1980
1981
1982
1982
1982
1983
1984
1984
1984
1984
1983
1983
1982
1982
1981
1980
1978
1976
1974
1972
1970
1968
1967
1966
1965
1964
1964
1964
1965
1966
1965
1964
1962
1961
1961
1963
1964
1966
1966
1966
1966
1966
1966
1966
1966
1966
1966
1967
1968
1969
1970
1970
1969
1967
1966
1965
1965
1966
1968
1969
1969
1968
1967
1966
1967
1969
1970
1970
1969
1967
1965
1966
1967
1968
1968
1968
1967
1968
1969
1971
1972
1972
1970
1968
1966
1965
1965
1967
1970
1973
1975
1977
1976
1975
1974
1974
1974
1974
1973
1973
1971
1970
1969
1968
1968
1968
1968
1969
1970
1971
1972
1972
1972
1971
1968
1964
1960
1960
1967
1987
2017
2048
2066
2062
2035
1995
1958
1936
1933
1942
1955
1965
1969
1970
1969
1968
1968
1969
1970
1971
1971
1971
1970
1970
1971
1971
1971
1971
1971
1971
1972
1973
1974
1974
1974
1973
1973
1974
1975
1976
1977
1977
1975
1974
1972
1972
1973
1975
1977
1978
1979
1979
1979
1979
1980
1981
1983
1985
1987
1988
1988
1988
1988
1988
1987
1987
1988
1988
1990
1990
1989
1987
1983
1979
1977
1976
1978
1979
1979
1977
1975
1973
1973
1973
1974
1974
1974
1974
1974
1974
1975
1974
1974
1973
1972
1972
1973
1974
1975
1975
1975
1974
1973
1973
1973
1974
1975
1975
1976
1975
1974
1973
1972
1971
1970
1971
1972
1973
1974
1975
1976
1975
1974
1973
1972
1972
1973
1975
1976
1976
1975
1973
1971
1971
1971
1972
1973
1975
1975
1975
1974
1974
1973
1973
1972
1972
1972
1972
1972
1973
1974
1976
1977
1979
1979
1979
1979
1980
1980
1979
1977
1976
1974
1974
1974
1975
1975
1975
1975
1975
1973
1972
1971
1971
1972
1974
1973
1969
1964
1962
1967
1985
2013
2043
2061
2059
2038
2003
1970
1949
1944
1950
1959
1967
1970
1972
1973
1973
1974
1975
1975
1975
1974
1973
1973
1974
1975
1976
1976
1976
1975
1974
1973
1972
1973
1974
1976
1977
1978
1977
1977
1976
1975
1975
1976
1977
1978
1977
1976
1974
1973
1974
1976
1977
1978
1979
1980
1981
1982
1983
1982
1981
1981
1981
1982
1984
1986
1986
1986
1984
1983
1981
1980
1980
1979
1978
1977
1976
1975
1974
1973
1972
1972
1971
1971
1971
1971
1970
1970
1971
1972
1974
1974
1973
1971
1970
1969
1970
1972
1973
1973
1972
1971
1970
1970
1971
1972
1973
1973
1974
1973
1972
1970
1969
1969
1969
1970
1971
1972
1972
1972
1971
1970
1969
1968
1968
1969
1972
1974
1975
1976
1975
1973
1972
1971
1972
1973
1974
1975
1976
1976
1975
1974
1973
1974
1974
1975
1975
1975
1974
1975
1976
1978
1980
1982
1984
1985
1985
1985
1984
1983
1981
1981
1981
1980
1980
1980
1981
1981
1982
1982
1982
1981
1982
1983
1985
1986
1983
1978
1972
1970
1976
1994
2024
2055
2077
2077
2054
2016
1977
1952
1944
1950
1962
1972
1978
1981
1982
1983
1984
1985
1985
1985
1985
1984
1983
1983
1984
1985
1987
1989
1989
1989
1988
1988
1987
1988
1988
1988
1989
1989
1989
1990
1990
1990
1990
1990
1991
1993
1994
1994
1994
1994
1994
1995
1997
1999
2000
2001
2002
2002
2002
2002
2001
2002
2002
2003
2003
2004
2004
2004
2003
2002
2000
1998
1997
1996
1995
1993
1991
1988
1986
1984
1983
1984
1985
1985
1985
1985
1985
1985
1985
1985
1984
1983
1983
1983
1984
1985
1986
1987
1987
1987
1986
1986
1986
1986
1986
1986
1986
1985
1984
1983
1982
1983
1983
1984
1985
1985
1985
1985
1984
1983
1983
1983
1983
1984
1984
1984
1984
1984
1984
1984
1984
1983
1983
1983
1984
1985
1985
1983
1981
1981
1981
1983
1986
1989
1991
1992
1991
1989
1987
1985
1984
1985
1987
1988
1989
1988
1986
1984
1982
1982
1981
1983
1985
1986
1988
1989
1988
1985
1980
1974
1971
1975
1992
2022
2055
2080
2082
2060
2021
1980
1953
1944
1950
1964
1976
1982
1985
1985
1983
1981
1981
1981
1983
1985
1986
1986
1985
1985
1985
1985
1986
1986
1987
1987
1987
1988
1989
1989
1989
1988
1987
1988
1989
1990
1991
1991
1991
1991
1991
1991
1992
1992
1992
1994
1996
1997
1997
1997
1997
1997
1998
2000
2001
2001
2001
2000
2000
2001
2002
2004
2004
2003
2001
1999
1997
1995
1993
1992
1991
1991
1991
1990
1988
1986
1984
1983
1983
1984
1984
1983
1982
1982
1982
1983
1983
1983
1983
1983
1983
1983
1983
1983
1983
1984
1985
1985
1985
1985
1985
1984
1983
1982
1982
1982
1982
1982
1982
1982
1982
1983
1983
1984
1983
1983
1982
1982
1981
1980
1980
1980
1981
1981
1981
1982
1982
1982
1983
1983
1982
1981
1980
1980
1981
1982
1982
1982
1982
1981
1980
1980
1980
1980
1980
1980
1980
1981
1982
1984
1984
1985
1986
1986
1986
1985
1984
1983
1981
1979
1978
1977
1977
1978
1979
1980
1980
1980
1980
1980
1981
1981
1979
1974
1968
1963
1963
1974
1998
2030
2059
2072
2064
2035
1997
1964
1947
1946
1955
1966
1975
1977
1978
1977
1975
1975
1975
1976
1977
1977
1977
1976
1976
1976
1976
1977
1977
1978
1979
1980
1980
1980
1979
1977
1977
1977
1977
1978
1978
1978
1978
1978
1979
1980
1981
1982
1983
1984
1983
1982
1981
1980
1981
1982
1985
1987
1988
1989
1988
1987
1987
1987
1988
1988
1988
1989
1989
1989
1988
1987
1985
1984
1983
1982
1982
1981
1980
1979
1978
1978
1977
1977
1977
1978
1978
1977
1977
1976
1975
1975
1976
1977
1977
1976
1975
1975
1975
1976
1977
1978
1978
1977
1976
1975
1976
1977
1978
1980
1980
1980
1979
1978
1976
1975
1975
1976
1977
1978
1978
1977
1976
1975
1975
1976
1976
1976
1975
1975
1975
1976
1977
1978
1977
1977
1976
1976
1976
1976
1977
1978
1978
1978
1977
1975
1973
1973
1974
1976
1977
1978
1977
1977
1977
1977
1977
1978
1978
1977
1976
1975
1974
1974
1975
1977
1979
1982
1983
1984
1984
1983
1981
1980
1979
1978
1978
1977
1977
1977
1977
1977
1977
1977
1976
1975
1975
1976
1978
1978
1976
1971
1965
1962
1965
1980
2007
2038
2061
2067
2051
2019
1983
1956
1944
1946
1955
1965
1972
1974
1975
1974
1973
1973
1973
1974
1974
1974
1973
1973
1973
1974
1974
1975
1974
1974
1975
1975
1976
1977
1977
1977
1977
1976
1976
1976
1976
1976
1977
1977
1977
1978
1978
1978
1978
1978
1978
1978
1980
1981
1982
1982
1981
1980
1980
1981
1982
1984
1984
1985
1984
1984
1984
1984
1984
1983
1982
1981
1981
1981
1981
1980
1978
1977
1977
1977
1976
1975
1974
1973
1974
1975
1976
1975
1973
1972
1970
1970
1971
1972
1974
1974
1974
1973
1972
1972
1972
1973
1974
1974
1974
1974
1974
1974
1973
1973
1973
1974
1975
1975
1974
1972
1970
1969
1969
1969
1969
1970
1971
1972
1973
1974
1974
1973
1971
1970
1970
1970
1972
1973
1973
1973
1972
1970
1969
1969
1969
1970
1970
1970
1970
1971
1972
1973
1973
1972
1972
1972
1972
1972
1972
1971
1970
1969
1969
1969
1970
1972
1974
1976
1978
1978
1977
1976
1975
1974
1973
1973
1973
1973
1973
1972
1972
1971
1970
1970
1970
1970
1970
1971
1972
1973
1973
1971
1967
1962
1958
1959
1972
1996
2029
2056
2068
2056
2024
1983
1950
1934
1935
1945
1957
1965
1969
1970
1969
1968
1967
1968
1970
1971
1972
1972
1972
1971
1970
1970
1971
1973
1974
1975
1976
1975
1974
1974
1973
1973
1974
1974
1975
1975
1975
1975
1974
1974
1974
1975
1975
1976
1977
1978
1979
1979
1979
1979
1979
1980
1980
1981
1982
1983
1985
1986
1987
1987
1986
1986
1985
1985
1985
1985
1984
1982
1981
1979
1977
1975
1973
1973
1973
1972
1971
1969
1968
1967
1967
1967
1966
1966
1966
1966
1966
1966
1966
1966
1966
1965
1965
1965
1965
1966
1967
1967
1967
1966
1966
1965
1965
1966
1967
1967
1967
1967
1966
1965
1964
1964
1964
1965
1966
1966
1966
1965
1965
1965
1964
1964
1964
1964
1965
1965
1966
1965
1965
1965
1965
1965
1965
1965
1965
1966
1966
1966
1965
1965
1965
1965
1965
1966
1966
1965
1965
1965
1966
1966
1967
1968
1968
1969
1970
1970
1970
1969
1968
1967
1966
1966
1966
1966
1967
1967
1966
1966
1965
1964
1965
1967
1969
1970
1967
1961
1955
1952
1958
1977
2007
2040
2060
2059
2036
1997
1958
1933
1927
1934
1947
1958
1964
1966
1966
1965
1964
1964
1963
1962
1962
1963
1965
1967
1969
1970
1970
1968
1966
1965
1966
1967
1969
1970
1969
1968
1968
1968
1970
1971
1972
1972
1972
1972
1972
1973
1973
1973
1974
1974
1974
1975
1976
1977
1979
1980
1981
1981
1980
1979
1978
1979
1981
1984
1986
1987
1986
1984
1982
1981
1979
1979
1979
1979
1979
1978
1975
1973
1971
1970
1971
1972
1972
1971
1970
1970
1969
1970
1970
1970
1970
1970
1970
1970
1971
1972
1972
1972
1972
1971
1971
1971
1971
1972
1974
1975
1975
1974
1972
1970
1968
1969
1970
1972
1973
1974
1974
1973
1971
1970
1969
1969
1971
1972
1973
1973
1972
1971
1969
1969
1969
1970
1972
1973
1973
1973
1972
1971
1970
1970
1970
1971
1972
1973
1973
1973
1972
1971
1971
1971
1971
1972
1974
1974
1975
1975
1974
1973
1973
1972
1972
1972
1972
1973
1974
1976
1979
1981
1982
1982
1982
1981
1980
1980
1978
1976
1975
1973
1973
1974
1975
1975
1975
1974
1973
1973
1974
1975
1976
1976
1974
1969
1964
1962
1966
1981
2008
2038
2059
2064
2048
2016
1982
1957
1946
1947
1954
1962
1967
1971
1975
1977
1978
1978
1977
1975
1972
1971
1971
1971
1972
1974
1975
1975
1976
1976
1976
1975
1973
1972
1972
1972
1974
1975
1976
1978
1978
1977
1976
1974
1973
1974
1976
1977
1978
1977
1976
1976
1976
1977
1979
1981
1982
1984
1985
1985
1985
1984
1984
1983
1984
1985
1986
1988
1989
1990
1990
1991
1990
1989
1988
1987
1986
1987
1988
1990
1992
1993
1994
1993
1993
1994
1995
1995
1995
1994
1994
1995
1996
1997
1997
1997
1997
1997
1998
1998
1997
1997
1997
1998
1999
2000
2000
2000
1999
1999
1999
1998
1998
1998
1997
1997
1996
1996
1996
1997
1997
1998
1998
1997
1996
1996
1996
1997
1997
1997
1997
1996
1995
1995
1995
1996
1996
1996
1996
1995
1995
1996
1996
1995
1993
1992
1990
1988
1987
1987
1987
1988
1989
1990
1991
1991
1991
1991
1991
1991
1990
1988
1986
1984
1982
1981
1981
1981
1981
1981
1982
1982
1982
1981
1980
1980
1980
1979
1977
1972
1967
1965
1970
1989
2018
2048
2067
2064
2039
2001
1964
1942
1938
1946
1957
1966
1970
1972
1973
1973
1972
1972
1970
1970
1969
1969
1969
1970
1971
1972
1974
1975
1976
1976
1976
1974
1973
1973
1973
1974
1974
1974
1973
1973
1974
1975
1976
1978
1980
1980
1980
1979
1977
1975
1974
1972
1972
1974
1977
1981
1984
1986
1986
1985
1985
1986
1987
1988
1988
1989
1989
1989
1988
1986
1984
1982
1981
1980
1980
1980
1981
1981
1981
1980
1978
1976
1974
1973
1974
1975
1977
1978
1977
1974
1971
1970
1972
1975
1978
1980
1979
1978
1975
1973
1972
1972
1973
1974
1976
1977
1978
1978
1977
1976
1974
1973
1973
1973
1974
1976
1976
1976
1975
1974
1972
1970
1969
1969
1971
1973
1975
1975
1974
1973
1972
1971
1970
1970
1971
1973
1974
1974
1973
1971
1970
1970
1972
1975
1977
1978
1978
1977
1975
1973
1972
1972
1973
1974
1975
1974
1973
1971
1969
1970
1971
1973
1975
1976
1975
1974
1973
1970
1966
1961
1959
1963
1979
2007
2040
2064
2070
2049
2011
1968
1936
1924
1928
1941
1955
1963
1968
1971
1971
1969
1967
1966
1966
1967
1967
1968
1967
1966
1966
1966
1966
1968
1970
1971
1972
1972
1972
1971
1971
1972
1972
1971
1971
1971
1972
1974
1976
1978
1978
1978
1977
1977
1978
1980
1983
1984
1984
1983
1981
1981
1982
1984
1987
1989
1990
1991
1992
1992
1991
1989
1988
1988
1990
1991
1990
1989
1985
1982
1978
1976
1974
1974
1974
1974
1974
1974
1974
1973
1973
1973
1974
1974
1975
1975
1977
1978
1979
1980
1980
1979
1977
1976
1975
1976
1977
1979
1980
1980
1979
1979
1981
1983
1986
1988
1989
1988
1985
1983
1982
1982
1983
1986
1989
1990
1989
1988
1987
1987
1986
1985
1982
1980
1981
1985
1991
1995
1996
1993
1989
1986
1986
1988
1991
1994
1995
1994
1992
1990
1989
1989
1991
1995
1998
2000
2001
2000
1999
1998
1998
2000
2002
2004
2005
2003
1999
1996
1995
1997
1999
2002
2003
2002
2000
1999
1998
1999
1998
1995
1991
1990
1993
2006
2028
2055
2077
2085
2074
2048
2016
1990
1975
1973
1979
1988
1996
2003
2007
2008
2007
2004
2002
2001
2000
2001
2003
2006
2010
2011
2011
2009
2007
2005
2005
2005
2007
2008
2009
2010
2010
2009
2006
2004
2001
2000
2000
2000
2001
2001
2003
2005
2007
2009
2010
2009
2007
2004
2002
2002
2003
2007
2011
2015
2017
2018
2018
2017
2015
2012
2008
2004
2003
2004
2007
2010
2013
2013
2011
2008
2004
2001
1999
1997
1996
1996
1997
1999
2001
2002
2001
1999
1997
1996
1997
2000
2004
2006
2006
2004
2001
1998
1997
1998
2000
2003
2006
2007
2008
2008
2009
2008
2007
2007
2006
2006
2006
2007
2008
2008
2008
2007
2006
2005
2004
2004
2005
2006
2007
2007
2005
2002
1999
1999
2000
2004
2006
2008
2007
2005
2004
2003
2003
2002
2001
2000
2000
1999
2000
2000
2001
2002
2003
2004
2004
2005
2005
2004
2004
2003
2003
2003
2002
1999
1996
1993
1992
1992
1994
1997
1998
1998
1996
1995
1995
1995
1995
1993
1988
1982
1979
1981
1995
2021
2048
2069
2071
2051
2018
1982
1957
1948
1952
1963
1973
1978
1980
1981
1980
1979
1977
1976
1976
1977
1977
1978
1977
1976
1975
1973
1973
1973
1974
1975
1977
1978
1978
1978
1977
1976
1974
1973
1974
1975
1976
1978
1978
1977
1976
1975
1975
1974
1974
1974
1975
1976
1977
1978
1978
1978
1977
1977
1978
1979
1981
1983
1984
1985
1985
1983
1981
1979
1978
1977
1977
1977
1978
1978
1977
1975
1973
1971
1969
1969
1970
1970
1970
1968
1967
1966
1966
1967
1969
1970
1970
1970
1969
1968
1968
1968
1968
1968
1968
1969
1969
1970
1971
1970
1969
1968
1967
1967
1967
1968
1968
1968
1969
1969
1969
1969
1968
1966
1965
1966
1968
1970
1971
1971
1970
1968
1966
1965
1965
1965
1967
1968
1970
1970
1970
1969
1967
1966
1965
1965
1965
1967
1970
1972
1974
1974
1974
1972
1971
1970
1970
1970
1970
1970
1969
1968
1967
1966
1966
1965
1965
1965
1965
1966
1968
1970
1970
1967
1962
1954
1950
1952
1965
1992
2027
2056
2069
2056
2022
1979
1943
1924
1923
1932
1945
1956
1962
1966
1966
1965
1962
1961
1961
1962
1962
1963
1964
1964
1965
1965
1965
1964
1963
1962
1961
1962
1962
1962
1962
1962
1962
1962
1963
1965
1967
1969
1969
1968
1966
1963
1962
1963
1964
1966
1967
1968
1970
1971
1973
1973
1973
1972
1973
1974
1976
1978
1978
1977
1976
1975
1974
1974
1974
1974
1973
1971
1969
1966
1963
1962
1962
1962
1963
1962
1961
1958
1955
1953
1953
1955
1958
1960
1961
1961
1958
1956
1954
1955
1957
1960
1962
1963
1962
1961
1962
1962
1964
1964
1964
1964
1964
1964
1963
1963
1963
1964
1965
1964
1962
1960
1958
1959
1961
1963
1965
1964
1963
1962
1961
1961
1961
1962
1962
1962
1962
1962
1961
1959
1958
1957
1958
1961
1964
1966
1966
1966
1964
1963
1963
1963
1964
1964
1964
1963
1963
1963
1963
1962
1962
1962
1963
1964
1964
1964
1963
1962
1963
1964
1964
1962
1958
1952
1950
1955
1974
2004
2037
2059
2060
2040
2004
1968
1943
1934
1939
1948
1958
1964
1968
1971
1971
1970
1969
1967
1966
1966
1966
1968
1970
1972
1974
1974
1974
1972
1970
1969
1969
1972
1974
1976
1975
1974
1973
1973
1975
1976
1978
1977
1976
1974
1973
1973
1974
1976
1978
1979
1979
1978
1977
1976
1977
1979
1982
1983
1984
1985
1984
1982
1980
1979
1979
1981
1983
1985
1986
1986
1984
1981
1979
1977
1975
1974
1974
1974
1974
1973
1971
1970
1970
1971
1973
1974
1974
1974
1974
1973
1972
1970
1968
1966
1966
1967
1969
1970
1971
1971
1971
1971
1971
1971
1970
1968
1967
1966
1967
1968
1968
1968
1967
1966
1966
1966
1966
1967
1967
1967
1967
1966
1965
1964
1963
1963
1963
1964
1964
1964
1963
1962
1962
1963
1964
1964
1964
1964
1962
1961
1959
1959
1959
1961
1964
1966
1968
1969
1969
1968
1967
1965
1963
1962
1961
1960
1960
1958
1957
1957
1956
1956
1955
1955
1955
1955
1956
1957
1958
1958
1956
1951
1945
1941
1944
1958
1984
2015
2039
2046
2030
1996
1959
1931
1920
1923
1934
1944
1950
1951
1950
1947
1944
1942
1943
1945
1948
1951
1952
1952
1950
1948
1946
1945
1945
1947
1950
1953
1954
1953
1951
1947
1945
1945
1946
1948
1951
1952
1952
1951
1950
1950
1951
1953
1953
1953
1953
1954
1955
1956
1957
1958
1959
1960
1962
1965
1968
1971
1972
1971
1970
1968
1967
1967
1966
1966
1966
1966
1965
1965
1964
1962
1961
1960
1960
1960
1961
1962
1962
1962
1961
1960
1959
1958
1958
1959
1959
1960
1961
1961
1962
1962
1961
1962
1962
1963
1963
1964
1964
1963
1962
1962
1962
1963
1963
1964
1964
1964
1965
1966
1966
1966
1966
1966
1966
1966
1965
1963
1962
1962
1962
1963
1963
1962
1962
1963
1964
1966
1968
1969
1969
1969
1968
1969
1970
1973
1975
1978
1979
1980
1980
1980
1979
1979
1978
1978
1980
1982
1984
1985
1985
1984
1982
1981
1980
1980
1981
1983
1986
1988
1988
1988
1986
1985
1985
1985
1986
1987
1987
1986
1985
1985
1985
1985
1985
1985
1985
1985
1985
1985
1986
1986
1986
1985
1982
1978
1976
1979
1991
2015
2048
2077
2090
2076
2042
1999
1964
1948
1949
1961
1973
1980
1984
1987
1989
1990
1991
1991
1990
1990
1989
1989
1989
1989
1990
1989
1989
1989
1990
1992
1994
1995
1993
1991
1990
1990
1992
1994
1996
1996
1996
1996
1996
1995
1995
1994
1994
1995
1995
1995
1995
1995
1995
1996
1997
1998
2000
2001
2001
2000
2000
2000
2002
2004
2005
2005
2004
2002
2000
1998
1996
1994
1992
1992
1991
1991
1990
1988
1985
1982
1979
1977
1974
1973
1973
1975
1977
1978
1979
1979
1978
1977
1976
1975
1974
1974
1974
1975
1976
1977
1978
1979
1980
1980
1980
1980
1981
1981
1981
1981
1980
1979
1978
1978
1978
1979
1979
1979
1979
1978
1978
1978
1978
1978
1978
1978
1979
1980
1980
1980
1980
1980
1980
1981
1981
1980
1980
1980
1982
1984
1984
1983
1982
1981
1981
1983
1985
1986
1987
1987
1988
1988
1988
1988
1988
1987
1986
1985
1984
1984
1983
1983
1982
1982
1983
1984
1985
1985
1985
1984
1983
1981
1978
1973
1967
1964
1967
1983
2011
2045
2071
2080
2064
2031
1991
1960
1946
1948
1958
1968
1975
1977
1978
1978
1978
1978
1977
1976
1975
1974
1974
1975
1975
1976
1977
1978
1978
1977
1976
1975
1974
1975
1976
1977
1979
1979
1979
1979
1978
1977
1977
1977
1977
1979
1980
1981
1981
1981
1981
1980
1979
1979
1979
1980
1982
1984
1987
1989
1989
1988
1987
1986
1986
1986
1986
1986
1985
1984
1983
1982
1981
1980
1979
1978
1977
1976
1976
1976
1975
1975
1974
1973
1972
1971
1970
1970
1971
1973
1975
1976
1976
1975
1974
1973
1972
1972
1971
1971
1970
1970
1969
1969
1970
1971
1971
1971
1970
1970
1970
1970
1971
1972
1972
1972
1972
1973
1974
1976
1978
1979
1978
1975
1972
1970
1970
1970
1972
1973
1973
1974
1974
1974
1974
1973
1972
1971
1970
1971
1972
1973
1973
1972
1971
1970
1970
1970
1971
1973
1974
1976
1976
1975
1974
1971
1969
1968
1967
1968
1970
1973
1975
1977
1978
1977
1975
1974
1974
1974
1974
1973
1971
1968
1967
1967
1968
1969
1970
1970
1969
1969
1968
1969
1969
1971
1971
1971
1967
1962
1959
1962
1976
2004
2037
2062
2070
2055
2023
1986
1957
1945
1948
1958
1968
1973
1976
1978
1980
1980
1980
1979
1977
1976
1977
1980
1984
1988
1989
1988
1986
1984
1983
1984
1986
1988
1989
1991
1992
1993
1992
1992
1991
1991
1992
1994
1996
1996
1994
1992
1992
1993
1996
1998
1998
1998
1999
2000
2003
2004
2004
2004
2004
2004
2006
2007
2007
2006
2003
2002
2001
2002
2003
2004
2005
2006
2006
2007
2007
2008
2006
2004
2001
1998
1997
1999
2002
2005
2006
2006
2005
2005
2008
2010
2011
2010
2007
2005
2005
2009
2015
2020
2023
2022
2017
2011
2005
2003
2003
2005
2008
2010
2010
2010
2009
2009
2008
2006
2004
2002
2002
2002
2002
2000
1997
1995
1996
1999
2000
2000
1998
1996
1996
1998
2001
2002
2001
1997
1994
1994
1999
2005
2008
2006
1998
1988
1981
1982
1988
1998
2004
2005
1999
1992
1989
1991
1997
2002
2003
1999
1994
1990
1989
1991
1990
1987
1984
1985
1993
2005
2015
2021
2018
2008
1996
1989
1990
1998
2006
2007
2000
1987
1976
1974
1981
1996
2007
2009
2001
1989
1980
1978
1979
1980
1977
1975
1979
1994
2022
2054
2079
2086
2071
2041
2003
1971
1953
1951
1958
1968
1977
1980
1982
1982
1981
1983
1984
1984
1983
1981
1980
1981
1983
1986
1988
1989
1989
1988
1987
1984
1981
1980
1979
1980
1983
1988
1992
1994
1994
1993
1993
1992
1990
1988
1988
1990
1995
2000
2005
2009
2011
2012
2012
2010
2006
2003
2004
2009
2016
2019
2017
2011
2005
2002
2003
2008
2013
2017
2014
2010
2004
1999
1997
1996
1998
1999
1999
1997
1992
1986
1980
1980
1983
1987
1989
1987
1984
1981
1983
1985
1985
1982
1980
1980
1982
1985
1985
1982
1980
1982
1988
1992
1993
1992
1990
1991
1995
1998
1996
1989
1981
1977
1980
1987
1995
1997
1993
1986
1981
1981
1987
1993
1995
1992
1986
1982
1983
1989
1994
1995
1991
1983
1977
1975
1976
1978
1978
1978
1979
1983
1988
1992
1991
1987
1980
1975
1975
1979
1984
1987
1986
1982
1979
1979
1982
1988
1991
1991
1986
1978
1972
1973
1980
1990
1995
1993
1985
1974
1968
1968
1975
1983
1988
1987
1982
1976
1971
1969
1975
1988
2010
2037
2061
2074
2067
2044
2010
1979
1958
1951
1955
1963
1972
1977
1980
1980
1979
1978
1978
1979
1979
1980
1979
1980
1982
1984
1985
1984
1983
1983
1983
1984
1984
1984
1984
1985
1985
1985
1984
1983
1982
1982
1982
1982
1983
1985
1988
1991
1992
1991
1988
1986
1985
1987
1989
1991
1991
1990
1989
1990
1993
1995
1997
1996
1996
1997
1999
2001
2002
2001
1999
1996
1994
1993
1992
1990
1989
1986
1984
1984
1987
1989
1990
1986
1980
1975
1974
1977
1982
1985
1985
1981
1978
1976
1977
1978
1979
1980
1981
1983
1986
1989
1990
1989
1986
1982
1979
1979
1979
1981
1985
1988
1990
1990
1987
1983
1979
1978
1978
1981
1983
1985
1986
1984
1982
1980
1980
1980
1982
1985
1986
1986
1984
1982
1982
1984
1986
1985
1983
1978
1974
1973
1976
1983
1991
1994
1992
1984
1977
1972
1973
1977
1982
1983
1981
1978
1976
1976
1978
1981
1984
1986
1987
1987
1986
1985
1984
1983
1983
1983
1983
1981
1979
1977
1975
1974
1976
1981
1985
1987
1984
1979
1974
1972
1974
1977
1977
1973
1966
1963
1969
1989
2023
2057
2078
2076
2050
2011
1974
1951
1945
1950
1958
1965
1968
1971
1972
1972
1972
1972
1973
1974
1974
1973
1972
1970
1969
1970
1973
1975
1976
1974
1970
1967
1967
1971
1976
1981
1984
1983
1979
1974
1969
1968
1970
1975
1979
1982
1981
1978
1975
1974
1975
1976
1978
1979
1980
1981
1983
1985
1985
1983
1980
1977
1976
1978
1981
1984
1986
1988
1988
1988
1987
1984
1980
1977
1974
1972
1972
1973
1974
1974
1973
1970
1968
1967
1968
1970
1970
1969
1966
1964
1962
1962
1963
1965
1968
1970
1972
1971
1970
1968
1966
1966
1966
1965
1963
1961
1962
1964
1967
1968
1967
1965
1963
1962
1963
1964
1964
1962
1961
1961
1964
1966
1967
1966
1965
1965
1964
1961
1958
1955
1956
1961
1966
1969
1968
1963
1957
1954
1955
1958
1961
1962
1962
1962
1964
1967
1970
1971
1969
1964
1956
1949
1943
1942
1945
1953
1962
1969
1971
1970
1967
1966
1968
1971
1971
1967
1960
1955
1954
1957
1961
1962
1960
1956
1953
1952
1955
1960
1965
1966
1962
1955
1948
1946
1951
1968
1993
2023
2046
2050
2038
2008
1974
1946
1928
1922
1925
1932
1942
1952
1960
1962
1959
1957
1960
1964
1965
1962
1956
1951
1951
1954
1959
1965
1968
1969
1967
1965
1962
1962
1964
1967
1967
1964
1958
1953
1951
1955
1961
1967
1970
1971
1969
1967
1964
1961
1959
1959
1962
1967
1973
1978
1981
1981
1979
1976
1974
1974
1976
1979
1983
1985
1986
1985
1984
1984
1985
1984
1981
1977
1972
1970
1970
1971
1970
1966
1962
1960
1961
1965
1968
1967
1963
1959
1958
1960
1964
1969
1972
1972
1968
1963
1958
1957
1959
1965
1970
1970
1967
1963
1962
1963
1966
1968
1969
1970
1971
1971
1970
1968
1967
1967
1969
1971
1971
1971
1972
1973
1975
1974
1970
1965
1959
1957
1960
1966
1972
1976
1976
1972
1969
1967
1968
1972
1976
1977
1974
1969
1966
1965
1967
1971
1973
1974
1971
1968
1965
1963
1963
1965
1968
1971
1974
1977
1979
1980
1979
1977
1974
1972
1972
1972
1972
1972
1974
1978
1981
1982
1980
1976
1971
1969
1969
1972
1975
1977
1979
1980
1981
1980
1978
1973
1966
1962
1963
1977
2005
2041
2069
2079
2064
2029
1986
1953
1937
1938
1948
1961
1969
1972
1971
1969
1967
1966
1968
1968
1968
1969
1971
1973
1974
1973
1969
1965
1964
1966
1971
1977
1981
1982
1979
1975
1971
1968
1967
1969
1973
1977
1979
1980
1979
1977
1976
1977
1979
1980
1980
1978
1974
1972
1971
1974
1978
1984
1989
1992
1991
1987
1983
1981
1981
1983
1985
1985
1984
1983
1982
1982
1983
1982
1979
1975
1972
1972
1974
1977
1978
1976
1970
1965
1962
1961
1964
1967
1970
1970
1969
1965
1962
1962
1963
1965
1966
1966
1966
1965
1966
1966
1966
1965
1964
1964
1964
1964
1965
1967
1968
1968
1967
1964
1961
1959
1960
1962
1966
1970
1972
1973
1973
1970
1967
1964
1961
1961
1961
1962
1962
1961
1963
1966
1970
1973
1973
1971
1967
1963
1960
1960
1961
1964
1966
1968
1969
1966
1964
1962
1963
1965
1968
1970
1971
1970
1968
1966
1965
1965
1966
1965
1964
1965
1967
1970
1974
1976
1975
1974
1972
1971
1970
1970
1969
1970
1970
1971
1971
1970
1968
1966
1964
1963
1964
1968
1973
1977
1977
1972
1964
1959
1961
1974
1999
2031
2057
2067
2054
2023
1983
1952
1938
1940
1952
1964
1971
1974
1974
1973
1972
1970
1969
1968
1969
1971
1973
1976
1977
1976
1973
1970
1970
1971
1974
1977
1979
1980
1980
1979
1979
1980
1981
1981
1980
1979
1978
1977
1979
1981
1984
1985
1986
1986
1986
1986
1984
1982
1981
1982
1985
1988
1990
1990
1989
1987
1986
1988
1991
1993
1994
1992
1989
1988
1988
1989
1991
1992
1991
1987
1984
1980
1978
1978
1978
1980
1981
1981
1981
1981
1981
1981
1983
1984
1985
1984
1982
1980
1977
1977
1977
1978
1980
1980
1981
1982
1984
1986
1986
1986
1984
1983
1982
1982
1983
1984
1984
1984
1984
1985
1986
1988
1989
1989
1987
1983
1980
1979
1980
1982
1985
1986
1988
1988
1988
1986
1985
1983
1983
1984
1985
1986
1986
1986
1987
1987
1987
1987
1985
1984
1983
1983
1985
1986
1987
1986
1986
1985
1986
1988
1991
1993
1993
1990
1985
1981
1979
1980
1983
1987
1991
1992
1992
1992
1993
1993
1993
1993
1992
1990
1988
1987
1985
1985
1985
1985
1986
1988
1990
1992
1992
1990
1989
1987
1984
1980
1974
1971
1974
1991
2022
2059
2090
2100
2081
2042
1996
1962
1946
1948
1958
1970
1978
1983
1987
1988
1986
1983
1981
1982
1984
1987
1988
1988
1987
1986
1985
1986
1986
1987
1988
1989
1989
1988
1986
1985
1985
1986
1989
1990
1991
1990
1989
1990
1991
1992
1991
1990
1988
1988
1990
1992
1995
1996
1995
1994
1994
1994
1996
1998
1999
1999
1998
1997
1997
1999
2002
2003
2002
1998
1994
1992
1992
1993
1994
1994
1991
1988
1986
1985
1985
1984
1983
1982
1982
1981
1981
1980
1978
1977
1977
1978
1979
1980
1980
1979
1978
1978
1980
1983
1986
1987
1985
1982
1979
1978
1978
1980
1983
1984
1983
1982
1980
1979
1979
1980
1982
1983
1984
1985
1985
1984
1983
1981
1978
1977
1977
1978
1979
1979
1980
1980
1982
1983
1984
1982
1980
1978
1977
1979
1982
1983
1984
1983
1981
1981
1980
1980
1980
1978
1978
1979
1983
1986
1987
1985
1982
1978
1975
1975
1976
1978
1980
1983
1985
1986
1985
1983
1982
1983
1985
1987
1987
1986
1983
1981
1980
1980
1981
1981
1980
1979
1979
1979
1980
1981
1981
1981
1978
1973
1968
1966
1972
1991
2023
2057
2083
2087
2066
2027
1985
1954
1942
1946
1959
1969
1974
1975
1976
1976
1978
1980
1981
1982
1981
1980
1978
1976
1974
1973
1973
1974
1977
1979
1980
1980
1980
1980
1981
1982
1983
1983
1983
1984
1984
1982
1981
1980
1980
1981
1981
1981
1981
1981
1982
1984
1987
1990
1992
1991
1990
1988
1988
1989
1990
1991
1991
1991
1990
1991
1992
1994
1994
1993
1990
1988
1986
1986
1986
1987
1987
1987
1986
1983
1980
1978
1977
1978
1980
1982
1982
1981
1979
1977
1976
1976
1976
1976
1976
1976
1976
1977
1978
1980
1981
1981
1980
1978
1977
1977
1978
1980
1981
1981
1980
1979
1978
1977
1976
1975
1975
1976
1977
1978
1979
1979
1978
1977
1977
1978
1978
1979
1980
1979
1978
1975
1973
1973
1974
1976
1978
1980
1979
1978
1977
1976
1976
1976
1977
1977
1977
1978
1978
1978
1977
1976
1975
1974
1975
1976
1977
1979
1980
1980
1979
1977
1975
1974
1975
1977
1979
1981
1982
1982
1981
1980
1978
1975
1973
1972
1973
1974
1976
1978
1979
1980
1982
1985
1986
1984
1982
1979
1978
1978
1979
1980
1978
1976
1975
1975
1977
1978
1979
1978
1977
1976
1976
1975
1973
1969
1965
1964
1971
1990
2019
2050
2072
2075
2055
2020
1982
1955
1944
1946
1954
1963
1968
1971
1973
1973
1973
1973
1974
1975
1975
1976
1975
1974
1974
1974
1976
1976
1977
1977
1976
1974
1973
1973
1974
1976
1977
1977
1977
1977
1978
1979
1979
1978
1978
1979
1981
1982
1982
1981
1979
1978
1978
1979
1980
1982
1983
1985
1986
1987
1989
1990
1990
1989
1987
1985
1984
1983
1985
1987
1989
1988
1986
1983
1981
1980
1980
1980
1979
1977
1977
1976
1975
1974
1972
1972
1974
1977
1978
1977
1975
1972
1970
1970
1972
1973
1974
1974
1974
1973
1974
1975
1976
1977
1977
1976
1975
1975
1975
1976
1978
1978
1976
1972
1970
1969
1972
1976
1979
1980
1979
1976
1973
1972
1973
1974
1974
1974
1974
1974
1975
1975
1975
1974
1974
1973
1973
1974
1975
1975
1975
1974
1974
1974
1974
1974
1974
1975
1975
1975
1975
1975
1975
1975
1976
1976
1976
1976
1975
1975
1974
1974
1973
1972
1972
1973
1974
1976
1977
1978
1977
1977
1976
1976
1977
1978
1978
1976
1973
1970
1970
1972
1976
1979
1980
1980
1979
1979
1979
1980
1979
1979
1978
1978
1978
1978
1977
1976
1975
1973
1972
1972
1972
1973
1975
1977
1979
1979
1975
1969
1965
1965
1976
2002
2038
2069
2084
2073
2040
1997
1960
1941
1939
1949
1961
1970
1974
1975
1974
1972
1971
1971
1972
1974
1975
1976
1976
1976
1977
1976
1976
1977
1977
1978
1977
1975
1974
1974
1976
1979
1981
1981
1980
1978
1977
1976
1978
1979
1981
1982
1982
1982
1982
1982
1982
1983
1984
1985
1985
1984
1983
1982
1983
1986
1989
1992
1994
1993
1991
1989
1988
1988
1988
1988
1988
1986
1985
1984
1985
1985
1983
1980
1977
1975
1975
1977
1978
1979
1978
1976
1975
1974
1975
1976
1976
1976
1975
1974
1974
1974
1974
1974
1975
1976
1977
1977
1976
1974
1975
1976
1978
1977
1974
1971
1969
1970
1973
1976
1979
1979
1978
1975
1973
1971
1970
1971
1972
1973
1974
1974
1974
1973
1972
1971
1970
1970
1970
1971
1972
1972
1971
1970
1969
1969
1968
1967
1966
1967
1969
1971
1972
1973
1972
1971
1969
1968
1966
1966
1966
1967
1969
1970
1971
1970
1968
1965
1962
1961
1963
1966
1968
1969
1968
1967
1967
1968
1970
1972
1973
1973
1972
1970
1968
1967
1967
1967
1967
1966
1965
1963
1964
1965
1966
1965
1963
1963
1964
1967
1968
1966
1960
1953
1950
1956
1976
2008
2045
2070
2074
2051
2011
1966
1932
1918
1920
1930
1943
1952
1959
1963
1964
1962
1959
1958
1957
1958
1959
1961
1962
1962
1962
1961
1960
1960
1961
1964
1967
1969
1969
1967
1965
1963
1962
1963
1966
1970
1973
1975
1974
1972
1969
1967
1967
1970
1973
1977
1978
1979
1979
1978
1978
1977
1978
1979
1981
1984
1986
1988
1989
1988
1986
1985
1984
1984
1985
1986
1986
1984
1980
1978
1977
1978
1978
1977
1973
1968
1965
1964
1965
1967
1967
1966
1964
1961
1959
1959
1960
1963
1968
1972
1974
1973
1971
1968
1967
1967
1969
1971
1972
1972
1972
1971
1970
1969
1969
1970
1971
1971
1972
1972
1972
1971
1970
1970
1969
1970
1971
1971
1969
1967
1965
1964
1964
1966
1967
1968
1968
1968
1968
1968
1969
1969
1969
1968
1966
1966
1966
1967
1969
1970
1970
1969
1967
1967
1969
1971
1972
1970
1967
1965
1964
1964
1965
1964
1962
1960
1959
1960
1963
1967
1970
1972
1972
1971
1970
1969
1968
1968
1968
1969
1969
1970
1971
1972
1972
1971
1969
1966
1964
1964
1965
1967
1969
1969
1968
1966
1964
1964
1965
1965
1963
1959
1956
1957
1969
1995
2028
2057
2071
2060
2028
1986
1951
1933
1933
1944
1955
1962
1965
1965
1965
1964
1962
1959
1958
1961
1966
1972
1975
1973
1966
1959
1955
1956
1960
1965
1968
1969
1969
1969
1968
1968
1966
1965
1963
1963
1965
1967
1970
1971
1972
1971
1970
1969
1968
1968
1969
1970
1971
1972
1972
1972
1971
1972
1973
1975
1977
1979
1980
1981
1982
1983
1983
1981
1978
1976
1973
1972
1972
1972
1971
1971
1971
1970
1969
1968
1968
1969
1970
1969
1967
1963
1961
1961
1962
1964
1964
1964
1963
1963
1963
1964
1965
1966
1968
1970
1970
1970
1969
1969
1968
1967
1965
1963
1963
1965
1968
1970
1969
1966
1964
1964
1966
1968
1969
1969
1968
1968
1968
1968
1967
1966
1965
1964
1964
1965
1967
1968
1970
1969
1966
1964
1964
1966
1969
1971
1970
1966
1963
1961
1962
1964
1967
1968
1968
1968
1967
1966
1966
1966
1966
1966
1965
1964
1964
1966
1968
1972
1974
1974
1971
1967
1964
1963
1965
1969
1973
1977
1979
1980
1977
1973
1968
1965
1966
1968
1971
1972
1971
1968
1967
1966
1965
1964
1963
1963
1966
1969
1970
1967
1960
1955
1954
1961
1978
2004
2032
2052
2055
2039
2007
1972
1945
1934
1936
1945
1955
1962
1967
1971
1973
1973
1969
1965
1961
1959
1958
1960
1962
1964
1966
1968
1972
1974
1975
1973
1968
1964
1962
1963
1965
1966
1966
1964
1963
1964
1966
1968
1968
1967
1966
1966
1969
1973
1974
1971
1967
1963
1962
1964
1967
1969
1969
1968
1966
1965
1965
1968
1972
1975
1978
1978
1977
1975
1974
1973
1973
1972
1968
1964
1961
1960
1962
1964
1965
1964
1962
1961
1962
1963
1962
1960
1958
1957
1959
1962
1965
1965
1962
1957
1955
1955
1959
1963
1967
1968
1968
1967
1966
1965
1962
1958
1955
1954
1955
1959
1963
1966
1968
1967
1966
1963
1961
1958
1956
1955
1956
1957
1959
1963
1966
1967
1968
1966
1964
1961
1959
1958
1957
1957
1958
1958
1958
1958
1957
1958
1959
1960
1960
1958
1954
1951
1951
1954
1959
1964
1966
1965
1962
1960
1959
1960
1962
1962
1961
1959
1959
1959
1959
1960
1959
1959
1959
1960
1960
1958
1955
1952
1950
1950
1953
1957
1959
1960
1958
1955
1951
1947
1942
1940
1944
1961
1991
2027
2054
2061
2042
2003
1959
1925
1909
1909
1919
1929
1938
1943
1948
1951
1953
1953
1952
1951
1951
1952
1953
1954
1955
1954
1952
1951
1951
1951
1950
1949
1948
1949
1950
1952
1953
1953
1953
1956
1960
1964
1965
1964
1961
1958
1958
1959
1959
1958
1955
1953
1952
1955
1960
1966
1971
1973
1972
1970
1969
1972
1976
1979
1979
1976
1972
1970
1972
1975
1976
1974
1969
1966
1965
1966
1967
1966
1963
1960
1958
1959
1961
1963
1963
1962
1958
1955
1953
1953
1954
1956
1957
1956
1955
1956
1957
1959
1961
1961
1960
1959
1960
1961
1963
1964
1964
1964
1963
1961
1959
1959
1960
1962
1964
1965
1963
1961
1959
1960
1962
1964
1964
1963
1962
1962
1963
1965
1966
1966
1965
1964
1963
1963
1962
1961
1962
1963
1966
1968
1970
1971
1971
1970
1969
1970
1970
1970
1971
1971
1971
1971
1972
1971
1971
1970
1970
1970
1970
1969
1968
1966
1966
1967
1969
1971
1971
1968
1962
1958
1958
1968
1992
2026
2058
2076
2069
2038
1995
1956
1935
1931
1939
1950
1959
1965
1971
1975
1977
1976
1973
1971
1973
1977
1981
1983
1982
1979
1976
1975
1975
1977
1979
1981
1982
1982
1982
1980
1980
1981
1985
1989
1993
1995
1994
1990
1986
1983
1982
1984
1987
1989
1991
1991
1992
1995
1997
1999
1999
1999
1999
2001
2004
2008
2010
2011
2010
2009
2008
2008
2008
2007
2005
2003
2002
2001
2001
2002
2001
2000
1997
1994
1992
1990
1988
1987
1987
1988
1989
1992
1994
1995
1994
1993
1991
1989
1987
1986
1985
1985
1987
1990
1994
1996
1997
1995
1993
1992
1992
1993
1993
1996
1998
1998
1996
1993
1989
1987
1989
1993
1998
2001
2001
1998
1995
1991
1987
1983
1981
1981
1983
1988
1994
1998
1998
1995
1990
1986
1985
1988
1991
1993
1992
1989
1986
1985
1983
1983
1984
1987
1992
1996
1996
1993
1988
1985
1987
1991
1995
1995
1990
1985
1981
1982
1984
1985
1984
1983
1982
1984
1987
1988
1986
1981
1976
1977
1986
2007
2036
2063
2079
2075
2051
2015
1979
1955
1948
1954
1968
1981
1987
1989
1986
1983
1982
1984
1988
1992
1993
1993
1991
1989
1988
1989
1990
1992
1994
1994
1993
1992
1990
1988
1986
1985
1985
1987
1992
1998
2003
2004
2001
1997
1994
1994
1997
2002
2006
2007
2005
2001
1999
1999
2003
2008
2013
2017
2019
2020
2020
2018
2017
2015
2014
2015
2016
2018
2019
2020
2020
2020
2018
2016
2013
2011
2010
2008
2005
2002
1999
1999
2001
2003
2004
2005
2006
2007
2008
2009
2008
2005
2001
1997
1996
1998
2001
2005
2008
2010
2010
2009
2005
2001
2000
2003
2008
2012
2013
2011
2008
2007
2007
2008
2006
2004
2004
2007
2011
2012
2010
2006
2003
2002
2004
2006
2009
2009
2007
2004
2000
1998
1998
2000
2003
2005
2006
2006
2003
1998
1993
1990
1992
1998
2005
2008
2007
2004
2002
2003
2007
2009
2008
2002
1995
1993
1997
2004
2010
2011
2005
1998
1992
1990
1992
1993
1994
1993
1991
1989
1989
1992
1997
2001
2003
2000
1992
1984
1981
1991
2017
2054
2088
2104
2092
2055
2009
1971
1953
1957
1973
1990
2001
2003
2001
1997
1996
1997
1999
1999
1998
1997
1999
2003
2007
2008
2004
1998
1995
1997
2004
2011
2014
2013
2010
2005
2002
2001
2003
2007
2010
2012
2013
2013
2012
2010
2008
2006
2005
2006
2011
2017
2024
2029
2030
2027
2023
2020
2019
2020
2023
2026
2028
2030
2030
2028
2026
2024
2024
2026
2029
2031
2031
2028
2024
2021
2020
2020
2021
2021
2021
2019
2016
2012
2009
2009
2012
2017
2020
2021
2018
2016
2015
2015
2014
2012
2009
2008
2009
2014
2020
2024
2025
2022
2018
2013
2010
2008
2008
2008
2010
2010
2011
2012
2013
2014
2014
2014
2013
2011
2010
2008
2007
2006
2006
2007
2007
2008
2008
2007
2005
2003
2001
2000
2001
2003
2006
2008
2009
2006
2003
2000
1999
1999
1999
1999
1998
1998
2001
2004
2008
2008
2005
2001
1997
1995
1995
1995
1994
1993
1991
1988
1986
1984
1983
1985
1987
1989
1990
1989
1987
1986
1983
1978
1972
1968
1973
1995
2029
2065
2087
2083
2053
2012
1972
1949
1943
1949
1957
1963
1966
1970
1975
1981
1987
1991
1992
1991
1987
1984
1982
1980
1978
1978
1978
1979
1980
1981
1981
1981
1983
1985
1987
1989
1989
1988
1985
1984
1982
1982
1982
1981
1980
1978
1977
1977
1979
1983
1987
1990
1991
1991
1992
1992
1992
1992
1991
1991
1991
1991
1990
1989
1989
1991
1995
2000
2002
2001
1995
1988
1981
1977
1977
1978
1982
1984
1984
1981
1976
1972
1971
1971
1972
1972
1971
1971
1971
1972
1973
1972
1971
1970
1970
1970
1970
1971
1974
1977
1979
1980
1977
1974
1972
1974
1978
1981
1980
1976
1971
1967
1967
1970
1975
1980
1982
1982
1979
1975
1973
1971
1972
1974
1977
1977
1975
1970
1965
1963
1965
1968
1971
1973
1974
1974
1975
1976
1977
1976
1974
1973
1972
1971
1969
1967
1966
1967
1970
1972
1973
1972
1970
1968
1966
1965
1965
1965
1966
1967
1970
1970
1967
1961
1953
1950
1957
1981
2018
2053
2073
2066
2034
1987
1945
1919
1913
1921
1935
1948
1957
1965
1969
1971
1969
1965
1962
1961
1961
1963
1965
1967
1967
1966
1965
1964
1965
1967
1969
1970
1970
1970
1970
1972
1973
1975
1975
1974
1973
1971
1970
1970
1970
1970
1971
1973
1976
1979
1980
1980
1978
1978
1979
1982
1986
1989
1990
1991
1991
1991
1991
1991
1991
1991
1991
1990
1988
1988
1988
1990
1992
1991
1988
1983
1979
1975
1973
1972
1972
1974
1977
1980
1979
1976
1971
1967
1966
1968
1973
1978
1981
1980
1977
1972
1969
1969
1972
1977
1980
1981
1981
1981
1982
1983
1983
1982
1980
1978
1978
1979
1981
1982
1982
1980
1977
1976
1977
1979
1982
1985
1985
1983
1981
1979
1979
1979
1979
1979
1980
1981
1983
1985
1986
1986
1985
1983
1982
1982
1982
1985
1987
1989
1989
1986
1982
1979
1977
1979
1981
1983
1985
1984
1982
1979
1978
1979
1981
1981
1979
1974
1972
1975
1990
2017
2049
2075
2081
2063
2028
1987
1956
1942
1943
1953
1965
1973
1978
1980
1980
1977
1975
1976
1978
1980
1980
1980
1979
1979
1980
1980
1977
1974
1971
1972
1975
1980
1984
1985
1984
1983
1982
1981
1980
1976
1973
1971
1972
1976
1981
1984
1985
1984
1983
1983
1984
1985
1984
1983
1982
1985
1991
1997
2000
1999
1994
1989
1989
1993
1999
2003
2004
2002
2000
1998
1997
1997
1995
1992
1989
1986
1985
1984
1985
1986
1987
1988
1988
1988
1988
1986
1983
1980
1980
1981
1985
1987
1989
1989
1988
1986
1983
1979
1977
1978
1982
1988
1992
1992
1990
1989
1988
1988
1988
1986
1983
1981
1983
1988
1993
1996
1996
1993
1990
1988
1987
1988
1989
1989
1989
1989
1989
1990
1992
1993
1992
1990
1988
1987
1988
1990
1991
1992
1990
1988
1985
1985
1985
1988
1990
1991
1991
1989
1986
1982
1980
1981
1983
1986
1987
1987
1985
1981
1976
1971
1967
1966
1970
1977
1984
1987
1983
1974
1963
1958
1965
1986
2018
2051
2072
2070
2044
2003
1963
1939
1934
1946
1962
1974
1979
1980
1979
1977
1977
1978
1978
1977
1973
1970
1970
1973
1979
1984
1985
1982
1976
1971
1970
1973
1978
1984
1986
1984
1979
1976
1975
1979
1982
1982
1979
1974
1973
1978
1985
1991
1992
1988
1981
1973
1970
1970
1975
1984
1992
1997
1998
1994
1988
1983
1983
1987
1992
1995
1992
1985
1980
1979
1985
1993
1999
1998
1991
1981
1971
1964
1962
1966
1974
1982
1986
1985
1979
1973
1972
1974
1978
1980
1979
1978
1978
1981
1984
1984
1982
1977
1975
1977
1982
1988
1991
1988
1981
1975
1974
1980
1988
1993
1992
1986
1978
1974
1975
1979
1985
1990
1993
1994
1994
1991
1987
1983
1981
1980
1981
1983
1985
1985
1984
1982
1982
1983
1987
1990
1989
1984
1976
1970
1969
1974
1982
1989
1992
1991
1986
1981
1979
1980
1984
1988
1990
1989
1986
1983
1980
1977
1973
1968
1966
1971
1980
1990
1995
1993
1985
1975
1966
1960
1956
1954
1954
1957
1961
1964
1967
1971
1985
2010
2042
2064
2069
2048
2010
1965
1930
1912
1911
1923
1941
1957
1966
1967
1962
1956
1953
1953
1954
1950
1944
1939
1940
1949
1963
1974
1978
1973
1964
1955
1953
1955
1963
1972
1976
1973
1964
1953
1946
1947
1955
1965
1973
1976
1974
1968
1963
1961
1961
1964
1968
1970
1971
1969
1967
1966
1967
1970
1973
1976
1977
1977
1976
1979
1983
1989
1990
1986
1979
1971
1966
1966
1969
1973
1977
1978
1975
1970
1962
1955
1952
1953
1956
1959
1962
1962
1962
1962
1960
1955
1948
1943
1939
1941
1947
1957
1965
1967
1961
1951
1944
1943
1948
1955
1959
1960
1958
1955
1953
1952
1952
1953
1954
1954
1954
1953
1950
1948
1945
1943
1943
1945
1950
1955
1958
1956
1951
1947
1945
1945
1946
1947
1948
1950
1950
1946
1942
1941
1944
1951
1958
1961
1959
1953
1947
1943
1941
1941
1942
1946
1950
1953
1952
1948
1944
1943
1946
1950
1952
1949
1944
1940
1938
1939
1940
1942
1945
1952
1970
1996
2021
2033
2027
2003
1970
1943
1929
1926
1927
1928
1929
1932
1942
1955
1963
1963
1956
1948
1942
1944
1950
1956
1960
1959
1955
1951
1948
1950
1956
1962
1966
1966
1962
1956
1952
1952
1958
1966
1971
1969
1961
1953
1949
1953
1962
1971
1976
1975
1970
1965
1962
1963
1966
1970
1974
1976
1974
1969
1965
1964
1966
1969
1972
1975
1980
1986
1991
1990
1983
1973
1965
1964
1968
1975
1978
1977
1972
1966
1961
1959
1959
1963
1967
1970
1969
1964
1958
1954
1954
1955
1956
1959
1962
1967
1971
1974
1974
1970
1965
1961
1957
1956
1956
1960
1966
1971
1974
1973
1967
1961
1957
1957
1961
1967
1971
1972
1968
1961
1955
1953
1958
1966
1975
1980
1979
1975
1969
1963
1958
1955
1955
1957
1961
1967
1971
1972
1970
1968
1967
1968
1972
1974
1974
1969
1963
1959
1960
1967
1976
1982
1981
1976
1968
1964
1964
1967
1969
1968
1965
1963
1964
1967
1970
1972
1971
1969
1965
1960
1955
1952
1956
1969
1995
2028
2056
2069
2059
2029
1989
1955
1937
1935
1944
1955
1964
1968
1970
1971
1970
1968
1965
1962
1961
1963
1966
1968
1969
1967
1965
1963
1963
1964
1966
1969
1972
1975
1977
1975
1972
1968
1966
1967
1970
1973
1976
1976
1975
1973
1971
1971
1974
1977
1978
1975
1971
1968
1970
1976
1983
1988
1989
1985
1981
1979
1981
1984
1985
1984
1981
1979
1979
1982
1985
1987
1988
1987
1985
1981
1977
1971
1966
1962
1962
1964
1968
1973
1976
1977
1976
1973
1970
1968
1966
1966
1966
1968
1970
1971
1971
1969
1967
1966
1966
1968
1972
1974
1974
1972
1970
1969
1968
1968
1968
1969
1970
1970
1970
1970
1969
1969
1969
1970
1973
1975
1976
1975
1970
1965
1961
1961
1965
1971
1976
1977
1973
1967
1961
1958
1960
1965
1971
1976
1979
1979
1978
1976
1974
1970
1967
1963
1963
1965
1970
1973
1972
1967
1962
1960
1962
1966
1970
1971
1971
1969
1968
1966
1965
1963
1961
1959
1957
1955
1957
1965
1986
2019
2053
2072
2065
2032
1986
1947
1926
1925
1936
1948
1955
1956
1956
1956
1956
1956
1958
1963
1969
1973
1973
1970
1965
1960
1957
1958
1962
1966
1968
1967
1967
1968
1970
1971
1968
1965
1963
1965
1971
1976
1978
1975
1969
1965
1965
1966
1967
1966
1964
1963
1968
1976
1986
1993
1995
1990
1983
1977
1975
1977
1981
1987
1990
1989
1985
1981
1980
1982
1988
1993
1993
1987
1979
1971
1968
1970
1973
1975
1975
1973
1969
1965
1962
1960
1960
1962
1964
1962
1959
1956
1957
1961
1968
1974
1977
1977
1973
1966
1956
1949
1947
1952
1960
1966
1965
1960
1955
1957
1967
1978
1982
1974
1960
1947
1945
1955
1971
1984
1986
1978
1963
1951
1950
1958
1967
1970
1965
1957
1956
1966
1982
1991
1986
1970
1955
1951
1962
1979
1988
1985
1972
1956
1949
1955
1970
1988
2002
2008
2004
1994
1985
1978
1973
1972
1975
1978
1979
1977
1971
1965
1962
1967
1980
1998
2008
2002
1980
1955
1943
1957
1999
2055
2106
2127
2108
2055
1993
1945
1928
1941
1970
1994
1998
1985
1966
1953
1952
1961
1974
1986
1994
1997
1994
1986
1974
1962
1955
1959
1970
1984
1993
1994
1990
1983
1978
1978
1979
1980
1982
1982
1981
1979
1976
1975
1975
1977
1981
1986
1990
1993
1995
1995
1992
1986
1981
1980
1982
1988
1997
2003
2005
2002
1997
1993
1993
1998
2004
2009
2010
2006
2000
1995
1991
1987
1984
1982
1984
1988
1993
1996
1994
1989
1985
1984
1985
1987
1989
1990
1990
1989
1986
1981
1978
1978
1983
1991
1997
2001
2002
1998
1992
1983
1976
1972
1973
1979
1987
1992
1993
1991
1987
1984
1983
1983
1985
1987
1987
1983
1977
1971
1968
1970
1975
1982
1986
1985
1980
1972
1967
1966
1970
1976
1981
1984
1983
1980
1977
1976
1975
1973
1971
1969
1969
1970
1971
1972
1971
1972
1975
1981
1985
1987
1985
1981
1977
1975
1974
1973
1973
1973
1973
1973
1973
1973
1973
1974
1974
1973
1971
1970
1970
1969
1966
1960
1954
1952
1959
1978
2011
2048
2075
2080
2059
2020
1975
1943
1931
1935
1948
1958
1962
1960
1959
1959
1962
1968
1973
1974
1972
1968
1963
1961
1962
1965
1968
1971
1972
1972
1970
1967
1965
1964
1964
1964
1965
1966
1967
1968
1970
1971
1970
1967
1965
1965
1969
1974
1979
1980
1979
1976
1973
1971
1971
1973
1976
1979
1982
1985
1986
1986
1985
1983
1982
1982
1984
1986
1985
1984
1981
1979
1978
1978
1977
1976
1975
1974
1974
1974
1974
1973
1971
1969
1968
1967
1966
1965
1964
1963
1962
1961
1959
1960
1962
1965
1968
1969
1968
1965
1964
1963
1965
1966
1967
1967
1965
1964
1963
1963
1962
1960
1958
1958
1959
1960
1962
1963
1963
1963
1963
1963
1962
1959
1956
1955
1957
1961
1965
1967
1967
1965
1963
1961
1960
1960
1961
1962
1963
1963
1964
1964
1964
1964
1964
1964
1964
1965
1966
1967
1967
1965
1963
1959
1957
1957
1960
1965
1970
1972
1971
1969
1969
1970
1973
1976
1977
1976
1974
1971
1969
1967
1966
1966
1966
1966
1966
1967
1967
1968
1969
1970
1970
1969
1965
1960
1955
1955
1965
1989
2026
2062
2083
2076
2043
1993
1948
1921
1917
1929
1946
1959
1966
1968
1969
1968
1966
1966
1966
1969
1971
1973
1975
1975
1975
1975
1975
1976
1976
1976
1976
1976
1978
1979
1980
1981
1982
1982
1982
1983
1983
1984
1984
1982
1981
1981
1982
1984
1987
1988
1988
1988
1988
1990
1993
1995
1996
1996
1997
1999
2001
2002
2002
2000
1996
1994
1994
1996
1999
2002
2003
2001
1999
1997
1995
1994
1993
1992
1992
1991
1990
1988
1987
1985
1984
1983
1983
1983
1984
1984
1985
1985
1985
1986
1986
1987
1988
1987
1987
1987
1987
1988
1987
1986
1983
1981
1981
1983
1985
1987
1987
1986
1984
1984
1984
1985
1985
1983
1981
1980
1980
1981
1982
1982
1981
1980
1978
1978
1978
1979
1980
1981
1981
1980
1979
1978
1978
1978
1979
1979
1979
1979
1977
1975
1972
1970
1968
1968
1970
1973
1978
1982
1985
1986
1984
1982
1981
1981
1981
1980
1979
1976
1973
1971
1969
1968
1969
1970
1972
1973
1972
1970
1969
1968
1966
1963
1957
1953
1955
1969
1998
2036
2067
2079
2065
2028
1983
1946
1928
1928
1938
1950
1959
1963
1965
1965
1965
1966
1967
1968
1968
1967
1965
1962
1960
1960
1962
1966
1970
1972
1972
1969
1966
1963
1962
1963
1965
1967
1968
1968
1968
1968
1969
1970
1970
1971
1971
1971
1972
1972
1971
1971
1970
1970
1970
1970
1971
1972
1974
1976
1976
1975
1972
1970
1970
1972
1975
1977
1977
1975
1971
1968
1966
1965
1964
1963
1961
1959
1957
1956
1956
1955
1953
1951
1950
1950
1952
1954
1955
1954
1951
1950
1949
1949
1950
1951
1953
1954
1955
1955
1955
1953
1951
1949
1948
1949
1951
1955
1958
1960
1959
1958
1956
1954
1952
1951
1950
1950
1950
1951
1952
1952
1951
1950
1948
1948
1948
1951
1954
1955
1955
1953
1950
1949
1950
1950
1949
1949
1949
1949
1951
1953
1954
1953
1951
1950
1949
1948
1948
1948
1949
1950
1951
1951
1949
1947
1946
1945
1947
1950
1952
1953
1953
1952
1951
1951
1952
1953
1953
1952
1949
1947
1945
1945
1945
1946
1947
1948
1948
1949
1949
1949
1949
1948
1949
1948
1946
1941
1935
1934
1941
1963
1999
2040
2067
2069
2041
1993
1944
1911
1900
1907
1920
1933
1941
1946
1950
1951
1949
1946
1943
1942
1944
1947
1950
1951
1950
1949
1948
1947
1947
1947
1947
1947
1947
1949
1950
1952
1954
1955
1956
1956
1956
1955
1955
1954
1954
1954
1955
1956
1957
1960
1962
1963
1962
1962
1961
1962
1963
1966
1968
1970
1970
1970
1969
1968
1968
1967
1967
1967
1968
1971
1974
1976
1973
1969
1964
1961
1960
1961
1961
1961
1960
1958
1957
1957
1957
1957
1957
1957
1957
1958
1958
1958
1958
1959
1959
1958
1958
1958
1959
1960
1961
1962
1962
1962
1962
1963
1963
1963
1962
1963
1963
1964
1965
1964
1963
1962
1962
1962
1963
1964
1965
1965
1964
1963
1961
1961
1963
1965
1967
1968
1966
1963
1961
1961
1962
1964
1965
1966
1966
1967
1967
1967
1966
1965
1963
1962
1962
1963
1964
1966
1966
1965
1964
1964
1966
1969
1971
1972
1972
1972
1972
1972
1970
1969
1968
1967
1968
1969
1969
1968
1967
1966
1966
1966
1966
1967
1968
1970
1971
1969
1962
1953
1947
1950
1969
2005
2048
2084
2094
2071
2024
1971
1931
1916
1923
1941
1958
1966
1968
1967
1964
1961
1959
1959
1961
1963
1966
1968
1969
1969
1968
1966
1965
1965
1965
1966
1968
1970
1970
1969
1968
1966
1966
1967
1970
1973
1974
1974
1973
1972
1971
1971
1972
1973
1974
1975
1975
1974
1974
1973
1974
1975
1977
1980
1982
1983
1983
1983
1984
1984
1984
1983
1982
1980
1979
1979
1978
1978
1977
1976
1975
1974
1972
1971
1970
1970
1971
1970
1970
1968
1966
1965
1965
1965
1966
1967
1968
1967
1966
1965
1964
1965
1966
1968
1970
1970
1970
1970
1970
1970
1971
1971
1970
1970
1969
1969
1969
1970
1972
1972
1972
1971
1970
1969
1969
1969
1969
1970
1970
1971
1971
1971
1971
1972
1973
1974
1974
1973
1972
1972
1972
1973
1974
1974
1974
1974
1975
1975
1975
1975
1975
1975
1975
1977
1978
1978
1977
1977
1977
1977
1976
1975
1974
1973
1974
1976
1979
1980
1981
1981
1980
1979
1979
1979
1980
1981
1981
1980
1979
1978
1977
1977
1977
1977
1976
1976
1976
1976
1977
1978
1976
1972
1966
1962
1964
1980
2012
2050
2081
2091
2074
2035
1990
1956
1940
1943
1954
1966
1972
1975
1975
1975
1973
1972
1971
1971
1973
1975
1978
1979
1978
1977
1975
1974
1974
1976
1978
1979
1980
1980
1979
1978
1978
1980
1981
1983
1984
1984
1984
1984
1984
1984
1985
1986
1986
1987
1987
1988
1989
1990
1991
1991
1990
1990
1990
1991
1992
1994
1995
1996
1996
1995
1994
1994
1994
1994
1994
1995
1995
1994
1994
1993
1991
1989
1987
1985
1985
1986
1987
1987
1987
1985
1984
1984
1984
1985
1986
1987
1987
1987
1987
1986
1984
1984
1984
1985
1986
1987
1988
1988
1988
1988
1987
1986
1985
1984
1983
1983
1983
1983
1984
1984
1985
1985
1985
1985
1985
1984
1983
1983
1983
1984
1985
1986
1986
1986
1986
1986
1985
1985
1985
1985
1985
1986
1986
1986
1987
1987
1987
1986
1986
1985
1984
1983
1983
1984
1986
1988
1990
1992
1992
1993
1993
1993
1993
1993
1992
1991
1990
1988
1987
1986
1987
1988
1989
1990
1990
1990
1989
1988
1988
1989
1990
1989
1986
1981
1976
1976
1985
2007
2039
2070
2089
2086
2059
2019
1982
1960
1956
1964
1975
1984
1986
1987
1987
1987
1989
1990
1992
1992
1992
1992
1991
1990
1991
1992
1993
1994
1995
1994
1992
1991
1990
1990
1992
1994
1996
1997
1996
1995
1994
1993
1994
1995
1996
1997
1997
1997
1997
1997
1997
1996
1996
1996
1997
1997
1998
1999
2000
2001
2001
2001
2000
1999
1999
1999
2000
2001
2001
2001
1999
1997
1995
1993
1992
1990
1990
1989
1989
1988
1987
1986
1985
1984
1984
1984
1984
1984
1985
1985
1984
1984
1983
1982
1982
1983
1983
1984
1984
1984
1983
1982
1981
1980
1980
1981
1982
1984
1984
1984
1984
1983
1983
1983
1984
1985
1985
1985
1985
1983
1982
1982
1983
1984
1985
1986
1988
1988
1988
1987
1985
1984
1983
1984
1985
1986
1987
1986
1985
1984
1984
1984
1986
1988
1991
1993
1994
1994
1994
1993
1992
1990
1988
1987
1987
1988
1989
1990
1990
1989
1987
1985
1984
1984
1984
1985
1987
1987
1985
1979
1971
1968
1974
1995
2029
2064
2087
2086
2059
2016
1973
1945
1936
1944
1958
1971
1977
1980
1980
1979
1978
1977
1977
1978
1979
1981
1981
1981
1981
1980
1979
1978
1978
1977
1977
1978
1980
1982
1984
1984
1983
1981
1980
1979
1980
1982
1983
1984
1984
1984
1984
1984
1984
1984
1984
1985
1985
1986
1988
1990
1992
1994
1995
1995
1995
1994
1994
1994
1994
1994
1994
1994
1995
1995
1995
1993
1992
1990
1989
1987
1984
1981
1978
1977
1978
1979
1979
1980
1979
1977
1976
1975
1976
1976
1977
1978
1977
1977
1977
1978
1978
1978
1978
1978
1978
1978
1978
1977
1976
1976
1976
1977
1978
1979
1979
1979
1979
1979
1979
1979
1977
1976
1974
1973
1972
1973
1975
1976
1978
1978
1978
1977
1975
1974
1973
1973
1974
1976
1978
1979
1980
1980
1980
1979
1979
1979
1979
1980
1979
1978
1976
1974
1974
1974
1976
1978
1978
1978
1976
1976
1976
1976
1977
1977
1975
1972
1967
1964
1965
1978
2004
2037
2067
2079
2065
2031
1987
1951
1935
1937
1949
1962
1970
1972
1973
1973
1973
1973
1974
1974
1975
1975
1976
1976
1975
1975
1975
1976
1977
1978
1977
1977
1976
1976
1977
1979
1981
1983
1983
1983
1982
1981
1980
1979
1980
1980
1981
1982
1982
1983
1983
1982
1982
1982
1983
1984
1986
1987
1987
1986
1986
1985
1985
1985
1985
1985
1984
1984
1984
1983
1983
1981
1980
1978
1976
1975
1974
1973
1973
1972
1971
1970
1969
1968
1968
1968
1968
1967
1967
1967
1967
1968
1967
1966
1965
1965
1966
1968
1970
1971
1970
1969
1967
1966
1966
1967
1968
1969
1969
1969
1969
1968
1968
1968
1968
1968
1969
1969
1969
1969
1968
1967
1966
1965
1965
1966
1967
1968
1969
1969
1969
1968
1967
1965
1963
1962
1963
1965
1968
1971
1973
1974
1973
1971
1969
1968
1968
1969
1971
1971
1971
1969
1968
1968
1969
1970
1971
1971
1971
1971
1970
1969
1969
1970
1969
1965
1959
1955
1956
1968
1995
2030
2061
2074
2061
2027
1982
1945
1927
1928
1940
1952
1961
1964
1966
1967
1968
1969
1969
1968
1967
1967
1967
1968
1968
1969
1970
1971
1971
1971
1970
1970
1969
1970
1971
1972
1973
1973
1973
1973
1973
1973
1973
1974
1974
1975
1977
1978
1979
1979
1978
1977
1976
1977
1979
1982
1984
1985
1986
1985
1985
1985
1985
1986
1987
1988
1989
1990
1989
1988
1986
1983
1981
1979
1978
1976
1975
1974
1973
1972
1971
1970
1969
1969
1969
1970
1971
1972
1972
1971
1970
1969
1969
1969
1969
1970
1971
1971
1971
1971
1971
1971
1972
1972
1972
1973
1973
1973
1973
1973
1972
1971
1970
1970
1971
1973
1974
1975
1974
1973
1971
1970
1970
1971
1971
1972
1972
1972
1972
1972
1972
1971
1971
1971
1971
1972
1972
1973
1973
1972
1971
1970
1968
1968
1968
1970
1973
1976
1977
1977
1976
1975
1975
1976
1977
1977
1976
1975
1973
1973
1973
1973
1972
1972
1971
1972
1972
1974
1974
1974
1973
1971
1968
1962
1958
1958
1968
1993
2028
2062
2083
2077
2047
2002
1961
1936
1932
1942
1955
1966
1970
1971
1970
1969
1969
1970
1972
1973
1974
1973
1972
1970
1970
1970
1971
1973
1975
1976
1976
1975
1975
1974
1973
1972
1972
1973
1974
1975
1977
1979
1980
1979
1978
1977
1976
1976
1976
1977
1979
1980
1982
1983
1983
1983
1983
1983
1984
1984
1985
1986
1986
1987
1988
1988
1988
1988
1988
1988
1987
1986
1985
1983
1981
1980
1979
1979
1979
1978
1977
1976
1974
1972
1970
1968
1968
1969
1970
1972
1973
1972
1971
1970
1969
1969
1969
1970
1970
1969
1969
1969
1969
1970
1971
1970
1969
1969
1969
1969
1970
1970
1970
1968
1967
1966
1967
1968
1969
1971
1972
1971
1970
1968
1967
1968
1968
1969
1969
1969
1967
1966
1966
1965
1965
1966
1967
1967
1967
1968
1968
1968
1968
1966
1965
1965
1965
1966
1967
1969
1969
1969
1969
1969
1969
1969
1970
1971
1972
1972
1971
1970
1968
1966
1965
1964
1963
1963
1963
1963
1964
1965
1967
1969
1970
1970
1970
1970
1969
1970
1969
1969
1968
1967
1966
1965
1965
1965
1966
1967
1968
1968
1968
1967
1967
1967
1967
1964
1958
1954
1955
1966
1992
2027
2059
2075
2066
2035
1992
1955
1934
1932
1942
1954
1961
1964
1965
1964
1963
1962
1962
1963
1964
1964
1965
1966
1967
1968
1969
1968
1967
1965
1964
1963
1964
1965
1966
1967
1967
1967
1968
1967
1966
1965
1964
1964
1965
1966
1967
1968
1968
1968
1968
1969
1970
1970
1969
1968
1968
1968
1970
1971
1973
1973
1973
1972
1972
1972
1973
1973
1974
1974
1973
1972
1971
1970
1969
1968
1968
1967
1966
1964
1962
1960
1959
1959
1959
1960
1961
1961
1960
1959
1959
1959
1959
1959
1959
1959
1960
1960
1962
1962
1962
1961
1960
1959
1959
1959
1960
1961
1961
1961
1960
1960
1960
1960
1960
1961
1963
1964
1964
1963
1961
1960
1958
1958
1959
1960
1961
1962
1962
1961
1961
1960
1960
1960
1960
1960
1960
1959
1959
1958
1958
1958
1959
1960
1961
1961
1961
1960
1960
1960
1960
1960
1959
1959
1960
1961
1961
1961
1961
1960
1960
1960
1959
1959
1958
1958
1958
1959
1961
1963
1964
1965
1964
1964
1965
1966
1967
1968
1967
1966
1964
1961
1960
1960
1961
1963
1964
1964
1965
1965
1964
1964
1964
1962
1959
1954
1950
1950
1959
1980
2013
2048
2069
2067
2039
1996
1953
1926
1920
1928
1942
1954
1959
1963
1964
1965
1964
1963
1963
1964
1966
1967
1968
1967
1967
1967
1968
1969
1970
1969
1969
1968
1967
1967
1967
1968
1969
1971
1973
1974
1974
1973
1973
1972
1973
1974
1976
1977
1978
1978
1978
1977
1978
1979
1981
1982
1983
1984
1985
1985
1986
1986
1986
1985
1985
1986
1987
1989
1989
1989
1988
1986
1983
1981
1979
1978
1978
1978
1977
1976
1975
1973
1972
1971
1971
1971
1972
1974
1975
1975
1974
1972
1969
1968
1968
1970
1973
1975
1975
1975
1974
1973
1973
1974
1974
1973
1974
1975
1977
1978
1977
1976
1975
1974
1974
1975
1975
1975
1975
1974
1974
1973
1973
1972
1973
1974
1976
1978
1979
1979
1978
1977
1977
1976
1975
1975
1975
1975
1976
1976
1976
1975
1974
1973
1973
1973
1974
1975
1975
1974
1973
1972
1971
1971
1973
1974
1975
1975
1974
1974
1974
1974
1975
1976
1976
1975
1975
1975
1975
1975
1975
1973
1972
1971
1970
1971
1973
1975
1976
1977
1975
1973
1970
1969
1970
1973
1977
1980
1982
1982
1981
1979
1978
1977
1977
1977
1977
1976
1974
1972
1972
1972
1973
1974
1976
1977
1977
1977
1977
1977
1976
1972
1965
1959
1957
1965
1988
2023
2058
2082
2081
2054
2012
1972
1946
1939
1947
1959
1968
1971
1971
1970
1969
1969
1970
1972
1973
1974
1975
1974
1973
1972
1971
1971
1971
1972
1973
1974
1976
1976
1976
1974
1973
1972
1972
1973
1975
1976
1977
1976
1976
1975
1975
1975
1976
1977
1977
1978
1979
1980
1981
1980
1979
1978
1978
1980
1983
1986
1988
1989
1989
1987
1986
1985
1984
1984
1984
1984
1983
1982
1981
1981
1981
1980
1978
1977
1975
1974
1974
1973
1972
1972
1972
1972
1971
1971
1971
1972
1972
1973
1973
1973
1973
1973
1974
1975
1976
1976
1975
1973
1972
1972
1972
1973
1974
1974
1974
1975
1976
1976
1976
1974
1972
1971
1971
1972
1974
1975
1975
1974
1972
1971
1971
1972
1972
1971
1970
1970
1970
1971
1972
1972
1971
1971
1972
1974
1975
1976
1976
1975
1974
1972
1971
1971
1971
1972
1974
1975
1975
1974
1973
1972
1971
1972
1973
1975
1976
1977
1977
1977
1976
1974
1973
1973
1973
1974
1975
1975
1974
1974
1973
1973
1972
1972
1971
1972
1972
1974
1975
1975
1974
1973
1971
1970
1970
1971
1972
1973
1973
1973
1974
1974
1974
1974
1974
1974
1974
1973
1973
1973
1973
1972
1971
1970
1968
1968
1968
1968
1968
1967
1966
1965
1965
1967
1969
1969
1966
1959
1954
1955
1969
1999
2037
2068
2079
2062
2024
1978
1941
1925
1927
1939
1951
1959
1962
1962
1961
1960
1959
1958
1958
1959
1961
1962
1963
1961
1959
1957
1956
1957
1958
1959
1960
1961
1962
1962
1963
1962
1962
1961
1960
1959
1959
1959
1961
1962
1964
1965
1964
1963
1961
1960
1961
1962
1964
1965
1966
1967
1967
1967
1968
1968
1969
1969
1970
1971
1971
1971
1971
1970
1969
1968
1966
1965
1963
1963
1962
1962
1961
1960
1959
1957
1954
1952
1951
1952
1953
1954
1954
1954
1952
1949
1948
1947
1948
1950
1952
1953
1954
1953
1952
1952
1952
1951
1951
1951
1952
1954
1955
1955
1954
1953
1953
1953
1953
1953
1953
1952
1951
1952
1952
1954
1955
1955
1956
1955
1955
1954
1953
1953
1952
1952
1952
1953
1955
1957
1958
1958
1957
1955
1953
1952
1952
1952
1953
1955
1956
1957
1957
1956
1954
1954
1954
1955
1956
1957
1956
1955
1955
1956
1956
1957
1957
1957
1956
1956
1956
1956
1955
1955
1956
1958
1960
1962
1964
1965
1965
1965
1965
1964
1963
1962
1961
1960
1960
1959
1959
1959
1959
1960
1961
1962
1963
1963
1964
1964
1965
1965
1964
1959
1953
1949
1952
1968
2000
2038
2069
2078
2059
2018
1971
1935
1920
1923
1935
1947
1955
1959
1963
1966
1967
1967
1966
1966
1965
1965
1965
1966
1968
1969
1970
1970
1970
1969
1969
1970
1971
1971
1972
1972
1972
1972
1972
1971
1971
1971
1971
1973
1974
1975
1977
1978
1978
1978
1978
1979
1980
1982
1983
1984
1984
1985
1986
1987
1988
1989
1990
1990
1991
1992
1992
1992
1992
1991
1991
1990
1989
1988
1986
1984
1982
1980
1978
1977
1975
1973
1972
1972
1972
1971
1971
1969
1968
1968
1969
1971
1973
1974
1973
1973
1972
1972
1972
1972
1973
1973
1974
1974
1975
1976
1975
1975
1974
1974
1974
1974
1975
1976
1977
1978
1977
1976
1975
1974
1974
1975
1976
1977
1978
1978
1978
1977
1975
1974
1974
1974
1975
1977
1978
1978
1977
1976
1975
1974
1975
1976
1977
1978
1979
1980
1979
1978
1977
1976
1976
1977
1978
1979
1980
1980
1979
1978
1978
1979
1979
1980
1979
1978
1978
1978
1979
1980
1980
1980
1979
1978
1978
1979
1980
1982
1984
1986
1987
1987
1987
1986
1986
1986
1987
1987
1986
1985
1984
1984
1983
1982
1982
1982
1983
1984
1985
1985
1984
1984
1984
1982
1978
1972
1968
1971
1986
2017
2055
2088
2100
2084
2046
2000
1965
1948
1949
1960
1971
1978
1981
1983
1984
1984
1983
1982
1982
1982
1982
1983
1984
1985
1986
1987
1987
1987
1987
1986
1986
1986
1988
1989
1990
1990
1989
1989
1988
1988
1987
1987
1988
1989
1991
1993
1993
1993
1992
1992
1992
1993
1994
1996
1998
1999
1999
1999
1999
1999
1999
2000
2001
2002
2002
2002
2002
2002
2001
2001
2001
2000
1999
1998
1997
1996
1996
1995
1993
1992
1991
1990
1989
1990
1990
1991
1991
1991
1989
1988
1988
1988
1989
1990
1991
1992
1992
1992
1991
1989
1988
1988
1988
1990
1992
1994
1994
1994
1993
1992
1991
1991
1991
1991
1992
1992
1993
1992
1991
1990
1989
1989
1990
1991
1991
1991
1991
1990
1990
1990
1990
1989
1988
1988
1988
1989
1989
1989
1988
1986
1985
1985
1985
1986
1988
1989
1989
1989
1988
1986
1985
1984
1984
1985
1985
1986
1987
1986
1985
1983
1982
1982
1983
1985
1986
1987
1987
1986
1986
1985
1984
1983
1983
1983
1984
1985
1986
1986
1985
1984
1983
1981
1981
1981
1981
1983
1985
1987
1988
1988
1988
1988
1989
1990
1990
1989
1987
1986
1984
1984
1983
1983
1983
1982
1983
1982
1982
1982
1983
1983
1984
1984
1981
1976
1969
1966
1970
1986
2017
2054
2086
2097
2080
2043
1997
1961
1944
1945
1956
1967
1974
1976
1977
1977
1977
1977
1977
1977
1976
1975
1974
1973
1973
1974
1975
1976
1977
1977
1975
1974
1973
1973
1974
1976
1978
1979
1979
1978
1977
1976
1975
1975
1976
1978
1979
1979
1979
1979
1979
1979
1980
1980
1981
1981
1981
1981
1981
1981
1982
1984
1986
1989
1990
1990
1989
1988
1987
1986
1986
1986
1984
1983
1981
1979
1979
1979
1979
1978
1977
1976
1974
1973
1972
1972
1973
1973
1972
1972
1971
1970
1970
1969
1969
1969
1970
1970
1970
1970
1969
1969
1968
1967
1967
1968
1968
1969
1969
1969
1969
1969
1969
1969
1969
1969
1969
1968
1967
1967
1967
1967
1967
1966
1965
1965
1965
1966
1966
1967
1967
1966
1966
1965
1965
1965
1965
1965
1965
1966
1967
1967
1967
1966
1966
1966
1967
1968
1968
1968
1967
1966
1965
1964
1964
1964
1965
1966
1967
1967
1967
1966
1965
1965
1965
1965
1966
1967
1968
1967
1967
1966
1965
1964
1964
1964
1964
1965
1967
1968
1970
1970
1969
1969
1970
1971
1972
1973
1972
1971
1969
1968
1968
1968
1967
1967
1966
1966
1967
1968
1967
1966
1966
1966
1967
1966
1962
1957
1957
1964
1986
2020
2056
2081
2079
2050
2005
1959
1929
1920
1927
1941
1954
1960
1963
1965
1966
1967
1967
1968
1968
1967
1966
1966
1967
1969
1971
1972
1972
1972
1971
1971
1971
1971
1971
1970
1970
1971
1972
1973
1974
1974
1973
1973
1973
1974
1974
1975
1975
1976
1978
1979
1980
1981
1981
1982
1982
1982
1982
1983
1984
1985
1986
1987
1988
1989
1990
1991
1991
1991
1990
1988
1987
1986
1984
1983
1981
1979
1977
1976
1975
1974
1974
1974
1974
1974
1972
1970
1969
1968
1969
1969
1970
1971
1971
1971
1970
1970
1969
1970
1971
1972
1972
1971
1971
1972
1973
1976
1977
1977
1976
1974
1973
1973
1975
1975
1975
1975
1974
1973
1972
1972
1972
1973
1974
1975
1975
1975
1974
1974
1973
1973
1973
1973
1972
1972
1973
1973
1974
1974
1975
1975
1975
1974
1973
1973
1973
1974
1974
1975
1975
1975
1975
1975
1975
1975
1976
1977
1978
1978
1977
1976
1977
1977
1977
1977
1977
1977
1978
1978
1979
1978
1978
1977
1977
1977
1976
1976
1976
1976
1976
1977
1978
1980
1982
1984
1984
1984
1983
1983
1983
1982
1980
1978
1976
1976
1976
1978
1979
1980
1980
1980
1979
1979
1979
1980
1982
1981
1978
1972
1964
1962
1969
1991
2026
2064
2090
2091
2065
2022
1977
1947
1937
1944
1956
1967
1972
1974
1975
1975
1974
1973
1973
1974
1974
1975
1975
1976
1977
1978
1978
1978
1978
1977
1976
1976
1976
1976
1977
1977
1977
1976
1975
1975
1975
1976
1978
1979
1980
1980
1980
1979
1979
1979
1980
1981
1982
1983
1984
1984
1984
1984
1985
1986
1987
1988
1988
1988
1988
1988
1987
1988
1988
1988
1988
1987
1986
1984
1982
1981
1979
1978
1978
1977
1977
1977
1976
1975
1974
1973
1972
1973
1973
1973
1973
1974
1974
1973
1972
1972
1971
1972
1974
1975
1976
1977
1977
1977
1978
1978
1977
1976
1975
1975
1975
1976
1977
1977
1977
1977
1976
1976
1975
1975
1975
1975
1976
1977
1978
1978
1977
1976
1974
1973
1973
1974
1975
1976
1976
1976
1974
1973
1972
1972
1973
1975
1976
1976
1976
1975
1973
1972
1972
1972
1972
1974
1975
1976
1977
1977
1977
1977
1977
1977
1976
1976
1977
1978
1978
1978
1977
1976
1974
1974
1974
1975
1976
1976
1976
1975
1974
1973
1972
1972
1972
1971
1971
1972
1974
1977
1979
1979
1978
1977
1976
1975
1976
1976
1976
1976
1975
1973
1972
1970
1969
1968
1969
1969
1970
1969
1969
1970
1970
1970
1967
1961
1955
1952
1958
1980
2015
2054
2083
2086
2060
2015
1967
1933
1922
1928
1940
1951
1957
1960
1963
1965
1966
1965
1964
1963
1963
1964
1965
1966
1966
1967
1966
1966
1965
1964
1964
1965
1965
1965
1965
1965
1965
1966
1967
1968
1968
1968
1968
1968
1968
1970
1971
1971
1972
1972
1972
1972
1973
1974
1975
1976
1977
1978
1979
1980
1980
1981
1982
1983
1984
1984
1984
1983
1983
1982
1982
1981
1979
1977
1975
1973
1972
1971
1970
1969
1967
1965
1963
1962
1962
1962
1963
1963
1963
1962
1961
1961
1961
1961
1961
1961
1961
1961
1962
1963
1964
1964
1963
1964
1964
1966
1967
1967
1966
1964
1963
1963
1964
1966
1968
1968
1967
1966
1964
1963
1963
1964
1964
1964
1964
1965
1966
1967
1968
1968
1967
1965
1964
1964
1965
1966
1967
1967
1967
1967
1967
1968
1968
1968
1969
1969
1970
1971
1971
1971
1970
1969
1968
1968
1968
1968
1969
1969
1970
1971
1972
1972
1971
1971
1970
1970
1971
1971
1971
1969
1968
1969
1970
1973
1975
1977
1978
1978
1978
1978
1978
1978
1977
1977
1976
1975
1975
1975
1976
1975
1974
1973
1972
1973
1974
1976
1976
1977
1977
1976
1972
1965
1960
1960
1973
2001
2041
2078
2097
2086
2048
1998
1954
1930
1928
1941
1957
1968
1973
1974
1974
1974
1973
1973
1974
1975
1976
1977
1977
1977
1977
1976
1976
1976
1976
1977
1978
1979
1979
1978
1978
1977
1977
1978
1979
1980
1981
1982
1982
1982
1982
1981
1982
1982
1984
1985
1986
1987
1987
1988
1988
1988
1989
1990
1992
1993
1993
1993
1993
1993
1994
1995
1996
1996
1996
1996
1995
1994
1992
1990
1988
1986
1984
1983
1981
1981
1980
1980
1979
1978
1977
1976
1976
1976
1976
1977
1978
1978
1978
1977
1976
1975
1975
1975
1975
1976
1977
1978
1978
1978
1977
1977
1976
1976
1976
1977
1978
1978
1979
1979
1979
1978
1977
1976
1976
1977
1978
1978
1978
1977
1976
1976
1975
1976
1976
1976
1976
1976
1976
1975
1975
1975
1975
1975
1976
1977
1978
1978
1978
1977
1976
1975
1974
1975
1975
1976
1976
1975
1974
1974
1974
1975
1975
1976
1976
1977
1977
1977
1976
1976
1976
1975
1975
1975
1975
1975
1975
1975
1976
1975
1975
1975
1975
1975
1975
1975
1976
1975
1974
1973
1972
1972
1973
1974
1977
1979
1982
1982
1982
1981
1980
1978
1977
1977
1976
1976
1976
1976
1976
1976
1976
1976
1976
1976
1976
1976
1976
1975
1975
1975
1974
1970
1965
1960
1960
1972
1999
2037
2072
2091
2082
2049
2005
1966
1944
1942
1951
1963
1969
1971
1971
1970
1969
1969
1969
1970
1971
1972
1973
1973
1972
1972
1972
1973
1973
1974
1974
1974
1974
1974
1973
1972
1972
1972
1972
1974
1975
1975
1975
1974
1974
1974
1975
1976
1978
1979
1979
1979
1978
1978
1978
1979
1980
1982
1983
1983
1984
1985
1986
1986
1986
1984
1984
1984
1985
1987
1989
1989
1988
1986
1985
1983
1981
1980
1979
1979
1979
1979
1978
1977
1976
1974
1973
1973
1973
1973
1974
1973
1973
1973
1973
1973
1972
1972
1971
1972
1972
1973
1973
1973
1972
1970
1970
1970
1972
1973
1973
1973
1971
1970
1970
1969
1969
1968
1968
1968
1969
1970
1970
1970
1969
1968
1967
1966
1967
1968
1969
1969
1969
1968
1967
1966
1965
1965
1965
1966
1967
1968
1968
1968
1967
1966
1965
1965
1966
1967
1969
1971
1971
1970
1968
1966
1965
1965
1965
1967
1968
1968
1968
1969
1969
1969
1968
1966
1966
1966
1968
1970
1971
1971
1970
1969
1968
1967
1966
1965
1966
1966
1967
1968
1970
1971
1972
1973
1973
1973
1973
1974
1973
1972
1971
1970
1970
1971
1971
1971
1970
1969
1967
1967
1967
1968
1968
1969
1969
1969
1970
1969
1965
1959
1954
1954
1965
1992
2030
2066
2085
2076
2041
1993
1951
1927
1924
1935
1948
1959
1964
1966
1967
1966
1964
1963
1963
1964
1964
1965
1964
1964
1964
1965
1966
1966
1966
1966
1966
1967
1967
1968
1968
1969
1970
1970
1970
1970
1970
1970
1971
1972
1972
1973
1973
1973
1973
1973
1974
1975
1977
1979
1981
1981
1981
1980
1980
1982
1983
1985
1986
1986
1986
1987
1987
1988
1988
1987
1986
1986
1985
1985
1984
1982
1980
1978
1976
1974
1973
1972
1973
1972
1972
1970
1968
1967
1966
1966
1968
1971
1973
1973
1973
1972
1971
1971
1971
1971
1971
1971
1971
1971
1972
1973
1974
1974
1974
1973
1973
1973
1974
1975
1975
1975
1975
1974
1973
1973
1973
1973
1974
1974
1974
1974
1974
1974
1973
1973
1972
1972
1972
1973
1974
1975
1975
1975
1974
1973
1973
1973
1974
1974
1974
1973
1973
1973
1973
1973
1973
1973
1974
1976
1977
1977
1976
1974
1973
1973
1973
1974
1975
1976
1976
1975
1974
1973
1972
1973
1975
1978
1981
1983
1982
1981
1980
1980
1980
1980
1979
1978
1977
1976
1976
1976
1976
1976
1976
1976
1975
1975
1975
1975
1977
1979
1978
1974
1967
1961
