1981
1980
1979
1978
1977
1976
1976
1975
1975
1975
1974
1974
1974
1974
1975
1974
1974
1974
1974
1974
1974
1975
1975
1975
1975
1975
1975
1975
1974
1974
1974
1974
1974
1974
1974
1974
1974
1974
1974
1974
1974
1973
1973
1973
1973
1973
1973
1972
1972
1971
1971
1972
1973
1973
1973
1973
1973
1973
1973
1973
1973
1972
1972
1972
1972
1972
1972
1972
1973
1973
1973
1973
1973
1973
1973
1973
1972
1972
1972
1972
1972
1972
1973
1973
1973
1973
1973
1973
1973
1973
1973
1973
1973
1973
1973
1973
1973
1973
1973
1973
1973
1973
1973
1973
1973
1973
1973
1973
1973
1973
1973
1973
1973
1973
1973
1973
1973
1973
1973
1973
1973
1973
1974
1974
1973
1973
1973
1974
1974
1974
1974
1974
1974
1974
1974
1974
1974
1974
1974
1974
1974
1974
1974
1975
1975
1975
1975
1975
1974
1974
1974
1974
1974
1974
1974
1974
1974
1974
1974
1973
1972
1973
1977
1987
1996
1999
1995
1984
1970
1959
1953
1952
1954
1957
1963
1970
1977
1981
1982
1981
1980
1980
1980
1981
1981
1981
1981
1981
1982
1982
1983
1983
1983
1983
1983
1984
1984
1984
1985
1985
1985
1986
1986
1986
1987
1987
1987
1988
1988
1989
1990
1990
1991
1992
1992
1993
1993
1994
1995
1996
1997
1998
1999
2000
2001
2002
2002
2003
2003
2003
2004
2004
2004
2003
2003
2002
2000
1999
1998
1996
1993
1991
1988
1986
1984
1983
1981
1980
1978
1977
1976
1976
1975
1975
1974
1974
1974
1974
1974
1974
1974
1974
1974
1974
1974
1974
1974
1974
1974
1974
1974
1974
1975
1974
1974
1974
1974
1974
1974
1974
1974
1974
1974
1974
1974
1973
1973
1973
1973
1973
1973
1973
1973
1973
1973
1972
1972
1971
1971
1971
1972
1972
1972
1972
1972
1972
1972
1972
1972
1972
1972
1972
1972
1972
1972
1972
1972
1972
1972
1972
1972
1972
1972
1973
1973
1973
1973
1973
1973
1973
1973
1973
1973
1973
1973
1974
1974
1973
1973
1973
1973
1973
1973
1973
1973
1973
1973
1973
1973
1973
1973
1973
1973
1974
1974
1974
1974
1974
1974
1974
1974
1974
1974
1974
1974
1974
1974
1974
1974
1975
1975
1975
1975
1975
1974
1974
1975
1975
1975
1976
1976
1977
1977
1976
1976
1976
1975
1975
1975
1975
1975
1975
1975
1975
1975
1975
1975
1975
1974
1973
1975
1982
1991
1999
2000
1994
1982
1969
1959
1953
1952
1954
1959
1966
1974
1980
1983
1982
1981
1980
1981
1981
1981
1982
1982
1982
1983
1983
1983
1983
1984
1984
1984
1984
1985
1985
1985
1986
1986
1986
1987
1987
1988
1988
1988
1989
1989
1990
1990
1991
1991
1992
1992
1993
1994
1994
1995
1996
1997
1998
1999
2000
2001
2002
2003
2003
2004
2004
2005
2005
2005
2005
2005
2004
2003
2002
2000
1998
1995
1993
1990
1988
1986
1984
1982
1980
1979
1978
1977
1977
1977
1976
1976
1975
1975
1975
1975
1975
1975
1975
1975
1975
1975
1975
1975
1975
1975
1975
1975
1976
1976
1976
1976
1975
1975
1975
1975
1975
1975
1975
1975
1975
1975
1975
1975
1975
1975
1975
1974
1974
1975
1975
1975
1974
1974
1974
1974
1973
1973
1974
1974
1974
1974
1974
1974
1974
1973
1972
1972
1972
1973
1974
1975
1975
1975
1974
1974
1974
1974
1974
1975
1975
1975
1975
1975
1974
1974
1974
1974
1974
1974
1974
1975
1975
1975
1975
1975
1975
1975
1974
1975
1975
1975
1975
1975
1975
1975
1975
1975
1975
1976
1976
1976
1976
1976
1976
1976
1976
1976
1976
1976
1976
1976
1976
1976
1976
1976
1976
1976
1976
1976
1976
1976
1977
1977
1977
1977
1977
1977
1977
1977
1977
1977
1977
1977
1977
1977
1977
1977
1977
1977
1977
1977
1977
1976
1975
1975
1979
1988
1998
2005
2005
1997
1983
1968
1957
1950
1950
1954
1962
1971
1978
1982
1984
1983
1982
1982
1982
1982
1982
1983
1983
1983
1984
1984
1984
1985
1985
1985
1985
1985
1986
1987
1987
1987
1987
1987
1988
1989
1989
1990
1990
1991
1991
1991
1992
1993
1993
1994
1995
1996
1997
1998
1998
1999
2000
2001
2002
2003
2004
2005
2006
2006
2006
2007
2007
2007
2007
2006
2006
2005
2004
2002
2000
1997
1995
1992
1990
1988
1986
1984
1983
1981
1980
1978
1978
1977
1977
1977
1977
1977
1976
1976
1975
1975
1974
1974
1974
1974
1975
1976
1976
1976
1976
1976
1976
1976
1976
1976
1976
1975
1975
1975
1976
1976
1976
1976
1976
1975
1975
1975
1975
1975
1975
1974
1974
1974
1974
1975
1975
1975
1974
1974
1974
1974
1974
1974
1974
1974
1974
1974
1974
1974
1974
1974
1974
1974
1974
1974
1973
1973
1973
1974
1974
1974
1974
1974
1974
1974
1974
1975
1975
1974
1974
1974
1974
1975
1975
1975
1975
1975
1975
1974
1974
1974
1974
1974
1974
1975
1975
1975
1975
1975
1975
1974
1973
1973
1976
1985
1996
2005
2007
2000
1985
1967
1951
1942
1940
1946
1956
1968
1977
1982
1983
1982
1981
1980
1981
1982
1982
1983
1983
1983
1984
1984
1984
1985
1985
1985
1985
1986
1986
1986
1987
1987
1988
1988
1988
1989
1989
1989
1990
1990
1991
1992
1993
1994
1995
1995
1996
1996
1997
1998
2000
2001
2002
2003
2005
2006
2007
2007
2008
2008
2009
2009
2009
2009
2009
2008
2007
2005
2002
2000
1997
1994
1992
1989
1987
1985
1984
1983
1982
1980
1979
1978
1977
1977
1977
1977
1977
1977
1976
1976
1976
1976
1976
1976
1976
1976
1976
1977
1977
1977
1977
1976
1976
1976
1977
1977
1977
1977
1977
1977
1976
1976
1976
1976
1976
1976
1976
1976
1976
1975
1975
1975
1975
1975
1975
1975
1975
1975
1975
1975
1975
1975
1976
1976
1976
1976
1976
1976
1975
1975
1976
1976
1976
1976
1976
1976
1975
1975
1975
1976
1976
1976
1975
1975
1975
1975
1975
1976
1976
1976
1976
1976
1976
1976
1976
1976
1976
1976
1975
1974
1974
1979
1988
1998
2004
2002
1993
1979
1964
1952
1946
1946
1952
1961
1971
1979
1983
1984
1982
1982
1982
1982
1983
1983
1983
1984
1984
1984
1985
1985
1985
1986
1986
1986
1986
1986
1986
1987
1988
1988
1989
1990
1990
1991
1991
1991
1992
1992
1993
1994
1995
1996
1997
1997
1998
1999
2000
2001
2002
2003
2004
2005
2006
2007
2008
2008
2009
2009
2009
2009
2009
2008
2007
2005
2003
2001
1998
1996
1993
1990
1988
1986
1984
1983
1981
1980
1980
1979
1978
1978
1978
1977
1977
1977
1976
1976
1976
1976
1976
1976
1976
1976
1976
1976
1976
1977
1977
1977
1977
1977
1977
1977
1977
1977
1977
1977
1977
1977
1976
1976
1976
1976
1975
1975
1975
1975
1975
1975
1975
1975
1975
1975
1975
1975
1975
1975
1975
1975
1975
1975
1975
1975
1975
1975
1975
1975
1975
1975
1975
1975
1975
1975
1975
1974
1974
1974
1974
1975
1975
1975
1975
1975
1975
1975
1975
1975
1975
1975
1975
1975
1976
1976
1975
1975
1975
1975
1975
1976
1976
1975
1975
1975
1975
1976
1976
1976
1976
1976
1976
1975
1976
1976
1976
1976
1976
1976
1976
1976
1976
1976
1975
1974
1975
1980
1988
1997
2000
1996
1985
1971
1959
1952
1950
1952
1957
1963
1971
1978
1982
1983
1982
1981
1981
1981
1982
1983
1983
1983
1983
1983
1983
1983
1983
1983
1984
1984
1984
1985
1985
1985
1986
1987
1987
1988
1988
1989
1989
1989
1990
1990
1991
1991
1992
1992
1993
1994
1995
1995
1996
1997
1998
1999
2000
2001
2002
2003
2004
2004
2005
2005
2005
2005
2005
2005
2005
2004
2002
2000
1998
1996
1993
1991
1989
1987
1985
1983
1982
1980
1979
1979
1978
1978
1977
1977
1976
1975
1975
1975
1975
1976
1976
1976
1976
1975
1975
1975
1975
1975
1975
1975
1975
1975
1975
1975
1975
1974
1974
1974
1974
1974
1975
1974
1974
1974
1973
1973
1972
1972
1973
1973
1973
1972
1972
1972
1972
1972
1971
1971
1971
1971
1971
1971
1971
1971
1971
1971
1971
1971
1971
1971
1971
1971
1971
1971
1971
1972
1972
1972
1971
1971
1971
1971
1972
1972
1972
1972
1972
1972
1972
1972
1972
1972
1972
1972
1972
1972
1972
1972
1972
1973
1973
1973
1973
1973
1973
1973
1973
1972
1973
1973
1973
1973
1973
1973
1973
1973
1973
1973
1973
1973
1973
1973
1973
1973
1973
1973
1973
1974
1974
1974
1974
1974
1974
1974
1974
1975
1975
1975
1975
1975
1975
1975
1975
1975
1974
1974
1974
1974
1975
1975
1976
1976
1975
1975
1975
1975
1975
1975
1975
1975
1975
1975
1975
1975
1974
1973
1974
1978
1987
1996
2000
1996
1986
1972
1960
1954
1952
1953
1957
1963
1971
1977
1981
1982
1981
1980
1981
1982
1982
1982
1983
1983
1983
1983
1984
1984
1984
1984
1984
1984
1984
1985
1985
1985
1985
1986
1986
1987
1987
1988
1988
1989
1989
1990
1990
1991
1991
1992
1992
1993
1994
1995
1995
1996
1997
1998
1998
2000
2001
2001
2002
2002
2003
2003
2003
2004
2004
2004
2004
2003
2002
2001
2000
1998
1997
1994
1992
1990
1988
1986
1984
1982
1981
1980
1979
1978
1977
1977
1977
1977
1977
1977
1976
1976
1975
1975
1975
1975
1975
1976
1976
1976
1976
1976
1976
1976
1976
1976
1976
1976
1976
1976
1976
1976
1976
1976
1975
1975
1975
1975
1975
1975
1975
1975
1974
1974
1973
1973
1973
1974
1974
1974
1974
1974
1974
1974
1974
1973
1973
1973
1973
1973
1973
1973
1973
1973
1973
1973
1973
1973
1973
1973
1973
1973
1973
1974
1974
1974
1974
1974
1974
1974
1974
1974
1974
1974
1974
1974
1974
1974
1974
1974
1974
1974
1974
1974
1974
1975
1974
1974
1974
1974
1974
1974
1974
1974
1974
1974
1974
1974
1974
1975
1975
1975
1975
1975
1975
1975
1975
1975
1975
1975
1975
1975
1975
1975
1975
1975
1976
1976
1976
1976
1976
1976
1976
1976
1976
1976
1976
1976
1977
1977
1977
1977
1977
1977
1976
1976
1976
1976
1976
1976
1976
1976
1976
1976
1976
1976
1975
1974
1975
1979
1987
1996
2000
1996
1985
1971
1959
1953
1951
1953
1958
1964
1971
1978
1982
1983
1982
1981
1981
1982
1982
1983
1983
1983
1983
1983
1983
1983
1984
1984
1984
1984
1985
1985
1985
1986
1986
1987
1987
1987
1987
1987
1988
1988
1989
1990
1990
1991
1991
1992
1992
1993
1993
1994
1995
1996
1997
1998
1999
2000
2001
2001
2002
2003
2003
2004
2004
2004
2004
2004
2003
2003
2002
2001
2000
1999
1997
1995
1993
1990
1988
1986
1984
1982
1981
1980
1979
1979
1978
1978
1977
1977
1976
1976
1976
1976
1976
1976
1976
1976
1976
1976
1976
1976
1976
1976
1976
1976
1976
1976
1976
1976
1976
1976
1976
1976
1976
1975
1975
1975
1975
1975
1975
1975
1975
1974
1974
1974
1974
1974
1974
1974
1973
1973
1972
1973
1973
1974
1974
1974
1974
1974
1974
1975
1975
1974
1974
1974
1973
1973
1974
1974
1974
1974
1974
1974
1974
1974
1974
1974
1974
1974
1974
1974
1974
1974
1974
1973
1973
1974
1974
1974
1973
1973
1973
1973
1973
1974
1974
1974
1974
1974
1974
1974
1974
1974
1974
1974
1974
1974
1974
1974
1974
1975
1975
1975
1975
1975
1975
1975
1975
1975
1975
1975
1975
1976
1976
1976
1976
1976
1976
1975
1975
1975
1975
1975
1975
1975
1975
1975
1975
1975
1975
1974
1974
1978
1986
1995
2000
1997
1988
1975
1964
1956
1953
1953
1957
1964
1971
1978
1982
1983
1982
1981
1981
1982
1982
1982
1983
1983
1983
1983
1983
1984
1984
1984
1984
1985
1985
1985
1985
1986
1986
1987
1987
1988
1988
1988
1988
1989
1989
1990
1990
1991
1991
1992
1993
1993
1994
1995
1996
1997
1997
1998
1999
2000
2002
2003
2003
2004
2004
2005
2005
2006
2006
2007
2006
2006
2005
2004
2002
2001
1999
1996
1994
1992
1990
1988
1986
1984
1983
1982
1981
1980
1979
1979
1979
1979
1978
1978
1977
1977
1977
1977
1978
1978
1978
1979
1979
1979
1978
1978
1978
1978
1978
1978
1978
1978
1978
1978
1978
1978
1978
1978
1978
1977
1977
1978
1978
1978
1977
1977
1976
1976
1977
1977
1977
1977
1977
1977
1977
1977
1977
1977
1977
1977
1977
1977
1977
1977
1977
1977
1977
1977
1977
1977
1977
1977
1977
1977
1977
1977
1976
1976
1976
1976
1976
1977
1977
1977
1977
1977
1977
1977
1977
1977
1977
1977
1977
1977
1977
1977
1977
1977
1977
1978
1978
1978
1977
1977
1977
1977
1978
1978
1978
1978
1979
1978
1978
1978
1978
1978
1978
1978
1979
1979
1979
1979
1979
1979
1979
1979
1979
1979
1979
1979
1978
1978
1978
1978
1979
1979
1979
1979
1978
1977
1976
1978
1985
1995
2004
2007
2003
1991
1978
1966
1958
1955
1957
1963
1971
1978
1984
1986
1985
1984
1984
1984
1984
1985
1985
1985
1986
1986
1986
1986
1986
1987
1987
1987
1988
1988
1988
1988
1989
1989
1990
1990
1990
1991
1991
1991
1992
1992
1993
1994
1994
1994
1995
1996
1996
1997
1997
1998
1999
2000
2001
2002
2003
2004
2004
2005
2006
2006
2006
2006
2006
2006
2006
2006
2006
2005
2003
2001
1999
1996
1994
1992
1990
1988
1986
1984
1983
1981
1980
1980
1979
1979
1978
1977
1977
1977
1977
1977
1977
1978
1978
1978
1978
1977
1977
1977
1977
1977
1977
1977
1977
1977
1977
1977
1977
1977
1976
1976
1975
1976
1976
1976
1976
1976
1975
1975
1975
1975
1975
1975
1975
1975
1975
1975
1975
1975
1975
1975
1975
1975
1975
1974
1974
1974
1974
1974
1974
1974
1974
1974
1974
1974
1974
1974
1974
1974
1974
1974
1974
1974
1975
1975
1975
1975
1975
1975
1975
1975
1975
1975
1975
1975
1975
1975
1975
1974
1974
1975
1975
1975
1975
1975
1975
1974
1973
1973
1975
1982
1993
2003
2008
2004
1992
1975
1959
1947
1944
1947
1955
1966
1975
1981
1983
1982
1981
1981
1981
1982
1982
1983
1983
1983
1983
1983
1984
1984
1985
1984
1984
1984
1984
1985
1986
1987
1987
1988
1988
1988
1989
1990
1990
1991
1991
1991
1992
1992
1993
1994
1995
1996
1997
1997
1998
1999
2001
2002
2003
2004
2004
2004
2005
2006
2007
2007
2008
2007
2007
2006
2005
2003
2001
1998
1996
1993
1991
1989
1987
1985
1983
1981
1980
1978
1977
1976
1976
1976
1976
1976
1976
1975
1975
1974
1974
1975
1976
1976
1976
1975
1975
1976
1977
1977
1977
1977
1976
1976
1976
1976
1977
1977
1976
1976
1976
1976
1976
1977
1977
1977
1976
1976
1976
1976
1976
1976
1975
1975
1975
1975
1976
1976
1976
1976
1976
1976
1976
1976
1976
1976
1975
1975
1974
1975
1975
1976
1976
1976
1976
1976
1975
1975
1975
1975
1975
1974
1974
1975
1976
1976
1976
1975
1974
1974
1974
1973
1974
1978
1987
1998
2006
2008
2000
1985
1966
1950
1942
1941
1949
1960
1971
1979
1983
1983
1981
1981
1981
1982
1982
1982
1983
1983
1983
1983
1984
1984
1984
1985
1985
1985
1985
1986
1986
1987
1987
1987
1988
1988
1988
1989
1990
1990
1991
1992
1992
1993
1993
1994
1995
1995
1996
1997
1998
2000
2001
2002
2003
2004
2005
2006
2007
2008
2008
2008
2008
2008
2008
2008
2007
2005
2003
2000
1996
1994
1992
1989
1987
1985
1983
1981
1980
1978
1978
1977
1977
1977
1978
1977
1977
1976
1975
1975
1975
1975
1975
1975
1975
1975
1976
1976
1976
1976
1976
1976
1976
1976
1975
1976
1976
1976
1976
1976
1975
1975
1975
1976
1976
1976
1975
1975
1974
1974
1974
1974
1975
1975
1975
1975
1974
1973
1973
1973
1974
1975
1975
1975
1974
1973
1973
1974
1975
1975
1974
1973
1973
1973
1974
1974
1975
1975
1975
1975
1974
1974
1974
1973
1973
1972
1972
1976
1985
1997
2005
2007
1999
1982
1963
1948
1939
1938
1944
1955
1966
1975
1980
1981
1980
1979
1980
1980
1980
1981
1981
1981
1981
1981
1982
1982
1982
1982
1983
1983
1983
1983
1984
1985
1986
1987
1987
1987
1987
1987
1988
1989
1990
1991
1992
1992
1993
1993
1994
1995
1996
1998
1999
2000
2001
2002
2002
2003
2004
2005
2005
2006
2006
2007
2007
2007
2006
2005
2003
2002
1999
1997
1994
1991
1989
1987
1985
1983
1981
1979
1977
1977
1976
1976
1975
1975
1975
1974
1974
1974
1973
1973
1973
1973
1974
1974
1974
1974
1974
1974
1975
1975
1975
1974
1974
1974
1974
1974
1974
1974
1974
1974
1974
1974
1973
1973
1973
1973
1973
1973
1973
1973
1973
1973
1973
1973
1973
1973
1972
1972
1972
1971
1971
1972
1973
1973
1973
1973
1973
1973
1973
1973
1972
1972
1971
1971
1971
1971
1972
1972
1972
1972
1972
1971
1970
1971
1976
1986
1997
2002
1999
1987
1971
1955
1944
1939
1941
1949
1959
1969
1976
1980
1981
1979
1979
1979
1980
1980
1980
1981
1981
1982
1982
1983
1983
1983
1983
1983
1983
1983
1984
1984
1985
1985
1986
1987
1987
1987
1988
1989
1989
1990
1991
1992
1992
1993
1994
1995
1996
1997
1997
1998
1998
2000
2001
2002
2003
2004
2005
2005
2005
2005
2006
2006
2005
2005
2004
2002
2000
1997
1994
1991
1989
1986
1985
1983
1981
1980
1979
1978
1977
1977
1976
1976
1975
1975
1975
1975
1975
1975
1975
1975
1975
1975
1975
1975
1975
1975
1975
1975
1975
1975
1975
1975
1975
1975
1974
1974
1974
1974
1974
1974
1974
1974
1974
1974
1974
1973
1973
1973
1973
1973
1973
1974
1974
1974
1974
1974
1974
1974
1974
1974
1974
1974
1974
1974
1974
1974
1974
1973
1973
1973
1974
1974
1974
1974
1974
1974
1974
1974
1974
1975
1975
1975
1975
1974
1974
1974
1974
1975
1975
1975
1975
1975
1975
1975
1975
1975
1975
1975
1975
1975
1975
1975
1975
1975
1975
1974
1973
1973
1977
1985
1994
1999
1996
1986
1974
1963
1955
1952
1953
1957
1963
1971
1978
1982
1983
1981
1981
1981
1981
1982
1982
1982
1983
1983
1983
1983
1984
1984
1985
1985
1985
1985
1986
1986
1987
1987
1988
1988
1989
1990
1990
1991
1991
1991
1991
1992
1992
1993
1994
1995
1995
1996
1997
1998
1999
2000
2001
2002
2003
2003
2004
2004
2005
2005
2005
2005
2005
2005
2005
2004
2003
2002
2000
1998
1995
1992
1990
1988
1986
1985
1983
1982
1981
1980
1980
1979
1979
1978
1978
1978
1978
1977
1977
1978
1978
1978
1978
1978
1978
1978
1978
1978
1978
1978
1978
1978
1978
1978
1978
1978
1978
1979
1978
1978
1978
1978
1978
1977
1977
1977
1977
1977
1977
1977
1977
1977
1977
1977
1977
1977
1977
1977
1977
1977
1977
1976
1976
1976
1975
1975
1975
1976
1976
1976
1976
1976
1976
1975
1975
1975
1975
1975
1975
1975
1975
1975
1975
1975
1975
1975
1975
1975
1975
1975
1976
1976
1976
1976
1976
1976
1976
1976
1976
1976
1976
1976
1976
1976
1976
1976
1976
1977
1977
1977
1977
1977
1977
1977
1977
1977
1977
1977
1977
1977
1977
1977
1977
1977
1977
1977
1977
1977
1977
1977
1978
1978
1978
1978
1978
1977
1977
1978
1978
1977
1977
1977
1977
1978
1979
1979
1979
1979
1979
1978
1978
1978
1978
1978
1978
1978
1978
1978
1978
1978
1977
1976
1977
1983
1992
2000
2002
1996
1984
1971
1960
1954
1953
1956
1961
1967
1975
1981
1985
1985
1984
1984
1984
1984
1985
1985
1985
1985
1985
1985
1986
1986
1987
1987
1988
1988
1988
1988
1988
1989
1989
1989
1990
1990
1991
1991
1991
1992
1992
1992
1993
1994
1994
1995
1995
1996
1997
1997
1998
1998
1998
1999
1999
2000
2002
2003
2003
2003
2003
2003
2004
2004
2004
2004
2003
2003
2002
2001
2000
1999
1997
1995
1993
1991
1989
1987
1986
1984
1983
1982
1981
1980
1979
1979
1978
1978
1979
1979
1979
1979
1979
1979
1979
1979
1979
1979
1979
1979
1979
1979
1979
1978
1978
1978
1978
1979
1979
1979
1979
1979
1978
1978
1977
1977
1977
1977
1977
1977
1977
1977
1977
1977
1977
1977
1977
1977
1977
1977
1977
1977
1977
1977
1976
1976
1977
1977
1977
1977
1977
1977
1977
1977
1977
1977
1977
1977
1977
1977
1977
1977
1977
1977
1976
1976
1977
1977
1977
1977
1977
1977
1977
1977
1977
1977
1977
1977
1978
1978
1978
1978
1977
1977
1977
1977
1977
1977
1977
1977
1977
1977
1977
1977
1978
1978
1978
1978
1978
1978
1978
1978
1978
1978
1978
1978
1979
1979
1979
1979
1978
1978
1978
1978
1978
1979
1979
1979
1979
1979
1979
1979
1979
1979
1980
1980
1979
1979
1979
1979
1979
1979
1980
1980
1981
1981
1981
1981
1980
1980
1980
1980
1980
1979
1979
1980
1980
1981
1980
1980
1980
1979
1978
1979
1984
1992
2000
2002
1997
1985
1972
1961
1955
1955
1957
1962
1968
1975
1982
1986
1988
1986
1985
1985
1986
1986
1987
1987
1988
1987
1987
1987
1987
1988
1989
1989
1989
1990
1990
1990
1991
1991
1991
1991
1991
1992
1992
1992
1993
1994
1994
1994
1995
1995
1996
1997
1997
1998
1999
1999
1999
2000
2001
2001
2002
2003
2004
2005
2005
2005
2005
2005
2005
2006
2005
2005
2005
2004
2003
2002
2001
1999
1997
1995
1993
1991
1989
1988
1986
1985
1984
1982
1981
1980
1980
1980
1980
1980
1980
1980
1980
1979
1979
1980
1980
1980
1980
1980
1980
1979
1979
1979
1979
1979
1979
1979
1979
1979
1979
1979
1979
1979
1979
1979
1979
1979
1979
1978
1978
1978
1978
1978
1977
1977
1977
1977
1977
1977
1977
1977
1978
1978
1978
1977
1977
1977
1977
1977
1978
1978
1978
1978
1977
1977
1977
1977
1977
1977
1977
1977
1977
1977
1977
1978
1978
1978
1978
1978
1978
1978
1978
1978
1978
1978
1978
1978
1978
1978
1978
1978
1978
1978
1978
1978
1978
1978
1978
1978
1978
1978
1978
1978
1979
1979
1979
1978
1978
1978
1978
1978
1978
1978
1978
1979
1979
1979
1979
1979
1979
1979
1978
1978
1978
1979
1979
1979
1979
1979
1979
1979
1979
1979
1979
1979
1979
1979
1980
1980
1980
1979
1979
1979
1978
1978
1978
1978
1978
1978
1978
1978
1978
1977
1976
1976
1977
1983
1991
1999
2001
1995
1983
1969
1957
1950
1949
1952
1957
1965
1973
1979
1982
1982
1981
1981
1981
1982
1982
1982
1982
1983
1983
1983
1983
1983
1984
1984
1985
1986
1986
1987
1987
1987
1987
1987
1987
1988
1988
1989
1989
1990
1990
1990
1991
1992
1993
1993
1993
1994
1994
1995
1995
1996
1997
1998
1999
2000
2000
2001
2001
2002
2003
2003
2002
2002
2002
2002
2003
2003
2003
2002
2000
1998
1996
1994
1991
1989
1987
1986
1984
1983
1981
1981
1980
1980
1979
1979
1978
1978
1978
1978
1978
1978
1978
1977
1977
1977
1977
1978
1978
1978
1978
1978
1977
1977
1977
1977
1977
1977
1977
1977
1977
1977
1977
1977
1977
1977
1976
1976
1975
1975
1975
1976
1976
1976
1976
1976
1975
1975
1975
1975
1975
1974
1974
1973
1974
1974
1974
1974
1975
1975
1975
1975
1975
1974
1974
1973
1973
1973
1973
1973
1973
1973
1973
1974
1974
1974
1974
1973
1973
1973
1973
1973
1973
1973
1973
1973
1974
1974
1974
1974
1974
1974
1974
1974
1974
1974
1974
1974
1974
1975
1975
1975
1975
1975
1975
1975
1975
1975
1974
1975
1975
1975
1975
1975
1975
1974
1974
1974
1974
1974
1974
1974
1974
1974
1974
1974
1974
1973
1972
1974
1981
1991
2001
2005
2000
1988
1972
1956
1945
1941
1944
1952
1962
1971
1978
1981
1981
1980
1980
1981
1981
1981
1982
1982
1982
1983
1983
1983
1983
1984
1984
1985
1985
1986
1986
1986
1986
1987
1987
1987
1988
1988
1989
1989
1990
1990
1991
1991
1992
1993
1993
1994
1994
1995
1996
1996
1997
1998
1999
2000
2000
2001
2001
2002
2002
2002
2002
2002
2002
2002
2002
2001
2000
1999
1998
1996
1995
1993
1991
1989
1987
1985
1984
1982
1981
1980
1979
1978
1978
1978
1978
1977
1977
1977
1977
1977
1977
1977
1977
1977
1977
1977
1977
1976
1976
1976
1977
1978
1978
1978
1978
1978
1977
1977
1977
1977
1977
1977
1977
1977
1977
1977
1977
1977
1977
1977
1977
1977
1977
1977
1977
1977
1977
1976
1976
1976
1976
1977
1977
1977
1977
1977
1977
1977
1977
1977
1977
1977
1976
1976
1976
1977
1977
1977
1977
1977
1977
1977
1977
1977
1977
1977
1977
1978
1978
1977
1977
1977
1978
1978
1979
1979
1979
1979
1979
1979
1979
1979
1978
1978
1978
1978
1978
1979
1979
1979
1979
1979
1978
1978
1978
1978
1979
1979
1979
1979
1979
1979
1978
1978
1977
1978
1980
1986
1994
1998
1997
1988
1975
1962
1954
1950
1951
1956
1963
1971
1979
1984
1987
1986
1984
1984
1984
1984
1985
1985
1986
1986
1986
1987
1987
1988
1988
1988
1988
1988
1989
1989
1990
1990
1990
1991
1991
1992
1992
1992
1993
1993
1994
1994
1995
1995
1996
1996
1997
1998
1998
1998
1999
2000
2001
2002
2003
2003
2004
2004
2005
2005
2005
2005
2006
2006
2005
2005
2004
2003
2002
2001
1999
1997
1995
1993
1991
1989
1987
1986
1985
1984
1983
1982
1981
1981
1980
1980
1980
1980
1979
1979
1979
1980
1980
1980
1980
1980
1980
1979
1980
1980
1980
1980
1980
1979
1979
1979
1980
1980
1980
1979
1979
1979
1979
1979
1979
1978
1978
1978
1978
1978
1978
1978
1978
1978
1978
1978
1977
1977
1977
1977
1978
1978
1978
1978
1978
1978
1978
1978
1977
1977
1977
1978
1977
1977
1977
1976
1976
1977
1977
1977
1978
1978
1978
1978
1978
1978
1978
1978
1978
1978
1978
1978
1978
1978
1978
1978
1978
1978
1978
1978
1978
1978
1978
1978
1978
1978
1978
1978
1978
1979
1979
1980
1979
1979
1979
1979
1980
1980
1980
1979
1979
1979
1980
1981
1981
1981
1981
1980
1979
1979
1979
1980
1980
1980
1980
1980
1979
1979
1979
1978
1978
1981
1986
1994
2000
2000
1994
1982
1969
1959
1954
1954
1957
1963
1971
1979
1985
1988
1987
1986
1986
1987
1987
1988
1988
1988
1988
1988
1988
1988
1989
1989
1989
1990
1990
1991
1991
1991
1991
1991
1992
1992
1993
1993
1994
1994
1995
1995
1996
1996
1997
1997
1998
1998
1998
1999
2000
2000
2001
2002
2002
2003
2004
2004
2004
2005
2005
2005
2005
2006
2006
2006
2006
2005
2005
2004
2002
2001
1999
1998
1996
1994
1992
1990
1989
1987
1986
1985
1984
1984
1984
1984
1983
1982
1982
1981
1981
1982
1982
1982
1981
1981
1981
1981
1982
1982
1982
1981
1981
1981
1981
1981
1980
1980
1980
1980
1980
1980
1980
1980
1980
1979
1979
1979
1979
1979
1979
1979
1979
1979
1979
1979
1979
1979
1979
1979
1978
1978
1978
1978
1978
1978
1978
1978
1978
1978
1978
1978
1978
1978
1978
1978
1978
1978
1978
1978
1978
1978
1979
1979
1979
1979
1979
1979
1979
1979
1979
1979
1978
1978
1978
1978
1979
1979
1979
1979
1979
1979
1979
1979
1979
1979
1979
1979
1979
1979
1979
1979
1979
1979
1979
1979
1979
1979
1979
1979
1980
1980
1980
1980
1980
1980
1980
1980
1980
1980
1979
1979
1980
1981
1981
1981
1981
1980
1980
1979
1979
1979
1979
1980
1980
1980
1980
1980
1980
1979
1978
1980
1985
1994
2002
2003
1998
1986
1972
1960
1953
1952
1955
1962
1970
1978
1984
1986
1986
1984
1984
1984
1985
1985
1986
1986
1986
1987
1987
1988
1988
1988
1989
1989
1989
1989
1989
1990
1990
1991
1991
1991
1992
1992
1993
1993
1994
1994
1995
1995
1995
1995
1995
1996
1997
1998
1999
1999
2000
2001
2001
2002
2002
2003
2003
2004
2004
2004
2004
2004
2004
2004
2004
2004
2004
2003
2002
2001
1999
1997
1996
1994
1992
1991
1989
1987
1986
1984
1984
1983
1983
1983
1982
1981
1981
1981
1981
1981
1981
1981
1981
1981
1981
1981
1981
1981
1981
1981
1981
1980
1980
1979
1980
1980
1980
1980
1980
1980
1979
1979
1979
1979
1979
1978
1978
1978
1978
1978
1977
1977
1977
1977
1977
1977
1977
1977
1978
1978
1978
1977
1977
1977
1977
1977
1977
1977
1977
1977
1977
1978
1978
1978
1977
1977
1977
1977
1977
1977
1977
1977
1977
1978
1978
1978
1978
1977
1977
1977
1977
1977
1978
1978
1978
1977
1977
1977
1977
1977
1977
1977
1977
1977
1977
1977
1977
1977
1977
1977
1977
1977
1977
1978
1978
1978
1978
1978
1978
1977
1977
1977
1977
1977
1977
1977
1977
1977
1977
1977
1976
1975
1975
1979
1986
1997
2005
2007
2001
1987
1970
1956
1947
1945
1950
1959
1969
1978
1982
1984
1983
1982
1982
1983
1983
1983
1984
1984
1984
1984
1985
1985
1985
1986
1986
1986
1987
1987
1987
1988
1988
1989
1989
1989
1989
1990
1990
1991
1991
1992
1992
1993
1993
1994
1994
1995
1995
1996
1997
1997
1998
1998
1999
1999
2000
2001
2001
2002
2002
2002
2002
2003
2003
2002
2002
2001
2001
1999
1998
1996
1994
1992
1990
1988
1986
1985
1983
1982
1981
1980
1979
1978
1978
1977
1976
1976
1976
1977
1977
1977
1977
1977
1977
1977
1977
1977
1977
1977
1977
1977
1977
1977
1977
1977
1977
1977
1977
1977
1976
1976
1976
1976
1976
1976
1976
1976
1976
1976
1976
1975
1975
1975
1975
1975
1975
1975
1975
1975
1975
1975
1975
1975
1975
1974
1974
1974
1974
1975
1975
1975
1975
1975
1975
1975
1975
1975
1975
1975
1975
1975
1975
1975
1975
1975
1975
1975
1975
1975
1975
1975
1975
1975
1975
1975
1976
1976
1976
1976
1976
1977
1977
1976
1976
1976
1976
1976
1976
1976
1976
1977
1977
1977
1977
1977
1976
1976
1976
1976
1976
1976
1976
1977
1977
1977
1977
1977
1976
1975
1976
1982
1991
1999
2001
1996
1985
1971
1960
1952
1950
1952
1958
1966
1975
1981
1984
1984
1983
1982
1983
1983
1983
1984
1984
1985
1985
1986
1986
1986
1986
1986
1986
1987
1987
1987
1988
1988
1988
1989
1989
1989
1990
1990
1990
1991
1992
1992
1993
1994
1994
1995
1996
1996
1997
1998
1998
1999
2000
2000
2001
2002
2002
2003
2004
2004
2005
2005
2005
2005
2005
2004
2004
2003
2001
2000
1998
1997
1995
1993
1991
1989
1987
1986
1985
1983
1982
1981
1980
1980
1979
1979
1979
1979
1979
1978
1979
1979
1979
1979
1979
1979
1979
1979
1979
1978
1978
1978
1978
1978
1978
1978
1978
1978
1978
1978
1978
1978
1978
1978
1978
1977
1977
1977
1977
1977
1977
1977
1977
1977
1977
1976
1976
1976
1976
1976
1976
1976
1976
1976
1976
1976
1976
1976
1976
1977
1977
1976
1976
1976
1976
1977
1977
1977
1977
1977
1977
1977
1977
1977
1977
1977
1977
1977
1977
1977
1977
1977
1977
1977
1977
1977
1977
1977
1977
1977
1977
1977
1977
1977
1977
1977
1977
1978
1978
1978
1978
1978
1978
1978
1978
1978
1978
1978
1977
1977
1977
1978
1978
1978
1978
1978
1978
1977
1977
1977
1977
1977
1978
1978
1978
1977
1977
1977
1977
1976
1976
1980
1987
1997
2002
2001
1992
1979
1966
1957
1953
1953
1957
1964
1972
1979
1984
1985
1984
1983
1983
1983
1984
1984
1984
1984
1985
1985
1985
1986
1986
1986
1986
1986
1987
1987
1988
1988
1988
1988
1988
1989
1990
1990
1990
1991
1991
1991
1992
1992
1993
1994
1994
1995
1995
1996
1997
1997
1998
1999
2000
2001
2001
2002
2002
2003
2003
2003
2004
2004
2004
2004
2003
2003
2002
2001
1999
1997
1995
1993
1991
1990
1988
1986
1985
1983
1982
1981
1980
1979
1979
1978
1978
1978
1977
1978
1978
1978
1978
1978
1978
1978
1978
1978
1978
1978
1977
1977
1977
1977
1977
1977
1977
1977
1977
1977
1977
1976
1976
1976
1976
1976
1976
1976
1976
1976
1975
1975
1975
1975
1975
1975
1975
1975
1975
1975
1975
1975
1975
1974
1974
1974
1974
1975
1975
1975
1975
1975
1975
1975
1975
1975
1974
1974
1974
1974
1974
1975
1975
1975
1975
1975
1975
1975
1975
1975
1975
1975
1975
1975
1975
1975
1975
1976
1976
1976
1976
1976
1975
1975
1975
1975
1975
1975
1975
1976
1976
1976
1976
1976
1977
1977
1977
1976
1976
1976
1976
1976
1977
1977
1977
1976
1976
1976
1977
1977
1977
1977
1977
1977
1978
1978
1978
1978
1978
1978
1978
1978
1978
1978
1978
1977
1977
1977
1977
1977
1976
1975
1976
1981
1990
1999
2003
1999
1989
1975
1962
1954
1951
1952
1957
1965
1973
1980
1983
1984
1982
1981
1981
1982
1982
1983
1983
1983
1983
1983
1983
1983
1984
1984
1984
1984
1984
1984
1985
1985
1986
1987
1987
1987
1987
1988
1988
1989
1990
1990
1991
1991
1992
1992
1992
1992
1993
1994
1996
1997
1997
1998
1998
1999
2000
2001
2002
2002
2003
2004
2004
2004
2003
2003
2002
2002
2002
2001
1999
1997
1994
1991
1989
1988
1986
1985
1983
1982
1980
1979
1978
1978
1978
1977
1977
1976
1976
1976
1976
1977
1977
1976
1976
1976
1976
1976
1976
1976
1976
1976
1976
1976
1976
1976
1976
1976
1975
1975
1975
1975
1975
1975
1975
1975
1974
1974
1974
1974
1974
1974
1974
1973
1973
1973
1973
1974
1974
1974
1974
1973
1973
1973
1973
1973
1974
1973
1973
1973
1973
1973
1974
1974
1974
1974
1974
1974
1974
1973
1973
1973
1974
1974
1974
1974
1973
1973
1974
1974
1974
1974
1974
1974
1974
1974
1975
1975
1975
1974
1973
1973
1973
1973
1974
1974
1975
1974
1974
1973
1973
1973
1973
1974
1974
1974
1974
1974
1974
1973
1973
1972
1973
1978
1988
1999
2006
2005
1993
1975
1956
1940
1933
1934
1943
1955
1967
1976
1980
1981
1979
1978
1978
1979
1979
1980
1981
1981
1981
1982
1982
1982
1983
1983
1983
1983
1984
1985
1986
1986
1986
1986
1986
1987
1988
1989
1989
1989
1989
1990
1991
1992
1993
1993
1994
1994
1995
1996
1996
1997
1999
2000
2001
2002
2002
2003
2004
2004
2004
2004
2004
2004
2004
2004
2003
2002
2001
1999
1997
1994
1991
1988
1985
1983
1982
1980
1979
1978
1976
1975
1975
1975
1974
1974
1973
1973
1973
1972
1972
1972
1972
1972
1973
1973
1974
1974
1974
1973
1974
1974
1974
1974
1974
1974
1973
1974
1974
1974
1974
1974
1974
1974
1973
1973
1973
1973
1972
1972
1972
1972
1972
1972
1972
1972
1972
1973
1973
1973
1972
1972
1972
1972
1972
1972
1973
1973
1973
1973
1973
1973
1972
1972
1972
1972
1972
1972
1972
1972
1972
1973
1974
1974
1974
1973
1972
1972
1972
1972
1972
1972
1972
1972
1973
1973
1973
1973
1973
1972
1971
1973
1979
1988
1999
2004
2000
1987
1968
1949
1936
1931
1934
1944
1958
1970
1978
1982
1981
1980
1979
1979
1980
1980
1981
1981
1982
1982
1983
1983
1984
1984
1984
1984
1984
1985
1985
1986
1986
1987
1987
1988
1989
1989
1989
1990
1990
1991
1991
1992
1993
1993
1994
1995
1996
1997
1998
1999
2000
2001
2002
2003
2004
2004
2005
2005
2006
2006
2006
2006
2006
2006
2006
2005
2003
2001
1999
1996
1994
1991
1989
1986
1984
1982
1981
1980
1979
1978
1978
1977
1977
1977
1977
1976
1976
1976
1975
1975
1975
1975
1976
1976
1976
1977
1977
1977
1977
1976
1976
1976
1976
1977
1977
1977
1976
1976
1976
1976
1976
1976
1976
1975
1975
1975
1975
1975
1975
1975
1975
1974
1974
1974
1975
1975
1975
1975
1975
1975
1974
1974
1974
1974
1974
1974
1974
1975
1975
1975
1974
1974
1975
1975
1975
1975
1975
1975
1975
1975
1976
1976
1975
1975
1974
1974
1975
1975
1975
1975
1975
1975
1975
1976
1976
1976
1975
1975
1975
1975
1975
1975
1975
1975
1974
1974
1976
1983
1992
1998
1997
1987
1970
1953
1940
1935
1936
1943
1953
1964
1973
1980
1983
1982
1981
1982
1983
1983
1984
1984
1984
1984
1985
1985
1986
1986
1986
1987
1987
1987
1987
1988
1988
1988
1988
1988
1989
1990
1990
1991
1991
1992
1992
1993
1994
1994
1995
1996
1996
1997
1997
1998
1999
2000
2001
2002
2003
2004
2005
2005
2005
2006
2006
2006
2006
2007
2006
2006
2004
2003
2001
1999
1997
1994
1992
1990
1988
1986
1985
1983
1982
1981
1979
1978
1977
1977
1977
1977
1977
1977
1977
1977
1976
1977
1977
1977
1977
1977
1977
1977
1977
1977
1977
1977
1977
1977
1977
1977
1977
1977
1977
1976
1976
1976
1976
1976
1976
1976
1976
1975
1976
1976
1976
1976
1976
1976
1976
1976
1976
1976
1975
1975
1975
1975
1975
1975
1975
1976
1976
1976
1976
1975
1975
1975
1975
1976
1976
1976
1975
1975
1975
1976
1976
1976
1976
1976
1975
1976
1976
1976
1976
1976
1975
1975
1975
1975
1975
1975
1975
1976
1977
1977
1977
1976
1976
1976
1975
1975
1975
1975
1975
1975
1975
1975
1975
1975
1975
1975
1974
1976
1982
1990
1996
1995
1986
1971
1956
1945
1941
1943
1949
1957
1965
1974
1980
1983
1983
1982
1982
1982
1983
1983
1983
1984
1984
1985
1985
1986
1986
1986
1987
1987
1987
1988
1988
1988
1988
1989
1989
1990
1990
1990
1991
1991
1992
1992
1993
1993
1994
1994
1995
1996
1996
1997
1998
1998
1999
2000
2001
2002
2003
2004
2005
2005
2005
2005
2005
2006
2006
2006
2006
2005
2004
2003
2001
1999
1997
1994
1992
1990
1988
1986
1985
1984
1983
1982
1981
1980
1979
1979
1979
1979
1979
1980
1980
1979
1979
1979
1979
1979
1980
1979
1979
1979
1979
1979
1979
1979
1979
1980
1979
1979
1978
1978
1978
1977
1977
1977
1978
1978
1978
1978
1977
1977
1977
1977
1977
1977
1976
1976
1976
1976
1976
1977
1977
1977
1976
1976
1976
1977
1977
1977
1977
1977
1976
1976
1977
1977
1978
1977
1977
1976
1976
1976
1976
1976
1976
1976
1976
1977
1976
1977
1977
1977
1977
1977
1977
1976
1976
1976
1977
1977
1977
1977
1977
1977
1977
1977
1977
1977
1977
1977
1977
1978
1978
1979
1979
1979
1978
1977
1976
1976
1976
1977
1978
1978
1978
1978
1978
1977
1977
1977
1977
1977
1978
1978
1978
1977
1976
1977
1983
1993
2001
2004
1998
1984
1969
1955
1948
1946
1951
1958
1967
1976
1982
1985
1985
1985
1985
1986
1986
1986
1987
1987
1987
1986
1986
1985
1986
1987
1988
1988
1989
1988
1988
1989
1989
1990
1991
1992
1992
1992
1992
1992
1992
1993
1993
1994
1995
1995
1995
1996
1996
1997
1998
1998
1999
1999
2000
2001
2002
2002
2002
2003
2003
2004
2004
2005
2004
2004
2003
2003
2002
2001
2000
1998
1996
1994
1992
1990
1989
1987
1985
1983
1982
1981
1980
1980
1980
1979
1979
1979
1978
1978
1978
1979
1979
1979
1979
1979
1979
1979
1980
1980
1980
1979
1979
1978
1978
1979
1979
1979
1978
1978
1977
1977
1977
1978
1978
1978
1978
1977
1977
1977
1977
1977
1977
1977
1976
1976
1976
1977
1977
1977
1976
1976
1976
1976
1976
1977
1977
1978
1977
1977
1977
1977
1977
1976
1976
1976
1976
1976
1976
1976
1976
1976
1977
1977
1977
1976
1976
1976
1976
1976
1976
1976
1976
1976
1975
1975
1975
1976
1976
1976
1976
1976
1976
1976
1976
1976
1977
1977
1977
1977
1977
1976
1976
1976
1976
1976
1976
1976
1976
1977
1977
1977
1977
1976
1976
1976
1977
1977
1978
1977
1976
1976
1975
1976
1977
1977
1977
1976
1976
1978
1986
1995
2001
2000
1992
1978
1964
1952
1947
1946
1951
1959
1968
1977
1982
1984
1983
1981
1982
1983
1983
1984
1984
1983
1983
1984
1984
1985
1985
1985
1985
1985
1986
1986
1987
1987
1988
1988
1988
1988
1989
1989
1989
1989
1990
1990
1991
1991
1992
1993
1994
1994
1994
1995
1995
1996
1997
1998
1998
1998
1999
2000
2001
2001
2002
2002
2002
2002
2002
2001
2001
2000
1999
1999
1998
1996
1995
1992
1990
1988
1986
1983
1982
1980
1979
1979
1978
1977
1977
1977
1977
1977
1977
1977
1977
1977
1977
1977
1977
1977
1977
1977
1977
1977
1976
1976
1976
1976
1976
1976
1977
1977
1977
1977
1977
1977
1977
1976
1976
1976
1976
1976
1976
1976
1976
1976
1976
1976
1976
1976
1976
1976
1976
1975
1975
1975
1975
1976
1976
1977
1976
1976
1976
1976
1976
1976
1977
1977
1976
1976
1976
1976
1976
1976
1976
1976
1975
1975
1975
1975
1976
1976
1977
1977
1977
1977
1976
1976
1976
1976
1976
1976
1976
1976
1976
1976
1976
1977
1977
1977
1977
1977
1977
1977
1977
1977
1977
1977
1978
1978
1978
1978
1978
1977
1977
1977
1977
1978
1978
1978
1978
1978
1977
1977
1976
1976
1975
1977
1982
1991
2001
2006
2004
1993
1976
1960
1948
1944
1946
1953
1963
1973
1980
1984
1985
1984
1983
1984
1984
1984
1985
1986
1986
1986
1985
1985
1985
1986
1987
1988
1989
1989
1989
1989
1989
1989
1990
1990
1991
1991
1992
1992
1993
1993
1994
1994
1995
1995
1996
1997
1997
1998
1998
1999
2000
2001
2002
2003
2003
2003
2004
2004
2005
2005
2006
2005
2005
2005
2005
2004
2004
2003
2001
1999
1997
1995
1993
1990
1988
1986
1984
1983
1982
1981
1980
1979
1978
1978
1978
1978
1977
1977
1977
1977
1977
1977
1977
1977
1978
1978
1977
1977
1977
1977
1977
1977
1977
1977
1977
1977
1977
1977
1977
1977
1977
1976
1976
1976
1976
1976
1975
1975
1975
1975
1975
1975
1975
1975
1975
1975
1975
1975
1975
1975
1975
1975
1975
1975
1975
1975
1975
1974
1974
1974
1975
1975
1975
1975
1975
1975
1975
1975
1975
1976
1975
1975
1975
1975
1976
1976
1975
1975
1975
1976
1976
1976
1976
1976
1975
1975
1975
1975
1975
1975
1975
1975
1976
1976
1976
1975
1975
1974
1973
1976
1982
1993
2002
2004
1997
1982
1963
1947
1937
1935
1940
1950
1962
1973
1980
1983
1983
1982
1982
1983
1983
1984
1984
1984
1985
1985
1985
1986
1986
1986
1986
1987
1987
1987
1988
1988
1988
1989
1989
1990
1990
1991
1992
1992
1993
1994
1994
1995
1995
1995
1995
1996
1996
1997
1998
2000
2001
2002
2003
2003
2003
2003
2003
2004
2005
2006
2006
2006
2005
2005
2004
2003
2002
2000
1998
1996
1993
1991
1989
1986
1984
1982
1980
1979
1978
1978
1978
1978
1978
1977
1976
1976
1976
1976
1976
1977
1977
1976
1976
1976
1976
1976
1976
1976
1976
1976
1976
1976
1976
1976
1976
1976
1976
1976
1976
1976
1976
1975
1975
1974
1975
1975
1975
1975
1975
1975
1975
1976
1976
1976
1976
1977
1977
1976
1976
1976
1975
1975
1975
1975
1975
1975
1975
1976
1976
1977
1976
1975
1975
1974
1975
1975
1976
1977
1977
1977
1977
1976
1977
1977
1977
1977
1977
1977
1977
1978
1978
1978
1978
1977
1977
1977
1977
1978
1978
1978
1978
1978
1978
1977
1977
1977
1976
1975
1974
1975
1981
1991
2001
2004
1999
1985
1968
1954
1946
1944
1948
1955
1964
1973
1981
1985
1986
1985
1985
1984
1984
1985
1986
1986
1987
1987
1986
1987
1988
1989
1990
1991
1991
1991
1990
1991
1991
1991
1992
1993
1993
1993
1993
1993
1994
1996
1998
1999
1999
1999
1999
1999
1999
2001
2002
2004
2005
2006
2006
2006
2006
2006
2007
2007
2008
2009
2010
2010
2010
2009
2008
2007
2006
2005
2003
2000
1998
1995
1993
1992
1991
1990
1988
1987
1986
1984
1983
1982
1982
1982
1982
1982
1982
1982
1981
1981
1982
1982
1983
1983
1984
1984
1984
1983
1982
1982
1982
1982
1983
1984
1983
1981
1980
1980
1981
1982
1983
1982
1981
1979
1979
1979
1980
1980
1980
1980
1979
1979
1978
1978
1979
1979
1980
1981
1981
1981
1981
1980
1980
1979
1979
1979
1979
1979
1979
1978
1978
1978
1979
1979
1980
1981
1980
1980
1979
1978
1978
1978
1978
1978
1978
1978
1978
1978
1979
1979
1979
1977
1976
1978
1985
1996
2003
2001
1991
1975
1957
1945
1939
1940
1946
1956
1967
1976
1982
1985
1984
1983
1983
1984
1984
1985
1986
1987
1987
1987
1987
1987
1987
1987
1988
1988
1988
1988
1989
1990
1991
1991
1991
1991
1991
1992
1993
1994
1994
1995
1995
1996
1996
1997
1998
1998
1999
2000
2001
2001
2002
2003
2004
2005
2006
2006
2007
2008
2009
2009
2008
2008
2007
2007
2006
2005
2002
2000
1998
1995
1993
1990
1988
1986
1984
1982
1981
1981
1980
1980
1979
1978
1976
1975
1976
1977
1978
1978
1978
1978
1977
1978
1978
1978
1978
1978
1978
1977
1977
1977
1977
1977
1978
1978
1978
1978
1978
1978
1978
1977
1977
1977
1977
1977
1977
1977
1977
1976
1976
1975
1975
1975
1975
1976
1976
1976
1975
1975
1975
1975
1975
1976
1976
1977
1977
1976
1976
1975
1975
1975
1975
1975
1975
1975
1974
1974
1973
1973
1973
1974
1974
1975
1975
1975
1975
1975
1974
1973
1974
1978
1986
1996
2000
1996
1983
1965
1948
1937
1934
1937
1946
1956
1967
1976
1981
1983
1982
1981
1981
1982
1982
1982
1982
1983
1983
1984
1984
1984
1985
1985
1985
1986
1986
1987
1987
1988
1988
1988
1988
1988
1989
1990
1991
1991
1992
1993
1993
1994
1994
1995
1996
1997
1998
1999
2000
2000
2001
2001
2002
2003
2004
2005
2005
2005
2005
2005
2005
2005
2005
2004
2003
2002
2000
1997
1994
1991
1988
1986
1984
1983
1981
1981
1980
1979
1978
1977
1976
1976
1975
1975
1975
1975
1976
1976
1976
1976
1975
1975
1975
1975
1975
1975
1976
1976
1977
1977
1977
1976
1976
1975
1975
1975
1975
1975
1975
1974
1974
1974
1974
1974
1973
1973
1972
1972
1972
1973
1973
1973
1973
1973
1972
1972
1972
1972
1972
1973
1973
1973
1973
1972
1972
1971
1971
1971
1971
1971
1971
1971
1971
1972
1972
1973
1973
1974
1973
1973
1973
1973
1973
1973
1973
1973
1972
1972
1973
1974
1974
1974
1974
1973
1973
1973
1973
1973
1973
1973
1973
1973
1973
1973
1973
1972
1972
1973
1979
1988
1996
1998
1993
1980
1965
1953
1945
1943
1946
1953
1962
1971
1978
1982
1981
1980
1979
1979
1980
1980
1981
1981
1981
1982
1982
1982
1982
1982
1982
1983
1983
1984
1984
1985
1985
1985
1986
1986
1987
1987
1988
1989
1990
1990
1990
1990
1991
1991
1992
1993
1993
1994
1995
1996
1997
1998
1999
1999
2000
2001
2001
2001
2001
2002
2002
2002
2002
2001
2000
1999
1998
1997
1995
1994
1992
1990
1988
1986
1983
1982
1980
1979
1978
1978
1977
1976
1975
1975
1974
1975
1975
1976
1976
1975
1975
1975
1975
1975
1976
1976
1976
1975
1975
1975
1975
1975
1975
1974
1974
1974
1974
1974
1973
1973
1973
1974
1974
1974
1973
1973
1973
1972
1972
1972
1972
1972
1972
1972
1971
1971
1971
1971
1971
1971
1971
1971
1971
1971
1971
1971
1971
1971
1971
1972
1972
1972
1972
1972
1972
1972
1972
1972
1972
1972
1972
1972
1973
1973
1974
1974
1974
1974
1973
1973
1972
1972
1972
1973
1974
1974
1974
1974
1974
1973
1972
1973
1978
1987
1997
2003
2002
1992
1976
1958
1945
1938
1939
1947
1958
1968
1976
1979
1979
1978
1978
1978
1979
1979
1979
1980
1980
1981
1981
1981
1981
1981
1981
1981
1982
1983
1983
1984
1983
1983
1983
1984
1985
1985
1986
1986
1986
1987
1988
1988
1989
1990
1990
1991
1992
1993
1994
1994
1994
1994
1995
1996
1997
1999
2000
2000
2000
2000
2000
2000
2000
2000
1999
1997
1996
1994
1992
1990
1988
1986
1984
1982
1981
1979
1978
1976
1975
1974
1973
1973
1973
1973
1973
1973
1973
1973
1973
1973
1974
1974
1974
1974
1974
1974
1974
1975
1975
1975
1975
1974
1975
1975
1975
1975
1975
1974
1974
1974
1974
1974
1975
1975
1975
1975
1974
1973
1973
1974
1974
1974
1974
1974
1974
1974
1973
1973
1973
1973
1974
1974
1975
1975
1975
1975
1975
1975
1974
1974
1973
1974
1974
1975
1975
1975
1975
1975
1975
1975
1975
1974
1972
1972
1972
1973
1973
1974
1974
1973
1972
1972
1971
1970
1972
1978
1989
2000
2007
2006
1995
1976
1954
1937
1930
1932
1943
1956
1969
1976
1979
1979
1978
1978
1979
1979
1979
1980
1981
1981
1981
1981
1980
1980
1981
1982
1983
1983
1983
1983
1983
1983
1984
1984
1985
1986
1987
1988
1988
1989
1989
1990
1990
1991
1992
1992
1993
1993
1994
1995
1996
1996
1997
1998
1999
2000
2001
2002
2002
2001
2001
2000
2000
2000
1999
1999
1998
1996
1993
1991
1988
1986
1984
1982
1980
1978
1977
1976
1975
1974
1972
1971
1971
1971
1971
1971
1971
1971
1971
1971
1971
1971
1971
1971
1971
1971
1972
1972
1973
1972
1972
1972
1972
1972
1972
1971
1971
1971
1971
1972
1972
1972
1971
1971
1971
1970
1970
1970
1970
1970
1970
1970
1971
1971
1971
1970
1970
1969
1969
1970
1970
1971
1971
1971
1971
1971
1971
1971
1971
1972
1971
1971
1970
1970
1970
1971
1971
1972
1971
1971
1970
1970
1971
1971
1971
1972
1972
1971
1971
1971
1971
1971
1971
1971
1970
1970
1973
1980
1991
1999
2002
1995
1980
1962
1945
1935
1933
1939
1950
1962
1973
1978
1980
1978
1977
1977
1978
1978
1979
1980
1981
1981
1982
1982
1982
1982
1983
1984
1984
1984
1984
1984
1985
1986
1987
1988
1989
1989
1990
1990
1991
1991
1992
1992
1993
1994
1995
1995
1996
1997
1997
1998
1998
1999
2000
2001
2002
2003
2003
2004
2004
2004
2005
2005
2004
2003
2002
2001
2000
1999
1997
1995
1992
1990
1988
1986
1985
1983
1982
1980
1979
1978
1978
1977
1977
1976
1976
1976
1977
1977
1977
1976
1976
1976
1976
1976
1976
1977
1977
1977
1976
1976
1976
1977
1977
1976
1976
1976
1976
1976
1975
1975
1975
1975
1975
1975
1975
1974
1974
1974
1974
1975
1975
1974
1974
1974
1974
1974
1974
1974
1975
1975
1975
1975
1974
1975
1975
1975
1975
1976
1975
1975
1974
1974
1973
1974
1974
1975
1975
1975
1975
1975
1975
1975
1976
1976
1976
1976
1976
1976
1976
1976
1976
1976
1976
1976
1976
1975
1976
1976
1977
1977
1977
1977
1977
1976
1976
1976
1976
1976
1976
1976
1976
1976
1976
1976
1976
1975
1975
1976
1981
1989
1996
1998
1992
1981
1968
1957
1950
1948
1951
1957
1965
1973
1979
1982
1982
1981
1981
1981
1982
1982
1983
1983
1983
1983
1983
1984
1984
1984
1985
1985
1985
1986
1986
1986
1987
1987
1988
1989
1989
1990
1990
1990
1991
1991
1992
1992
1993
1994
1994
1995
1996
1996
1997
1997
1998
1999
1999
2000
2001
2001
2002
2002
2002
2002
2002
2002
2002
2002
2002
2001
2000
1999
1997
1995
1993
1991
1989
1987
1986
1984
1983
1981
1980
1980
1979
1978
1978
1977
1977
1977
1976
1976
1977
1977
1977
1977
1977
1977
1977
1977
1977
1977
1977
1977
1977
1977
1977
1977
1976
1976
1976
1976
1976
1976
1976
1976
1976
1975
1975
1975
1975
1975
1975
1975
1975
1975
1975
1975
1975
1975
1975
1975
1975
1975
1975
1975
1975
1975
1975
1975
1975
1975
1975
1975
1975
1975
1975
1975
1976
1976
1976
1975
1975
1975
1975
1975
1975
1975
1975
1975
1975
1975
1975
1975
1975
1975
1975
1975
1975
1975
1975
1976
1976
1976
1976
1976
1976
1976
1976
1976
1976
1976
1976
1976
1976
1976
1977
1977
1977
1977
1977
1977
1977
1977
1977
1977
1977
1977
1977
1977
1976
1976
1977
1978
1978
1978
1978
1978
1978
1978
1978
1978
1978
1978
1978
1979
1979
1979
1979
1979
1979
1979
1978
1978
1978
1978
1979
1979
1979
1979
1978
1977
1979
1984
1993
2000
2001
1994
1983
1970
1960
1955
1954
1957
1962
1969
1977
1984
1987
1987
1986
1985
1986
1986
1987
1987
1987
1987
1988
1988
1988
1988
1989
1989
1989
1989
1990
1990
1990
1991
1991
1991
1992
1992
1993
1993
1993
1993
1994
1994
1995
1996
1996
1997
1997
1998
1999
1999
2000
2000
2001
2002
2002
2003
2003
2004
2004
2004
2005
2005
2005
2005
2005
2005
2005
2004
2003
2002
2001
2000
1998
1996
1994
1993
1991
1989
1988
1987
1986
1985
1984
1983
1983
1982
1982
1982
1982
1982
1982
1982
1982
1982
1982
1982
1982
1982
1982
1982
1982
1982
1982
1982
1982
1982
1981
1981
1981
1981
1981
1981
1981
1981
1981
1980
1980
1980
1980
1979
1979
1979
1979
1979
1979
1979
1979
1979
1979
1979
1979
1979
1979
1979
1979
1979
1979
1979
1979
1979
1979
1979
1979
1979
1979
1979
1979
1979
1978
1978
1978
1978
1978
1978
1979
1979
1979
1979
1979
1979
1979
1979
1979
1979
1979
1979
1979
1979
1979
1979
1979
1979
1979
1979
1979
1979
1979
1979
1979
1979
1979
1979
1979
1979
1979
1979
1979
1979
1979
1979
1979
1979
1979
1979
1979
1979
1979
1979
1979
1979
1979
1979
1979
1979
1979
1979
1979
1979
1979
1979
1980
1980
1979
1979
1978
1978
1978
1979
1979
1979
1979
1979
1979
1979
1979
1979
1978
1977
1979
1985
1994
2001
2002
1995
1982
1968
1957
1952
1952
1955
1962
1969
1977
1983
1986
1986
1984
1984
1984
1985
1985
1986
1986
1986
1986
1987
1987
1988
1988
1988
1988
1988
1989
1989
1989
1990
1990
1990
1990
1991
1991
1992
1992
1993
1994
1994
1994
1995
1995
1996
1997
1997
1998
1998
1999
1999
2000
2001
2001
2002
2002
2003
2003
2004
2004
2004
2004
2004
2004
2004
2004
2003
2002
2001
2000
1998
1996
1994
1992
1991
1989
1987
1986
1984
1983
1982
1981
1980
1980
1980
1979
1979
1979
1979
1979
1979
1979
1979
1979
1979
1979
1979
1979
1979
1979
1979
1978
1978
1978
1978
1978
1978
1978
1978
1978
1978
1978
1978
1978
1978
1977
1977
1977
1977
1977
1977
1977
1977
1977
1977
1977
1977
1977
1977
1977
1977
1977
1977
1977
1977
1977
1977
1977
1977
1977
1977
1977
1977
1977
1977
1978
1978
1978
1978
1978
1978
1978
1978
1978
1978
1978
1978
1978
1978
1979
1979
1979
1979
1979
1979
1979
1979
1979
1979
1979
1979
1979
1979
1979
1979
1979
1979
1979
1979
1979
1979
1979
1979
1979
1980
1979
1979
1979
1979
1979
1979
1980
1980
1980
1980
1980
1979
1980
1980
1980
1980
1979
1979
1979
1980
1980
1981
1981
1980
1980
1980
1979
1979
1979
1979
1979
1980
1980
1980
1980
1979
1978
1979
1982
1989
1998
2003
2000
1991
1978
1965
1956
1953
1954
1959
1966
1974
1981
1986
1987
1986
1985
1985
1986
1986
1986
1987
1987
1988
1988
1988
1988
1988
1988
1989
1989
1989
1989
1990
1990
1990
1991
1991
1992
1992
1992
1993
1993
1994
1994
1994
1995
1995
1996
1997
1997
1998
1999
1999
2000
2000
2001
2002
2002
2003
2004
2004
2004
2004
2004
2004
2005
2005
2005
2004
2004
2003
2002
2001
2000
1998
1996
1994
1992
1990
1988
1987
1985
1984
1983
1982
1982
1981
1981
1981
1980
1980
1980
1980
1980
1980
1980
1980
1980
1980
1980
1980
1980
1980
1980
1980
1980
1980
1980
1980
1980
1979
1979
1979
1979
1979
1978
1978
1978
1978
1978
1978
1978
1978
1978
1978
1978
1977
1977
1978
1978
1978
1977
1977
1977
1977
1977
1977
1977
1977
1977
1977
1977
1977
1977
1977
1977
1977
1977
1977
1977
1977
1977
1978
1978
1978
1978
1977
1977
1977
1977
1977
1977
1978
1978
1978
1978
1978
1978
1978
1978
1978
1978
1978
1978
1978
1978
1978
1978
1978
1978
1978
1978
1978
1978
1978
1978
1978
1978
1978
1979
1979
1979
1979
1979
1979
1979
1979
1979
1979
1979
1979
1980
1980
1980
1980
1979
1979
1979
1978
1978
1978
1979
1979
1979
1979
1979
1978
1977
1977
1978
1984
1993
2001
2003
1998
1986
1972
1960
1953
1951
1954
1960
1968
1977
1983
1986
1986
1985
1984
1985
1985
1986
1986
1986
1986
1986
1987
1987
1987
1988
1988
1988
1989
1989
1989
1989
1990
1990
1990
1991
1991
1992
1992
1993
1993
1994
1995
1995
1995
1995
1996
1997
1998
1999
1999
1999
2000
2000
2001
2002
2002
2003
2003
2003
2004
2004
2004
2005
2005
2004
2004
2003
2003
2002
2001
2000
1998
1996
1994
1992
1990
1988
1986
1985
1984
1982
1981
1980
1980
1980
1979
1979
1979
1979
1979
1979
1978
1978
1979
1979
1979
1979
1978
1978
1978
1978
1978
1978
1979
1978
1978
1978
1978
1978
1978
1978
1978
1977
1977
1977
1977
1977
1977
1976
1976
1976
1976
1976
1976
1976
1976
1976
1976
1976
1976
1976
1976
1976
1976
1976
1976
1976
1976
1976
1976
1976
1976
1976
1976
1976
1976
1977
1976
1976
1976
1976
1976
1976
1976
1977
1977
1977
1977
1976
1976
1976
1976
1976
1977
1977
1977
1977
1977
1977
1978
1978
1978
1977
1977
1977
1977
1977
1977
1977
1978
1978
1978
1978
1978
1977
1977
1977
1977
1977
1977
1977
1977
1978
1978
1978
1978
1977
1976
1976
1979
1986
1996
2003
2004
1997
1983
1968
1956
1949
1948
1952
1960
1970
1978
1984
1985
1985
1984
1984
1984
1984
1985
1985
1986
1986
1986
1986
1986
1987
1987
1988
1988
1989
1989
1989
1989
1989
1990
1990
1991
1991
1992
1992
1992
1993
1993
1994
1995
1995
1996
1997
1997
1998
1999
2000
2000
2001
2002
2002
2003
2003
2004
2005
2005
2006
2006
2006
2006
2006
2006
2005
2005
2003
2002
2000
1998
1995
1993
1991
1989
1988
1986
1985
1984
1982
1981
1981
1980
1979
1979
1979
1979
1979
1979
1979
1979
1978
1978
1978
1978
1979
1979
1979
1979
1979
1979
1979
1978
1978
1978
1978
1978
1978
1978
1978
1978
1978
1978
1977
1977
1977
1976
1976
1976
1977
1977
1977
1976
1976
1976
1976
1976
1976
1976
1976
1976
1976
1976
1976
1976
1976
1976
1976
1976
1976
1976
1975
1975
1975
1976
1976
1976
1976
1976
1976
1976
1976
1976
1976
1976
1976
1976
1976
1976
1977
1977
1977
1977
1977
1977
1977
1977
1977
1977
1977
1977
1976
1976
1976
1976
1977
1977
1977
1977
1977
1977
1977
1977
1977
1977
1977
1977
1977
1977
1977
1977
1976
1976
1975
1976
1982
1991
2000
2004
2000
1989
1974
1959
1949
1945
1948
1955
1965
1974
1981
1984
1984
1982
1982
1982
1983
1984
1984
1984
1984
1984
1985
1985
1986
1986
1986
1986
1986
1986
1987
1987
1988
1989
1990
1990
1990
1990
1991
1991
1992
1992
1992
1993
1993
1994
1995
1996
1996
1997
1997
1998
1999
2000
2001
2002
2003
2003
2003
2003
2004
2004
2004
2004
2005
2005
2004
2003
2002
2001
1999
1997
1995
1993
1990
1989
1987
1985
1984
1982
1980
1979
1979
1978
1978
1978
1977
1977
1976
1976
1976
1976
1975
1976
1976
1977
1977
1977
1977
1977
1977
1977
1977
1976
1976
1976
1976
1977
1977
1976
1976
1975
1975
1975
1975
1975
1975
1975
1975
1975
1974
1974
1974
1973
1974
1974
1974
1974
1974
1974
1974
1974
1974
1974
1974
1974
1974
1974
1974
1975
1975
1974
1974
1974
1974
1974
1975
1975
1975
1974
1974
1975
1975
1975
1975
1975
1974
1974
1974
1974
1974
1974
1974
1974
1974
1974
1974
1974
1974
1974
1973
1973
1973
1973
1974
1974
1974
1974
1974
1974
1973
1972
1972
1977
1986
1996
2003
2002
1993
1977
1960
1947
1940
1940
1947
1957
1968
1976
1980
1981
1980
1979
1979
1980
1980
1981
1981
1981
1982
1982
1983
1983
1984
1984
1983
1983
1984
1984
1985
1986
1986
1986
1987
1987
1987
1988
1989
1989
1990
1991
1991
1992
1992
1993
1993
1994
1995
1996
1997
1998
1999
2000
2001
2001
2001
2002
2003
2004
2005
2005
2005
2004
2004
2003
2002
2001
2000
1998
1997
1994
1992
1989
1987
1984
1983
1981
1980
1979
1979
1978
1977
1977
1976
1976
1976
1976
1976
1976
1976
1976
1976
1976
1977
1977
1977
1977
1977
1977
1978
1977
1977
1977
1976
1977
1977
1977
1977
1977
1976
1976
1976
1976
1976
1976
1976
1975
1975
1975
1975
1975
1975
1975
1975
1975
1975
1975
1975
1975
1975
1974
1974
1974
1974
1975
1975
1975
1975
1974
1974
1974
1974
1974
1974
1974
1974
1974
1974
1974
1974
1974
1974
1974
1974
1973
1973
1973
1973
1973
1972
1972
1972
1972
1973
1973
1973
1973
1972
1971
1970
1972
1977
1986
1997
2003
2001
1991
1974
1955
1940
1933
1934
1942
1954
1966
1975
1979
1980
1978
1978
1978
1979
1979
1980
1980
1980
1980
1981
1981
1982
1982
1983
1983
1984
1984
1985
1985
1985
1986
1986
1986
1987
1989
1990
1990
1990
1990
1991
1992
1993
1993
1994
1995
1995
1996
1997
1998
2000
2001
2002
2003
2003
2004
2004
2005
2005
2006
2006
2006
2006
2005
2005
2004
2002
2000
1997
1994
1992
1990
1988
1985
1983
1982
1981
1980
1979
1978
1976
1976
1975
1975
1976
1976
1975
1974
1974
1973
1974
1974
1975
1975
1975
1975
1976
1976
1977
1977
1977
1976
1976
1976
1975
1975
1975
1975
1975
1975
1975
1975
1975
1975
1974
1974
1974
1975
1975
1974
1974
1974
1974
1974
1974
1974
1974
1973
1973
1973
1973
1973
1973
1974
1974
1974
1974
1974
1974
1973
1973
1972
1972
1972
1972
1973
1974
1974
1974
1974
1973
1973
1972
1972
1972
1972
1973
1973
1973
1973
1973
1973
1973
1972
1971
1972
1976
1986
1997
2004
2003
1993
1975
1956
1941
1933
1934
1943
1955
1967
1975
1979
1980
1978
1978
1978
1979
1980
1981
1981
1981
1981
1981
1981
1981
1981
1982
1983
1984
1984
1985
1985
1985
1986
1987
1987
1988
1988
1989
1989
1990
1991
1991
1992
1993
1994
1995
1996
1996
1997
1998
1999
2000
2001
2001
2002
2003
2004
2005
2005
2006
2006
2006
2006
2006
2005
2004
2002
2001
1999
1996
1994
1991
1988
1986
1984
1983
1981
1980
1979
1978
1977
1976
1976
1975
1974
1974
1973
1973
1973
1974
1974
1975
1975
1975
1975
1975
1975
1975
1975
1976
1976
1976
1976
1976
1975
1975
1975
1975
1975
1975
1975
1975
1975
1975
1975
1974
1974
1973
1973
1973
1974
1974
1974
1974
1974
1973
1973
1973
1973
1973
1973
1973
1974
1974
1974
1974
1974
1974
1974
1974
1974
1973
1973
1974
1974
1975
1975
1974
1974
1974
1974
1974
1974
1973
1973
1973
1973
1974
1974
1974
1974
1973
1972
1971
1972
1976
1985
1994
1999
1996
1984
1969
1954
1944
1940
1942
1950
1960
1970
1978
1982
1982
1981
1980
1980
1981
1981
1981
1982
1982
1982
1983
1983
1983
1984
1984
1984
1985
1985
1985
1986
1986
1986
1987
1988
1988
1989
1990
1990
1991
1991
1991
1992
1993
1994
1994
1995
1996
1997
1998
1999
2000
2001
2001
2002
2003
2004
2004
2005
2005
2006
2006
2006
2006
2005
2004
2002
2000
1998
1995
1993
1990
1988
1986
1984
1982
1981
1979
1978
1977
1977
1976
1976
1975
1975
1975
1974
1974
1974
1974
1974
1975
1975
1975
1975
1975
1975
1975
1975
1975
1975
1976
1976
1975
1975
1975
1975
1975
1975
1975
1975
1974
1974
1974
1974
1974
1974
1973
1973
1973
1973
1973
1973
1972
1972
1972
1973
1973
1973
1973
1972
1972
1972
1972
1972
1972
1973
1973
1973
1973
1973
1973
1973
1973
1973
1973
1973
1973
1973
1973
1973
1973
1973
1974
1974
1974
1974
1974
1974
1974
1974
1974
1974
1973
1973
1973
1973
1973
1974
1974
1974
1974
1974
1974
1974
1973
1973
1973
1973
1974
1974
1974
1974
1974
1973
1972
1973
1978
1986
1994
1997
1993
1982
1968
1956
1948
1946
1948
1954
1962
1971
1978
1982
1982
1981
1980
1981
1981
1982
1982
1983
1983
1984
1984
1984
1984
1984
1984
1985
1985
1985
1986
1986
1987
1987
1988
1988
1988
1989
1989
1990
1991
1991
1992
1992
1993
1994
1994
1995
1996
1996
1997
1998
1999
2000
2001
2001
2002
2003
2003
2004
2004
2005
2005
2005
2005
2005
2004
2003
2002
2000
1998
1996
1994
1991
1989
1986
1984
1983
1981
1980
1979
1978
1978
1977
1977
1976
1976
1976
1975
1975
1975
1975
1975
1975
1976
1975
1975
1975
1975
1975
1976
1976
1976
1976
1976
1976
1976
1975
1975
1975
1975
1975
1975
1975
1975
1975
1975
1975
1974
1974
1974
1974
1974
1974
1974
1974
1974
1974
1974
1974
1973
1973
1973
1974
1974
1974
1974
1974
1974
1974
1974
1974
1974
1974
1974
1974
1973
1973
1974
1974
1974
1974
1973
1973
1973
1974
1974
1974
1974
1974
1974
1973
1973
1974
1974
1974
1974
1974
1974
1974
1974
1974
1974
1974
1974
1974
1974
1974
1974
1975
1975
1975
1975
1975
1975
1975
1975
1975
1975
1975
1974
1974
1975
1975
1976
1976
1976
1975
1975
1975
1975
1975
1975
1975
1975
1975
1976
1976
1976
1975
1974
1975
1980
1988
1996
1999
1993
1982
1968
1956
1950
1949
1951
1956
1964
1972
1978
1982
1983
1982
1982
1982
1982
1983
1983
1984
1984
1984
1984
1985
1985
1985
1985
1985
1986
1986
1986
1986
1987
1987
1988
1988
1989
1989
1989
1990
1990
1991
1992
1992
1993
1994
1994
1995
1995
1996
1997
1998
1999
2000
2000
2001
2002
2003
2003
2004
2005
2005
2005
2005
2005
2005
2005
2005
2004
2002
2000
1998
1996
1994
1992
1990
1988
1986
1984
1983
1982
1981
1980
1979
1978
1978
1977
1977
1977
1977
1977
1977
1977
1977
1977
1977
1977
1977
1977
1977
1977
1977
1977
1977
1977
1977
1977
1977
1977
1977
1977
1977
1977
1977
1977
1977
1977
1977
1977
1977
1977
1976
1976
1976
1976
1976
1976
1976
1976
1976
1976
1976
1976
1976
1976
1976
1976
1976
1976
1976
1976
1976
1976
1976
1976
1976
1976
1976
1976
1976
1976
1976
1976
1976
1976
1977
1977
1976
1976
1976
1977
1977
1977
1977
1977
1977
1977
1977
1977
1977
1977
1977
1977
1977
1977
1977
1978
1978
1978
1978
1978
1978
1978
1978
1978
1978
1978
1978
1978
1978
1978
1978
1978
1978
1978
1978
1978
1978
1978
1979
1979
1979
1979
1979
1979
1979
1979
1979
1978
1978
1978
1979
1980
1980
1980
1980
1979
1979
1979
1978
1978
1978
1979
1979
1979
1979
1978
1977
1977
1978
1982
1991
1999
2003
1998
1987
1973
1962
1955
1953
1955
1960
1967
1975
1981
1986
1986
1985
1984
1985
1985
1985
1985
1986
1986
1986
1986
1987
1987
1987
1987
1988
1988
1989
1989
1989
1990
1990
1990
1991
1991
1991
1992
1992
1992
1993
1994
1994
1995
1996
1996
1997
1997
1998
1998
1999
2000
2001
2002
2002
2003
2003
2004
2005
2006
2006
2006
2006
2006
2006
2006
2006
2005
2004
2003
2001
1999
1997
1994
1992
1990
1988
1986
1985
1983
1982
1981
1981
1980
1979
1979
1978
1978
1978
1979
1979
1978
1978
1978
1978
1978
1979
1979
1979
1979
1978
1978
1979
1979
1979
1978
1978
1978
1978
1978
1977
1978
1978
1978
1977
1977
1977
1977
1977
1977
1977
1977
1977
1977
1977
1977
1977
1977
1977
1977
1977
1977
1977
1976
1976
1976
1976
1976
1976
1976
1976
1976
1976
1976
1977
1977
1977
1977
1976
1976
1976
1977
1977
1977
1977
1977
1977
1977
1977
1977
1977
1977
1977
1977
1977
1977
1977
1977
1977
1977
1977
1977
1977
1977
1977
1978
1978
1978
1978
1978
1978
1978
1978
1978
1978
1978
1978
1978
1978
1978
1978
1978
1978
1978
1979
1979
1978
1978
1978
1978
1978
1979
1979
1979
1980
1980
1980
1980
1979
1979
1979
1979
1979
1978
1978
1978
1978
1978
1978
1978
1978
1977
1976
1978
1983
1992
2000
2002
1997
1985
1971
1960
1953
1951
1954
1960
1967
1976
1982
1985
1985
1984
1983
1983
1984
1985
1985
1985
1986
1986
1986
1986
1987
1987
1987
1987
1988
1988
1988
1989
1989
1989
1990
1990
1990
1991
1991
1992
1992
1992
1993
1993
1994
1994
1995
1995
1996
1997
1998
1998
1999
2000
2001
2002
2003
2003
2004
2004
2005
2005
2005
2005
2005
2006
2005
2005
2004
2003
2001
2000
1997
1995
1993
1990
1988
1986
1984
1983
1982
1981
1980
1979
1979
1978
1978
1977
1977
1977
1977
1977
1977
1977
1977
1977
1977
1977
1978
1978
1978
1977
1978
1978
1978
1977
1977
1977
1977
1977
1977
1977
1977
1977
1977
1977
1977
1977
1977
1976
1976
1976
1976
1975
1975
1975
1975
1975
1975
1975
1975
1975
1975
1975
1975
1975
1975
1975
1975
1975
1975
1975
1975
1975
1975
1975
1975
1975
1975
1975
1975
1975
1975
1975
1975
1975
1975
1975
1975
1975
1975
1975
1975
1975
1975
1975
1975
1975
1975
1975
1975
1975
1976
1976
1976
1976
1976
1976
1976
1976
1976
1976
1976
1976
1976
1976
1976
1976
1976
1976
1976
1976
1976
1976
1976
1976
1976
1976
1976
1977
1977
1977
1977
1978
1978
1978
1977
1977
1976
1976
1976
1976
1976
1976
1976
1976
1976
1976
1975
1975
1975
1980
1989
1998
2002
1998
1988
1974
1961
1953
1951
1952
1957
1964
1973
1980
1984
1985
1983
1983
1983
1983
1983
1983
1984
1984
1984
1984
1984
1985
1985
1986
1986
1986
1987
1987
1987
1987
1988
1988
1989
1989
1989
1990
1990
1991
1991
1992
1992
1992
1993
1993
1994
1995
1996
1997
1997
1998
1999
2000
2001
2001
2002
2003
2004
2004
2004
2005
2005
2005
2005
2005
2004
2004
2002
2001
1999
1997
1995
1993
1991
1989
1987
1985
1983
1982
1980
1979
1978
1978
1977
1977
1977
1977
1977
1976
1976
1977
1977
1977
1977
1977
1977
1977
1977
1977
1977
1977
1977
1977
1977
1977
1977
1977
1977
1977
1977
1977
1976
1976
1976
1976
1975
1975
1975
1975
1975
1975
1975
1975
1975
1975
1975
1975
1975
1975
1975
1974
1974
1974
1975
1975
1975
1975
1975
1975
1975
1975
1975
1975
1975
1975
1975
1975
1975
1975
1975
1975
1975
1975
1975
1975
1975
1975
1975
1975
1975
1975
1975
1975
1975
1975
1975
1975
1975
1975
1975
1975
1975
1975
1975
1975
1975
1975
1976
1976
1976
1976
1976
1976
1976
1977
1977
1977
1977
1976
1976
1976
1976
1976
1976
1977
1977
1978
1978
1978
1978
1977
1977
1977
1977
1977
1977
1977
1977
1977
1977
1977
1976
1975
1975
1977
1984
1994
2001
2001
1994
1981
1967
1957
1951
1950
1954
1960
1969
1977
1983
1984
1984
1982
1982
1983
1983
1984
1984
1984
1984
1985
1985
1985
1985
1986
1986
1986
1987
1987
1987
1988
1988
1988
1989
1989
1989
1990
1990
1991
1991
1992
1992
1992
1993
1993
1994
1995
1996
1996
1997
1998
1999
2000
2000
2001
2002
2003
2003
2004
2004
2004
2004
2004
2004
2004
2004
2004
2003
2002
2000
1998
1996
1994
1991
1989
1987
1985
1984
1982
1981
1980
1979
1978
1977
1977
1977
1977
1977
1977
1977
1977
1977
1977
1977
1977
1977
1977
1976
1976
1976
1977
1977
1977
1977
1977
1977
1977
1976
1976
1976
1976
1976
1976
1976
1976
1976
1975
1975
1975
1975
1975
1975
1975
1975
1975
1975
1974
1974
1974
1974
1974
1974
1974
1974
1974
1974
1974
1974
1974
1974
1974
1974
1974
1974
1974
1974
1974
1974
1974
1974
1974
1974
1974
1974
1974
1974
1974
1974
1974
1974
1974
1974
1974
1974
1975
1975
1975
1975
1975
1975
1975
1975
1975
1975
1975
1975
1975
1975
1975
1975
1976
1976
1976
1976
1976
1975
1975
1975
1976
1976
1976
1976
1977
1977
1977
1977
1977
1976
1976
1976
1975
1975
1975
1976
1976
1976
1976
1976
1976
1975
1974
1975
1981
1990
1998
2000
1995
1984
1970
1959
1952
1949
1951
1957
1965
1974
1980
1983
1983
1982
1982
1982
1982
1983
1983
1983
1984
1984
1984
1984
1984
1985
1985
1985
1985
1986
1986
1986
1987
1987
1988
1988
1988
1989
1989
1990
1990
1991
1991
1992
1992
1993
1993
1994
1995
1995
1996
1997
1997
1998
1999
2000
2001
2001
2002
2002
2003
2003
2004
2004
2004
2004
2004
2003
2002
2001
2000
1998
1996
1994
1992
1989
1987
1985
1984
1982
1981
1980
1979
1978
1977
1977
1976
1976
1976
1976
1976
1976
1976
1976
1976
1976
1976
1976
1976
1976
1976
1976
1976
1976
1976
1976
1976
1976
1975
1975
1975
1975
1975
1975
1975
1975
1975
1974
1974
1974
1974
1974
1974
1974
1974
1974
1974
1974
1974
1974
1974
1974
1974
1973
1973
1974
1974
1974
1974
1974
1974
1974
1974
1974
1974
1974
1974
1974
1974
1974
1974
1974
1974
1974
1974
1974
1974
1974
1974
1974
1974
1974
1974
1974
1974
1974
1974
1975
1975
1975
1975
1974
1974
1974
1974
1975
1975
1975
1974
1974
1974
1974
1975
1975
1975
1975
1975
1975
1975
1975
1975
1976
1976
1976
1976
1976
1976
1976
1976
1976
1976
1975
1975
1975
1975
1975
1975
1975
1975
1975
1975
1974
1974
1976
1983
1993
1999
1999
1992
1980
1966
1956
1950
1949
1953
1959
1968
1976
1981
1983
1982
1981
1981
1981
1982
1982
1982
1983
1983
1983
1984
1984
1984
1984
1985
1985
1985
1986
1986
1986
1987
1987
1987
1988
1988
1989
1989
1989
1989
1990
1991
1992
1992
1993
1994
1994
1995
1995
1996
1997
1998
1998
1999
2000
2000
2001
2002
2002
2002
2002
2002
2003
2003
2003
2003
2003
2002
2000
1998
1996
1994
1993
1990
1988
1986
1985
1983
1981
1980
1979
1978
1977
1977
1976
1976
1976
1976
1976
1976
1976
1975
1975
1976
1976
1976
1976
1976
1976
1976
1976
1976
1975
1975
1975
1975
1975
1975
1975
1975
1975
1974
1974
1974
1974
1974
1974
1973
1973
1973
1973
1973
1973
1973
1973
1973
1973
1973
1973
1973
1973
1972
1972
1972
1972
1973
1973
1973
1973
1973
1973
1973
1973
1973
1973
1973
1973
1973
1973
1973
1973
1973
1974
1974
1974
1973
1973
1973
1973
1973
1973
1973
1973
1973
1974
1974
1974
1974
1974
1974
1974
1974
1974
1973
1973
1973
1973
1974
1974
1974
1974
1974
1974
1974
1974
1974
1974
1974
1974
1974
1974
1974
1974
1973
1973
1972
1973
1978
1987
1996
2001
1999
1989
1974
1960
1950
1945
1946
1953
1962
1971
1978
1982
1982
1981
1981
1981
1982
1982
1981
1981
1982
1982
1983
1983
1984
1984
1984
1984
1985
1985
1985
1985
1986
1987
1987
1987
1988
1988
1988
1989
1990
1991
1991
1991
1992
1992
1993
1994
1995
1996
1997
1998
1998
1999
1999
2000
2000
2001
2002
2003
2003
2003
2003
2003
2003
2004
2004
2003
2002
2001
1999
1997
1994
1992
1989
1987
1985
1983
1982
1981
1979
1978
1977
1976
1976
1975
1975
1974
1974
1974
1975
1975
1976
1976
1975
1975
1975
1975
1975
1975
1975
1975
1975
1975
1975
1975
1975
1975
1974
1974
1975
1975
1975
1974
1974
1974
1973
1973
1973
1973
1973
1973
1973
1973
1973
1973
1973
1973
1973
1973
1973
1972
1972
1973
1973
1973
1973
1973
1973
1973
1973
1973
1973
1973
1973
1973
1973
1974
1974
1974
1974
1973
1973
1973
1973
1973
1974
1974
1974
1974
1974
1974
1974
1974
1974
1973
1972
1972
1975
1983
1993
2001
2003
1995
1981
1964
1949
1941
1940
1946
1956
1967
1976
1981
1982
1981
1980
1980
1981
1981
1982
1982
1982
1982
1983
1983
1984
1984
1984
1985
1985
1986
1986
1986
1987
1987
1987
1988
1989
1989
1989
1990
1990
1991
1991
1992
1993
1994
1994
1995
1995
1997
1998
1999
2000
2001
2002
2002
2003
2004
2005
2005
2005
2005
2006
2006
2006
2006
2005
2004
2003
2001
1998
1995
1992
1990
1988
1986
1984
1982
1981
1980
1979
1978
1977
1976
1976
1975
1975
1975
1975
1975
1975
1975
1975
1976
1976
1976
1976
1976
1976
1976
1976
1976
1976
1976
1976
1976
1976
1976
1976
1976
1976
1976
1975
1975
1975
1975
1975
1975
1975
1975
1975
1975
1975
1975
1975
1975
1975
1975
1975
1975
1975
1975
1975
1974
1974
1974
1975
1975
1975
1976
1975
1975
1975
1975
1975
1975
1975
1975
1975
1975
1975
1976
1976
1976
1975
1975
1975
1975
1975
1975
1975
1975
1975
1975
1975
1974
1974
1974
1974
1974
1974
1979
1987
1995
2000
1997
1987
1973
1960
1951
1947
1948
1954
1962
1971
1979
1983
1984
1982
1982
1982
1982
1983
1983
1983
1984
1984
1984
1985
1985
1986
1986
1986
1987
1987
1987
1987
1988
1988
1988
1989
1989
1990
1991
1991
1992
1992
1993
1993
1994
1994
1995
1996
1997
1997
1998
1999
2000
2000
2001
2002
2003
2004
2004
2005
2005
2006
2006
2006
2006
2006
2005
2004
2003
2001
1999
1997
1994
1992
1989
1987
1985
1984
1982
1981
1980
1979
1978
1978
1978
1977
1977
1977
1977
1977
1977
1977
1977
1977
1977
1977
1977
1977
1977
1978
1978
1978
1978
1977
1977
1977
1977
1977
1977
1977
1977
1977
1977
1977
1976
1976
1976
1976
1976
1976
1975
1975
1975
1975
1976
1976
1975
1975
1975
1975
1975
1975
1975
1975
1975
1975
1975
1975
1975
1975
1975
1975
1975
1975
1975
1975
1975
1975
1975
1975
1976
1976
1976
1976
1976
1976
1976
1976
1976
1976
1976
1976
1976
1976
1977
1977
1977
1977
1976
1976
1976
1976
1976
1976
1976
1976
1976
1976
1976
1975
1975
1974
1977
1983
1992
1999
1999
1992
1980
1966
1956
1950
1950
1953
1959
1967
1976
1982
1984
1984
1983
1982
1982
1983
1983
1984
1984
1984
1985
1985
1985
1985
1986
1986
1987
1987
1987
1987
1988
1988
1988
1989
1989
1990
1990
1991
1991
1992
1992
1993
1993
1994
1994
1995
1996
1997
1997
1998
1999
2000
2001
2001
2002
2003
2004
2004
2005
2005
2005
2005
2006
2006
2006
2005
2004
2003
2001
1999
1997
1994
1992
1990
1988
1986
1984
1983
1982
1981
1980
1979
1978
1978
1978
1978
1978
1978
1978
1978
1978
1978
1978
1978
1978
1978
1978
1978
1978
1978
1978
1978
1978
1978
1978
1978
1978
1977
1977
1977
1977
1977
1977
1977
1976
1976
1976
1976
1976
1976
1976
1976
1976
1976
1976
1976
1975
1975
1975
1974
1974
1974
1975
1975
1975
1975
1975
1975
1975
1975
1975
1975
1974
1974
1975
1975
1975
1976
1976
1975
1975
1975
1974
1975
1975
1975
1975
1975
1975
1975
1975
1975
1975
1975
1975
1975
1975
1976
1975
1975
1975
1976
1976
1976
1976
1976
1976
1976
1976
1977
1977
1976
1976
1976
1976
1976
1976
1976
1976
1976
1976
1976
1976
1976
1977
1978
1978
1978
1978
1977
1977
1976
1976
1977
1977
1977
1977
1977
1977
1977
1977
1976
1976
1979
1987
1996
2001
1998
1989
1975
1963
1955
1952
1953
1957
1964
1972
1979
1983
1984
1983
1982
1983
1983
1984
1984
1984
1984
1984
1985
1985
1986
1986
1986
1986
1986
1986
1987
1987
1988
1988
1989
1989
1990
1990
1990
1990
1991
1991
1992
1993
1993
1994
1994
1995
1995
1996
1997
1997
1998
1999
2000
2001
2002
2003
2003
2003
2003
2003
2004
2004
2004
2004
2004
2004
2003
2003
2001
2000
1998
1996
1993
1991
1989
1987
1986
1984
1983
1981
1980
1979
1979
1979
1979
1979
1978
1978
1977
1977
1978
1978
1978
1978
1978
1978
1978
1978
1978
1978
1978
1978
1978
1978
1978
1977
1977
1977
1977
1977
1977
1977
1977
1977
1977
1977
1977
1977
1977
1976
1976
1976
1976
1976
1976
1976
1975
1975
1975
1975
1975
1975
1975
1975
1975
1975
1975
1975
1976
1976
1976
1976
1976
1976
1976
1976
1977
1977
1977
1976
1976
1976
1975
1975
1975
1975
1975
1975
1976
1976
1976
1976
1976
1976
1976
1976
1976
1976
1976
1976
1976
1976
1976
1976
1976
1977
1977
1977
1978
1977
1977
1977
1977
1977
1977
1977
1977
1977
1977
1976
1976
1977
1977
1978
1978
1978
1978
1977
1977
1976
1976
1977
1977
1977
1977
1977
1977
1977
1977
1976
1976
1978
1984
1993
2001
2004
1998
1986
1972
1959
1952
1950
1953
1960
1968
1976
1982
1985
1984
1983
1983
1983
1984
1984
1985
1985
1985
1985
1985
1986
1987
1987
1987
1987
1987
1987
1987
1987
1988
1989
1989
1990
1991
1991
1991
1992
1992
1993
1993
1994
1994
1994
1995
1995
1996
1997
1998
1999
1999
2000
2001
2003
2003
2004
2004
2004
2004
2005
2005
2005
2005
2004
2004
2003
2003
2001
2000
1998
1995
1993
1991
1989
1987
1985
1984
1982
1981
1980
1979
1978
1977
1977
1977
1977
1977
1976
1976
1976
1976
1976
1976
1976
1976
1976
1976
1976
1977
1977
1977
1977
1977
1977
1976
1977
1976
1976
1976
1976
1976
1975
1975
1975
1975
1975
1975
1975
1975
1975
1974
1974
1975
1975
1975
1974
1974
1973
1974
1974
1974
1974
1974
1974
1973
1973
1974
1974
1974
1974
1974
1974
1974
1974
1974
1974
1974
1974
1975
1975
1975
1975
1975
1974
1974
1974
1975
1975
1974
1974
1974
1974
1975
1976
1976
1976
1975
1974
1974
1974
1974
1975
1976
1975
1975
1974
1974
1974
1974
1974
1973
1974
1978
1987
1997
2004
2004
1995
1979
1961
1947
1940
1940
1947
1958
1969
1977
1981
1982
1981
1980
1980
1981
1981
1982
1982
1983
1983
1984
1984
1984
1984
1984
1984
1984
1985
1985
1986
1986
1986
1987
1987
1988
1989
1990
1990
1990
1990
1990
1991
1992
1993
1994
1994
1995
1996
1997
1997
1998
2000
2001
2002
2003
2003
2004
2004
2005
2005
2005
2005
2005
2005
2005
2004
2002
2000
1997
1995
1992
1990
1987
1985
1983
1982
1981
1979
1978
1977
1976
1976
1975
1975
1974
1974
1974
1974
1974
1974
1974
1974
1974
1974
1975
1975
1975
1975
1975
1975
1975
1976
1976
1976
1975
1975
1975
1975
1975
1975
1974
1974
1973
1974
1974
1975
1975
1975
1974
1974
1974
1974
1974
1974
1973
1973
1973
1973
1973
1973
1973
1973
1972
1972
1972
1972
1972
1972
1973
1973
1973
1973
1972
1972
1973
1973
1974
1974
1974
1973
1973
1973
1973
1974
1974
1973
1972
1972
1972
1973
1973
1974
1973
1973
1973
1973
1973
1973
1974
1973
1972
1971
1972
1977
1986
1996
2002
2001
1991
1975
1957
1943
1937
1938
1946
1958
1969
1977
1981
1981
1979
1979
1979
1980
1980
1980
1980
1981
1981
1982
1982
1983
1983
1983
1983
1983
1983
1984
1985
1986
1986
1987
1987
1987
1987
1988
1989
1989
1990
1991
1991
1991
1992
1993
1994
1995
1996
1997
1998
1999
1999
2000
2001
2002
2003
2004
2004
2005
2005
2006
2006
2006
2006
2005
2003
2001
1999
1996
1993
1990
1988
1985
1983
1982
1981
1979
1978
1977
1975
1975
1974
1974
1974
1974
1973
1973
1973
1973
1973
1973
1974
1974
1975
1975
1975
1974
1974
1974
1975
1975
1975
1975
1974
1974
1974
1975
1975
1974
1974
1974
1974
1974
1974
1974
1974
1973
1973
1973
1973
1973
1973
1973
1973
1974
1974
1974
1973
1973
1973
1973
1973
1973
1973
1973
1973
1973
1973
1973
1973
1974
1974
1974
1974
1974
1974
1974
1974
1974
1973
1973
1974
1974
1975
1975
1974
1974
1974
1974
1974
1973
1973
1974
1974
1974
1974
1974
1974
1973
1973
1972
1971
1973
1979
1989
1999
2003
1999
1987
1969
1953
1942
1938
1941
1950
1961
1972
1979
1982
1981
1979
1978
1979
1979
1980
1980
1981
1981
1981
1982
1982
1982
1982
1983
1983
1984
1984
1985
1985
1985
1985
1986
1987
1988
1989
1989
1990
1990
1991
1992
1993
1993
1994
1995
1995
1996
1997
1998
1999
2000
2002
2003
2003
2004
2005
2006
2006
2007
2007
2007
2007
2006
2006
2005
2003
2002
1999
1997
1994
1992
1989
1987
1984
1982
1981
1979
1978
1977
1977
1976
1975
1975
1974
1974
1974
1974
1974
1974
1974
1974
1973
1973
1974
1974
1975
1975
1975
1975
1975
1975
1975
1975
1975
1975
1975
1975
1975
1975
1975
1974
1974
1974
1974
1974
1973
1973
1973
1973
1973
1973
1973
1973
1973
1973
1973
1973
1973
1973
1972
1972
1973
1973
1973
1973
1973
1972
1972
1973
1973
1973
1973
1973
1972
1972
1973
1973
1973
1973
1973
1973
1973
1973
1973
1973
1973
1973
1973
1973
1973
1973
1974
1974
1974
1974
1974
1974
1974
1974
1973
1973
1973
1973
1974
1974
1974
1975
1975
1975
1974
1974
1973
1973
1973
1973
1973
1973
1973
1973
1973
1972
1971
1972
1978
1988
1998
2001
1996
1983
1967
1953
1944
1942
1945
1952
1961
1970
1977
1980
1980
1979
1979
1979
1980
1980
1981
1981
1981
1982
1982
1982
1982
1982
1983
1983
1984
1985
1986
1986
1986
1986
1986
1987
1988
1988
1989
1990
1990
1991
1991
1992
1992
1993
1994
1995
1996
1997
1998
1999
1999
2000
2001
2002
2003
2004
2005
2006
2007
2007
2007
2007
2006
2005
2005
2004
2003
2001
1999
1996
1994
1991
1989
1987
1984
1983
1981
1980
1979
1978
1977
1977
1976
1976
1975
1975
1975
1974
1974
1975
1975
1975
1975
1975
1974
1974
1974
1975
1975
1975
1975
1975
1975
1975
1975
1975
1975
1975
1975
1975
1975
1975
1975
1974
1974
1974
1974
1973
1973
1973
1974
1974
1974
1974
1973
1973
1973
1973
1973
1973
1973
1973
1973
1973
1974
1973
1973
1973
1973
1972
1972
1972
1973
1973
1973
1973
1973
1973
1973
1973
1973
1973
1973
1974
1974
1974
1974
1973
1973
1973
1973
1973
1973
1973
1973
1974
1974
1974
1974
1974
1974
1974
1974
1974
1974
1974
1974
1974
1974
1974
1974
1974
1975
1975
1975
1975
1975
1975
1974
1974
1974
1974
1974
1975
1975
1975
1975
1975
1975
1975
1975
1975
1975
1974
1974
1974
1974
1975
1975
1975
1975
1975
1975
1975
1976
1976
1975
1975
1975
1974
1974
1974
1974
1974
1973
1975
1982
1991
1999
1999
1992
1978
1964
1953
1948
1948
1952
1958
1967
1975
1980
1983
1982
1981
1981
1982
1982
1983
1983
1983
1984
1984
1984
1984
1984
1985
1985
1986
1986
1986
1987
1987
1988
1989
1990
1990
1991
1991
1992
1992
1993
1994
1994
1995
1995
1996
1996
1996
1997
1998
1999
2000
2001
2002
2003
2004
2005
2005
2006
2007
2007
2008
2008
2008
2008
2008
2007
2006
2006
2004
2003
2001
1998
1996
1993
1991
1989
1987
1985
1984
1983
1982
1981
1980
1979
1979
1979
1978
1978
1978
1978
1977
1977
1977
1977
1977
1977
1977
1977
1977
1977
1977
1977
1977
1977
1977
1977
1977
1976
1976
1975
1975
1976
1976
1976
1976
1976
1975
1975
1975
1975
1975
1975
1975
1975
1975
1975
1974
1974
1974
1974
1974
1974
1974
1974
1974
1974
1974
1974
1974
1974
1974
1974
1974
1974
1974
1974
1974
1974
1974
1974
1974
1974
1974
1974
1974
1974
1974
1974
1975
1975
1975
1974
1974
1974
1975
1975
1975
1975
1975
1975
1974
1974
1974
1975
1975
1975
1975
1975
1976
1976
1975
1975
1975
1975
1975
1975
1975
1976
1976
1976
1976
1976
1976
1976
1976
1976
1976
1976
1976
1976
1976
1976
1976
1976
1976
1976
1976
1976
1976
1976
1977
1977
1977
1977
1978
1978
1978
1978
1978
1977
1977
1977
1977
1977
1977
1977
1977
1977
1977
1977
1976
1975
1975
1977
1984
1994
2000
2000
1991
1978
1964
1954
1950
1950
1954
1961
1969
1977
1982
1984
1983
1982
1982
1983
1983
1984
1984
1984
1984
1985
1985
1985
1985
1985
1985
1985
1986
1987
1987
1988
1988
1988
1988
1989
1989
1990
1990
1990
1991
1991
1992
1993
1993
1994
1995
1995
1996
1996
1997
1998
1999
2000
2001
2002
2002
2003
2004
2004
2005
2005
2006
2006
2006
2006
2005
2005
2004
2002
2001
1999
1997
1995
1992
1990
1988
1986
1984
1983
1981
1980
1979
1978
1977
1977
1977
1976
1976
1976
1976
1976
1976
1976
1976
1976
1976
1976
1976
1976
1976
1976
1976
1976
1976
1976
1976
1976
1976
1976
1976
1976
1976
1976
1975
1975
1975
1975
1975
1974
1973
1973
1973
1973
1974
1974
1974
1974
1974
1973
1973
1973
1973
1973
1973
1973
1973
1973
1973
1973
1973
1973
1973
1973
1973
1973
1973
1973
1973
1973
1973
1973
1974
1974
1974
1974
1974
1974
1974
1974
1973
1973
1973
1973
1973
1974
1974
1974
1974
1974
1974
1974
1974
1974
1974
1974
1974
1974
1975
1975
1975
1975
1975
1974
1974
1975
1975
1975
1975
1975
1975
1975
1975
1975
1975
1975
1975
1976
1976
1976
1976
1975
1975
1975
1976
1976
1976
1976
1977
1977
1977
1977
1977
1977
1977
1977
1976
1976
1976
1976
1976
1976
1976
1976
1976
1976
1975
1975
1977
1984
1993
1999
1998
1990
1976
1963
1954
1950
1951
1955
1961
1969
1976
1982
1984
1983
1982
1982
1982
1983
1983
1983
1984
1984
1984
1985
1985
1985
1985
1985
1985
1986
1986
1986
1987
1987
1988
1988
1988
1989
1989
1990
1990
1991
1991
1992
1992
1992
1993
1993
1994
1995
1995
1996
1997
1998
1999
2000
2001
2001
2002
2003
2003
2003
2004
2004
2004
2004
2004
2004
2004
2003
2002
2000
1999
1996
1994
1991
1989
1987
1985
1983
1982
1981
1980
1979
1978
1977
1976
1976
1976
1976
1976
1975
1975
1975
1976
1976
1976
1976
1976
1976
1976
1976
1976
1976
1976
1975
1975
1975
1975
1975
1975
1975
1975
1975
1975
1975
1975
1975
1975
1975
1974
1974
1974
1974
1974
1974
1974
1974
1974
1974
1973
1973
1973
1973
1974
1974
1973
1973
1973
1973
1973
1973
1974
1974
1974
1974
1974
1974
1974
1974
1974
1974
1974
1974
1974
1974
1974
1974
1974
1974
1974
1974
1974
1974
1974
1974
1974
1974
1974
1974
1974
1974
1975
1975
1975
1975
1975
1975
1975
1975
1975
1975
1975
1975
1975
1975
1975
1975
1975
1975
1975
1975
1975
1975
1975
1976
1976
1976
1976
1975
1976
1976
1976
1977
1977
1977
1978
1977
1977
1977
1977
1977
1977
1977
1976
1976
1976
1976
1976
1977
1977
1976
1976
1975
1976
1980
1989
1998
2001
1997
1986
1972
1960
1953
1951
1953
1958
1965
1973
1980
1984
1984
1983
1982
1983
1983
1983
1984
1984
1984
1984
1985
1985
1985
1985
1986
1986
1986
1986
1986
1987
1987
1988
1988
1989
1989
1990
1990
1990
1991
1991
1991
1992
1993
1993
1994
1994
1995
1996
1997
1997
1998
1999
2000
2000
2001
2002
2002
2003
2004
2004
2004
2005
2005
2006
2005
2005
2004
2003
2002
2000
1999
1996
1994
1992
1990
1988
1986
1984
1983
1982
1981
1980
1979
1978
1978
1978
1977
1977
1977
1977
1977
1977
1977
1977
1977
1977
1977
1977
1977
1977
1977
1977
1977
1977
1977
1977
1977
1977
1976
1976
1976
1976
1976
1976
1976
1976
1976
1975
1975
1975
1975
1975
1976
1975
1975
1974
1974
1974
1974
1974
1975
1975
1975
1975
1974
1974
1974
1974
1974
1974
1974
1975
1975
1975
1975
1975
1975
1975
1974
1975
1975
1975
1975
1975
1975
1975
1975
1975
1975
1975
1975
1975
1975
1975
1975
1975
1975
1975
1975
1976
1976
1975
1975
1975
1975
1976
1976
1976
1975
1975
1975
1975
1976
1976
1976
1976
1976
1975
1975
1975
1975
1976
1976
1976
1976
1976
1976
1976
1976
1977
1977
1978
1977
1977
1977
1977
1977
1977
1977
1976
1976
1976
1976
1976
1976
1977
1977
1977
1977
1976
1975
1974
1976
1981
1990
1998
2001
1997
1986
1973
1962
1955
1953
1954
1960
1967
1975
1981
1984
1983
1982
1982
1982
1983
1983
1983
1983
1983
1984
1984
1984
1985
1985
1985
1985
1986
1986
1986
1987
1987
1988
1988
1988
1988
1988
1989
1990
1990
1991
1991
1991
1991
1992
1993
1994
1994
1995
1996
1996
1997
1998
1999
2000
2000
2001
2002
2002
2003
2003
2004
2004
2004
2004
2004
2004
2004
2003
2002
2000
1998
1996
1994
1991
1989
1987
1985
1984
1982
1981
1980
1980
1979
1979
1979
1978
1978
1977
1977
1977
1977
1977
1977
1978
1978
1977
1977
1977
1978
1978
1978
1978
1977
1977
1977
1977
1977
1977
1976
1976
1977
1977
1977
1976
1976
1975
1975
1975
1975
1975
1975
1975
1975
1975
1975
1975
1975
1974
1974
1974
1974
1974
1974
1974
1974
1975
1975
1974
1974
1974
1974
1974
1974
1974
1975
1975
1974
1974
1974
1974
1974
1974
1974
1974
1974
1974
1974
1974
1975
1975
1975
1975
1975
1975
1975
1975
1975
1975
1975
1975
1975
1975
1975
1975
1975
1975
1975
1975
1975
1975
1975
1976
1976
1976
1976
1976
1976
1976
1976
1976
1976
1976
1976
1976
1977
1977
1977
1977
1977
1976
1976
1975
1975
1975
1976
1976
1976
1976
1975
1975
1975
1974
1974
1977
1985
1994
2001
2001
1994
1982
1969
1959
1953
1952
1956
1962
1970
1978
1982
1983
1982
1981
1981
1981
1982
1983
1983
1983
1983
1983
1983
1984
1984
1985
1985
1985
1985
1985
1985
1986
1986
1987
1987
1987
1988
1988
1989
1989
1990
1990
1991
1991
1992
1992
1993
1993
1994
1995
1996
1996
1997
1997
1998
1998
1999
2000
2001
2002
2002
2003
2003
2003
2003
2003
2003
2002
2002
2001
1999
1997
1995
1993
1990
1988
1986
1985
1983
1981
1980
1979
1978
1978
1977
1977
1977
1977
1976
1976
1976
1976
1976
1976
1976
1976
1976
1976
1976
1976
1976
1976
1975
1975
1975
1975
1975
1975
1975
1975
1975
1975
1974
1974
1974
1974
1974
1974
1974
1974
1974
1974
1974
1974
1973
1973
1973
1973
1973
1974
1974
1974
1973
1973
1973
1973
1974
1974
1974
1974
1973
1973
1973
1973
1973
1973
1973
1973
1973
1973
1973
1973
1973
1973
1973
1974
1974
1974
1974
1974
1974
1974
1974
1974
1974
1974
1974
1974
1974
1974
1975
1975
1975
1975
1975
1975
1975
1975
1975
1975
1975
1975
1975
1975
1976
1976
1977
1977
1976
1976
1975
1975
1975
1975
1975
1975
1975
1976
1976
1976
1976
1975
1974
1975
1980
1989
1997
2001
1998
1989
1976
1965
1956
1953
1953
1958
1966
1974
1980
1983
1983
1981
1981
1982
1982
1982
1983
1983
1983
1983
1984
1984
1984
1984
1984
1985
1985
1985
1985
1985
1986
1986
1986
1987
1987
1988
1989
1989
1989
1990
1991
1991
1992
1992
1993
1993
1994
1995
1995
1996
1997
1997
1998
1999
2000
2001
2002
2002
2003
2003
2003
2003
2003
2002
2003
2003
2003
2002
2001
1999
1997
1994
1992
1990
1988
1986
1984
1983
1981
1980
1979
1979
1978
1978
1978
1977
1977
1977
1977
1978
1978
1978
1978
1977
1977
1977
1977
1977
1977
1977
1977
1977
1977
1977
1977
1977
1977
1977
1977
1977
1976
1976
1976
1976
1976
1976
1976
1976
1976
1976
1976
1975
1975
1975
1975
1975
1975
1975
1975
1975
1975
1975
1975
1975
1975
1975
1975
1975
1975
1975
1975
1975
1975
1975
1975
1975
1975
1975
1975
1975
1976
1976
1976
1976
1976
1976
1976
1976
1976
1976
1976
1975
1975
1976
1976
1976
1976
1976
1976
1976
1976
1976
1976
1976
1976
1976
1976
1976
1976
1976
1976
1976
1975
1974
1977
1984
1993
2000
2001
1994
1982
1968
1957
1950
1949
1953
1961
1970
1978
1983
1985
1984
1983
1983
1983
1983
1984
1984
1985
1985
1985
1985
1985
1986
1986
1986
1987
1987
1987
1988
1988
1989
1989
1990
1990
1990
1991
1991
1991
1992
1993
1994
1994
1995
1996
1996
1996
1997
1998
1999
2000
2001
2002
2002
2003
2004
2004
2005
2005
2006
2006
2006
2006
2006
2006
2006
2005
2003
2001
1999
1997
1995
1993
1991
1989
1987
1985
1984
1982
1981
1980
1980
1979
1978
1978
1978
1978
1978
1978
1978
1978
1978
1978
1978
1978
1978
1978
1978
1978
1978
1978
1978
1978
1978
1978
1978
1978
1978
1978
1978
1977
1977
1977
1977
1977
1977
1976
1976
1976
1976
1976
1976
1976
1976
1976
1976
1976
1976
1976
1976
1976
1976
1976
1976
1977
1977
1977
1976
1976
1976
1976
1976
1976
1977
1977
1976
1976
1976
1976
1975
1975
1976
1976
1976
1976
1976
1976
1976
1976
1976
1974
1974
1975
1981
1991
2000
2003
1999
1987
1972
1957
1948
1944
1948
1955
1965
1975
1981
1984
1983
1982
1981
1982
1982
1983
1983
1984
1984
1984
1984
1984
1985
1985
1986
1986
1986
1986
1987
1987
1988
1988
1989
1989
1990
1990
1991
1991
1992
1992
1993
1993
1994
1995
1995
1996
1997
1998
1998
1999
2000
2001
2002
2003
2004
2004
2005
2005
2005
2005
2005
2005
2005
2005
2004
2003
2001
1999
1996
1994
1991
1989
1987
1986
1984
1982
1980
1979
1978
1978
1977
1977
1976
1976
1976
1976
1976
1976
1977
1977
1977
1977
1977
1977
1977
1977
1977
1977
1977
1977
1977
1977
1977
1977
1977
1977
1977
1977
1977
1976
1976
1975
1975
1975
1975
1976
1976
1976
1975
1975
1976
1976
1976
1976
1975
1975
1975
1975
1975
1975
1975
1975
1974
1974
1975
1975
1976
1976
1976
1975
1974
1974
1974
1973
1974
1974
1974
1975
1975
1975
1975
1975
1974
1973
1973
1973
1978
1988
1998
2003
2002
1992
1976
1959
1946
1940
1941
1949
1960
1971
1979
1982
1982
1980
1980
1980
1981
1981
1982
1982
1982
1983
1983
1983
1983
1984
1984
1985
1985
1985
1985
1985
1986
1987
1987
1988
1988
1989
1989
1991
1992
1992
1993
1993
1993
1994
1995
1995
1996
1997
1997
1998
1999
2001
2002
2003
2003
2003
2003
2004
2004
2004
2005
2005
2004
2004
2003
2001
2000
1998
1995
1993
1990
1988
1985
1983
1982
1981
1980
1979
1978
1977
1977
1976
1976
1976
1976
1976
1976
1976
1976
1976
1976
1976
1976
1976
1976
1977
1977
1977
1977
1977
1977
1977
1976
1976
1976
1976
1976
1976
1976
1976
1976
1976
1975
1975
1975
1975
1975
1975
1975
1975
1975
1975
1975
1975
1974
1974
1974
1974
1975
1976
1976
1976
1976
1975
1974
1974
1974
1975
1975
1976
1975
1975
1974
1974
1974
1974
1975
1974
1974
1975
1979
1989
1999
2006
2005
1994
1977
1958
1944
1938
1939
1948
1960
1971
1979
1982
1982
1981
1980
1981
1981
1982
1983
1983
1983
1984
1984
1984
1984
1984
1985
1985
1985
1986
1986
1987
1987
1988
1989
1990
1990
1990
1991
1992
1993
1993
1993
1994
1994
1994
1995
1996
1998
1999
2000
2001
2002
2002
2003
2004
2005
2005
2006
2006
2006
2006
2006
2006
2006
2005
2004
2002
2000
1998
1995
1992
1989
1987
1985
1983
1982
1981
1980
1979
1978
1977
1977
1976
1976
1976
1976
1977
1978
1980
1980
1981
1981
1982
1983
1985
1987
1988
1989
1990
1990
1991
1992
1994
1996
1998
2001
2004
2007
2010
2013
2016
2018
2020
2022
2025
2028
2031
2033
2035
2038
2040
2042
2044
2046
2048
2048
2051
2054
2056
2058
2060
2061
2063
2065
2067
2069
2070
2071
2072
2074
2076
2078
2080
2082
2083
2084
2085
2085
2085
2089
2097
2109
2119
2124
2120
2107
2090
2074
2063
2061
2067
2079
2092
2103
2110
2112
2112
2112
2114
2115
2116
2117
2118
2119
2120
2121
2122
2122
2123
2124
2125
2126
2127
2127
2128
2130
2130
2131
2131
2132
2133
2134
2135
2137
2137
2138
2138
2139
2141
2142
2143
2144
2144
2145
2146
2147
2148
2149
2149
2150
2150
2151
2152
2153
2153
2153
2153
2152
2151
2149
2148
2146
2144
2141
2139
2137
2135
2133
2131
2128
2126
2124
2123
2122
2122
2122
2122
2121
2120
2120
2119
2118
2118
2118
2118
2118
2118
2118
2118
2118
2118
2117
2117
2116
2116
2116
2116
2116
2115
2114
2113
2112
2112
2112
2112
2112
2112
2111
2110
2110
2109
2109
2109
2108
2108
2107
2107
2107
2106
2106
2105
2105
2104
2104
2103
2103
2103
2103
2102
2102
2102
2101
2100
2099
2098
2098
2098
2099
2099
2099
2098
2097
2096
2096
2095
2094
2093
2094
2100
2110
2120
2123
2119
2105
2086
2069
2056
2052
2056
2065
2077
2087
2094
2096
2095
2094
2093
2094
2095
2095
2095
2094
2094
2094
2094
2094
2095
2095
2094
2094
2094
2094
2094
2094
2094
2094
2095
2096
2097
2097
2097
2097
2097
2097
2097
2098
2098
2099
2100
2100
2100
2101
2101
2101
2102
2103
2103
2103
2103
2104
2104
2103
2103
2102
2102
2102
2101
2099
2097
2095
2092
2089
2087
2084
2082
2079
2076
2074
2072
2071
2069
2068
2068
2067
2066
2065
2064
2063
2063
2062
2063
2063
2063
2062
2061
2060
2060
2060
2060
2060
2060
2059
2059
2059
2059
2059
2058
2058
2057
2057
2056
2056
2055
2055
2054
2054
2054
2054
2053
2053
2052
2052
2052
2052
2052
2052
2051
2050
2049
2049
2049
2049
2049
2049
2049
2049
2049
2048
2048
2048
2048
2048
2048
2047
2047
2047
2047
2047
2047
2047
2047
2046
2045
2045
2045
2045
2045
2045
2044
2044
2043
2043
2043
2043
2042
2041
2040
2044
2051
2061
2067
2066
2056
2041
2025
2013
2007
2008
2015
2024
2034
2042
2047
2048
2046
2045
2045
2046
2046
2047
2047
2047
2047
2047
2047
2047
2048
2047
2048
2048
2048
2048
2048
2048
2049
2049
2050
2051
2051
2052
2052
2053
2053
2053
2053
2054
2054
2054
2055
2056
2056
2057
2058
2059
2059
2060
2060
2061
2062
2063
2063
2063
2063
2062
2062
2062
2062
2061
2059
2057
2055
2052
2049
2048
2045
2043
2040
2039
2037
2036
2035
2035
2034
2033
2033
2032
2032
2031
2031
2030
2030
2030
2030
2030
2030
2030
2030
2030
2029
2029
2029
2029
2029
2029
2028
2028
2028
2027
2027
2027
2027
2027
2026
2026
2026
2026
2026
2025
2025
2024
2024
2024
2024
2023
2023
2023
2023
2023
2023
2023
2023
2023
2023
2023
2023
2023
2023
2022
2022
2022
2022
2022
2022
2022
2022
2022
2022
2022
2022
2022
2021
2021
2021
2021
2021
2021
2021
2021
2021
2021
2021
2020
2020
2020
2020
2020
2020
2020
2020
2020
2020
2020
2020
2020
2020
2019
2019
2019
2019
2019
2020
2020
2019
2019
2018
2018
2018
2017
2017
2017
2017
2018
2018
2018
2018
2017
2016
2015
2017
2023
2033
2040
2041
2034
2021
2007
1996
1990
1989
1992
1999
2007
2015
2021
2023
2022
2021
2021
2021
2022
2022
2023
2023
2023
2023
2024
2024
2024
2024
2024
2024
2025
2025
2025
2026
2026
2027
2027
2028
2028
2029
2029
2029
2029
2030
2030
2031
2031
2032
2032
2033
2033
2034
2035
2035
2036
2037
2038
2038
2039
2040
2040
2040
2040
2040
2040
2040
2040
2040
2039
2038
2037
2035
2033
2031
2028
2026
2023
2021
2019
2018
2017
2015
2014
2013
2013
2012
2011
2011
2010
2010
2010
2010
2010
2010
2010
2010
2009
2009
2009
2009
2009
2009
2009
2009
2009
2009
2009
2009
2008
2008
2008
2008
2008
2007
2007
2007
2007
2007
2007
2006
2006
2006
2005
2005
2005
2005
2005
2004
2004
2004
2004
2004
2004
2004
2004
2004
2004
2003
2003
2003
2004
2004
2004
2003
2003
2003
2003
2003
2003
2003
2003
2003
2002
2002
2002
2002
2002
2002
2002
2002
2003
2003
2003
2002
2002
2002
2002
2002
2002
2002
2002
2002
2002
2001
2001
2001
2001
2001
2001
2001
2001
2001
2002
2002
2002
2002
2002
2002
2002
2002
2002
2001
2001
2001
2001
2001
2002
2001
2001
2001
2001
2002
2002
2001
2001
2000
2000
2001
2002
2002
2002
2002
2001
2001
2000
2000
2000
2000
2000
2000
2000
2000
2000
1999
1998
1998
2002
2009
2018
2023
2021
2011
1998
1985
1976
1973
1974
1979
1986
1994
2001
2006
2007
2006
2005
2005
2005
2006
2006
2007
2007
2007
2007
2007
2007
2007
2007
2008
2008
2008
2008
2009
2009
2010
2011
2011
2011
2012
2012
2012
2013
2013
2014
2014
2015
2015
2016
2016
2017
2018
2018
2019
2019
2020
2021
2021
2022
2023
2024
2024
2024
2025
2025
2025
2025
2025
2024
2024
2023
2022
2020
2019
2016
2014
2012
2010
2008
2006
2004
2003
2002
2001
2000
1999
1998
1997
1997
1997
1996
1996
1996
1996
1996
1996
1996
1996
1996
1996
1996
1996
1996
1996
1996
1996
1996
1996
1995
1995
1995
1995
1995
1994
1994
1994
1994
1994
1994
1994
1993
1993
1993
1993
1992
1992
1992
1992
1992
1992
1992
1992
1992
1992
1992
1992
1992
1992
1992
1992
1992
1992
1992
1992
1991
1991
1991
1991
1991
1991
1991
1991
1991
1991
1991
1991
1991
1991
1991
1991
1991
1991
1991
1991
1991
1991
1990
1990
1991
1991
1991
1991
1991
1991
1991
1991
1991
1991
1991
1991
1991
1991
1991
1991
1991
1991
1991
1991
1991
1991
1991
1991
1991
1991
1991
1991
1991
1991
1991
1991
1991
1991
1991
1991
1991
1991
1991
1991
1991
1991
1990
1990
1990
1990
1991
1991
1991
1991
1991
1990
1990
1990
1990
1990
1990
1990
1989
1989
1989
1989
1989
1988
1988
1991
1998
2007
2013
2011
2003
1989
1976
1966
1962
1963
1968
1975
1984
1991
1996
1997
1996
1995
1995
1995
1996
1996
1996
1997
1997
1997
1997
1998
1998
1998
1999
1999
1999
1999
1999
2000
2000
2001
2001
2002
2002
2002
2003
2003
2004
2004
2005
2005
2005
2006
2007
2007
2008
2008
2009
2010
2010
2011
2012
2013
2014
2014
2014
2014
2015
2015
2015
2015
2015
2015
2015
2014
2012
2011
2009
2008
2006
2004
2001
1999
1997
1995
1994
1992
1991
1990
1989
1989
1988
1988
1988
1987
1987
1987
1986
1986
1986
1986
1986
1987
1987
1987
1987
1987
1987
1986
1986
1986
1986
1986
1986
1986
1986
1986
1986
1986
1985
1985
1985
1985
1984
1984
1984
1984
1984
1984
1984
1984
1984
1983
1983
1983
1983
1983
1983
1983
1983
1983
1983
1983
1983
1983
1983
1983
1983
1983
1983
1983
1983
1983
1983
1983
1983
1983
1983
1983
1983
1983
1983
1983
1983
1983
1984
1983
1983
1983
1983
1983
1983
1983
1983
1983
1983
1983
1983
1983
1983
1983
1983
1983
1983
1982
1982
1983
1983
1983
1983
1983
1983
1983
1983
1983
1983
1983
1983
1983
1983
1983
1983
1983
1983
1983
1983
1983
1984
1984
1984
1984
1983
1983
1983
1983
1983
1983
1984
1985
1985
1985
1984
1984
1984
1983
1983
1983
1983
1983
1983
1984
1984
1983
1983
1982
1981
1983
1990
1999
2006
2007
2000
1987
1973
1962
1956
1955
1959
1965
1974
1982
1988
1991
1990
1988
1988
1988
1989
1989
1990
1990
1990
1990
1990
1991
1991
1991
1991
1991
1992
1992
1992
1992
1993
1993
1994
1994
1995
1995
1996
1996
1997
1997
1998
1998
1999
1999
2000
2000
2001
2002
2002
2003
2004
2004
2005
2006
2007
2007
2008
2008
2008
2009
2009
2009
2009
2009
2008
2008
2007
2006
2004
2002
2000
1998
1996
1994
1992
1990
1989
1987
1986
1985
1984
1983
1983
1982
1982
1981
1981
1981
1981
1981
1981
1981
1981
1981
1981
1981
1981
1981
1981
1982
1981
1981
1981
1981
1981
1981
1981
1981
1981
1981
1981
1981
1981
1981
1980
1980
1980
1980
1979
1979
1979
1979
1979
1979
1979
1979
1979
1979
1979
1979
1979
1979
1979
1979
1979
1979
1979
1979
1979
1979
1979
1979
1979
1979
1979
1979
1979
1979
1979
1979
1979
1979
1979
1979
1979
1979
1979
1979
1979
1979
1979
1978
1978
1978
1979
1979
1979
1979
1979
1979
1979
1979
1979
1979
1979
1979
1979
1979
1979
1979
1979
1979
1979
1979
1979
1979
1979
1979
1979
1979
1979
1979
1979
1979
1979
1979
1980
1980
1980
1980
1980
1980
1981
1981
1981
1980
1980
1980
1979
1979
1979
1979
1979
1979
1979
1979
1979
1979
1979
1978
1978
1980
1987
1996
2003
2003
1996
1983
1970
1959
1953
1952
1956
1963
1972
1980
1985
1987
1987
1985
1985
1985
1986
1986
1986
1987
1987
1987
1988
1988
1988
1988
1988
1989
1989
1989
1990
1991
1991
1992
1992
1992
1993
1993
1994
1994
1995
1995
1995
1996
1997
1997
1998
1999
1999
2000
2000
2001
2002
2003
2004
2004
2005
2005
2006
2007
2007
2007
2008
2008
2007
2007
2007
2006
2005
2004
2002
2000
1999
1996
1994
1992
1990
1988
1986
1985
1984
1983
1982
1981
1981
1981
1980
1980
1980
1980
1981
1981
1981
1980
1980
1980
1980
1980
1980
1981
1981
1981
1981
1980
1980
1980
1980
1980
1980
1980
1980
1980
1980
1980
1980
1980
1979
1979
1979
1979
1979
1979
1979
1979
1979
1979
1979
1979
1979
1979
1979
1979
1979
1979
1979
1979
1979
1979
1979
1979
1979
1979
1979
1979
1979
1979
1979
1979
1979
1979
1979
1979
1979
1979
1979
1979
1979
1979
1979
1979
1979
1979
1980
1980
1980
1980
1980
1980
1980
1980
1980
1980
1980
1979
1980
1980
1980
1980
1980
1980
1980
1980
1980
1980
1980
1980
1980
1980
1980
1980
1981
1981
1981
1981
1981
1981
1981
1980
1980
1980
1980
1981
1981
1981
1982
1982
1982
1982
1982
1982
1981
1981
1981
1981
1980
1980
1980
1981
1981
1981
1980
1980
1979
1979
1982
1990
1999
2005
2004
1996
1983
1969
1960
1955
1955
1959
1966
1974
1982
1987
1988
1987
1986
1986
1986
1987
1987
1987
1987
1988
1988
1988
1989
1989
1989
1989
1990
1990
1990
1991
1991
1991
1992
1992
1992
1992
1993
1993
1994
1995
1995
1996
1996
1997
1997
1998
1998
1999
1999
1999
2000
2001
2002
2003
2004
2005
2005
2006
2006
2006
2007
2007
2007
2007
2007
2007
2006
2005
2004
2002
2001
1999
1997
1995
1993
1991
1989
1987
1985
1984
1982
1982
1981
1981
1981
1980
1980
1980
1980
1980
1980
1980
1980
1980
1980
1980
1980
1980
1980
1980
1980
1980
1980
1980
1980
1979
1979
1979
1979
1979
1978
1978
1978
1978
1978
1978
1978
1978
1977
1977
1977
1977
1977
1977
1977
1977
1977
1977
1977
1976
1976
1977
1977
1977
1977
1977
1977
1977
1977
1977
1977
1977
1977
1977
1977
1977
1977
1977
1977
1977
1977
1977
1977
1977
1977
1977
1977
1977
1977
1977
1977
1977
1977
1977
1977
1977
1977
1977
1977
1977
1978
1978
1978
1978
1978
1977
1977
1977
1977
1977
1978
1978
1978
1978
1978
1978
1977
1977
1977
1977
1977
1978
1978
1978
1979
1979
1979
1979
1979
1979
1978
1978
1978
1977
1977
1977
1977
1977
1977
1978
1978
1977
1976
1976
1979
1986
1996
2002
2002
1994
1981
1968
1957
1952
1952
1956
1963
1971
1979
1984
1985
1984
1983
1983
1983
1984
1984
1984
1985
1985
1986
1986
1986
1986
1987
1987
1987
1987
1987
1988
1988
1988
1989
1989
1990
1990
1991
1991
1992
1992
1993
1993
1994
1994
1995
1995
1996
1997
1997
1998
1999
1999
2000
2001
2002
2002
2003
2003
2004
2004
2005
2005
2005
2005
2005
2004
2003
2002
2001
2000
1998
1996
1994
1992
1990
1988
1985
1984
1982
1980
1979
1979
1978
1978
1978
1978
1978
1977
1977
1977
1977
1977
1977
1977
1977
1977
1977
1977
1978
1978
1978
1977
1977
1977
1977
1977
1977
1977
1976
1976
1976
1976
1976
1976
1976
1975
1975
1975
1975
1975
1975
1975
1975
1974
1974
1974
1974
1974
1974
1974
1974
1974
1974
1974
1974
1974
1974
1974
1974
1974
1974
1974
1973
1974
1974
1974
1974
1974
1974
1974
1974
1974
1974
1974
1974
1974
1974
1974
1974
1974
1974
1975
1975
1975
1975
1975
1975
1975
1975
1975
1975
1975
1975
1975
1975
1975
1975
1975
1975
1976
1976
1977
1977
1977
1976
1976
1976
1976
1975
1975
1976
1976
1976
1976
1976
1976
1976
1974
1974
1978
1986
1996
2002
2002
1994
1981
1967
1957
1951
1951
1955
1962
1971
1979
1984
1985
1983
1982
1982
1982
1983
1984
1984
1985
1985
1985
1985
1985
1986
1986
1986
1986
1987
1987
1988
1988
1989
1989
1989
1990
1990
1991
1991
1991
1992
1992
1992
1993
1994
1995
1996
1997
1997
1998
1998
1999
2000
2001
2003
2003
2004
2004
2004
2004
2005
2005
2005
2005
2005
2005
2004
2004
2002
2001
1999
1997
1995
1993
1991
1989
1987
1985
1984
1982
1981
1980
1979
1979
1979
1979
1978
1978
1978
1978
1978
1979
1979
1979
1979
1979
1979
1979
1979
1979
1979
1979
1979
1979
1979
1979
1979
1978
1978
1979
1979
1979
1979
1978
1977
1977
1976
1976
1976
1977
1978
1978
1978
1978
1977
1976
1976
1977
1978
1979
1979
1979
1979
1978
1978
1978
1978
1978
1978
1978
1978
1978
1978
1979
1980
1980
1980
1980
1980
1979
1979
1979
1979
1980
1980
1980
1980
1980
1981
1981
1981
1981
1979
1979
1982
1990
2000
2008
2010
2003
1989
1973
1959
1951
1950
1955
1964
1975
1983
1989
1990
1989
1988
1988
1989
1989
1990
1991
1991
1991
1991
1992
1992
1992
1993
1992
1993
1993
1993
1994
1994
1994
1995
1995
1996
1996
1997
1997
1998
1999
2000
2000
2001
2002
2002
2002
2003
2004
2005
2006
2007
2008
2009
2009
2010
2010
2011
2011
2012
2012
2012
2012
2012
2011
2010
2009
2008
2006
2004
2002
1999
1996
1994
1992
1990
1989
1987
1986
1986
1985
1984
1984
1983
1983
1983
1983
1983
1983
1983
1983
1983
1983
1983
1983
1983
1983
1984
1984
1984
1984
1984
1984
1984
1984
1984
1984
1984
1983
1983
1983
1983
1983
1983
1983
1983
1982
1982
1982
1982
1982
1982
1982
1982
1982
1982
1982
1982
1982
1982
1983
1983
1983
1983
1982
1982
1982
1982
1982
1983
1983
1982
1982
1981
1981
1981
1982
1982
1982
1982
1982
1982
1982
1982
1982
1982
1981
1980
1980
1983
1990
1999
2005
2004
1996
1983
1969
1958
1953
1953
1957
1965
1973
1981
1987
1989
1988
1988
1988
1989
1989
1989
1989
1990
1990
1990
1990
1990
1991
1991
1991
1991
1991
1991
1991
1992
1992
1993
1993
1994
1994
1995
1995
1996
1996
1997
1997
1998
1999
1999
2000
2001
2001
2002
2003
2003
2004
2005
2006
2006
2007
2008
2008
2009
2009
2009
2009
2009
2009
2008
2007
2006
2005
2003
2001
1999
1997
1995
1993
1991
1990
1988
1988
1987
1987
1986
1986
1986
1986
1986
1986
1986
1986
1987
1987
1987
1987
1988
1988
1988
1988
1988
1988
1988
1988
1988
1988
1988
1988
1988
1988
1988
1988
1988
1988
1988
1988
1988
1988
1988
1988
1988
1988
1988
1988
1988
1988
1989
1989
1989
1989
1989
1989
1989
1989
1989
1989
1989
1990
1990
1990
1990
1990
1990
1990
1990
1990
1991
1991
1991
1991
1991
1991
1991
1992
1992
1992
1992
1991
1991
1991
1991
1991
1991
1991
1991
1992
1992
1992
1993
1993
1992
1991
1991
1995
2003
2012
2016
2014
2004
1991
1978
1970
1967
1968
1973
1981
1989
1997
2001
2003
2001
2000
2001
2001
2002
2003
2003
2003
2004
2004
2004
2004
2004
2005
2005
2005
2006
2006
2007
2008
2008
2009
2009
2010
2011
2011
2012
2013
2013
2014
2014
2015
2016
2017
2017
2018
2019
2020
2020
2021
2022
2023
2024
2025
2025
2026
2026
2026
2027
2027
2027
2027
2027
2026
2025
2024
2022
2020
2018
2016
2014
2012
2010
2008
2007
2005
2004
2003
2002
2002
2001
2000
2000
2000
2000
2000
2000
2000
2000
2000
1999
2000
2000
2000
2000
2000
2000
2000
1999
1999
1999
1999
1999
1999
1999
1999
1999
1999
1998
1998
1998
1998
1998
1998
1998
1997
1997
1997
1997
1997
1997
1997
1997
1997
1996
1996
1997
1997
1997
1996
1996
1997
1997
1997
1997
1997
1997
1996
1996
1996
1996
1997
1997
1996
1995
1995
1995
1995
1996
1996
1996
1997
1997
1997
1997
1997
1996
1996
1996
1996
1996
1996
1995
1995
1995
1995
1996
1997
1997
1996
1996
1996
1996
1996
1996
1995
1995
1995
1995
1995
1995
1995
1995
1994
1993
1994
1999
2008
2018
2023
2021
2010
1995
1980
1970
1966
1967
1974
1982
1992
1998
2002
2002
2001
2000
2001
2001
2002
2002
2002
2002
2003
2003
2003
2003
2003
2003
2003
2004
2004
2004
2005
2006
2006
2006
2007
2007
2007
2007
2008
2009
2009
2010
2010
2010
2010
2011
2012
2013
2014
2015
2015
2016
2016
2017
2017
2018
2018
2019
2019
2019
2019
2019
2019
2019
2019
2019
2018
2017
2015
2013
2011
2009
2007
2005
2003
2001
2000
1998
1997
1996
1994
1993
1993
1993
1992
1992
1992
1992
1992
1992
1992
1992
1993
1992
1992
1992
1992
1992
1992
1992
1992
1992
1992
1992
1991
1991
1991
1991
1990
1990
1990
1989
1989
1989
1989
1989
1989
1989
1989
1989
1989
1988
1988
1988
1988
1988
1988
1987
1987
1987
1987
1987
1987
1987
1987
1986
1986
1986
1986
1986
1986
1986
1986
1986
1986
1986
1986
1986
1986
1986
1985
1984
1984
1985
1985
1986
1986
1985
1985
1984
1984
1984
1984
1984
1984
1984
1984
1984
1984
1984
1984
1983
1981
1980
1982
1989
2000
2010
2013
2008
1994
1975
1958
1947
1944
1948
1958
1969
1980
1986
1989
1988
1987
1986
1986
1986
1986
1987
1987
1988
1988
1988
1988
1988
1989
1989
1990
1990
1990
1990
1991
1991
1992
1992
1992
1992
1993
1993
1993
1993
1994
1995
1995
1996
1997
1997
1997
1997
1998
1999
2000
2001
2002
2003
2003
2004
2003
2003
2003
2004
2004
2004
2004
2003
2002
2001
2000
1998
1995
1992
1989
1987
1986
1984
1981
1979
1976
1974
1973
1973
1973
1972
1971
1970
1969
1968
1969
1969
1969
1969
1968
1968
1968
1969
1969
1968
1967
1967
1967
1968
1969
1969
1968
1967
1966
1966
1966
1966
1966
1965
1966
1966
1965
1965
1964
1964
1964
1965
1965
1964
1964
1963
1963
1963
1963
1964
1964
1963
1963
1963
1963
1963
1962
1962
1961
1961
1961
1961
1961
1961
1961
1961
1961
1961
1960
1959
1959
1959
1960
1960
1960
1961
1961
1960
1960
1959
1958
1958
1961
1969
1981
1992
1998
1993
1977
1954
1930
1913
1908
1914
1929
1945
1958
1965
1966
1965
1963
1963
1963
1964
1966
1967
1968
1969
1969
1968
1968
1968
1969
1969
1970
1971
1971
1971
1971
1972
1972
1972
1973
1973
1974
1975
1976
1977
1978
1977
1977
1977
1978
1980
1981
1983
1983
1983
1984
1985
1986
1988
1988
1989
1989
1989
1990
1990
1990
1990
1989
1989
1988
1986
1984
1981
1978
1975
1973
1970
1968
1966
1965
1963
1961
1960
1958
1958
1957
1957
1957
1956
1956
1955
1956
1956
1956
1956
1957
1957
1957
1958
1958
1958
1959
1959
1959
1959
1959
1959
1959
1959
1959
1959
1959
1959
1959
1958
1957
1957
1957
1957
1958
1958
1958
1957
1956
1956
1956
1956
1957
1957
1957
1956
1956
1955
1955
1956
1956
1956
1955
1955
1954
1954
1955
1955
1956
1955
1954
1954
1953
1954
1954
1955
1955
1955
1954
1954
1953
1953
1953
1953
1953
1952
1951
1953
1960
1972
1982
1987
1981
1965
1944
1924
1912
1909
1915
1927
1940
1951
1957
1958
1957
1956
1957
1959
1961
1962
1962
1961
1961
1961
1961
1961
1962
1962
1962
1963
1963
1964
1964
1965
1965
1965
1966
1967
1968
1969
1969
1970
1970
1971
1971
1972
1973
1975
1976
1976
1977
1977
1977
1978
1980
1982
1983
1984
1984
1984
1985
1985
1986
1986
1986
1986
1985
1984
1983
1981
1979
1976
1973
1971
1968
1965
1963
1961
1960
1960
1959
1959
1958
1957
1956
1956
1955
1955
1955
1955
1955
1956
1956
1956
1956
1956
1957
1957
1957
1957
1957
1957
1958
1958
1958
1958
1958
1958
1958
1957
1957
1957
1957
1958
1958
1958
1957
1956
1956
1956
1957
