2034
2032
2031
2031
2034
2034
2034
2033
2033
2033
2033
2034
2035
2035
2035
2035
2035
2035
2034
2034
2034
2036
2036
2036
2035
2034
2034
2036
2039
2041
2041
2039
2036
2034
2033
2036
2037
2038
2038
2037
2036
2036
2037
2037
2038
2038
2038
2038
2037
2037
2037
2037
2038
2039
2039
2038
2037
2035
2035
2037
2040
2042
2042
2042
2042
2043
2045
2045
2045
2044
2043
2042
2042
2042
2041
2041
2040
2039
2039
2038
2038
2038
2038
2040
2041
2041
2040
2038
2036
2035
2042
2060
2089
2117
2131
2114
2065
2000
1938
1907
1909
1940
1982
2016
2037
2047
2049
2051
2052
2052
2053
2054
2055
2057
2059
2059
2059
2058
2057
2057
2058
2061
2064
2066
2067
2066
2064
2064
2064
2065
2067
2069
2069
2070
2071
2073
2074
2076
2077
2078
2079
2081
2083
2086
2089
2091
2093
2096
2097
2098
2099
2100
2103
2106
2108
2108
2106
2102
2096
2091
2086
2080
2073
2066
2060
2053
2048
2045
2041
2038
2035
2033
2032
2030
2030
2030
2029
2030
2028
2026
2025
2026
2028
2029
2030
2029
2028
2029
2030
2033
2032
2032
2029
2028
2029
2031
2031
2031
2031
2031
2031
2032
2033
2033
2033
2033
2033
2032
2032
2032
2032
2031
2031
2030
2031
2032
2034
2035
2033
2032
2029
2028
2029
2030
2032
2032
2032
2032
2032
2032
2032
2032
2031
2031
2032
2032
2033
2033
2033
2033
2033
2033
2032
2032
2032
2032
2034
2037
2038
2038
2036
2033
2032
2031
2034
2035
2036
2036
2035
2034
2032
2032
2032
2033
2034
2034
2034
2034
2034
2034
2033
2035
2035
2035
2033
2032
2032
2033
2035
2037
2038
2038
2038
2039
2040
2042
2043
2042
2041
2040
2039
2038
2037
2036
2036
2036
2036
2036
2036
2035
2035
2035
2037
2037
2037
2036
2034
2033
2036
2050
2076
2106
2126
2118
2077
2014
1951
1911
1906
1931
1971
2007
2032
2044
2048
2050
2050
2051
2051
2051
2052
2053
2055
2055
2057
2057
2056
2055
2054
2056
2058
2061
2063
2063
2062
2061
2061
2062
2063
2064
2065
2066
2068
2069
2070
2072
2073
2075
2077
2078
2080
2082
2083
2085
2089
2091
2094
2095
2095
2096
2097
2100
2102
2103
2102
2098
2094
2089
2082
2076
2069
2063
2057
2051
2048
2044
2040
2037
2034
2032
2030
2029
2028
2028
2028
2027
2028
2027
2027
2025
2023
2023
2025
2028
2031
2032
2031
2029
2027
2025
2027
2027
2029
2029
2030
2030
2030
2030
2030
2030
2030
2030
2030
2030
2031
2031
2031
2031
2031
2031
2030
2029
2029
2030
2031
2032
2033
2031
2030
2028
2027
2028
2029
2030
2030
2030
2030
2030
2030
2030
2030
2030
2031
2031
2031
2032
2031
2032
2031
2032
2031
2031
2030
2030
2031
2032
2034
2034
2034
2033
2031
2031
2031
2032
2032
2033
2032
2032
2032
2032
2032
2032
2032
2033
2033
2034
2033
2033
2032
2032
2033
2033
2034
2033
2033
2032
2033
2034
2035
2036
2035
2034
2033
2032
2033
2034
2034
2034
2033
2033
2033
2033
2033
2033
2033
2032
2033
2033
2033
2035
2036
2039
2041
2041
2040
2038
2037
2037
2038
2039
2039
2037
2035
2034
2032
2034
2035
2035
2035
2035
2035
2035
2035
2034
2034
2033
2038
2051
2075
2101
2115
2103
2065
2008
1955
1924
1925
1950
1987
2019
2039
2048
2049
2048
2047
2046
2048
2048
2049
2049
2050
2050
2051
2052
2052
2053
2053
2054
2054
2054
2054
2055
2057
2057
2060
2060
2060
2060
2060
2061
2064
2067
2070
2071
2071
2070
2071
2072
2074
2076
2078
2080
2083
2085
2087
2088
2089
2090
2091
2091
2092
2092
2091
2090
2088
2084
2080
2074
2067
2060
2055
2050
2048
2046
2043
2039
2035
2032
2029
2029
2028
2029
2028
2028
2027
2027
2026
2027
2027
2027
2027
2027
2028
2028
2029
2028
2030
2030
2029
2028
2026
2027
2029
2032
2034
2034
2033
2030
2029
2028
2030
2031
2031
2030
2031
2031
2030
2030
2029
2029
2029
2029
2030
2030
2030
2030
2029
2030
2030
2030
2029
2029
2029
2030
2032
2033
2034
2033
2031
2030
2030
2031
2031
2032
2032
2032
2032
2032
2032
2032
2032
2032
2032
2033
2033
2033
2033
2034
2034
2034
2034
2033
2033
2033
2034
2035
2036
2037
2036
2035
2034
2034
2035
2035
2036
2036
2036
2036
2036
2036
2036
2036
2036
2036
2037
2037
2038
2038
2037
2037
2037
2037
2038
2037
2037
2038
2039
2040
2040
2040
2040
2039
2039
2038
2039
2038
2038
2038
2038
2040
2041
2043
2045
2047
2048
2047
2046
2045
2045
2044
2043
2044
2043
2043
2042
2041
2041
2043
2044
2046
2046
2046
2044
2043
2041
2042
2042
2048
2064
2088
2113
2123
2108
2065
2010
1959
1933
1937
1964
2000
2029
2047
2056
2059
2058
2056
2054
2054
2056
2060
2064
2065
2064
2062
2061
2060
2062
2063
2063
2064
2065
2066
2067
2067
2068
2067
2069
2071
2075
2077
2078
2077
2076
2077
2078
2080
2082
2082
2083
2084
2087
2091
2095
2097
2099
2099
2099
2100
2101
2102
2104
2104
2104
2103
2102
2099
2095
2090
2085
2079
2073
2066
2062
2057
2054
2050
2048
2045
2043
2041
2040
2041
2041
2040
2039
2037
2036
2035
2036
2037
2037
2037
2037
2037
2038
2039
2040
2039
2039
2038
2038
2038
2039
2039
2040
2040
2040
2040
2039
2038
2037
2037
2038
2040
2042
2042
2041
2039
2037
2036
2037
2038
2039
2039
2039
2039
2039
2039
2038
2038
2038
2039
2039
2040
2041
2041
2040
2040
2040
2040
2038
2037
2037
2039
2041
2043
2044
2043
2041
2039
2038
2040
2041
2042
2042
2042
2042
2041
2041
2041
2041
2041
2042
2042
2042
2042
2042
2042
2042
2042
2041
2040
2040
2041
2042
2043
2044
2043
2042
2041
2040
2041
2042
2043
2043
2043
2043
2043
2043
2042
2041
2040
2040
2040
2040
2041
2041
2041
2042
2044
2046
2047
2048
2048
2046
2045
2044
2044
2044
2044
2042
2041
2040
2039
2040
2040
2040
2040
2039
2040
2040
2040
2040
2040
2038
2037
2044
2061
2089
2118
2127
2106
2054
1988
1932
1904
1913
1947
1989
2022
2042
2049
2050
2050
2050
2051
2053
2053
2053
2053
2054
2055
2056
2057
2057
2057
2057
2058
2059
2059
2060
2059
2061
2063
2063
2063
2063
2062
2064
2068
2072
2075
2075
2074
2073
2074
2075
2079
2080
2082
2084
2086
2089
2092
2094
2096
2099
2100
2101
2101
2101
2101
2101
2099
2096
2091
2085
2077
2068
2060
2054
2050
2047
2043
2038
2033
2030
2027
2026
2025
2024
2023
2022
2022
2022
2021
2021
2021
2020
2021
2021
2021
2022
2022
2023
2023
2023
2023
2022
2022
2023
2025
2027
2028
2027
2026
2025
2024
2025
2025
2025
2025
2026
2026
2026
2025
2025
2025
2024
2024
2024
2024
2024
2024
2025
2025
2025
2025
2024
2024
2023
2024
2025
2026
2028
2028
2027
2025
2024
2024
2024
2025
2025
2026
2026
2026
2026
2026
2026
2026
2026
2025
2025
2025
2025
2026
2026
2028
2029
2031
2032
2033
2033
2034
2035
2035
2034
2033
2031
2029
2028
2028
2028
2028
2029
2029
2029
2029
2029
2029
2029
2029
2029
2029
2028
2032
2048
2075
2107
2124
2109
2058
1987
1921
1887
1892
1926
1970
2006
2027
2037
2041
2044
2046
2047
2048
2048
2049
2049
2050
2051
2052
2053
2054
2054
2055
2055
2056
2056
2057
2058
2058
2060
2060
2061
2063
2065
2068
2069
2069
2069
2070
2071
2072
2075
2077
2079
2081
2083
2086
2088
2091
2093
2096
2099
2100
2101
2102
2102
2102
2101
2101
2098
2093
2086
2078
2070
2063
2057
2052
2047
2041
2036
2033
2030
2030
2029
2027
2025
2025
2024
2024
2024
2024
2024
2024
2023
2024
2024
2024
2024
2023
2025
2025
2026
2026
2025
2025
2026
2027
2029
2030
2030
2030
2029
2029
2030
2029
2029
2029
2029
2029
2030
2030
2030
2030
2029
2029
2029
2028
2029
2029
2029
2028
2030
2029
2029
2027
2026
2026
2028
2031
2033
2032
2031
2029
2028
2028
2029
2029
2030
2030
2030
2030
2031
2031
2031
2031
2031
2031
2031
2031
2031
2030
2030
2030
2029
2029
2028
2028
2031
2034
2038
2040
2041
2040
2038
2036
2035
2035
2034
2035
2033
2033
2033
2033
2033
2033
2032
2032
2032
2032
2033
2033
2033
2031
2031
2033
2045
2067
2094
2114
2111
2077
2021
1959
1918
1908
1930
1967
2006
2030
2043
2047
2048
2048
2048
2048
2048
2049
2050
2050
2051
2052
2053
2053
2053
2054
2055
2055
2055
2055
2055
2057
2059
2061
2063
2063
2063
2063
2063
2065
2067
2068
2070
2071
2073
2074
2076
2077
2079
2081
2083
2086
2089
2091
2092
2094
2095
2096
2096
2096
2095
2094
2091
2088
2083
2078
2073
2067
2061
2054
2048
2043
2039
2036
2034
2032
2031
2029
2028
2027
2027
2027
2027
2026
2026
2026
2026
2026
2027
2026
2027
2026
2026
2027
2028
2029
2030
2031
2030
2029
2028
2028
2030
2030
2030
2030
2030
2030
2030
2030
2031
2031
2031
2031
2031
2030
2030
2030
2029
2031
2031
2031
2030
2029
2030
2030
2032
2033
2033
2032
2031
2030
2029
2031
2031
2031
2031
2031
2031
2031
2032
2032
2032
2032
2032
2031
2031
2031
2031
2031
2032
2033
2033
2032
2031
2030
2031
2033
2035
2036
2035
2034
2033
2032
2032
2033
2033
2033
2033
2033
2033
2033
2032
2032
2031
2032
2033
2034
2036
2038
2040
2041
2042
2040
2039
2038
2036
2037
2038
2039
2039
2037
2035
2034
2033
2033
2034
2034
2034
2035
2035
2035
2035
2033
2033
2038
2053
2078
2104
2116
2101
2058
2002
1949
1921
1924
1950
1987
2019
2040
2049
2052
2051
2048
2048
2047
2048
2049
2050
2052
2053
2053
2053
2054
2054
2055
2055
2056
2056
2057
2058
2059
2060
2060
2063
2063
2064
2063
2063
2064
2067
2072
2076
2077
2076
2075
2075
2075
2080
2082
2085
2087
2089
2091
2092
2094
2095
2096
2096
2097
2097
2097
2096
2093
2088
2082
2076
2070
2063
2057
2052
2048
2046
2044
2042
2039
2035
2032
2030
2030
2030
2030
2030
2030
2029
2029
2029
2029
2029
2030
2030
2031
2031
2031
2030
2030
2030
2030
2030
2030
2030
2030
2030
2032
2034
2034
2033
2032
2031
2031
2032
2032
2033
2033
2032
2032
2032
2031
2031
2031
2032
2032
2033
2033
2033
2033
2032
2032
2032
2031
2031
2030
2031
2032
2033
2035
2036
2035
2033
2032
2032
2031
2033
2034
2034
2033
2033
2033
2033
2033
2034
2035
2035
2035
2035
2035
2034
2034
2034
2035
2035
2036
2035
2034
2034
2034
2036
2037
2037
2037
2035
2035
2034
2036
2035
2035
2034
2034
2033
2033
2034
2034
2036
2037
2039
2040
2041
2042
2041
2039
2040
2039
2039
2038
2036
2034
2034
2035
2037
2038
2038
2036
2035
2034
2036
2036
2035
2035
2034
2032
2036
2049
2074
2101
2118
2108
2068
2009
1952
1917
1916
1941
1980
2013
2034
2044
2046
2047
2048
2050
2053
2052
2051
2050
2050
2050
2051
2052
2052
2052
2054
2055
2056
2056
2057
2057
2057
2058
2059
2060
2062
2063
2065
2066
2067
2067
2067
2068
2069
2072
2076
2079
2081
2081
2082
2082
2083
2085
2087
2088
2091
2092
2094
2095
2095
2095
2094
2091
2088
2084
2079
2074
2068
2061
2056
2051
2047
2041
2036
2034
2033
2034
2035
2034
2032
2029
2027
2026
2027
2027
2028
2028
2028
2029
2029
2029
2029
2030
2030
2030
2030
2031
2031
2031
2031
2032
2031
2031
2030
2030
2030
2031
2032
2034
2034
2033
2032
2030
2030
2030
2031
2031
2031
2032
2032
2032
2032
2031
2031
2031
2031
2031
2031
2032
2032
2032
2032
2032
2031
2031
2030
2030
2032
2035
2037
2037
2035
2033
2031
2031
2032
2033
2034
2033
2033
2033
2033
2033
2033
2033
2034
2034
2035
2035
2035
2035
2033
2034
2034
2034
2034
2034
2035
2035
2036
2037
2038
2037
2035
2034
2033
2034
2035
2035
2036
2036
2035
2035
2034
2033
2033
2034
2035
2037
2038
2040
2041
2043
2043
2044
2043
2042
2041
2039
2038
2037
2037
2038
2039
2039
2038
2036
2035
2037
2037
2038
2040
2039
2039
2038
2036
2036
2045
2065
2094
2119
2123
2095
2040
1975
1925
1909
1925
1960
1998
2025
2042
2049
2053
2055
2055
2054
2054
2054
2054
2056
2056
2057
2057
2058
2059
2060
2061
2061
2061
2062
2062
2063
2064
2065
2066
2067
2069
2069
2070
2070
2070
2072
2074
2077
2080
2081
2082
2082
2083
2085
2088
2090
2092
2095
2098
2099
2099
2100
2100
2102
2104
2105
2103
2100
2095
2089
2083
2077
2070
2063
2054
2050
2046
2043
2041
2038
2036
2034
2032
2031
2029
2029
2028
2029
2028
2029
2028
2028
2028
2029
2029
2029
2029
2029
2030
2030
2031
2030
2032
2031
2031
2030
2029
2029
2030
2033
2036
2036
2035
2032
2031
2029
2031
2031
2031
2031
2031
2031
2031
2030
2029
2028
2028
2028
2029
2029
2029
2029
2028
2029
2028
2028
2027
2027
2027
2028
2029
2031
2031
2030
2029
2028
2027
2028
2030
2030
2030
2030
2030
2030
2030
2030
2030
2030
2030
2030
2031
2031
2031
2031
2031
2031
2031
2030
2030
2030
2030
2032
2033
2034
2033
2031
2029
2028
2028
2029
2030
2031
2033
2034
2036
2037
2038
2038
2038
2038
2037
2036
2036
2035
2033
2032
2032
2031
2031
2031
2031
2031
2032
2034
2035
2035
2033
2031
2029
2029
2038
2055
2081
2106
2114
2094
2048
1989
1940
1917
1926
1957
1993
2022
2039
2045
2046
2046
2045
2045
2046
2047
2048
2048
2050
2051
2052
2052
2051
2051
2051
2052
2053
2053
2055
2056
2057
2057
2058
2059
2060
2061
2062
2063
2064
2065
2067
2068
2070
2072
2074
2074
2075
2077
2080
2084
2087
2089
2089
2090
2091
2093
2094
2095
2094
2093
2091
2089
2086
2081
2075
2069
2062
2056
2050
2045
2041
2038
2036
2034
2032
2030
2027
2025
2023
2023
2026
2028
2030
2028
2026
2025
2024
2024
2025
2025
2026
2025
2026
2026
2027
2028
2029
2029
2028
2028
2027
2027
2028
2027
2029
2029
2028
2028
2027
2026
2027
2029
2031
2031
2030
2029
2028
2027
2027
2027
2026
2027
2027
2029
2029
2029
2028
2028
2027
2028
2028
2029
2030
2030
2031
2030
2032
2031
2031
2028
2027
2027
2029
2032
2035
2036
2034
2031
2029
2027
2030
2030
2031
2032
2031
2031
2031
2031
2032
2031
2031
2032
2032
2032
2033
2033
2032
2033
2033
2033
2032
2031
2032
2033
2035
2037
2037
2036
2033
2031
2031
2031
2033
2033
2033
2032
2032
2032
2032
2033
2034
2036
2039
2041
2042
2042
2041
2039
2038
2037
2037
2035
2034
2033
2033
2035
2037
2037
2036
2034
2032
2032
2033
2034
2035
2034
2033
2033
2041
2059
2085
2108
2114
2092
2044
1985
1937
1917
1927
1958
1996
2024
2041
2047
2047
2047
2048
2049
2051
2052
2051
2050
2049
2050
2052
2053
2054
2054
2054
2054
2054
2055
2057
2058
2059
2060
2060
2061
2061
2061
2062
2065
2066
2068
2068
2068
2068
2071
2074
2078
2080
2081
2081
2082
2082
2085
2088
2089
2090
2090
2091
2092
2092
2091
2090
2088
2086
2083
2077
2072
2066
2059
2055
2051
2047
2042
2038
2033
2032
2032
2033
2033
2032
2029
2027
2026
2026
2026
2027
2027
2027
2027
2028
2028
2028
2029
2028
2029
2028
2028
2028
2028
2029
2029
2031
2030
2029
2027
2026
2026
2028
2032
2035
2034
2033
2030
2028
2026
2028
2028
2028
2028
2028
2029
2029
2029
2029
2028
2028
2028
2028
2030
2030
2029
2030
2031
2030
2030
2029
2029
2028
2030
2033
2034
2034
2033
2031
2031
2030
2032
2032
2033
2033
2033
2033
2033
2032
2032
2032
2033
2033
2034
2034
2034
2033
2033
2035
2035
2034
2033
2031
2031
2034
2038
2041
2040
2038
2035
2033
2032
2035
2035
2036
2036
2036
2036
2036
2036
2035
2035
2036
2037
2037
2038
2038
2038
2037
2039
2038
2037
2036
2034
2034
2035
2037
2039
2038
2037
2035
2034
2035
2036
2038
2041
2043
2045
2045
2044
2043
2041
2041
2040
2040
2040
2040
2039
2039
2038
2039
2038
2038
2038
2038
2039
2040
2042
2042
2040
2038
2043
2059
2086
2116
2127
2107
2057
1992
1937
1911
1919
1952
1991
2022
2041
2048
2051
2052
2052
2053
2054
2054
2055
2055
2056
2057
2058
2059
2059
2060
2061
2062
2063
2064
2064
2063
2063
2063
2065
2067
2068
2068
2069
2070
2072
2073
2074
2075
2076
2078
2079
2081
2084
2086
2088
2089
2090
2092
2095
2099
2102
2104
2104
2102
2102
2101
2101
2101
2098
2094
2090
2084
2078
2072
2065
2059
2053
2048
2045
2042
2039
2037
2035
2035
2035
2032
2032
2029
2027
2027
2029
2032
2035
2035
2034
2032
2030
2031
2032
2032
2033
2033
2033
2034
2035
2036
2036
2036
2036
2035
2035
2035
2035
2036
2036
2037
2037
2036
2034
2033
2033
2034
2037
2038
2037
2036
2034
2034
2034
2034
2034
2034
2034
2034
2034
2035
2035
2035
2035
2034
2034
2034
2034
2035
2035
2035
2037
2036
2036
2034
2033
2033
2034
2036
2037
2037
2037
2035
2035
2034
2036
2036
2037
2037
2036
2036
2035
2034
2034
2034
2035
2036
2038
2040
2042
2044
2044
2043
2043
2041
2040
2038
2038
2038
2039
2039
2038
2038
2036
2035
2034
2035
2037
2037
2038
2038
2037
2036
2034
2036
2048
2072
2104
2128
2124
2085
2019
1948
1903
1893
1918
1960
2000
2027
2042
2048
2051
2053
2053
2053
2052
2052
2054
2055
2057
2057
2058
2059
2059
2060
2060
2060
2061
2061
2062
2063
2064
2064
2065
2066
2068
2069
2070
2070
2071
2072
2075
2078
2080
2081
2082
2083
2084
2087
2090
2092
2094
2096
2098
2100
2102
2103
2103
2104
2104
2103
2101
2097
2092
2086
2078
2071
2063
2056
2050
2046
2042
2040
2037
2035
2032
2029
2028
2027
2027
2028
2028
2027
2026
2026
2026
2026
2026
2026
2027
2027
2027
2027
2027
2027
2028
2028
2029
2030
2030
2029
2029
2029
2031
2033
2033
2033
2032
2031
2030
2030
2031
2031
2031
2030
2029
2029
2029
2030
2030
2030
2030
2030
2029
2029
2029
2028
2028
2029
2030
2030
2029
2028
2028
2029
2031
2032
2033
2032
2031
2030
2029
2029
2030
2030
2030
2030
2030
2030
2030
2030
2029
2028
2028
2028
2029
2030
2032
2034
2036
2037
2037
2036
2034
2033
2033
2035
2036
2035
2033
2031
2030
2029
2030
2030
2030
2030
2030
2031
2032
2032
2031
2030
2028
2032
2046
2071
2100
2118
2107
2064
2003
1942
1907
1905
1932
1972
2009
2033
2046
2048
2048
2046
2044
2043
2045
2046
2048
2049
2050
2050
2050
2050
2051
2051
2052
2052
2053
2054
2055
2056
2056
2058
2058
2058
2059
2058
2060
2061
2065
2068
2070
2071
2071
2071
2071
2074
2076
2079
2081
2083
2085
2087
2088
2089
2090
2091
2092
2092
2091
2090
2088
2083
2080
2073
2067
2059
2051
2046
2042
2040
2039
2036
2033
2030
2027
2025
2025
2025
2024
2024
2024
2023
2023
2022
2022
2022
2022
2023
2023
2024
2024
2024
2024
2025
2025
2025
2025
2024
2025
2025
2027
2029
2029
2029
2027
2026
2026
2026
2028
2028
2028
2028
2027
2027
2026
2026
2026
2027
2027
2028
2028
2027
2027
2027
2027
2027
2027
2028
2027
2027
2027
2027
2029
2029
2029
2028
2028
2028
2028
2030
2030
2030
2030
2029
2030
2030
2030
2030
2031
2031
2031
2031
2031
2031
2031
2030
2031
2032
2032
2031
2030
2029
2029
2030
2031
2032
2032
2033
2034
2035
2038
2039
2039
2037
2036
2036
2035
2036
2035
2034
2033
2032
2032
2031
2031
2031
2031
2032
2033
2034
2033
2031
2028
2028
2032
2047
2071
2098
2115
2108
2071
2016
1959
1922
1915
1936
1972
2007
2031
2044
2048
2047
2047
2046
2046
2047
2048
2049
2049
2052
2052
2051
2050
2049
2049
2052
2055
2058
2058
2058
2056
2057
2056
2059
2060
2061
2062
2063
2064
2066
2067
2069
2070
2071
2073
2074
2076
2078
2080
2082
2085
2086
2087
2088
2088
2090
2092
2094
2095
2095
2094
2091
2087
2082
2077
2072
2067
2062
2055
2048
2043
2039
2038
2036
2036
2034
2030
2028
2026
2025
2025
2027
2026
2025
2024
2023
2023
2026
2030
2032
2031
2029
2026
2025
2025
2027
2028
2029
2028
2028
2028
2028
2029
2029
2028
2028
2028
2028
2028
2029
2029
2029
2029
2028
2028
2027
2027
2028
2029
2030
2031
2031
2030
2029
2028
2028
2029
2029
2030
2029
2029
2030
2030
2030
2031
2031
2031
2031
2031
2031
2031
2031
2032
2032
2032
2032
2031
2031
2031
2032
2034
2035
2035
2034
2032
2031
2032
2033
2034
2034
2034
2034
2034
2033
2033
2033
2033
2033
2034
2034
2034
2033
2033
2033
2033
2033
2034
2035
2036
2039
2041
2044
2045
2044
2042
2039
2038
2037
2038
2037
2037
2036
2035
2035
2035
2035
2035
2036
2037
2038
2037
2037
2036
2034
2034
2043
2065
2093
2117
2119
2090
2035
1972
1926
1910
1927
1962
2000
2027
2042
2049
2051
2051
2051
2051
2051
2052
2054
2055
2056
2057
2057
2057
2057
2057
2058
2058
2060
2062
2062
2062
2061
2060
2062
2065
2068
2072
2073
2072
2072
2071
2073
2076
2077
2079
2080
2082
2084
2086
2089
2092
2094
2095
2096
2097
2098
2100
2102
2103
2104
2103
2101
2097
2092
2088
2084
2080
2075
2067
2060
2052
2047
2043
2040
2037
2035
2034
2033
2032
2031
2030
2029
2028
2027
2028
2028
2029
2030
2031
2030
2032
2030
2030
2029
2028
2028
2030
2033
2036
2037
2036
2035
2033
2031
2032
2031
2032
2033
2033
2034
2034
2033
2033
2033
2032
2032
2032
2032
2032
2033
2033
2033
2033
2032
2031
2031
2031
2032
2034
2035
2035
2034
2033
2032
2031
2032
2033
2033
2034
2034
2034
2034
2034
2034
2034
2034
2034
2034
2034
2034
2033
2031
2032
2031
2032
2032
2033
2033
2035
2038
2041
2043
2042
2041
2038
2036
2036
2036
2037
2036
2036
2035
2033
2033
2032
2033
2033
2034
2035
2036
2036
2035
2034
2032
2032
2039
2057
2087
2116
2125
2101
2045
1974
1915
1891
1904
1943
1987
2020
2038
2046
2047
2048
2048
2049
2050
2051
2052
2053
2055
2055
2055
2055
2056
2056
2057
2057
2058
2058
2059
2060
2061
2063
2064
2064
2065
2065
2067
2068
2071
2072
2073
2074
2075
2077
2079
2081
2083
2086
2088
2090
2092
2094
2095
2097
2098
2100
2101
2101
2100
2098
2097
2096
2093
2088
2080
2070
2060
2053
2048
2044
2040
2037
2034
2032
2030
2028
2027
2027
2026
2026
2026
2025
2024
2024
2023
2023
2024
2025
2025
2025
2024
2023
2024
2027
2030
2031
2031
2029
2027
2026
2027
2028
2028
2029
2029
2029
2029
2030
2030
2030
2030
2029
2028
2028
2028
2028
2029
2029
2030
2029
2028
2025
2024
2025
2028
2032
2034
2033
2031
2028
2026
2027
2029
2029
2029
2029
2029
2030
2030
2030
2030
2030
2030
2030
2029
2029
2029
2028
2030
2029
2030
2029
2030
2031
2033
2036
2039
2040
2038
2037
2036
2034
2034
2034
2033
2032
2032
2032
2032
2032
2031
2031
2030
2030
2032
2032
2033
2033
2032
2030
2031
2043
2067
2096
2118
2113
2074
2012
1947
1904
1896
1920
1960
1998
2024
2039
2045
2046
2047
2048
2048
2048
2048
2049
2049
2050
2051
2052
2053
2054
2053
2054
2054
2055
2055
2055
2056
2058
2060
2062
2063
2063
2063
2063
2063
2065
2067
2069
2070
2072
2074
2076
2077
2078
2080
2082
2084
2087
2089
2091
2092
2093
2094
2094
2094
2093
2091
2088
2085
2081
2075
2068
2060
2052
2046
2042
2037
2035
2032
2030
2028
2026
2025
2024
2023
2023
2023
2023
2023
2022
2022
2022
2022
2022
2022
2022
2022
2022
2022
2022
2024
2026
2027
2027
2026
2025
2024
2024
2026
2026
2027
2026
2026
2025
2025
2026
2026
2026
2026
2026
2026
2025
2025
2025
2025
2024
2025
2025
2024
2023
2023
2024
2025
2027
2027
2026
2025
2024
2024
2024
2026
2026
2026
2026
2026
2026
2027
2027
2027
2026
2026
2026
2026
2027
2026
2025
2027
2027
2028
2027
2026
2025
2026
2028
2030
2031
2030
2029
2028
2026
2026
2025
2025
2025
2027
2028
2030
2032
2034
2034
2035
2034
2033
2032
2031
2031
2031
2031
2032
2030
2028
2025
2024
2024
2028
2032
2034
2034
2031
2028
2027
2026
2027
2030
2043
2065
2093
2111
2106
2072
2016
1959
1922
1915
1935
1971
2005
2029
2040
2046
2045
2043
2041
2041
2042
2045
2048
2050
2051
2050
2048
2048
2048
2049
2049
2050
2051
2052
2054
2056
2056
2056
2056
2057
2058
2060
2061
2062
2064
2066
2068
2069
2069
2070
2070
2073
2076
2080
2082
2084
2085
2085
2086
2087
2088
2090
2090
2090
2090
2089
2088
2085
2080
2075
2068
2062
2056
2051
2048
2043
2039
2036
2033
2031
2028
2027
2026
2027
2028
2028
2028
2026
2024
2023
2023
2024
2025
2026
2027
2027
2027
2027
2027
2027
2027
2027
2027
2027
2028
2028
2028
2027
2028
2028
2027
2027
2026
2026
2028
2029
2030
2030
2028
2026
2025
2025
2026
2027
2027
2027
2027
2027
2027
2027
2027
2027
2027
2028
2028
2028
2028
2028
2027
2027
2028
2027
2027
2027
2028
2029
2030
2031
2030
2029
2028
2027
2028
2029
2030
2030
2030
2030
2029
2029
2029
2030
2030
2031
2031
2031
2031
2031
2031
2031
2030
2031
2032
2032
2031
2031
2031
2031
2033
2034
2034
2033
2032
2032
2031
2032
2033
2033
2032
2031
2031
2030
2030
2031
2032
2033
2035
2037
2038
2039
2040
2039
2039
2038
2037
2035
2034
2032
2032
2034
2035
2036
2036
2035
2034
2033
2033
2034
2034
2034
2033
2033
2032
2035
2047
2068
2095
2113
2108
2075
2021
1966
1929
1922
1943
1978
2011
2033
2044
2048
2048
2051
2052
2052
2052
2051
2051
2052
2053
2054
2055
2056
2057
2057
2057
2057
2058
2059
2059
2060
2061
2062
2063
2064
2065
2068
2068
2069
2068
2068
2069
2073
2078
2082
2084
2083
2082
2082
2084
2087
2089
2092
2093
2096
2098
2100
2100
2100
2099
2098
2096
2095
2093
2088
2083
2076
2071
2063
2057
2050
2045
2042
2039
2039
2039
2037
2035
2032
2030
2028
2029
2029
2030
2029
2029
2030
2030
2030
2030
2030
2030
2031
2031
2032
2032
2032
2032
2032
2032
2032
2031
2029
2029
2030
2033
2035
2036
2034
2032
2030
2029
2030
2031
2031
2031
2031
2031
2031
2031
2030
2030
2030
2031
2031
2031
2031
2031
2031
2031
2031
2031
2031
2030
2030
2031
2032
2034
2034
2033
2032
2031
2031
2031
2032
2033
2033
2032
2032
2032
2032
2032
2032
2032
2033
2033
2033
2033
2033
2033
2032
2032
2032
2032
2032
2032
2032
2033
2034
2034
2034
2034
2033
2032
2032
2032
2032
2032
2032
2032
2032
2033
2034
2036
2038
2040
2041
2041
2040
2039
2037
2036
2036
2036
2035
2034
2032
2032
2033
2035
2036
2036
2035
2033
2032
2032
2034
2034
2033
2032
2038
2056
2084
2111
2119
2096
2044
1978
1924
1899
1910
1944
1984
2017
2036
2046
2047
2047
2046
2047
2048
2050
2052
2053
2053
2052
2052
2053
2053
2054
2054
2054
2055
2056
2057
2058
2058
2059
2060
2060
2061
2061
2062
2064
2066
2067
2068
2069
2069
2069
2071
2075
2079
2082
2083
2084
2084
2085
2086
2088
2088
2089
2090
2091
2091
2091
2090
2088
2084
2079
2074
2068
2061
2055
2049
2046
2043
2038
2035
2031
2029
2028
2029
2030
2030
2029
2026
2024
2023
2023
2025
2024
2025
2025
2025
2027
2027
2027
2027
2027
2026
2026
2027
2028
2028
2028
2027
2029
2029
2028
2027
2026
2026
2026
2028
2030
2031
2030
2028
2027
2025
2026
2026
2028
2027
2026
2025
2025
2027
2029
2030
2030
2028
2026
2025
2025
2026
2026
2027
2027
2027
2026
2025
2025
2026
2030
2032
2033
2031
2029
2027
2026
2027
2028
2029
2030
2029
2030
2029
2029
2029
2029
2029
2030
2030
2030
2030
2030
2030
2030
2030
2030
2030
2029
2029
2030
2031
2033
2033
2032
2030
2029
2029
2030
2031
2032
2032
2032
2032
2031
2030
2028
2027
2027
2028
2031
2034
2036
2037
2038
2038
2040
2039
2038
2035
2033
2032
2034
2037
2038
2038
2034
2031
2029
2028
2031
2032
2032
2032
2031
2031
2031
2031
2030
2034
2048
2071
2098
2112
2102
2063
2006
1953
1921
1920
1944
1979
2011
2032
2045
2049
2050
2048
2047
2046
2046
2048
2049
2051
2050
2050
2051
2052
2053
2053
2053
2053
2054
2055
2055
2056
2056
2057
2058
2060
2062
2062
2061
2061
2062
2066
2070
2073
2074
2074
2074
2074
2075
2078
2080
2082
2083
2085
2087
2088
2089
2090
2090
2090
2090
2089
2087
2085
2081
2077
2073
2067
2060
2053
2047
2043
2041
2040
2040
2037
2034
2030
2028
2027
2027
2027
2026
2026
2026
2026
2027
2027
2027
2027
2026
2026
2026
2027
2028
2029
2028
2030
2030
2029
2027
2026
2025
2028
2032
2035
2035
2032
2029
2027
2025
2028
2028
2028
2028
2027
2028
2029
2029
2029
2028
2027
2026
2027
2027
2029
2028
2028
2030
2029
2029
2027
2025
2026
2028
2031
2034
2034
2032
2029
2027
2027
2029
2030
2031
2031
2031
2031
2031
2031
2031
2031
2030
2030
2031
2031
2032
2032
2032
2032
2032
2031
2030
2029
2029
2031
2034
2037
2038
2037
2034
2032
2030
2031
2032
2033
2034
2033
2033
2033
2033
2033
2033
2033
2033
2034
2035
2035
2035
2034
2034
2034
2032
2031
2030
2030
2032
2035
2039
2041
2042
2041
2040
2039
2039
2039
2039
2038
2037
2037
2035
2035
2034
2034
2034
2035
2036
2036
2037
2037
2036
2036
2035
2034
2032
2036
2050
2075
2103
2121
2112
2071
2012
1955
1922
1921
1948
1985
2018
2039
2048
2050
2049
2049
2050
2051
2052
2053
2054
2055
2055
2056
2056
2057
2057
2059
2058
2058
2059
2060
2063
2066
2067
2067
2066
2065
2065
2067
2070
2072
2073
2074
2074
2076
2077
2079
2081
2084
2085
2087
2088
2090
2091
2092
2096
2098
2101
2101
2101
2099
2098
2099
2100
2100
2097
2091
2084
2076
2069
2064
2058
2053
2048
2046
2043
2040
2038
2036
2034
2032
2031
2030
2029
2029
2030
2030
2032
2032
2030
2028
2026
2027
2031
2036
2039
2038
2035
2032
2031
2031
2034
2033
2032
2030
2030
2030
2031
2031
2031
2030
2030
2030
2030
2030
2030
2031
2032
2032
2032
2031
2029
2028
2028
2030
2032
2033
2033
2032
2031
2030
2029
2032
2031
2032
2031
2030
2031
2032
2033
2034
2034
2033
2031
2031
2031
2032
2034
2033
2034
2034
2033
2032
2030
2030
2032
2034
2036
2036
2035
2033
2032
2031
2033
2034
2035
2035
2035
2035
2034
2033
2033
2032
2032
2033
2033
2034
2036
2038
2039
2041
2042
2041
2038
2036
2035
2036
2038
2040
2039
2037
2035
2033
2032
2033
2034
2034
2035
2035
2035
2034
2033
2032
2030
2036
2054
2082
2113
2125
2106
2053
1984
1924
1893
1900
1933
1976
2010
2033
2045
2048
2049
2048
2048
2048
2049
2051
2053
2053
2054
2054
2054
2054
2055
2055
2056
2057
2058
2059
2059
2060
2061
2061
2062
2062
2063
2064
2065
2066
2068
2069
2071
2072
2073
2074
2075
2077
2080
2081
2084
2085
2087
2088
2090
2091
2093
2094
2094
2094
2093
2092
2090
2087
2082
2077
2071
2065
2058
2051
2046
2041
2038
2037
2035
2033
2030
2027
2026
2025
2026
2026
2025
2024
2024
2024
2024
2025
2026
2026
2026
2026
2026
2026
2025
2024
2025
2026
2029
2030
2031
2029
2028
2028
2028
2030
2029
2029
2028
2027
2027
2027
2027
2026
2025
2026
2027
2027
2027
2027
2027
2027
2026
2026
2025
2025
2025
2026
2028
2027
2026
2024
2022
2023
2026
2030
2033
2032
2030
2027
2025
2024
2026
2026
2026
2026
2026
2027
2027
2028
2028
2027
2027
2027
2027
2027
2028
2028
2028
2029
2029
2028
2026
2025
2026
2028
2030
2031
2031
2030
2029
2028
2027
2029
2028
2028
2028
2027
2028
2028
2028
2030
2032
2034
2036
2037
2037
2036
2035
2034
2036
2034
2033
2031
2029
2028
2029
2031
2033
2033
2032
2030
2029
2029
2030
2030
2029
2028
2030
2040
2060
2087
2109
2110
2080
2028
1968
1923
1909
1924
1958
1995
2022
2038
2044
2045
2045
2045
2046
2048
2048
2048
2048
2048
2048
2048
2050
2051
2052
2052
2053
2053
2054
2054
2055
2056
2057
2058
2059
2060
2061
2062
2063
2064
2065
2066
2067
2068
2070
2073
2075
2077
2078
2079
2079
2081
2083
2086
2087
2088
2089
2089
2089
2089
2088
2087
2085
2082
2079
2074
2068
2061
2055
2050
2047
2042
2039
2035
2032
2030
2029
2030
2030
2030
2028
2026
2025
2024
2025
2025
2026
2026
2026
2026
2026
2027
2027
2027
2028
2028
2029
2029
2028
2028
2027
2029
2029
2029
2028
2027
2026
2027
2029
2031
2032
2030
2028
2026
2026
2028
2028
2029
2028
2027
2027
2028
2028
2028
2028
2028
2028
2028
2027
2027
2027
2027
2029
2029
2029
2028
2026
2026
2026
2029
2031
2032
2032
2030
2029
2028
2028
2029
2029
2030
2030
2030
2031
2031
2031
2031
2031
2031
2031
2031
2031
2031
2032
2032
2034
2033
2032
2030
2029
2029
2030
2033
2035
2035
2035
2036
2037
2038
2040
2040
2039
2038
2038
2037
2037
2036
2035
2033
2033
2033
2033
2034
2034
2034
2035
2036
2035
2035
2033
2030
2029
2036
2053
2082
2109
2120
2102
2054
1989
1934
1905
1910
1941
1980
2014
2035
2046
2048
2049
2050
2050
2050
2051
2052
2053
2053
2056
2055
2056
2055
2054
2054
2056
2060
2065
2067
2067
2064
2061
2060
2062
2064
2067
2068
2070
2070
2071
2073
2074
2076
2078
2080
2082
2084
2086
2088
2090
2093
2094
2096
2097
2098
2100
2102
2104
2105
2106
2104
2100
2096
2091
2087
2081
2075
2068
2062
2056
2051
2047
2043
2040
2037
2035
2034
2034
2033
2032
2031
2030
2030
2029
2030
2029
2029
2030
2031
2033
2033
2033
2032
2031
2031
2031
2033
2033
2034
2034
2034
2033
2033
2033
2033
2033
2033
2033
2033
2033
2033
2032
2032
2032
2032
2033
2032
2032
2032
2032
2032
2033
2034
2034
2033
2032
2031
2032
2032
2033
2033
2033
2033
2033
2033
2034
2034
2034
2034
2034
2034
2034
2034
2033
2034
2032
2032
2032
2032
2033
2034
2036
2038
2039
2039
2040
2041
2040
2041
2040
2039
2038
2037
2035
2034
2034
2033
2034
2035
2035
2035
2034
2034
2034
2033
2034
2033
2031
2033
2045
2069
2102
2126
2121
2079
2011
1940
1895
1889
1916
1960
2000
2025
2039
2045
2047
2048
2050
2050
2051
2051
2052
2052
2053
2054
2056
2056
2058
2058
2058
2056
2056
2058
2061
2064
2066
2066
2065
2065
2066
2067
2069
2070
2071
2072
2074
2076
2078
2079
2081
2082
2084
2086
2089
2091
2093
2096
2097
2099
2100
2100
2099
2098
2098
2098
2097
2095
2089
2081
2072
2063
2055
2051
2046
2043
2039
2035
2033
2031
2029
2028
2026
2026
2025
2024
2024
2024
2024
2023
2026
2025
2026
2024
2022
2021
2023
2027
2032
2034
2032
2029
2025
2024
2025
2027
2029
2028
2028
2028
2028
2029
2029
2029
2028
2029
2029
2029
2029
2028
2028
2027
2027
2027
2027
2026
2026
2026
2028
2029
2029
2028
2027
2027
2025
2025
2025
2026
2028
2030
2032
2031
2029
2026
2025
2025
2025
2026
2025
2026
2026
2027
2028
2031
2033
2034
2035
2034
2034
2034
2035
2034
2034
2032
2030
2029
2028
2029
2030
2030
2030
2030
2030
2030
2030
2030
2030
2029
2027
2030
2043
2068
2097
2117
2108
2067
2003
1940
1901
1897
1925
1966
2003
2027
2040
2044
2044
2045
2046
2047
2048
2048
2048
2049
2049
2050
2050
2051
2052
2053
2054
2054
2054
2055
2055
2057
2058
2059
2059
2060
2061
2063
2065
2067
2068
2068
2069
2070
2072
2075
2076
2078
2080
2082
2084
2085
2088
2089
2091
2092
2093
2093
2093
2093
2092
2090
2089
2085
2079
2073
2065
2057
2050
2047
2044
2041
2038
2034
2031
2027
2026
2025
2024
2024
2023
2023
2023
2023
2023
2023
2023
2023
2023
2022
2022
2023
2024
2024
2026
2026
2026
2025
2024
2025
2026
2029
2030
2029
2029
2027
2026
2026
2027
2027
2026
2026
2027
2027
2028
2028
2027
2027
2026
2026
2025
2025
2025
2025
2026
2027
2026
2026
2025
2024
2024
2025
2026
2028
2029
2029
2028
2026
2024
2026
2026
2027
2028
2028
2028
2028
2027
2027
2027
2027
2028
2028
2029
2029
2028
2026
2026
2026
2026
2026
2025
2027
2031
2037
2043
2044
2042
2037
2032
2030
2030
2031
2032
2031
2030
2030
2029
2029
2029
2029
2029
2030
2031
2031
2031
2031
2029
2028
2029
2040
2061
2089
2110
2108
2078
2023
1963
1919
1906
1924
1959
1997
2024
2040
2046
2046
2045
2045
2045
2046
2047
2048
2048
2048
2049
2050
2050
2051
2051
2052
2053
2053
2053
2054
2055
2057
2059
2060
2061
2061
2061
2062
2063
2065
2067
2068
2070
2071
2073
2074
2076
2077
2079
2081
2083
2085
2086
2087
2088
2090
2091
2091
2092
2090
2089
2087
2085
2083
2078
2072
2064
2057
2051
2046
2044
2040
2037
2034
2032
2030
2028
2027
2026
2026
2026
2026
2026
2026
2025
2025
2024
2026
2026
2027
2026
2025
2025
2026
2028
2029
2030
2029
2027
2027
2027
2028
2029
2030
2029
2029
2028
2029
2029
2029
2029
2029
2029
2028
2028
2028
2028
2028
2029
2029
2029
2028
2027
2026
2027
2029
2031
2032
2031
2030
2028
2027
2028
2028
2029
2029
2029
2029
2029
2030
2031
2030
2030
2030
2029
2029
2029
2030
2030
2030
2032
2031
2030
2029
2028
2029
2031
2033
2034
2034
2033
2031
2031
2030
2031
2031
2031
2031
2032
2032
2033
2033
2033
2033
2033
2033
2032
2032
2031
2030
2030
2031
2031
2032
2032
2033
2035
2038
2041
2043
2042
2040
2038
2036
2034
2035
2034
2034
2033
2032
2034
2034
2033
2034
2033
2034
2035
2035
2035
2034
2033
2031
2037
2050
2075
2100
2110
2097
2056
2002
1953
1925
1926
1949
1983
2013
2034
2045
2049
2048
2048
2048
2049
2050
2050
2051
2052
2053
2054
2055
2055
2056
2056
2057
2057
2058
2058
2059
2059
2061
2063
2065
2067
2068
2067
2067
2067
2068
2070
2072
2075
2076
2077
2079
2080
2082
2084
2086
2088
2090
2092
2094
2095
2096
2096
2097
2097
2097
2096
2095
2094
2091
2088
2083
2077
2070
2063
2057
2052
2048
2046
2044
2041
2039
2037
2036
2035
2034
2034
2034
2034
2034
2034
2034
2033
2033
2033
2033
2034
2034
2035
2035
2036
2036
2037
2038
2037
2037
2036
2036
2036
2036
2037
2036
2036
2035
2036
2036
2036
2036
2037
2037
2036
2036
2036
2035
2034
2036
2036
2036
2036
2036
2036
2037
2038
2038
2037
2036
2036
2036
2037
2038
2038
2038
2038
2038
2038
2038
2039
2039
2039
2039
2039
2039
2038
2038
2039
2039
2040
2040
2041
2040
2039
2039
2039
2040
2042
2042
2042
2041
2041
2041
2041
2041
2040
2040
2039
2039
2040
2041
2042
2044
2045
2047
2048
2048
2047
2046
2045
2045
2047
2048
2048
2045
2041
2040
2040
2043
2045
2044
2043
2042
2042
2042
2042
2041
2040
2038
2046
2062
2090
2118
2130
2110
2059
1993
1935
1906
1912
1945
1987
2021
2043
2052
2054
2054
2055
2056
2059
2061
2062
2062
2061
2061
2060
2062
2062
2063
2064
2064
2065
2064
2066
2066
2067
2068
2068
2070
2072
2073
2075
2075
2077
2076
2078
2078
2078
2079
2082
2087
2092
2095
2095
2093
2091
2092
2094
2096
2099
2100
2101
2101
2100
2099
2098
2096
2092
2088
2083
2076
2070
2064
2058
2053
2048
2046
2042
2040
2038
2037
2037
2037
2037
2035
2033
2031
2030
2031
2032
2033
2033
2033
2033
2033
2033
2033
2033
2034
2034
2035
2035
2036
2035
2035
2035
2035
2035
2035
2035
2035
2035
2036
2037
2037
2036
2034
2033
2033
2033
2033
2033
2033
2033
2033
2033
2033
2032
2032
2032
2032
2033
2033
2033
2033
2033
2032
2032
2032
2033
2033
2034
2034
2034
2035
2035
2035
2034
2034
2033
2033
2034
2034
2034
2034
2034
2034
2034
2034
2034
2035
2035
2035
2035
2035
2034
2034
2034
2035
2035
2035
2035
2035
2035
2036
2037
2037
2036
2034
2032
2032
2032
2034
2035
2036
2038
2040
2041
2042
2043
2043
2042
2041
2039
2038
2037
2036
2035
2034
2035
2035
2035
2035
2034
2033
2033
2035
2037
2038
2036
2034
2033
2042
2062
2090
2112
2114
2085
2033
1973
1928
1912
1927
1961
1998
2025
2041
2048
2048
2048
2048
2050
2050
2050
2049
2048
2049
2052
2056
2058
2058
2057
2055
2054
2054
2056
2057
2057
2058
2060
2061
2062
2063
2064
2065
2066
2067
2068
2069
2071
2073
2074
2077
2078
2078
2079
2080
2082
2085
2089
2093
2094
2094
2093
2091
2090
2091
2090
2089
2088
2085
2081
2076
2068
2063
2057
2051
2047
2042
2039
2038
2037
2035
2034
2032
2029
2027
2025
2027
2028
2030
2031
2032
2031
2029
2028
2027
2028
2029
2030
2030
2031
2031
2031
2030
2030
2030
2030
2030
2030
2030
2031
2031
2031
2030
2030
2030
2029
2029
2029
2030
2031
2032
2031
2030
2029
2028
2028
2028
2029
2030
2029
2029
2029
2029
2029
2029
2029
2029
2029
2030
2030
2030
2030
2030
2030
2030
2030
2029
2029
2029
2030
2032
2033
2033
2033
2032
2031
2030
2030
2031
2031
2031
2031
2031
2032
2032
2032
2032
2032
2033
2033
2033
2032
2032
2032
2032
2033
2033
2034
2033
2033
2033
2034
2035
2035
2035
2033
2031
2031
2031
2034
2036
2038
2039
2040
2040
2039
2039
2037
2037
2036
2036
2035
2034
2034
2033
2032
2033
2034
2034
2034
2034
2034
2035
2036
2036
2034
2033
2039
2055
2082
2109
2117
2095
2046
1984
1932
1909
1918
1950
1989
2020
2039
2047
2048
2048
2047
2048
2049
2050
2052
2052
2052
2051
2052
2054
2056
2058
2057
2057
2056
2057
2059
2060
2060
2061
2061
2062
2064
2066
2067
2068
2069
2071
2071
2072
2073
2075
2078
2079
2083
2084
2085
2085
2086
2088
2092
2097
2100
2100
2099
2097
2096
2095
2096
2094
2091
2087
2082
2076
2070
2064
2058
2052
2048
2044
2040
2037
2035
2034
2032
2032
2030
2029
2027
2026
2026
2028
2030
2032
2032
2031
2029
2029
2027
2030
2029
2030
2031
2031
2031
2031
2031
2031
2031
2031
2030
2030
2030
2030
2031
2032
2032
2031
2031
2029
2027
2027
2028
2030
2033
2034
2034
2032
2030
2028
2029
2029
2031
2030
2030
2030
2030
2030
2030
2030
2030
2030
2031
2031
2032
2032
2032
2032
2031
2031
2031
2030
2030
2031
2033
2035
2036
2036
2034
2032
2030
2030
2031
2032
2033
2033
2033
2033
2032
2032
2032
2032
2032
2032
2032
2033
2033
2034
2035
2037
2038
2040
2040
2039
2039
2040
2040
2042
2041
2038
2034
2031
2030
2032
2036
2039
2040
2038
2035
2033
2032
2033
2033
2033
2032
2041
2060
2091
2121
2129
2105
2047
1974
1914
1888
1902
1942
1987
2019
2037
2043
2045
2047
2048
2051
2051
2052
2053
2054
2054
2055
2056
2057
2057
2058
2059
2059
2060
2060
2060
2060
2062
2064
2065
2065
2065
2066
2067
2070
2073
2075
2075
2074
2074
2075
2078
2081
2084
2086
2087
2088
2091
2093
2095
2097
2099
2099
2100
2100
2100
2099
2098
2096
2092
2087
2080
2072
2064
2056
2051
2048
2045
2041
2036
2031
2028
2026
2025
2025
2025
2023
2023
2023
2022
2022
2022
2022
2022
2022
2022
2022
2022
2023
2024
2025
2026
2026
2025
2025
2025
2027
2030
2031
2030
2029
2027
2026
2026
2027
2027
2026
2026
2026
2027
2027
2027
2027
2027
2026
2026
2026
2026
2027
2027
2026
2028
2028
2027
2025
2024
2024
2026
2029
2031
2031
2030
2027
2026
2025
2028
2028
2028
2028
2028
2028
2029
2029
2028
2029
2028
2027
2026
2026
2026
2027
2028
2031
2032
2035
2034
2032
2032
2033
2035
2039
2040
2037
2033
2029
2026
2026
2026
2029
2029
2029
2030
2030
2031
2031
2030
2029
2028
2027
2029
2041
2064
2095
2119
2116
2078
2013
1944
1897
1887
1913
1957
1999
2025
2038
2041
2041
2043
2044
2047
2048
2048
2049
2049
2050
2050
2050
2051
2052
2053
2054
2055
2055
2056
2056
2057
2058
2058
2059
2060
2062
2064
2067
2069
2069
2069
2068
2069
2071
2074
2077
2079
2081
2083
2084
2086
2088
2090
2092
2094
2096
2097
2097
2097
2096
2094
2092
2088
2083
2076
2069
2062
2057
2052
2048
2043
2037
2032
2028
2026
2026
2025
2024
2023
2022
2022
2021
2021
2021
2021
2021
2022
2022
2023
2023
2023
2022
2023
2021
2021
2021
2022
2024
2026
2027
2027
2026
2024
2024
2024
2026
2027
2027
2026
2026
2025
2025
2025
2026
2026
2026
2026
2025
2025
2024
2024
2023
2024
2025
2025
2025
2024
2024
2024
2024
2026
2027
2027
2027
2026
2025
2025
2026
2026
2026
2026
2026
2026
2027
2027
2027
2027
2027
2028
2027
2027
2027
2027
2028
2029
2030
2029
2027
2025
2023
2024
2026
2029
2030
2030
2030
2030
2031
2034
2035
2034
2033
2032
2032
2031
2031
2031
2029
2028
2027
2027
2027
2027
2027
2027
2028
2029
2029
2028
2026
2024
2023
2028
2044
2068
2097
2114
2105
2066
2006
1947
1909
1905
1929
1967
2002
2026
2037
2041
2041
2041
2041
2042
2044
2045
2046
2046
2048
2048
2048
2048
2046
2045
2047
2049
2054
2056
2056
2053
2051
2051
2053
2054
2057
2058
2059
2060
2062
2063
2064
2065
2066
2068
2070
2072
2075
2076
2078
2080
2081
2083
2084
2085
2086
2087
2089
2090
2090
2088
2084
2080
2075
2070
2064
2059
2052
2047
2042
2037
2034
2031
2028
2026
2025
2024
2024
2023
2022
2022
2021
2021
2021
2021
2020
2020
2021
2022
2024
2024
2024
2023
2022
2022
2023
2024
2025
2025
2025
2024
2024
2025
2025
2025
2025
2026
2026
2027
2026
2026
2026
2025
2025
2025
2025
2025
2025
2025
2026
2027
2028
2027
2025
2024
2024
2023
2025
2026
2026
2026
2025
2025
2025
2026
2026
2027
2027
2027
2027
2027
2026
2026
2025
2026
2027
2027
2027
2027
2026
2027
2028
2029
2030
2029
2028
2027
2026
2027
2028
2029
2029
2028
2028
2029
2029
2029
2029
2029
2029
2029
2029
2029
2029
2029
2030
2030
2030
2030
2029
2029
2030
2031
2032
2033
2033
2032
2031
2029
2028
2027
2028
2028
2029
2030
2032
2034
2036
2037
2037
2037
2036
2035
2034
2033
2034
2033
2033
2032
2031
2030
2029
2029
2031
2033
2035
2035
2033
2031
2030
2029
2030
2035
2050
2074
2100
2111
2096
2055
1998
1947
1919
1922
1947
1983
2013
2034
2045
2049
2049
2048
2045
2043
2043
2046
2049
2053
2053
2052
2051
2050
2049
2051
2052
2053
2054
2054
2055
2056
2057
2058
2058
2058
2060
2060
2062
2063
2064
2066
2068
2070
2071
2071
2070
2070
2074
2080
2086
2089
2089
2086
2084
2084
2085
2087
2089
2089
2089
2088
2086
2084
2080
2076
2070
2065
2060
2055
2050
2047
2043
2039
2036
2033
2031
2029
2028
2028
2030
2031
2030
2028
2025
2024
2024
2025
2026
2026
2027
2027
2027
2028
2028
2028
2028
2028
2029
2029
2029
2029
2029
2028
2028
2029
2029
2029
2028
2028
2029
2030
2032
2032
2030
2029
2028
2027
2028
2029
2030
2029
2029
2028
2028
2028
2028
2028
2029
2029
2030
2030
2030
2030
2029
2029
2030
2029
2030
2030
2030
2031
2032
2033
2033
2033
2032
2031
2031
2031
2032
2032
2033
2033
2033
2032
2032
2032
2032
2032
2033
2033
2033
2033
2033
2033
2033
2034
2035
2035
2035
2034
2034
2034
2036
2037
2037
2037
2036
2035
2034
2036
2036
2036
2036
2035
2035
2036
2037
2037
2037
2037
2036
2035
2034
2034
2034
2036
2038
2040
2042
2043
2043
2043
2043
2043
2043
2043
2042
2040
2039
2038
2037
2037
2037
2037
2037
2037
2038
2039
2039
2039
2039
2038
2036
2039
2052
2077
2107
2126
2118
2076
2014
1950
1912
1909
1937
1979
2015
2038
2048
2050
2050
2051
2052
2053
2054
2054
2055
2056
2057
2057
2058
2058
2058
2059
2059
2060
2061
2061
2062
2064
2064
2064
2065
2065
2066
2069
2071
2073
2074
2074
2074
2075
2075
2078
2080
2081
2084
2085
2087
2089
2091
2093
2094
2095
2096
2097
2098
2098
2098
2097
2096
2094
2090
2085
2077
2071
2064
2060
2057
2052
2048
2042
2037
2032
2030
2030
2029
2029
2028
2027
2026
2026
2025
2025
2025
2026
2026
2027
2027
2027
2027
2027
2028
2028
2027
2027
2027
2028
2030
2032
2033
2031
2029
2028
2027
2028
2029
2030
2030
2030
2029
2029
2028
2028
2028
2028
2028
2028
2028
2028
2028
2028
2027
2028
2027
2026
2026
2026
2027
2029
2031
2031
2030
2028
2026
2026
2026
2028
2029
2029
2028
2028
2028
2028
2028
2028
2029
2029
2030
2030
2029
2029
2028
2028
2029
2029
2028
2028
2028
2028
2030
2031
2032
2031
2029
2028
2028
2027
2028
2028
2028
2027
2027
2027
2028
2029
2031
2033
2035
2036
2036
2036
2035
2033
2032
2033
2032
2032
2030
2028
2028
2030
2032
2033
2033
2031
2029
2028
2028
2030
2029
2028
2028
2037
2057
2085
2109
2111
2082
2028
1966
1920
1905
1921
1957
1995
2022
2037
2044
2044
2044
2043
2044
2046
2048
2048
2048
2048
2048
2048
2048
2049
2049
2050
2051
2051
2052
2053
2054
2055
2056
2057
2057
2058
2058
2059
2061
2064
2065
2066
2066
2066
2066
2069
2072
2076
2079
2080
2081
2081
2082
2085
2087
2088
2088
2088
2089
2089
2089
2087
2084
2080
2075
2070
2063
2057
2051
2046
2042
2039
2035
2031
2028
2025
2025
2026
2027
2027
2026
2024
2023
2021
2021
2021
2022
2022
2023
2023
2024
2025
2025
2025
2025
2025
2025
2025
2026
2026
2026
2026
2026
2025
2026
2025
2024
2023
2024
2027
2030
2032
2031
2027
2025
2023
2022
2023
2025
2026
2026
2026
2026
2026
2026
2025
2025
2025
2026
2026
2027
2027
2027
2027
2026
2026
2026
2025
2026
2026
2028
2029
2030
2029
2028
2027
2026
2027
2027
2028
2029
2029
2029
2028
2028
2028
2028
2029
2029
2029
2029
2030
2030
2030
2030
2030
2030
2029
2029
2029
2029
2030
2032
2032
2031
2029
2027
2026
2027
2029
2031
2033
2034
2035
2037
2037
2037
2036
2036
2035
2035
2035
2034
2033
2031
2031
2031
2031
2031
2031
2032
2032
2034
2035
2036
2035
2031
2028
2032
2048
2077
2105
2118
2102
2056
1996
1941
1913
1917
1946
1983
2015
2036
2046
2048
2047
2046
2047
2048
2049
2049
2049
2049
2050
2052
2054
2055
2055
2054
2053
2054
2056
2058
2059
2059
2059
2060
2061
2062
2063
2064
2065
2066
2068
2068
2069
2071
2072
2075
2077
2078
2080
2081
2083
2086
2089
2091
2093
2093
2094
2093
2093
2093
2093
2092
2090
2087
2084
2080
2074
2068
2062
2057
2052
2048
2044
2041
2038
2036
2034
2033
2031
2030
2028
2027
2027
2028
2030
2031
2030
2030
2029
2029
2028
2029
2029
2029
2029
2030
2030
2031
2031
2031
2031
2030
2031
2030
2031
2031
2031
2031
2032
2031
2031
2029
2029
2029
2031
2032
2033
2033
2031
2030
2028
2028
2030
2030
2030
2030
2030
2030
2029
2029
2029
2029
2029
2029
2029
2030
2030
2030
2030
2031
2031
2030
2028
2027
2028
2031
2035
2037
2036
2034
2030
2029
2028
2031
2031
2031
2032
2032
2032
2032
2033
2033
2033
2033
2032
2033
2033
2033
2034
2034
2035
2035
2033
2032
2030
2030
2033
2036
2038
2038
2037
2036
2037
2038
2039
2041
2041
2042
2041
2040
2039
2038
2037
2036
2036
2036
2035
2036
2035
2035
2034
2034
2036
2036
2036
2034
2033
2034
2044
2064
2092
2116
2121
2097
2045
1981
1930
1907
1917
1950
1989
2019
2039
2047
2049
2051
2051
2052
2052
2052
2053
2053
2054
2056
2056
2056
2056
2056
2058
2060
2062
2063
2063
2062
2061
2062
2063
2065
2067
2068
2069
2069
2070
2071
2073
2075
2077
2079
2081
2082
2083
2085
2087
2089
2092
2094
2096
2097
2097
2098
2100
2102
2103
2102
2100
2097
2092
2088
2084
2077
2071
2064
2057
2051
2047
2043
2040
2038
2036
2033
2031
2029
2028
2027
2027
2027
2027
2027
2027
2026
2026
2027
2028
2029
2029
2029
2029
2029
2029
2029
2029
2029
2029
2029
2030
2030
2030
2031
2030
2030
2030
2029
2029
2029
2029
2029
2029
2030
2030
2029
2028
2027
2027
2028
2030
2031
2030
2030
2028
2028
2027
2027
2028
2028
2028
2029
2029
2030
2030
2030
2029
2029
2029
2029
2029
2030
2030
2030
2031
2030
2030
2029
2028
2028
2029
2031
2032
2033
2032
2030
2028
2026
2027
2027
2028
2030
2032
2034
2036
2037
2038
2037
2036
2035
2034
2034
2034
2034
2032
2032
2031
2030
2030
2029
2029
2030
2032
2034
2035
2034
2032
2029
2026
2031
2047
2073
2104
2119
2105
2059
1994
1935
1902
1904
1934
1975
2009
2032
2042
2046
2046
2047
2046
2046
2046
2047
2048
2052
2054
2055
2054
2052
2051
2051
2052
2054
2055
2056
2057
2058
2058
2059
2060
2060
2062
2063
2064
2066
2067
2068
2068
2070
2071
2072
2074
2076
2078
2082
2085
2089
2090
2089
2089
2089
2089
2091
2093
2093
2092
2091
2088
2085
2080
2074
2067
2061
2055
2049
2045
2041
2037
2034
2031
2030
2028
2026
2025
2024
2024
2025
2026
2026
2026
2024
2022
2022
2022
2024
2025
2025
2025
2026
2026
2026
2026
2027
2027
2027
2027
2027
2026
2026
2026
2026
2027
2027
2026
2026
2026
2026
2026
2027
2028
2028
2027
2026
2025
2025
2025
2026
2026
2025
2025
2025
2025
2025
2026
2026
2026
2026
2025
2025
2025
2025
2025
2026
2026
2027
2027
2026
2026
2026
2028
2029
2029
2029
2028
2027
2027
2028
2027
2028
2028
2027
2028
2029
2029
2029
2029
2029
2028
2028
2028
2028
2028
2028
2027
2027
2026
2026
2026
2027
2029
2033
2037
2039
2038
2036
2034
2032
2032
2033
2032
2030
2029
2028
2028
2029
2029
2029
2029
2029
2029
2029
2029
2029
2028
2027
2028
2036
2053
2079
2103
2110
2089
2042
1983
1934
1912
1921
1951
1988
2019
2036
2045
2046
2045
2043
2044
2044
2046
2047
2048
2047
2046
2046
2048
2050
2052
2055
2054
2054
2051
2048
2048
2049
2054
2059
2063
2064
2063
2060
2059
2060
2062
2065
2068
2069
2070
2072
2073
2074
2076
2077
2079
2082
2083
2085
2086
2087
2088
2088
2088
2088
2087
2086
2084
2083
2080
2075
2068
2061
2054
2048
2045
2041
2038
2035
2033
2031
2029
2028
2027
2026
2025
2025
2025
2025
2025
2025
2025
2025
2025
2025
2025
2025
2026
2027
2028
2029
2029
2028
2028
2027
2027
2027
2028
2028
2028
2028
2028
2027
2027
2027
2027
2027
2027
2027
2027
2027
2027
2027
2026
2027
2027
2027
2026
2026
2027
2028
2029
2030
2029
2028
2027
2026
2026
2027
2027
2028
2027
2027
2027
2027
2027
2027
2028
2028
2028
2029
2028
2028
2027
2027
2027
2028
2029
2029
2028
2027
2028
2029
2030
2031
2030
2029
2028
2028
2029
2029
2030
2029
2029
2029
2029
2028
2027
2028
2028
2029
2030
2031
2033
2035
2036
2037
2036
2036
2034
2033
2032
2033
2033
2033
2032
2031
2030
2030
2029
2030
2030
2030
2031
2031
2030
2030
2029
2029
2036
2053
2079
2104
2111
2090
2043
1983
1933
1910
1918
1949
1986
2016
2036
2046
2049
2049
2048
2047
2047
2047
2048
2049
2049
2049
2050
2051
2052
2053
2054
2055
2055
2055
2056
2056
2057
2058
2059
2061
2063
2063
2064
2063
2064
2066
2070
2073
2075
2076
2076
2077
2077
2079
2082
2083
2086
2088
2090
2092
2093
2095
2095
2095
2095
2094
2093
2092
2089
2085
2080
2075
2067
2062
2054
2048
2043
2040
2040
2041
2040
2037
2033
2028
2026
2025
2025
2027
2027
2026
2028
2028
2027
2027
2028
2028
2028
2029
2030
2031
2031
2030
2030
2030
2030
2029
2029
2029
2030
2032
2033
2033
2032
2030
2029
2029
2029
2030
2030
2030
2031
2031
2031
2030
2030
2029
2029
2030
2031
2032
2032
2031
2031
2031
2031
2031
2031
2031
2031
2031
2033
2034
2034
2034
2033
2032
2032
2032
2033
2034
2034
2033
2033
2033
2033
2033
2033
2034
2034
2034
2034
2034
2033
2033
2032
2032
2033
2034
2035
2036
2038
2041
2042
2043
2043
2041
2040
2038
2037
2037
2037
2036
2035
2034
2034
2034
2034
2034
2035
2036
2036
2037
2036
2035
2033
2031
2038
2055
2084
2115
2129
2109
2056
1985
1923
1892
1898
1933
1976
2011
2034
2044
2047
2048
2049
2050
2051
2052
2053
2054
2055
2055
2055
2054
2055
2055
2056
2058
2059
2061
2061
2061
2061
2062
2063
2066
2068
2069
2069
2069
2069
2071
2071
2074
2075
2076
2077
2079
2081
2083
2087
2090
2093
2095
2096
2096
2097
2098
2099
2099
2100
2098
2096
2092
2088
2083
2079
2074
2067
2059
2051
2045
2040
2037
2034
2032
2031
2030
2030
2029
2028
2027
2026
2025
2025
2025
2025
2026
2026
2026
2028
2028
2028
2026
2025
2026
2028
2031
2033
2033
2032
2030
2029
2027
2029
2029
2030
2030
2030
2030
2030
2029
2029
2029
2028
2028
2028
2028
2028
2028
2027
2028
2028
2027
2027
2024
2023
2026
2028
2031
2032
2029
2026
2025
2025
2027
2029
2028
2028
2027
2027
2028
2029
2028
2028
2027
2027
2027
2026
2026
2026
2028
2031
2032
2033
2033
2032
2032
2034
2037
2038
2038
2035
2031
2028
2027
2027
2028
2028
2029
2029
2030
2029
2029
2029
2029
2028
2027
2027
2034
2052
2080
2106
2115
2095
2044
1980
1926
1902
1914
1951
1994
2025
2041
2045
2044
2042
2040
2043
2044
2045
2046
2047
2048
2048
2048
2048
2048
2049
2050
2051
2052
2053
2053
2053
2055
2056
2057
2056
2058
2059
2062
2065
2067
2068
2068
2067
2067
2068
2071
2073
2076
2077
2079
2080
2082
2084
2086
2087
2088
2089
2089
2089
2089
2088
2085
2084
2079
2073
2065
2057
2050
2048
2046
2044
2039
2033
2027
2025
2025
2029
2029
2027
2024
2021
2019
2021
2021
2022
2022
2023
2023
2023
2022
2022
2022
2022
2024
2025
2025
2025
2024
2023
2024
2026
2028
2029
2029
2027
2025
2024
2024
2024
2025
2025
2024
2024
2025
2025
2026
2026
2026
2026
2025
2025
2025
2025
2025
2025
2026
2026
2025
2024
2023
2024
2026
2029
2031
2030
2029
2026
2025
2025
2026
2027
2027
2027
2028
2028
2028
2027
2027
2026
2025
2025
2026
2028
2030
2032
2033
2036
2036
2035
2033
2031
2030
2031
2033
2034
2034
2032
2030
2028
2027
2028
2028
2028
2029
2029
2030
2030
2029
2027
2026
2033
2050
2077
2104
2115
2097
2049
1989
1936
1907
1912
1941
1979
2014
2037
2048
2050
2048
2044
2042
2043
2045
2048
2048
2048
2048
2050
2051
2051
2050
2050
2051
2053
2054
2055
2057
2057
2058
2058
2061
2061
2061
2060
2061
2063
2067
2072
2075
2075
2075
2074
2075
2075
2079
2080
2082
2084
2086
2087
2089
2090
2091
2091
2092
2092
2091
2090
2087
2082
2077
2071
2065
2058
2052
2047
2043
2040
2038
2036
2033
2030
2027
2026
2025
2025
2025
2025
2025
2024
2024
2024
2024
2024
2025
2025
2026
2026
2026
2026
2026
2025
2027
2027
2027
2027
2026
2025
2026
2027
2028
2029
2028
2027
2026
2025
2027
2027
2027
2027
2027
2026
2026
2026
2027
2027
2027
2027
2027
2027
2026
2026
2026
2027
2027
2027
2027
2026
2026
2026
2028
2029
2029
2029
2028
2027
2027
2028
2029
2029
2029
2029
2029
2029
2030
2030
2031
2031
2030
2029
2027
2027
2027
2027
2030
2032
2033
2034
2035
2035
2036
2037
2038
2038
2037
2035
2033
2031
2031
2030
2030
2031
2030
2030
2031
2031
2032
2032
2032
2031
2030
2029
2029
2039
2060
2088
2111
2112
2083
2027
1965
1920
1907
1925
1962
1999
2026
2041
2046
2047
2047
2046
2046
2047
2048
2049
2050
2051
2052
2053
2053
2053
2053
2054
2055
2056
2057
2058
2058
2058
2058
2058
2059
2062
2065
2068
2069
2069
2069
2070
2070
2073
2075
2076
2078
2079
2082
2083
2085
2087
2088
2090
2091
2093
2093
2094
2094
2094
2094
2093
2089
2084
2078
2072
2069
2065
2062
2057
2050
2044
2038
2035
2033
2034
2033
2032
2031
2030
2029
2028
2027
2028
2028
2028
2029
2030
2031
2031
2031
2030
2032
2031
2030
2029
2028
2029
2032
2034
2036
2035
2032
2030
2029
2029
2031
2030
2031
2031
2030
2030
2030
2030
2030
2030
2030
2030
2030
2031
2031
2031
2031
2031
2031
2031
2031
2030
2030
2031
2033
2033
2033
2032
2031
2031
2031
2033
2033
2034
2033
2033
2033
2033
2033
2033
2034
2034
2034
2035
2034
2034
2032
2032
2031
2032
2032
2033
2034
2035
2036
2038
2040
2041
2041
2041
2041
2040
2040
2039
2038
2037
2037
2036
2036
2035
2034
2034
2035
2035
2036
2036
2037
2036
2035
2035
2034
2035
2045
2066
2096
2121
2123
2091
2031
1962
1911
1896
1916
1957
1999
2027
2043
2048
2050
2051
2052
2053
2055
2055
2056
2056
2056
2056
2057
2058
2059
2061
2062
2061
2061
2062
2063
2065
2067
2068
2068
2068
2069
2070
2072
2073
2074
2075
2077
2079
2081
2082
2085
2087
2088
2090
2092
2093
2095
2097
2099
2101
2103
2104
2104
2103
2102
2101
2100
2098
2095
2089
2081
2073
2065
2059
2054
2049
2045
2042
2039
2037
2036
2035
2033
2032
2031
2031
2030
2030
2030
2030
2029
2031
2031
2031
2030
2030
2030
2031
2033
2034
2035
2034
2034
2033
2032
2034
2033
2034
2034
2034
2034
2034
2033
2033
2033
2033
2033
2032
2032
2033
2033
2032
2033
2032
2031
2030
2029
2029
2030
2033
2035
2035
2033
2032
2030
2029
2031
2032
2032
2033
2033
2033
2032
2031
2030
2030
2028
2028
2028
2030
2034
2038
2041
2042
2040
2038
2035
2034
2034
2036
2037
2038
2038
2036
2033
2031
2029
2032
2032
2033
2034
2034
2034
2034
2033
2032
2029
2033
2048
2074
2105
2123
2110
2061
1992
1929
1891
1892
1924
1968
2007
2032
2046
2050
2049
2048
2048
2048
2048
2051
2052
2054
2054
2054
2055
2055
2056
2057
2058
2059
2060
2060
2061
2062
2062
2063
2065
2065
2067
2067
2068
2070
2073
2076
2078
2079
2079
2079
2080
2082
2086
2088
2090
2092
2093
2094
2095
2096
2097
2098
2098
2098
2096
2094
2090
2085
2078
2072
2065
2058
2051
2045
2039
2037
2036
2035
2034
2031
2027
2025
2024
2026
2026
2026
2025
2025
2025
2025
2026
2025
2026
2025
2025
2026
2026
2027
2027
2027
2028
2028
2029
2028
2028
2028
2028
2029
2029
2030
2030
2029
2028
2028
2028
2027
2027
2027
2027
2027
2027
2027
2027
2027
2027
2027
2027
2026
2026
2026
2026
2027
2027
2028
2027
2027
2026
2025
2026
2027
2029
2029
2029
2028
2028
2028
2028
2028
2028
2028
2028
2028
2029
2029
2029
2029
2028
2027
2026
2025
2026
2026
2027
2030
2032
2033
2033
2033
2033
2034
2034
2035
2034
2033
2032
2030
2028
2028
2028
2029
2029
2030
2030
2030
2030
2031
2030
2029
2028
2027
2028
2038
2060
2087
2112
2113
2082
2026
1962
1917
1904
1924
1963
2001
2026
2038
2043
2043
2044
2045
2045
2046
2048
2048
2049
2049
2049
2049
2049
2049
2051
2052
2053
2053
2054
2055
2055
2056
2056
2057
2058
2060
2062
2065
2067
2066
2066
2066
2067
2070
2072
2074
2076
2077
2079
2080
2082
2083
2085
2087
2088
2089
2090
2090
2090
2089
2088
2087
2083
2078
2072
2065
2059
2054
2050
2047
2043
2037
2033
2030
2027
2028
2027
2026
2025
2024
2024
2023
2023
2023
2024
2024
2024
2024
2024
2024
2024
2024
2025
2025
2026
2025
2025
2025
2026
2027
2028
2028
2027
2026
2025
2025
2026
2027
2027
2026
2026
2025
2025
2026
2026
2026
2026
2026
2026
2025
2025
2025
2024
2025
2026
2026
2025
2024
2023
2024
2026
2029
2030
2029
2027
2025
2024
2025
2028
2028
2027
2027
2027
2027
2028
2028
2028
2028
2027
2028
2028
2028
2028
2029
2030
2030
2030
2029
2028
2028
2029
2030
2031
2031
2031
2031
2030
2029
2030
2030
2029
2029
2028
2029
2030
2030
2031
2031
2031
2031
2031
2031
2030
2029
2029
2030
2031
2031
2031
2031
2032
2034
2037
2040
2042
2040
2038
2036
2035
2035
2034
2034
2033
2032
2033
2033
2033
2033
2033
2033
2034
2034
2033
2033
2032
2030
2033
2046
2067
2092
2109
2105
2072
2021
1968
1932
1924
1943
1977
2010
2032
2046
2048
2048
2049
2048
2049
2049
2049
2050
2051
2052
2053
2054
2054
2055
2056
2055
2057
2057
2058
2058
2057
2059
2061
2065
2068
2068
2068
2066
2065
2067
2070
2072
2074
2075
2075
2077
2079
2081
2082
2084
2084
2085
2087
2089
2092
2092
2092
2093
2092
2092
2090
2089
2087
2085
2082
2079
2074
2067
2059
2053
2048
2046
2043
2041
2040
2038
2036
2035
2033
2032
2032
2031
2031
2032
2032
2032
2032
2033
2032
2034
2033
2033
2032
2031
2032
2034
2036
2037
2037
2035
2033
2032
2032
2034
2035
2035
2034
2034
2034
2034
2034
2034
2034
2034
2035
2034
2034
2034
2033
2032
2034
2034
2034
2034
2033
2034
2035
2036
2037
2036
2035
2034
2033
2033
2034
2034
2035
2035
2034
2034
2034
2035
2035
2035
2036
2036
2035
2035
2035
2036
2035
2037
2037
2037
2036
2035
2034
2034
2037
2039
2040
2039
2037
2036
2035
2037
2038
2038
2037
2037
2037
2038
2039
2038
2038
2038
2038
2038
2038
2038
2038
2038
2039
2039
2040
2039
2038
2037
2038
2039
2039
2038
2037
2036
2038
2040
2042
2042
2041
2041
2041
2043
2045
2046
2044
2043
2042
2042
2041
2040
2039
2039
2039
2039
2040
2039
2039
2038
2038
2039
2040
2041
2041
2039
2039
2045
2062
2087
2110
2115
2092
2046
1988
1943
1924
1935
1966
2002
2030
2047
2052
2053
2053
2052
2052
2054
2054
2054
2054
2054
2055
2057
2059
2060
2061
2061
2061
2060
2059
2061
2062
2063
2065
2065
2067
2067
2068
2069
2070
2071
2072
2073
2074
2076
2078
2078
2081
2082
2083
2084
2084
2085
2088
2091
2095
2096
2095
2093
2091
2090
2091
2091
2090
2087
2083
2078
2073
2068
2063
2058
2053
2048
2045
2042
2041
2039
2038
2036
2035
2033
2032
2031
2031
2032
2034
2035
2036
2034
2033
2031
2031
2032
2033
2033
2034
2034
2034
2034
2034
2034
2034
2034
2034
2034
2035
2034
2034
2033
2034
2035
2034
2033
2031
2030
2032
2035
2038
2039
2038
2035
2032
2031
2031
2033
2034
2034
2034
2034
2033
2033
2033
2033
2034
2034
2034
2034
2034
2034
2034
2034
2035
2035
2035
2035
2035
2036
2037
2038
2039
2038
2037
2036
2035
2035
2037
2037
2037
2038
2038
2037
2038
2038
2038
2038
2038
2039
2039
2039
2039
2039
2038
2039
2040
2039
2038
2036
2036
2037
2040
2043
2044
2042
2039
2038
2038
2040
2042
2041
2040
2039
2039
2039
2040
2040
2040
2040
2041
2044
2045
2047
2047
2046
2046
2045
2045
2044
2043
2041
2040
2040
2041
2042
2042
2042
2041
2040
2041
2041
2041
2041
2041
2039
2042
2052
2075
2104
2125
2120
2084
2024
1961
1920
1913
1937
1976
2013
2037
2048
2052
2053
2055
2057
2059
2060
2060
2059
2059
2059
2059
2060
2061
2062
2063
2064
2065
2065
2065
2066
2066
2067
2068
2069
2070
2071
2072
2074
2074
2075
2075
2076
2078
2080
2083
2085
2087
2087
2088
2090
2090
2094
2095
2097
2099
2100
2100
2100
2100
2099
2098
2096
2094
2091
2087
2082
2077
2069
2064
2058
2052
2048
2043
2040
2039
2039
2040
2039
2036
2032
2029
2028
2029
2030
2031
2032
2032
2031
2030
2030
2030
2031
2031
2032
2033
2032
2032
2032
2033
2034
2033
2033
2032
2032
2031
2032
2033
2035
2036
2034
2033
2031
2029
2030
2030
2031
2031
2031
2031
2030
2030
2030
2030
2030
2031
2031
2031
2031
2031
2031
2030
2032
2031
2030
2029
2028
2029
2031
2033
2034
2034
2033
2031
2030
2030
2032
2032
2032
2032
2031
2032
2032
2032
2032
2032
2032
2032
2032
2032
2032
2032
2031
2032
2031
2031
2030
2030
2031
2032
2035
2037
2039
2039
2039
2038
2037
2038
2037
2037
2035
2034
2033
2032
2032
2033
2033
2033
2033
2033
2033
2033
2033
2031
2032
2031
2031
2039
2057
2085
2112
2120
2095
2040
1972
1918
1898
1913
1951
1994
2023
2039
2046
2047
2048
2048
2048
2048
2049
2049
2050
2050
2051
2052
2051
2054
2054
2055
2055
2054
2054
2055
2058
2060
2063
2063
2062
2061
2061
2063
2064
2066
2067
2068
2069
2072
2073
2075
2077
2078
2080
2081
2082
2084
2085
2087
2089
2091
2091
2091
2090
2088
2087
2086
2086
2084
2079
2072
2064
2056
2049
2045
2041
2038
2034
2032
2030
2029
2028
2027
2026
2025
2024
2023
2023
2024
2024
2024
2025
2024
2024
2023
2023
2023
2025
2027
2027
2027
2027
2026
2026
2025
2026
2025
2026
2027
2027
2027
2027
2026
2026
2026
2026
2026
2025
2025
2025
2026
2025
2027
2026
2025
2023
2021
2022
2023
2027
2029
2029
2027
2025
2023
2022
2024
2025
2026
2026
2026
2027
2026
2026
2024
2024
2024
2025
2026
2027
2028
2027
2027
2027
2026
2028
2027
2026
2026
2027
2028
2029
2030
2029
2027
2026
2026
2027
2028
2028
2028
2027
2026
2026
2026
2025
2025
2025
2026
2029
2034
2038
2040
2039
2035
2034
2031
2031
2030
2029
2029
2029
2031
2032
2031
2030
2028
2027
2027
2029
2030
2030
2030
2028
2027
2028
2037
2057
2085
2108
2110
2081
2028
1967
1922
1905
1923
1958
1995
2022
2036
2042
2044
2045
2047
2047
2047
2047
2047
2046
2049
2049
2050
2050
2050
2050
2051
2052
2053
2054
2055
2055
2056
2057
2057
2058
2058
2061
2062
2064
2065
2065
2065
2067
2070
2073
2075
2076
2076
2077
2078
2081
2083
2085
2086
2086
2087
2088
2089
2088
2088
2087
2085
2083
2080
2075
2070
2064
2059
2053
2048
2044
2038
2034
2031
2030
2030
2030
2029
2027
2025
2024
2024
2023
2023
2023
2023
2023
2024
2024
2025
2025
2025
2025
2025
2025
2025
2025
2026
2026
2027
2026
2026
2025
2024
2025
2026
2027
2028
2028
2027
2026
2025
2025
2024
2025
2024
2024
2024
2025
2025
2025
2025
2025
2024
2024
2024
2025
2025
2025
2026
2026
2026
2026
2025
2024
2023
2024
2026
2028
2029
2028
2027
2027
2026
2026
2026
2027
2027
2028
2029
2029
2029
2029
2028
2027
2027
2028
2029
2029
2029
2028
2029
2029
2029
2029
2028
2027
2028
2029
2031
2030
2029
2028
2028
2029
2031
2034
2036
2037
2038
2037
2035
2036
2034
2033
2032
2031
2031
2031
2032
2032
2032
2032
2032
2032
2031
2031
2030
2029
2030
2031
2036
2048
2068
2093
2111
2105
2072
2015
1957
1918
1911
1933
1970
2006
2030
2043
2048
2048
2048
2048
2048
2048
2049
2051
2051
2051
2051
2051
2052
2054
2057
2058
2058
2057
2056
2056
2057
2059
2061
2062
2063
2063
2064
2064
2066
2067
2069
2071
2073
2075
2076
2077
2079
2080
2084
2086
2086
2086
2086
2088
2092
2098
2103
2104
2102
2098
2095
2092
2091
2089
2083
2077
2070
2063
2058
2053
2048
2044
2040
2036
2034
2033
2031
2030
2027
2027
2026
2026
2025
2024
2024
2025
2027
2030
2031
2030
2028
2026
2025
2028
2029
2030
2030
2030
2029
2028
2028
2029
2030
2030
2030
2029
2029
2028
2028
2029
2029
2030
2030
2029
2027
2025
2025
2026
2029
2032
2032
2030
2027
2026
2025
2027
2028
2028
2027
2027
2027
2028
2029
2029
2030
2030
2029
2029
2029
2029
2030
2031
2032
2032
2031
2029
2027
2027
2028
2030
2032
2033
2032
2031
2031
2032
2033
2036
2038
2038
2038
2037
2036
2035
2035
2034
2033
2033
2032
2032
2033
2033
2033
2033
2033
2033
2032
2031
2031
2032
2032
2038
2053
2079
2109
2126
2112
2064
1996
1929
1890
1891
1923
1968
2007
2031
2043
2047
2048
2048
2049
2051
2052
2052
2054
2054
2055
2055
2055
2056
2057
2061
2064
2064
2064
2063
2062
2062
2064
2066
2068
2069
2070
2071
2072
2074
2074
2075
2076
2078
2081
2084
2087
2089
2090
2091
2093
2095
2096
2097
2098
2101
2105
2109
2112
2111
2107
2102
2098
2094
2091
2084
2077
2069
2061
2054
2048
2045
2041
2038
2035
2033
2032
2032
2031
2030
2029
2029
2029
2029
2028
2027
2027
2029
2031
2033
2033
2031
2029
2029
2028
2031
2032
2033
2033
2033
2033
2034
2034
2034
2034
2035
2035
2035
2034
2034
2033
2032
2034
2034
2034
2033
2031
2031
2033
2036
2038
2039
2037
2034
2032
2031
2033
2034
2034
2034
2034
2034
2034
2034
2034
2033
2033
2032
2032
2033
2035
2037
2037
2041
2043
2043
2043
2041
2039
2039
2041
2042
2042
2041
2037
2035
2034
2035
2036
2038
2038
2038
2038
2038
2038
2037
2037
2036
2042
2058
2084
2113
2125
2106
2052
1983
1920
1889
1897
1933
1980
2019
2044
2055
2057
2057
2054
2053
2052
2055
2056
2058
2059
2059
2061
2061
2062
2062
2063
2063
2064
2065
2066
2066
2067
2068
2070
2070
2071
2071
2071
2073
2074
2077
2081
2083
2086
2089
2090
2090
2090
2090
2092
2094
2098
2101
2103
2104
2105
2105
2106
2107
2106
2104
2100
2095
2089
2083
2075
2068
2060
2052
2047
2043
2040
2039
2037
2035
2033
2029
2026
2027
2027
2027
2028
2027
2027
2026
2026
2027
2027
2027
2027
2027
2028
2028
2029
2029
2031
2031
2030
2029
2027
2028
2029
2032
2035
2035
2033
2031
2030
2029
2031
2031
2031
2031
2032
2031
2031
2031
2030
2031
2030
2030
2030
2029
2030
2031
2031
2032
2031
2030
2029
2028
2028
2030
2032
2034
2034
2032
2029
2027
2027
2028
2031
2033
2035
2036
2038
2038
2037
2037
2036
2036
2036
2036
2036
2034
2033
2032
2032
2033
2032
2032
2032
2032
2033
2033
2035
2035
2033
2031
2035
2050
2075
2106
2120
2104
2054
1986
1925
1894
1900
1935
1979
2015
2037
2046
2048
2048
2048
2048
2050
2050
2052
2052
2052
2052
2053
2056
2058
2060
2059
2058
2057
2057
2060
2061
2062
2063
2064
2065
2065
2066
2068
2069
2071
2073
2074
2076
2078
2080
2081
2084
2086
2088
2089
2090
2092
2094
2097
2100
2102
2102
2101
2100
2099
2098
2096
2092
2086
2079
2072
2064
2058
2052
2048
2043
2038
2035
2031
2029
2027
2026
2026
2027
2026
2024
2022
2020
2021
2023
2026
2028
2027
2025
2023
2023
2023
2026
2025
2025
2025
2026
2026
2026
2027
2027
2027
2027
2027
2027
2027
2026
2027
2027
2028
2028
2027
2026
2025
2024
2025
2027
2027
2027
2026
2025
2025
2025
2025
2025
2025
2025
2025
2025
2026
2026
2026
2026
2026
2026
2026
2025
2026
2026
2027
2027
2027
2027
2026
2025
2024
2025
2026
2027
2027
2026
2026
2025
2025
2027
2030
2033
2034
2034
2034
2033
2031
2031
2031
2030
2029
2028
2028
2028
2029
2028
2029
2028
2028
2027
2026
2027
2027
2029
2030
2029
2034
2048
2072
2099
2113
2098
2053
1991
1936
1907
1911
1942
1981
2013
2034
2042
2044
2043
2043
2043
2045
2046
2047
2047
2047
2046
2046
2047
2049
2051
2053
2053
2052
2051
2051
2052
2055
2055
2057
2058
2058
2059
2060
2061
2062
2063
2065
2067
2069
2071
2072
2073
2075
2077
2078
2079
2080
2082
2084
2087
2090
2092
2091
2089
2087
2086
2084
2083
2079
2074
2067
2060
2053
2047
2042
2038
2034
2032
2029
2028
2026
2024
2023
2020
2022
2021
2020
2020
2019
2019
2020
2021
2023
2024
2024
2023
2022
2021
2022
2022
2022
2023
2023
2023
2023
2023
2024
2024
2024
2024
2024
2024
2023
2023
2023
2025
2025
2025
2023
2022
2021
2022
2024
2026
2026
2025
2023
2022
2022
2024
2024
2024
2023
2023
2023
2024
2024
2025
2025
2026
2025
2024
2024
2024
2024
2024
2025
2026
2026
2025
2023
2022
2024
2026
2029
2030
2029
2027
2026
2025
2024
2026
2025
2026
2026
2026
2027
2027
2027
2027
2027
2027
2027
2027
2027
2027
2028
2029
2029
2029
2029
2028
2027
2027
2028
2030
2031
2031
2030
2029
2029
2028
2028
2027
2026
2026
2027
2028
2029
2031
2033
2034
2035
2035
2034
2034
2033
2033
2033
2032
2032
2031
2030
2029
2029
2029
2030
2031
2031
2032
2031
2031
2029
2029
2028
2029
2034
2050
2074
2100
2111
2096
2055
1999
1949
1922
1927
1954
1989
2019
2037
2046
2046
2045
2043
2043
2045
2048
2050
2051
2051
2050
2048
2048
2049
2050
2052
2053
2054
2055
2056
2056
2057
2058
2059
2060
2061
2062
2064
2064
2066
2067
2070
2070
2070
2069
2069
2072
2076
2082
2085
2086
2085
2084
2084
2085
2089
2090
2092
2092
2092
2091
2090
2089
2087
2084
2079
2074
2068
2062
2056
2051
2047
2044
2040
2038
2034
2031
2029
2028
2029
2030
2030
2029
2027
2026
2025
2026
2026
2028
2027
2028
2028
2028
2026
2025
2025
2027
2030
2032
2033
2031
2029
2026
2027
2028
2029
2029
2027
2026
2026
2028
2030
2031
2029
2028
2027
2025
2028
2028
2028
2028
2027
2027
2027
2027
2028
2028
2028
2028
2028
2028
2027
2028
2027
2028
2028
2028
2028
2028
2027
2027
2028
2030
2031
2030
2029
2028
2028
2028
2029
2030
2030
2030
2029
2029
2030
2030
2031
2031
2031
2030
2029
2029
2029
2029
2030
2031
2031
2031
2029
2027
2027
2028
2030
2033
2035
2034
2032
2030
2030
2030
2030
2031
2030
2030
2031
2031
2032
2032
2032
2032
2030
2029
2029
2029
2029
2031
2032
2033
2033
2034
2035
2037
2039
2041
2041
2039
2036
2034
2033
2033
2032
2032
2032
2032
2032
2032
2032
2032
2032
2033
2033
2032
2032
2030
2030
2036
2053
2078
2104
2115
2095
2048
1988
1937
1914
1924
1955
1993
2021
2037
2043
2045
2045
2046
2046
2046
2047
2048
2048
2048
2048
2049
2049
2050
2051
2051
2053
2052
2054
2054
2055
2055
2054
2055
2057
2060
2063
2065
2066
2065
2064
2064
2065
2067
2069
2071
2073
2074
2076
2077
2079
2081
2081
2083
2085
2085
2087
2087
2088
2088
2089
2088
2084
2079
2074
2070
2066
2064
2060
2053
2047
2040
2035
2032
2032
2031
2030
2029
2028
2027
2025
2025
2024
2024
2024
2025
2025
2025
2025
2026
2026
2026
2026
2027
2026
2025
2025
2026
2028
2030
2030
2030
2028
2026
2025
2026
2026
2027
2027
2027
2026
2026
2026
2026
2027
2027
2027
2027
2026
2026
2026
2025
2026
2026
2026
2026
2025
2025
2025
2027
2027
2028
2027
2026
2026
2026
2028
2028
2028
2028
2027
2027
2027
2027
2027
2028
2028
2028
2028
2028
2028
2028
2028
2028
2029
2029
2028
2028
2028
2028
2029
2030
2030
2030
2029
2028
2028
2029
2030
2031
2030
2030
2029
2030
2031
2031
2032
2032
2031
2031
2030
2030
2031
2031
2032
2032
2032
2032
2030
2029
2029
2030
2032
2034
2035
2034
2032
2030
2030
2031
2030
2031
2031
2032
2033
2034
2036
2037
2039
2039
2039
2038
2037
2036
2036
2036
2036
2036
2035
2033
2031
2031
2032
2034
2035
2035
2035
2034
2034
2033
2032
2030
2034
2048
2071
2100
2119
2110
2070
2009
1950
1913
1911
1938
1978
2012
2035
2046
2048
2048
2048
2047
2048
2050
2052
2054
2055
2055
2055
2054
2054
2056
2056
2057
2058
2058
2059
2061
2061
2062
2063
2063
2064
2064
2066
2067
2069
2070
2072
2073
2074
2074
2075
2077
2080
2084
2088
2090
2091
2091
2091
2092
2094
2096
2097
2098
2098
2098
2098
2097
2094
2090
2085
2079
2073
2066
2060
2054
2049
2045
2042
2039
2035
2031
2028
2027
2028
2029
2031
2030
2027
2025
2024
2024
2027
2028
2028
2027
2026
2026
2025
2026
2026
2028
2029
2030
2031
2031
2031
2031
2030
2031
2030
2030
2029
2029
2029
2031
2033
2033
2031
2030
2028
2028
2028
2030
2029
2029
2029
2028
2028
2028
2028
2028
2029
2029
2029
2030
2029
2029
2029
2028
2030
2029
2029
2029
2029
2028
2029
2031
2032
2033
2032
2031
2030
2029
2030
2030
2030
2030
2030
2030
2030
2030
2031
2031
2032
2032
2032
2032
2031
2031
2029
2030
2030
2030
2029
2029
2029
2031
2034
2037
2039
2040
2038
2037
2035
2036
2035
2034
2034
2033
2033
2032
2032
2032
2032
2032
2032
2032
2032
2033
2033
2032
2032
2031
2032
2043
2066
2096
2121
2120
2083
2018
1946
1896
1885
1910
1955
1999
2026
2040
2045
2045
2047
2048
2049
2049
2050
2051
2051
2052
2053
2054
2054
2055
2056
2056
2057
2056
2056
2057
2058
2061
2063
2064
2064
2064
2065
2066
2067
2069
2070
2072
2074
2076
2078
2080
2081
2083
2085
2087
2089
2091
2094
2096
2098
2099
2100
2100
2100
2098
2097
2095
2091
2086
2081
2075
2069
2062
2053
2047
2040
2034
2032
2030
2030
2027
2025
2024
2023
2022
2022
2022
2022
2021
2021
2020
2021
2021
2021
2021
2021
2021
2022
2024
2026
2027
2027
2026
2024
2024
2024
2025
2026
2026
2027
2027
2027
2027
2026
2026
2026
2026
2027
2026
2028
2027
2027
2026
2026
2026
2026
2025
2025
2025
2026
2028
2029
2028
2027
2025
2024
2024
2026
2026
2026
2026
2026
2027
2026
2027
2026
2026
2027
2027
2028
2028
2028
2027
2027
2028
2027
2027
2027
2026
2026
2026
2028
2028
2028
2028
2028
2029
2030
2034
2035
2036
2035
2034
2033
2032
2031
2031
2030
2030
2030
2029
2029
2029
2029
2028
2030
2030
2031
2030
2028
2027
2027
2030
2042
2065
2094
2117
2116
2080
2020
1952
1903
1890
1911
1952
1993
2022
2038
2044
2045
2046
2047
2047
2048
2048
2048
2049
2050
2051
2051
2051
2051
2051
2053
2055
2057
2057
2057
2057
2057
2058
2060
2061
2062
2062
2063
2064
2066
2068
2070
2071
2073
2074
2075
2077
2080
2082
2085
2088
2090
2092
2092
2091
2093
2096
2099
2101
2101
2098
2094
2088
2083
2078
2071
2064
2055
2048
2044
2039
2036
2033
2030
2028
2025
2024
2023
2023
2023
2023
2023
2022
2021
2019
2018
2018
2020
2023
2025
2026
2024
2022
2022
2021
2024
2024
2025
2025
2025
2026
2026
2026
2027
2026
2026
2026
2026
2026
2027
2027
2026
2028
2027
2026
2026
2024
2023
2023
2024
2027
2028
2029
2028
2027
2024
2025
2025
2026
2027
2027
2027
2027
2026
2026
2025
2025
2025
2026
2026
2027
2028
2027
2028
2028
2027
2026
2025
2025
2027
2030
2032
2033
2031
2028
2026
2024
2026
2027
2028
2029
2029
2029
2029
2029
2029
2028
2027
2027
2027
2028
2029
2031
2033
2035
2036
2036
2035
2033
2033
2033
2035
2036
2035
2033
2031
2029
2029
2028
2029
2030
2030
2030
2030
2030
2030
2029
2029
2028
2032
2046
2070
2098
2115
2105
2063
2005
1946
1912
1908
1934
1972
2008
2033
2045
2047
2046
2044
2044
2044
2047
2048
2048
2048
2049
2049
2049
2049
2050
2051
2052
2053
2053
2053
2054
2054
2054
2056
2057
2059
2059
2060
2060
2062
2064
2066
2068
2068
2069
2070
2071
2074
2076
2078
2080
2081
2082
2084
2085
2087
2089
2090
2090
2090
2090
2088
2086
2083
2079
2075
2068
2062
2054
2048
2043
2041
2040
2038
2035
2031
2028
2025
2024
2025
2024
2025
2024
2023
2024
2024
2024
2024
2024
2024
2024
2024
2025
2025
2025
2026
2027
2027
2026
2025
2024
2024
2026
2029
2030
2030
2029
2027
2026
2026
2028
2027
2027
2026
2026
2026
2026
2027
2027
2027
2027
2027
2027
2026
2026
2027
2027
2029
2028
2028
2026
2025
2025
2026
2028
2030
2031
2030
2029
2028
2027
2028
2027
2028
2028
2029
2029
2030
2030
2030
2029
2029
2028
2028
2029
2030
2030
2031
2031
2031
2031
2030
2029
2029
2030
2031
2032
2033
2032
2032
2031
2030
2031
2031
2032
2032
2030
2030
2029
2029
2030
2030
2031
2032
2034
2036
2038
2039
2039
2039
2038
2037
2035
2034
2034
2033
2034
2035
2035
2034
2033
2032
2032
2032
2033
2033
2033
2033
2032
2032
2038
2055
2081
2107
2116
2096
2048
1988
1937
1914
1923
1954
1992
2021
2037
2045
2048
2049
2050
2051
2051
2051
2050
2050
2051
2052
2053
2054
2054
2054
2055
2055
2055
2056
2057
2058
2059
2060
2061
2062
2063
2063
2065
2066
2067
2068
2068
2070
2072
2075
2078
2079
2081
2081
2083
2083
2087
2088
2089
2092
2093
2093
2094
2095
2095
2094
2093
2091
2087
2083
2076
2069
2062
2057
2051
2047
2042
2037
2034
2032
2031
2031
2030
2028
2026
2025
2023
2024
2024
2023
2024
2024
2024
2023
2022
2022
2023
2026
2029
2030
2029
2026
2025
2023
2024
2027
2027
2027
2025
2024
2025
2027
2029
2030
2029
2027
2026
2025
2025
2026
2026
2026
2025
2025
2025
2026
2025
2025
2025
2025
2025
2025
2025
2025
2025
2025
2025
2026
2025
2024
2023
2023
2025
2027
2028
2028
2027
2026
2025
2026
2026
2027
2026
2026
2026
2026
2026
2027
2027
2027
2027
2027
2027
2027
2027
2028
2027
2029
2029
2027
2026
2025
2025
2027
2030
2033
2032
2030
2026
2025
2023
2025
2025
2027
2028
2031
2033
2035
2035
2035
2034
2033
2032
2031
2031
2031
2031
2030
2029
2029
2029
2028
2028
2028
2029
2031
2032
2032
2031
2029
2027
2030
2044
2066
2094
2110
2103
2069
2016
1962
1927
1921
1943
1977
2010
2032
2043
2046
2044
2043
2043
2043
2044
2045
2046
2047
2048
2049
2050
2050
2049
2049
2049
2050
2051
2052
2052
2052
2053
2055
2057
2059
2060
2060
2061
2062
2064
2066
2067
2068
2069
2071
2073
2074
2074
2075
2077
2080
2085
2089
2090
2090
2088
2087
2087
2089
2089
2089
2087
2084
2079
2074
2068
2062
2056
2050
2046
2042
2039
2035
2033
2029
2030
2027
2025
2023
2021
2021
2023
2026
2027
2027
2026
2023
2021
2021
2023
2023
2024
2024
2024
2024
2024
2024
2024
2024
2024
2025
2026
2026
2026
2025
2024
2025
2025
2025
2024
2023
2022
2023
2026
2028
2029
2027
2025
2023
2022
2024
2024
2025
2024
2024
2024
2024
2024
2025
2025
2026
2026
2026
2026
2026
2026
2025
2026
2028
2027
2028
2026
2024
2024
2027
2031
2034
2034
2032
2029
2027
2027
2030
2029
2030
2029
2029
2030
2031
2032
2031
2031
2031
2031
2031
2031
2032
2032
2033
2034
2034
2033
2031
2031
2031
2034
2036
2037
2036
2034
2032
2030
2032
2035
2037
2039
2040
2041
2042
2041
2041
2041
2040
2040
2039
2038
2037
2037
2037
2038
2040
2039
2038
2036
2035
2036
2038
2042
2043
2042
2042
2050
2071
2098
2120
2115
2079
2022
1961
1920
1913
1935
1974
2011
2037
2050
2055
2056
2057
2057
2058
2061
2060
2061
2059
2059
2060
2063
2068
2072
2073
2071
2069
2066
2067
2069
2070
2072
2073
2074
2075
2076
2077
2079
2081
2083
2084
2086
2087
2089
2090
2092
2094
2096
2097
2098
2099
2102
2106
2111
2114
2116
2116
2114
2113
2113
2112
2112
2111
2107
2102
2095
2088
2081
2074
2068
2062
2058
2054
2051
2048
2047
2045
2044
2042
2041
2040
2038
2038
2039
2041
2043
2045
2044
2043
2041
2040
2040
2041
2042
2044
2045
2045
2045
2044
2043
2043
2044
2044
2044
2044
2044
2044
2043
2042
2044
2044
2044
2042
2041
2040
2042
2045
2047
2047
2045
2043
2042
2041
2043
2043
2044
2043
2043
2043
2043
2043
2043
2043
2043
2044
2044
2044
2045
2044
2044
2045
2044
2045
2043
2042
2042
2043
2045
2047
2047
2045
2043
2042
2041
2044
2046
2048
2049
2050
2050
2050
2049
2048
2048
2049
2048
2048
2046
2044
2043
2042
2043
2044
2045
2045
2043
2042
2042
2045
2048
2048
2047
2049
2065
2092
2121
2133
2109
2053
1981
1921
1895
1907
1945
1990
2024
2045
2054
2056
2057
2057
2057
2059
2060
2062
2062
2062
2061
2062
2064
2066
2068
2069
2068
2067
2066
2067
2069
2069
2070
2070
2071
2073
2074
2075
2076
2078
2079
2080
2081
2082
2085
2087
2089
2092
2094
2095
2096
2097
2099
2102
2104
2106
2107
2107
2106
2105
2103
2101
2098
2093
2087
2080
2072
2065
2058
2052
2048
2043
2040
2037
2034
2033
2032
2031
2030
2029
2028
2027
2026
2025
2026
2026
2028
2028
2028
2027
2027
2027
2027
2027
2028
2028
2028
2028
2029
2029
2029
2029
2028
2028
2028
2029
2029
2029
2029
2028
2029
2028
2028
2027
2027
2026
2026
2027
2028
2029
2030
2030
2029
2026
2025
2024
2024
2025
2026
2026
2026
2026
2025
2026
2026
2026
2026
2026
2026
2026
2027
2026
2026
2025
2025
2025
2026
2028
2029
2029
2027
2025
2024
2022
2024
2027
2029
2031
2033
2033
2034
2033
2032
2031
2031
2030
2030
2030
2029
2028
2027
2027
2028
2027
2026
2025
2025
2026
2029
2032
2032
2029
2027
2036
2057
2087
2113
2113
2079
2020
1953
1907
1894
1914
1952
1992
2020
2037
2043
2044
2044
2043
2042
2044
2045
2047
2047
2047
2047
2048
2049
2051
2052
2051
2051
2051
2051
2053
2054
2056
2056
2057
2057
2058
2059
2061
2062
2064
2065
2067
2068
2069
2071
2073
2076
2078
2079
2080
2081
2083
2086
2090
2093
2095
2094
2092
2091
2090
2089
2088
2084
2079
2073
2066
2059
2053
2048
2043
2039
2035
2032
2029
2027
2025
2024
2023
2022
2022
2022
2021
2020
2020
2020
2022
2024
2024
2024
2023
2022
2022
2022
2023
2023
2023
2023
2024
2025
2025
2025
2025
2025
2025
2024
2024
2024
2025
2025
2026
2026
2025
2024
2023
2024
2024
2026
2027
2026
2026
2025
2024
2024
2024
2024
2024
2024
2024
2025
2025
2025
2025
2025
2025
2025
2025
2025
2026
2026
2027
2028
2027
2027
2026
2026
2026
2027
2028
2029
2029
2029
2028
2027
2027
2027
2027
2027
2027
2027
2028
2029
2031
2033
2034
2035
2035
2034
2034
2034
2034
2033
2033
2032
2031
2029
2028
2028
2028
2030
2031
2032
2032
2031
2030
2029
2028
2027
2028
2038
2059
2087
2111
2113
2086
2033
1971
1925
1908
1924
1959
1997
2025
2041
2047
2046
2045
2043
2044
2045
2048
2050
2051
2052
2051
2051
2050
2050
2052
2053
2054
2054
2055
2056
2056
2057
2057
2058
2060
2062
2064
2064
2065
2066
2066
2070
2070
2072
2072
2073
2076
2079
2084
2087
2088
2088
2087
2088
2088
2092
2094
2095
2094
2094
2092
2091
2088
2084
2079
2072
2066
2059
2053
2048
2045
2040
2038
2035
2033
2030
2028
2027
2026
2027
2028
2028
2027
2026
2025
2024
2026
2026
2027
2026
2026
2026
2027
2027
2028
2028
2028
2027
2028
2027
2027
2027
2027
2027
2028
2028
2027
2026
2026
2027
2029
2031
2031
2030
2028
2027
2027
2027
2028
2028
2028
2028
2028
2028
2029
2028
2028
2028
2028
2028
2028
2028
2028
2028
2029
2029
2029
2028
2027
2027
2028
2030
2032
2032
2032
2031
2029
2028
2029
2029
2030
2030
2030
2030
2030
2031
2031
2031
2031
2031
2031
2031
2030
2031
2030
2031
2033
2032
2032
2031
2030
2030
2031
2033
2035
2035
2034
2032
2031
2030
2031
2031
2032
2032
2033
2032
2032
2032
2031
2030
2030
2031
2032
2034
2036
2038
2040
2041
2040
2039
2037
2035
2034
2035
2036
2036
2035
2034
2033
2032
2032
2032
2032
2034
2035
2034
2034
2034
2032
2031
2037
2053
2079
2104
2113
2092
2046
1986
1937
1915
1924
1954
1990
2020
2038
2048
2050
2050
2048
2047
2047
2048
2048
2049
2050
2050
2051
2052
2052
2053
2053
2054
2054
2055
2056
2057
2058
2059
2060
2060
2061
2063
2063
2063
2063
2066
2068
2071
2073
2074
2074
2074
2075
2076
2079
2081
2082
2083
2084
2086
2086
2087
2087
2088
2088
2088
2088
2086
2084
2080
2075
2071
2065
2059
2053
2048
2045
2043
2042
2039
2036
2033
2029
2027
2026
2027
2027
2027
2026
2026
2025
2025
2026
2026
2027
2027
2028
2027
2027
2027
2026
2026
2027
2028
2029
2028
2028
2027
2028
2029
2030
2030
2029
2027
2026
2025
2026
2026
2027
2026
2025
2025
2025
2025
2025
2026
2026
2026
2026
2025
2024
2024
2024
2025
2027
2026
2026
2024
2023
2024
2027
2030
2031
2029
2027
2025
2024
2024
2027
2027
2028
2028
2026
2025
2024
2025
2028
2030
2031
2030
2028
2025
2024
2025
2026
2028
2029
2029
2028
2026
2026
2027
2029
2030
2031
2030
2029
2029
2028
2029
2029
2029
2028
2028
2029
2029
2029
2029
2030
2030
2029
2029
2029
2029
2030
2030
2032
2031
2031
2029
2027
2027
2028
2031
2033
2033
2033
2032
2033
2034
2037
2036
2036
2034
2034
2034
2034
2033
2033
2032
2030
2030
2029
2029
2030
2030
2031
2032
2032
2031
2029
2028
2027
2031
2046
2070
2098
2115
2106
2066
2008
1951
1917
1916
1941
1979
2013
2034
2044
2046
2045
2045
2044
2045
2046
2047
2048
2048
2048
2048
2048
2048
2048
2049
2051
2053
2054
2055
2055
2054
2055
2056
2057
2058
2060
2061
2062
2064
2065
2066
2067
2067
2068
2070
2073
2074
2076
2077
2078
2080
2082
2083
2083
2083
2084
2086
2088
2090
2090
2088
2084
2081
2077
2075
2071
2066
2061
2054
2048
2044
2039
2038
2034
2032
2030
2029
2028
2027
2027
2025
2025
2026
2025
2024
2023
2023
2024
2026
2029
2030
2029
2027
2025
2025
2026
2029
2028
2028
2026
2026
2026
2026
2027
2027
2027
2027
2027
2027
2027
2026
2026
2025
2026
2025
2025
2024
2024
2023
2025
2026
2028
2028
2026
2025
2023
2024
2025
2025
2027
2026
2026
2025
2025
2025
2026
2027
2028
2028
2027
2027
2026
2027
2027
2028
2029
2028
2027
2026
2026
2027
2030
2032
2033
2031
2028
2027
2027
2027
2030
2030
2030
2029
2029
2029
2030
2029
2030
2030
2030
2031
2031
2030
2030
2030
2031
2031
2031
2030
2028
2027
2028
2030
2033
2036
2038
2038
2038
2037
2036
2036
2035
2034
2034
2033
2033
2032
2031
2031
2031
2031
2030
2030
2030
2031
2032
2032
2033
2031
2029
2031
2042
2066
2097
2119
2116
2078
2016
1952
1910
1902
1928
1968
2005
2030
2043
2047
2048
2048
2047
2047
2048
2048
2048
2049
2050
2051
2051
2052
2053
2054
2054
2054
2054
2055
2057
2059
2060
2061
2061
2061
2061
2062
2063
2066
2067
2068
2070
2071
2073
2074
2075
2077
2079
2081
2083
2084
2086
2087
2089
2090
2091
2091
2090
2091
2091
2092
2092
2090
2085
2078
2072
2066
2060
2055
2050
2047
2042
2039
2036
2033
2031
2029
2027
2026
2026
2026
2026
2025
2025
2025
2025
2025
2024
2024
2024
2025
2027
2029
2030
2029
2028
2027
2027
2028
2030
2031
2030
2029
2028
2028
2027
2027
2027
2027
2027
2027
2028
2028
2027
2027
2026
2027
2026
2026
2026
2025
2025
2027
2030
2031
2031
2029
2027
2026
2025
2027
2028
2028
2028
2028
2028
2028
2028
2029
2030
2030
2031
2030
2030
2030
2030
2030
2030
2032
2031
2030
2030
2030
2032
2034
2036
2036
2034
2032
2031
2031
2032
2032
2031
2030
2029
2029
2030
2031
2033
2034
2036
2038
2040
2040
2040
2039
2038
2037
2037
2037
2037
2035
2034
2033
2034
2034
2035
2035
2034
2033
2034
2034
2035
2035
2033
2032
2039
2057
2087
2117
2129
2108
2053
1983
1923
1894
1902
1937
1981
2015
2037
2046
2048
2048
2048
2050
2052
2055
2056
2056
2055
2053
2055
2055
2057
2058
2058
2059
2060
2061
2062
2062
2063
2064
2064
2065
2066
2067
2068
2071
2073
2074
2074
2074
2075
2077
2081
2085
2088
2090
2091
2092
2093
2095
2097
2098
2100
2101
2103
2104
2105
2105
2104
2101
2098
2093
2087
2080
2073
2066
2059
2054
2048
2045
2041
2037
2036
2035
2035
2034
2033
2031
2029
2028
2028
2029
2029
2030
2029
2029
2030
2030
2030
2031
2031
2032
2032
2032
2033
2034
2035
2035
2035
2034
2034
2032
2032
2032
2034
2036
2038
2038
2037
2035
2033
2032
2032
2033
2033
2034
2034
2035
2035
2035
2035
2035
2034
2035
2035
2036
2037
2037
2037
2037
2037
2036
2035
2034
2034
2036
2036
2038
2038
2039
2043
2046
2048
2047
2046
2044
2043
2043
2043
2043
2040
2039
2038
2038
2039
2039
2040
2040
2040
2040
2039
2040
2040
2039
2037
2036
2048
2073
2109
2137
2135
2095
2024
1948
1896
1885
1912
1957
2001
2030
2046
2051
2053
2055
2056
2057
2059
2060
2061
2061
2062
2061
2063
2064
2065
2066
2066
2066
2068
2071
2073
2074
2074
2073
2073
2073
2075
2077
2078
2080
2081
2083
2084
2086
2088
2090
2092
2094
2097
2099
2102
2104
2106
2108
2110
2112
2113
2114
2115
2115
2115
2114
2111
2106
2099
2091
2082
2075
2069
2063
2057
2051
2047
2043
2041
2039
2037
2036
2035
2034
2033
2032
2032
2032
2032
2033
2034
2034
2033
2032
2032
2033
2035
2036
2037
2037
2035
2035
2035
2036
2036
2036
2036
2037
2037
2037
2037
2037
2037
2037
2037
2037
2036
2036
2037
2037
2038
2037
2036
2036
2035
2035
2036
2038
2039
2039
2039
2037
2036
2034
2033
2033
2033
2033
2034
2035
2037
2038
2040
2042
2043
2043
2043
2042
2041
2041
2040
2040
2039
2038
2036
2035
2035
2036
2038
2039
2039
2038
2038
2037
2036
2036
2034
2035
2045
2067
2098
2123
2124
2089
2027
1957
1908
1894
1917
1959
2001
2029
2045
2050
2051
2051
2051
2051
2053
2055
2057
2058
2058
2058
2057
2057
2057
2059
2060
2061
2062
2063
2064
2065
2065
2066
2067
2068
2069
2071
2072
2073
2075
2076
2077
2079
2079
2081
2083
2086
2090
2093
2096
2097
2097
2098
2098
2100
2102
2103
2104
2105
2105
2102
2098
2092
2086
2079
2072
2066
2059
2053
2048
2042
2039
2037
2034
2032
2030
2029
2028
2029
2030
2030
2029
2027
2026
2026
2026
2028
2028
2028
2027
2027
2027
2027
2027
2028
2029
2029
2030
2030
2031
2030
2030
2029
2030
2031
2031
2029
2028
2028
2029
2032
2034
2034
2031
2029
2027
2027
2028
2029
2029
2028
2027
2027
2027
2028
2028
2029
2029
2029
2029
2028
2027
2026
2025
2026
2026
2028
2028
2029
2032
2034
2037
2039
2037
2035
2033
2031
2030
2031
2031
2031
2030
2030
2029
2029
2029
2030
2030
2030
2030
2030
2029
2028
2026
2028
2041
2065
2094
2115
2109
2071
2012
1952
1914
1908
1932
1969
2004
2027
2039
2045
2044
2044
2043
2044
2045
2046
2047
2048
2048
2048
2048
2049
2049
2051
2052
2053
2054
2054
2054
2054
2055
2056
2058
2061
2063
2064
2064
2064
2065
2066
2067
2069
2071
2073
2076
2078
2080
2081
2083
2085
2086
2088
2090
2091
2093
2094
2094
2094
2093
2091
2087
2082
2076
2069
2063
2057
2052
2047
2041
2036
2032
2030
2028
2028
2026
2025
2024
2023
2022
2022
2021
2021
2021
2021
2022
2022
2023
2023
2023
2023
2023
2023
2022
2022
2023
2025
2026
2027
2027
2026
2025
2024
2024
2025
2026
2026
2026
2026
2025
2025
2024
2024
2024
2025
2025
2025
2025
2025
2025
2025
2026
2025
2024
2024
2025
2026
2028
2029
2029
2027
2026
2025
2025
2026
2027
2027
2026
2026
2026
2027
2027
2028
2028
2028
2027
2027
2026
2026
2026
2026
2026
2029
2030
2032
2034
2035
2035
2036
2036
2036
2036
2034
2032
2031
2029
2030
2030
2030
2030
2030
2030
2029
2029
2030
2031
2031
2031
2030
2028
2035
2052
2078
2106
2115
2094
2044
1980
1926
1902
1913
1947
1988
2018
2037
2046
2047
2048
2047
2047
2048
2048
2049
2050
2051
2051
2052
2053
2053
2053
2054
2055
2056
2056
2058
2059
2060
2060
2060
2062
2063
2066
2068
2068
2069
2069
2070
2073
2075
2077
2078
2079
2081
2083
2086
2089
2091
2094
2095
2097
2097
2097
2098
2098
2099
2099
2098
2095
2090
2082
2074
2067
2062
2059
2055
2050
2044
2037
2031
2028
2028
2027
2027
2024
2023
2022
2023
2025
2027
2027
2026
2023
2022
2022
2023
2023
2025
2025
2024
2025
2025
2025
2026
2028
2030
2031
2030
2028
2026
2024
2024
2025
2026
2026
2026
2026
2026
2026
2026
2026
2025
2025
2025
2025
2025
2025
2025
2025
2025
2025
2025
2023
2022
2022
2025
2028
2030
2030
2029
2027
2024
2024
2024
2025
2025
2027
2027
2027
2027
2028
2027
2026
2026
2026
2027
2028
2028
2029
2028
2028
2028
2027
2027
2025
2025
2027
2030
2033
2035
2033
2030
2027
2025
2026
2028
2030
2030
2029
2028
2027
2026
2026
2027
2028
2030
2032
2034
2036
2037
2036
2035
2034
2034
2032
2031
2030
2031
2032
2033
2034
2033
2031
2029
2028
2028
2029
2032
2031
2030
2029
2028
2028
2037
2056
2083
2108
2113
2088
2038
1976
1929
1908
1922
1955
1993
2021
2038
2045
2048
2049
2049
2049
2048
2047
2047
2047
2049
2050
2051
2052
2052
2052
2053
2053
2054
2055
2056
2057
2058
2060
2060
2061
2062
2064
2065
2066
2066
2066
2067
2070
2073
2076
2079
2079
2079
2080
2081
2084
2085
2087
2088
2089
2091
2092
2092
2093
2093
2092
2091
2089
2086
2081
2075
2069
2063
2056
2051
2048
2043
2039
2036
2036
2036
2036
2034
2031
2028
2027
2027
2028
2029
2029
2028
2027
2027
2028
2029
2030
2031
2030
2030
2029
2029
2029
2030
2030
2032
2031
2031
2029
2028
2028
2031
2033
2034
2033
2032
2030
2029
2029
2030
2030
2029
2029
2029
2029
2029
2030
2030
2030
2030
2030
2030
2030
2030
2030
2030
2031
2031
2031
2030
2028
2029
2030
2034
2036
2036
2034
2031
2030
2029
2031
2032
2032
2032
2032
2032
2032
2032
2032
2032
2032
2032
2032
2032
2032
2033
2033
2035
2034
2033
2032
2031
2031
2033
2036
2038
2039
2037
2036
2033
2032
2032
2032
2033
2034
2034
2035
2034
2034
2034
2035
2035
2035
2035
2035
2035
2035
2035
2036
2036
2035
2034
2032
2032
2032
2034
2037
2038
2037
2036
2036
2037
2039
2041
2042
2041
2040
2039
2039
2038
2037
2036
2035
2034
2034
2034
2035
2035
2035
2034
2035
2036
2036
2035
2034
2033
2035
2044
2063
2088
2109
2113
2089
2042
1985
1941
1922
1933
1965
2001
2029
2045
2050
2050
2048
2047
2046
2048
2049
2051
2051
2052
2052
2052
2052
2052
2054
2056
2058
2059
2060
2059
2058
2058
2058
2061
2062
2064
2065
2066
2067
2068
2069
2070
2072
2073
2076
2077
2079
2081
2082
2083
2086
2087
2088
2090
2091
2093
2095
2097
2098
2099
2098
2096
2095
2091
2089
2083
2077
2071
2064
2058
2053
2048
2045
2042
2040
2037
2035
2033
2032
2031
2030
2030
2030
2029
2029
2028
2028
2029
2031
2032
2033
2032
2030
2030
2030
2031
2031
2032
2031
2031
2031
2031
2032
2032
2033
2033
2032
2032
2031
2031
2031
2031
2031
2033
2032
2032
2031
2029
2030
2031
2033
2034
2034
2032
2031
2031
2030
2032
2032
2032
2031
2031
2032
2032
2033
2033
2032
2032
2032
2032
2032
2032
2032
2032
2033
2033
2033
2032
2031
2031
2033
2035
2036
2036
2035
2033
2032
2031
2032
2032
2033
2033
2034
2034
2034
2034
2034
2034
2034
2034
2034
2034
2034
2034
2034
2036
2035
2035
2034
2033
2032
2034
2036
2038
2039
2037
2035
2033
2032
2032
2033
2034
2036
2037
2038
2040
2041
2042
2042
2041
2040
2039
2039
2039
2038
2037
2037
2036
2035
2035
2035
2035
2036
2037
2039
2040
2039
2037
2036
2034
2033
2044
2065
2096
2123
2127
2096
2036
1965
1912
1894
1913
1954
1997
2027
2043
2048
2049
2050
2050
2051
2051
2053
2055
2057
2058
2059
2059
2058
2057
2057
2058
2060
2061
2062
2063
2063
2063
2064
2064
2066
2068
2070
2071
2072
2073
2073
2075
2076
2079
2079
2080
2081
2083
2087
2091
2095
2097
2098
2098
2098
2099
2101
2102
2103
2104
2103
2102
2099
2095
2088
2081
2074
2067
2060
2053
2048
2043
2039
2035
2034
2031
2029
2027
2025
2025
2026
2027
2027
2026
2024
2023
2023
2023
2025
2025
2024
2024
2024
2025
2025
2026
2026
2027
2028
2028
2028
2027
2027
2027
2027
2027
2029
2028
2028
2026
2025
2026
2029
2031
2032
2030
2027
2025
2024
2024
2026
2026
2026
2026
2026
2026
2027
2027
2027
2027
2026
2026
2026
2026
2027
2027
2027
2027
2027
2027
2026
2026
2026
2028
2029
2030
2030
2029
2027
2026
2026
2027
2027
2027
2027
2027
2028
2028
2028
2029
2028
2028
2027
2027
2026
2026
2027
2027
2030
2030
2031
2032
2032
2032
2034
2035
2037
2037
2035
2032
2030
2028
2029
2028
2028
2028
2028
2028
2029
2029
2030
2030
2029
2028
2027
2026
2028
2041
2067
2098
2120
2112
2069
2002
1934
1893
1890
1920
1964
2003
2027
2038
2042
2043
2045
2045
2047
2047
2048
2048
2048
2048
2049
2049
2050
2050
2051
2052
2053
2053
2054
2055
2056
2055
2055
2056
2057
2060
2063
2065
2065
2065
2065
2066
2067
2070
2072
2074
2076
2078
2080
2082
2084
2086
2088
2090
2092
2093
2095
2095
2095
2094
2093
2091
2087
2081
2075
2068
2061
2055
2049
2044
2039
2033
2030
2028
2026
2026
2025
2023
2021
2022
2020
2019
2019
2019
2019
2020
2021
2022
2021
2020
2019
2021
2020
2021
2020
2021
2022
2024
2025
2026
2025
2024
2023
2023
2023
2025
2025
2025
2024
2024
2023
2023
2023
2024
2024
2024
2024
2024
2023
2023
2023
2022
2022
2023
2023
2022
2021
2021
2022
2024
2026
2027
2025
2024
2022
2022
2023
2024
2024
2024
2024
2024
2024
2025
2025
2025
2025
2025
2025
2025
2024
2024
2024
2026
2026
2026
2026
2025
2025
2025
2026
2027
2027
2026
2025
2024
2024
2025
2026
2027
2027
2026
2026
2026
2026
2027
2027
2027
2026
2026
2024
2024
2024
2024
2025
2028
2029
2031
2031
2031
2031
2033
2034
2035
2034
2031
2029
2027
2027
2028
2027
2027
2026
2026
2027
2028
2029
2028
2028
2028
2027
2025
2025
2032
2049
2077
2102
2110
2089
2042
1983
1936
1916
1928
1959
1995
2022
2036
2042
2043
2042
2041
2041
2042
2043
2044
2046
2046
2047
2047
2047
2047
2048
2048
2049
2049
2050
2051
2052
2053
2053
2053
2054
2055
2058
2060
2062
2062
2062
2062
2063
2065
2067
2069
2070
2072
2074
2076
2078
2080
2081
2082
2084
2085
2088
2088
2089
2089
2089
2087
2085
2082
2076
2071
2067
2062
2058
2052
2048
2041
2036
2033
2030
2029
2027
2026
2025
2024
2023
2022
2022
2021
2021
2021
2022
2022
2023
2023
2023
2023
2023
2023
2022
2022
2023
2024
2026
2028
2028
2026
2025
2024
2023
2023
2025
2025
2025
2025
2025
2025
2025
2026
2025
2024
2024
2024
2025
2026
2026
2026
2025
2025
2024
2024
2024
2025
2025
2026
2028
2028
2028
2027
2026
2026
2026
2027
2028
2028
2027
2027
2027
2027
2028
2028
2028
2028
2028
2028
2028
2028
2028
2027
2028
2028
2029
2029
2029
2029
2030
2031
2031
2032
2031
2030
2029
2029
2030
2030
2031
2030
2030
2030
2031
2031
2031
2032
2032
2032
2032
2032
2032
2032
2032
2031
2034
2033
2034
2032
2031
2031
2032
2035
2037
2037
2035
2032
2031
2032
2036
2038
2041
2042
2042
2041
2040
2039
2038
2038
2037
2037
2035
2034
2034
2034
2035
2036
2036
2036
2034
2034
2034
2035
2037
2037
2037
2044
2062
2088
2113
2120
2094
2042
1977
1926
1907
1921
1958
1997
2025
2042
2048
2048
2049
2050
2051
2051
2053
2054
2054
2054
2054
2054
2055
2057
2058
2059
2060
2060
2059
2060
2061
2062
2062
2062
2063
2064
2068
2071
2073
2073
2072
2071
2071
2073
2076
2078
2080
2082
2084
2086
2088
2089
2090
2092
2095
2098
2101
2102
2101
2100
2098
2097
2096
2094
2091
2085
2079
2073
2065
2059
2053
2048
2044
2040
2037
2035
2033
2031
2030
2029
2028
2027
2026
2025
2026
2027
2029
2029
2029
2027
2026
2026
2027
2027
2028
2029
2029
2029
2029
2029
2029
2029
2029
2029
2029
2029
2030
2030
2030
2030
2030
2028
2028
2027
2027
2028
2030
2031
2030
2029
2028
2027
2027
2027
2028
2028
2028
2028
2028
2028
2028
2028
2027
2029
2028
2029
2029
2029
2029
2029
2030
2031
2030
2029
2028
2028
2029
2031
2033
2033
2032
2030
2029
2028
2029
2030
2030
2030
2030
2030
2030
2030
2030
2031
2031
2031
2032
2032
2032
2031
2031
2030
2031
2031
2030
2029
2028
2029
2030
2032
2033
2033
2033
2033
2034
2036
2039
2038
2037
2036
2035
2035
2034
2034
2034
2033
2033
2032
2032
2031
2031
2032
2032
2034
2033
2033
2032
2031
2030
2033
2047
2070
2099
2119
2112
2075
2015
1953
1912
1905
1928
1966
2003
2028
2042
2048
2048
2048
2048
2048
2048
2048
2049
2049
2051
2052
2053
2053
2051
2050
2051
2053
2057
2060
2060
2059
2058
2058
2058
2061
2061
2062
2062
2064
2065
2067
2069
2071
2072
2073
2074
2076
2078
2080
2082
2084
2087
2089
2090
2091
2091
2093
2094
2097
2098
2096
2094
2090
2085
2080
2074
2067
2060
2054
2048
2044
2040
2037
2034
2031
2028
2026
2025
2023
2024
2023
2023
2024
2023
2023
2022
2021
2020
2021
2023
2025
2026
2026
2025
2023
2023
2023
2025
2025
2025
2025
2026
2026
2026
2026
2025
2025
2025
2025
2026
2026
2027
2026
2026
2026
2026
2025
2024
2024
2024
2026
2028
2028
2028
2026
2024
2024
2024
2025
2026
2027
2027
2027
2027
2027
2027
2027
2027
2027
2027
2027
2027
2027
2028
2028
2028
2028
2028
2027
2027
2028
2030
2031
2032
2031
2030
2028
2028
2028
2029
2030
2030
2030
2031
2031
2030
2030
2029
2030
2030
2031
2032
2032
2031
2030
2029
2030
2030
2030
2029
2029
2031
2033
2036
2039
2040
2039
2037
2037
2036
2037
2037
2036
2035
2034
2033
2032
2032
2032
2032
2032
2033
2033
2034
2034
2034
2033
2033
2031
2036
2050
2074
2102
2118
2107
2066
2007
1950
1918
1919
1946
1985
2018
2038
2048
2048
2049
2049
2049
2050
2051
2052
2052
2053
2054
2054
2055
2055
2056
2058
2058
2058
2057
2057
2058
2061
2064
2066
2066
2065
2064
2065
2066
2069
2070
2072
2073
2074
2076
2078
2080
2082
2084
2086
2088
2090
2091
2093
2095
2097
2098
2100
2100
2100
2100
2100
2100
2098
2094
2088
2081
2072
2065
2058
2053
2048
2044
2040
2037
2035
2032
2031
2029
2028
2027
2026
2026
2025
2025
2025
2024
2027
2027
2026
2025
2024
2025
2027
2029
2031
2031
2030
2028
2028
2027
2029
2029
2029
2029
2029
2029
2030
2029
2029
2029
2028
2028
2028
2027
2027
2027
2027
2028
2028
2028
2027
2026
2026
2026
2028
2029
2029
2029
2028
2026
2026
2026
2027
2028
2027
2027
2027
2027
2027
2028
2028
2028
2027
2027
2027
2027
2028
2028
2029
2029
2029
2028
2027
2027
2028
2029
2031
2031
2030
2028
2026
2025
2025
2026
2028
2030
2032
2034
2035
2035
2035
2033
2032
2032
2032
2031
2031
2031
2030
2029
2028
2028
2028
2027
2027
2028
2030
2031
2032
2031
2029
2026
2029
2045
2071
2100
2115
2102
2057
1995
1937
1905
1907
1936
1976
2010
2032
2042
2044
2044
2042
2044
2044
2045
2045
2046
2048
2048
2050
2050
2049
2049
2048
2049
2049
2052
2052
2053
2054
2055
2055
2056
2057
2058
2060
2061
2063
2064
2065
2065
2065
2065
2069
2073
2078
2080
2080
2078
2079
2081
2085
2088
2090
2091
2091
2091
2091
2091
2090
2088
2084
2079
2073
2067
2061
2055
2050
2045
2040
2036
2032
2030
2027
2026
2025
2024
2023
2022
2022
2023
2024
2025
2024
2023
2021
2021
2021
2023
2023
2023
2023
2023
2023
2024
2025
2025
2026
2026
2026
2025
2025
2025
2025
2025
2025
2026
2026
2026
2025
2023
2023
2025
2027
2029
2029
2027
2026
2025
2024
2026
2026
2026
2026
2026
2027
2027
2028
2028
2028
2028
2028
2028
2028
2028
2028
2028
2029
2029
2029
2028
2027
2027
2029
2031
2032
2032
2031
2030
2030
2029
2030
2029
2029
2029
2030
2030
2031
2031
2031
2031
2031
2031
2031
2031
2031
2032
2032
2033
2033
2032
2031
2029
2029
2029
2031
2034
2035
2036
2036
2037
2037
2038
2039
2038
2038
2038
2038
2037
2035
2034
2033
2033
2033
2033
2034
2034
2034
2034
2035
2035
2034
2033
2031
2031
2039
2059
2088
2114
2122
2098
2047
1982
1930
1908
1920
1954
1993
2023
2041
2048
2048
2048
2048
2049
2050
2051
2052
2053
2054
2054
2054
2055
2055
2055
2055
2057
2058
2061
2062
2062
2062
2061
2061
2062
2064
2066
2068
2069
2070
2071
2072
2073
2075
2077
2079
2081
2083
2084
2086
2087
2088
2091
2093
2095
2097
2098
2100
2101
2102
2102
2101
2098
2093
2089
2082
2077
2071
2065
2058
2051
2047
2042
2039
2036
2034
2032
2031
2030
2028
2027
2026
2025
2025
2025
2025
2024
2024
2024
2025
2027
2028
2029
2028
2028
2028
2027
2029
2028
2028
2028
2028
2028
2028
2029
2029
2030
2030
2030
2030
2029
2029
2029
2028
2028
2030
2028
2028
2026
2025
2026
2028
2031
2032
2031
2028
2027
2027
2027
2029
2029
2028
2028
2028
2029
2029
2029
2029
2029
2028
2028
2028
2028
2028
2028
2029
2030
2030
2029
2027
2026
2027
2030
2033
2034
2034
2032
2030
2029
2028
2029
2028
2028
2027
2028
2030
2031
2034
2036
2037
2038
2037
2037
2036
2036
2035
2034
2035
2033
2032
2030
2029
2030
2030
2032
2033
2033
2033
2032
2031
2030
2029
2028
2029
2040
2062
2092
2115
2115
2082
2024
1959
1914
1902
1923
1962
2001
2028
2042
2048
2047
2046
2045
2046
2048
2049
2051
2053
2053
2052
2052
2051
2051
2052
2053
2054
2055
2057
2057
2057
2058
2058
2059
2060
2061
2063
2064
2065
2066
2068
2069
2070
2071
2072
2073
2075
2078
2081
2084
2086
2086
2087
2088
2090
2092
2094
2095
2095
2095
2093
2091
2088
2083
2078
2072
2065
2059
2053
2048
2043
2040
2036
2034
2031
2028
2026
2025
2026
2027
2028
2027
2025
2023
2022
2022
2023
2024
2024
2024
2025
2025
2025
2025
2026
2026
2027
2027
2027
2027
2027
2028
2027
2028
2027
2026
2026
2026
2027
2029
2030
2029
2028
2026
2025
2026
2026
2027
2027
2027
2027
2027
2026
2026
2026
2026
2026
2027
2027
2027
2027
2027
2027
2026
2027
2027
2027
2027
2026
2026
2027
2028
2029
2030
2030
2028
2027
2026
2028
2030
2031
2031
2030
2030
2029
2029
2030
2030
2031
2031
2031
2031
2030
2030
2030
2030
2032
2031
2031
2029
2028
2028
2031
2035
2036
2034
2030
2027
2026
2027
2031
2032
2033
2034
2035
2037
2038
2038
2037
2036
2035
2035
2034
2034
2033
2032
2032
2033
2033
2032
2030
2029
2029
2032
2035
2037
2037
2033
2030
2033
2047
2073
2100
2114
2102
2062
2005
1951
1921
1921
1948
1985
2016
2037
2046
2048
2047
2046
2047
2048
2048
2048
2047
2047
2048
2050
2053
2055
2055
2053
2052
2051
2052
2054
2055
2057
2058
2059
2060
2060
2061
2061
2062
2064
2066
2067
2069
2070
2071
2074
2076
2077
2077
2078
2079
2082
2087
2090
2093
2093
2091
2088
2087
2088
2091
2094
2095
2093
2087
2080
2072
2066
2061
2056
2051
2047
2043
2039
2036
2035
2033
2032
2030
2028
2026
2024
2024
2027
2030
2031
2031
2028
2026
2024
2024
2025
2026
2028
2029
2029
2029
2029
2028
2027
2027
2028
2029
2029
2030
2030
2030
2029
2029
2028
2027
2027
2027
2028
2030
2032
2032
2030
2028
2026
2026
2026
2029
2028
2028
2028
2028
2028
2028
2028
2028
2028
2029
2030
2030
2030
2030
2029
2028
2029
2029
2030
2029
2029
2029
2030
2032
2034
2034
2033
2030
2029
2028
2030
2031
2032
2031
2031
2031
2031
2031
2032
2032
2032
2032
2032
2032
2031
2031
2030
2031
2032
2033
2033
2033
2033
2033
2035
2036
2036
2034
2032
2030
2029
2030
2031
2032
2033
2034
2036
2038
2040
2042
2042
2042
2040
2038
2036
2035
2034
2034
2034
2035
2034
2035
2033
2031
2031
2033
2037
2039
2040
2038
2034
2030
2034
2049
2075
2107
2123
2109
2063
1998
1937
1903
1904
1935
1976
2011
2033
2044
2048
2049
2051
2051
2051
2050
2048
2049
2052
2055
2058
2060
2059
2057
2056
2054
2056
2057
2059
2059
2060
2061
2062
2064
2064
2065
2066
2067
2068
2070
2071
2073
2073
2077
2079
2080
2081
2082
2084
2087
2091
2095
2097
2098
2097
2098
2098
2100
2101
2100
2100
2098
2096
2092
2087
2081
2073
2066
2060
2054
2049
2045
2041
2036
2034
2032
2031
2029
2027
2026
2025
2025
2025
2026
2026
2025
2024
2024
2025
2025
2026
2026
2026
2026
2027
2027
2028
2028
2028
2028
2028
2029
2029
2030
2030
2030
2031
2029
2028
2026
2025
2026
2028
2031
2032
2031
2028
2026
2026
2026
2028
2028
2028
2028
2028
2028
2028
2028
2028
2028
2028
2028
2028
2029
2029
2029
2029
2030
2030
2030
2029
2029
2029
2030
2031
2032
2031
2030
2029
2028
2028
2029
2029
2029
2028
2028
2028
2028
2029
2031
2033
2036
2037
2038
2037
2036
2035
2034
2034
2033
2033
2032
2030
2029
2029
2030
2032
2033
2034
2033
2032
2030
2030
2030
2030
2029
2033
2048
2075
2106
2123
2109
2060
1990
1924
1886
1889
1922
1968
2007
2031
2042
2045
2045
2046
2047
2049
2051
2053
2053
2052
2051
2051
2053
2053
2054
2055
2055
2055
2056
2057
2058
2059
2060
2061
2062
2063
2063
2064
2065
2068
2069
2070
2072
2071
2073
2075
2079
2083
2086
2088
2089
2089
2090
2093
2095
2096
2098
2098
2099
2099
2099
2097
2094
2090
2084
2077
2069
2061
2054
2048
2044
2039
2036
2032
2028
2025
2024
2024
2025
2026
2025
2023
2021
2020
2020
2020
2021
2021
2021
2021
2022
2022
2022
2023
2023
2023
2023
2023
2023
2024
2024
2024
2027
2027
2026
2025
2022
2021
2022
2025
2028
2028
2027
2025
2024
2023
2024
2024
2024
2023
2024
2024
2024
2024
2024
2023
2023
2023
2023
2023
2023
2024
2023
2024
2024
2024
2024
2023
2022
2023
2024
2026
2027
2027
2026
2025
2024
2025
2024
2026
2026
2026
2027
2027
2027
2026
2025
2023
2022
2023
2024
2026
2028
2030
2032
2033
2034
2033
2031
2029
2029
2031
2034
2035
2033
2030
2027
2025
2025
2027
2027
2028
2028
2029
2029
2028
2028
2027
2025
2029
2043
2066
2094
2113
2106
2070
2013
1955
1917
1911
1933
1971
2007
2032
2045
2048
2046
2043
2042
2043
2045
2047
2048
2048
2048
2048
2049
2049
2049
2051
2052
2053
2054
2054
2055
2055
2055
2057
2058
2059
2060
2060
2061
2063
2065
2067
2069
2070
2070
2071
2072
2075
2078
2080
2082
2084
2085
2087
2089
2090
2092
2093
2094
2094
2094
2092
2089
2085
2082
2076
2071
2064
2058
2052
2048
2044
2041
2039
