1986
1986
1986
1986
1987
1987
1987
1986
1985
1984
1983
1984
1986
1988
1990
1990
1989
1988
1987
1986
1987
1988
1988
1988
1987
1985
1984
1983
1983
1983
1983
1983
1984
1984
1984
1981
1974
1964
1959
1964
1986
2026
2077
2132
2175
2189
2164
2104
2023
1946
1894
1878
1892
1919
1945
1961
1967
1969
1970
1972
1973
1975
1976
1977
1978
1979
1979
1979
1980
1980
1981
1982
1983
1984
1985
1986
1988
1989
1990
1990
1990
1991
1992
1995
1997
2000
2001
2002
2003
2005
2008
2012
2016
2020
2023
2026
2028
2030
2031
2032
2032
2031
2029
2025
2018
2011
2002
1993
1985
1978
1972
1968
1964
1962
1961
1959
1957
1955
1954
1954
1955
1956
1957
1956
1955
1953
1952
1952
1952
1952
1952
1952
1953
1955
1955
1956
1955
1954
1954
1954
1956
1958
1959
1960
1960
1960
1960
1960
1959
1958
1957
1957
1959
1960
1961
1962
1962
1961
1960
1960
1961
1962
1963
1964
1965
1964
1964
1963
1963
1962
1963
1964
1966
1967
1969
1969
1969
1968
1968
1969
1970
1970
1970
1970
1970
1969
1969
1969
1970
1971
1972
1974
1975
1977
1978
1979
1979
1980
1980
1980
1979
1978
1976
1975
1975
1974
1974
1974
1975
1975
1975
1975
1977
1977
1976
1970
1961
1953
1953
1970
2005
2053
2109
2157
2181
2171
2124
2050
1973
1913
1885
1889
1911
1935
1952
1960
1963
1966
1968
1969
1970
1970
1971
1972
1973
1975
1976
1976
1976
1976
1976
1976
1976
1977
1977
1978
1979
1980
1982
1984
1986
1987
1989
1990
1992
1994
1996
1998
2000
2002
2005
2009
2013
2017
2020
2023
2025
2027
2029
2030
2029
2027
2023
2017
2011
2003
1995
1987
1980
1974
1970
1966
1963
1960
1958
1958
1957
1957
1956
1955
1954
1954
1954
1954
1954
1954
1954
1954
1953
1953
1953
1953
1954
1956
1958
1959
1960
1959
1959
1958
1959
1961
1962
1963
1963
1963
1962
1961
1961
1960
1960
1961
1962
1963
1963
1964
1964
1964
1963
1962
1962
1962
1962
1963
1964
1965
1965
1966
1965
1963
1962
1961
1961
1963
1965
1966
1966
1966
1965
1965
1965
1965
1964
1964
1963
1962
1963
1964
1965
1966
1967
1967
1967
1968
1969
1970
1971
1972
1971
1970
1969
1969
1968
1967
1966
1965
1964
1963
1963
1962
1963
1964
1965
1964
1958
1948
1942
1944
1964
2001
2050
2106
2152
2173
2158
2106
2030
1952
1896
1874
1883
1908
1932
1948
1954
1957
1960
1962
1964
1964
1964
1965
1966
1968
1969
1970
1971
1972
1972
1972
1972
1972
1973
1975
1977
1979
1979
1979
1979
1980
1981
1983
1986
1989
1991
1993
1995
1997
1999
2001
2004
2008
2012
2016
2019
2022
2024
2025
2025
2024
2022
2019
2015
2009
2001
1993
1984
1977
1970
1965
1962
1959
1957
1956
1956
1955
1954
1953
1953
1953
1953
1952
1953
1953
1953
1954
1954
1954
1954
1954
1953
1953
1953
1954
1954
1955
1956
1956
1957
1957
1957
1957
1957
1958
1959
1960
1961
1961
1961
1960
1960
1961
1962
1963
1964
1964
1963
1962
1961
1960
1960
1961
1962
1963
1964
1964
1964
1964
1963
1963
1963
1963
1964
1965
1966
1966
1965
1964
1963
1963
1964
1965
1966
1967
1967
1966
1965
1965
1964
1965
1966
1968
1970
1972
1973
1974
1973
1973
1973
1973
1973
1972
1971
1970
1970
1970
1971
1972
1972
1972
1972
1973
1975
1976
1976
1972
1964
1956
1953
1963
1992
2037
2090
2142
2177
2180
2145
2077
1998
1929
1889
1883
1902
1928
1950
1962
1967
1970
1972
1973
1974
1975
1976
1978
1980
1982
1983
1984
1984
1984
1985
1986
1987
1989
1990
1990
1990
1991
1992
1994
1995
1997
1999
2001
2004
2006
2008
2009
2010
2012
2015
2019
2024
2028
2032
2035
2037
2039
2041
2043
2043
2042
2040
2036
2031
2024
2016
2008
1998
1990
1982
1977
1975
1974
1974
1973
1973
1972
1971
1971
1971
1970
1970
1970
1971
1971
1972
1972
1972
1971
1971
1971
1972
1974
1975
1975
1974
1972
1971
1970
1970
1972
1973
1974
1975
1975
1975
1975
1974
1974
1973
1973
1973
1973
1973
1973
1974
1974
1974
1974
1973
1973
1974
1974
1975
1976
1976
1976
1975
1974
1973
1972
1973
1974
1976
1978
1978
1978
1978
1976
1975
1973
1972
1972
1972
1974
1975
1976
1976
1976
1977
1978
1980
1981
1982
1983
1982
1981
1979
1977
1976
1975
1976
1977
1978
1978
1978
1978
1978
1978
1975
1969
1961
1955
1958
1977
2014
2062
2115
2159
2177
2160
2107
2032
1954
1899
1878
1887
1912
1938
1956
1964
1967
1970
1972
1974
1976
1977
1977
1977
1977
1978
1979
1980
1981
1983
1983
1984
1984
1984
1984
1984
1985
1986
1987
1989
1990
1992
1994
1995
1997
1999
2001
2003
2007
2010
2014
2017
2020
2022
2025
2027
2030
2033
2035
2036
2036
2034
2029
2023
2015
2006
1998
1990
1983
1977
1973
1970
1967
1964
1962
1961
1961
1961
1962
1962
1962
1962
1961
1961
1961
1961
1961
1961
1961
1962
1962
1962
1963
1963
1964
1965
1966
1966
1966
1966
1966
1967
1967
1967
1967
1967
1968
1968
1969
1969
1970
1969
1969
1969
1968
1969
1969
1970
1971
1971
1972
1971
1969
1967
1966
1966
1966
1967
1968
1969
1969
1968
1968
1969
1969
1970
1970
1971
1971
1971
1971
1970
1968
1967
1965
1965
1965
1966
1967
1968
1968
1968
1968
1968
1969
1971
1972
1973
1974
1974
1974
1972
1970
1968
1966
1965
1965
1966
1966
1966
1966
1965
1964
1965
1966
1965
1960
1952
1945
1944
1957
1988
2033
2084
2133
2165
2165
2128
2061
1983
1915
1877
1872
1890
1916
1935
1946
1949
1952
1954
1955
1955
1955
1954
1954
1956
1958
1960
1961
1962
1962
1962
1963
1964
1965
1965
1967
1968
1970
1971
1972
1973
1973
1974
1975
1977
1980
1983
1986
1989
1992
1994
1997
2000
2004
2007
2010
2013
2015
2017
2018
2018
2017
2014
2009
2003
1995
1987
1979
1972
1966
1961
1957
1953
1950
1947
1945
1944
1944
1945
1946
1946
1946
1944
1943
1942
1942
1942
1943
1944
1944
1944
1944
1943
1943
1943
1943
1944
1945
1947
1947
1947
1947
1946
1946
1945
1946
1946
1946
1946
1946
1946
1947
1946
1946
1946
1945
1944
1943
1943
1942
1941
1941
1941
1941
1940
1940
1941
1941
1942
1943
1943
1943
1942
1942
1943
1944
1945
1946
1947
1948
1948
1948
1948
1948
1948
1948
1948
1947
1947
1947
1947
1947
1948
1949
1950
1950
1951
1953
1955
1956
1957
1957
1957
1956
1955
1955
1955
1956
1956
1957
1957
1957
1957
1958
1960
1962
1962
1958
1950
1941
1939
1949
1977
2022
2074
2126
2160
2164
2131
2065
1985
1914
1872
1864
1882
1908
1931
1943
1948
1950
1952
1953
1954
1955
1957
1958
1959
1960
1961
1962
1962
1963
1963
1963
1963
1964
1964
1965
1966
1967
1968
1968
1969
1969
1970
1971
1974
1977
1980
1982
1984
1985
1987
1990
1994
1998
2002
2005
2008
2010
2011
2010
2009
2007
2005
2001
1996
1988
1979
1970
1962
1955
1950
1947
1944
1942
1940
1939
1938
1937
1936
1935
1935
1935
1936
1936
1936
1936
1935
1935
1935
1936
1936
1937
1938
1939
1941
1942
1943
1943
1941
1940
1940
1941
1942
1944
1946
1946
1946
1945
1944
1944
1943
1943
1944
1944
1946
1947
1948
1950
1950
1950
1950
1948
1947
1946
1947
1949
1951
1953
1954
1954
1952
1951
1950
1949
1949
1949
1950
1950
1950
1950
1950
1952
1953
1954
1953
1953
1951
1950
1950
1951
1953
1956
1958
1959
1960
1960
1961
1962
1963
1965
1966
1965
1964
1963
1962
1962
1962
1962
1963
1963
1963
1963
1964
1965
1965
1963
1958
1950
1947
1955
1980
2025
2080
2136
2174
2179
2144
2075
1992
1919
1876
1870
1889
1917
1939
1952
1958
1961
1965
1969
1971
1973
1973
1975
1976
1978
1980
1982
1984
1985
1985
1985
1985
1987
1988
1990
1991
1991
1992
1994
1995
1997
1999
2000
2003
2005
2008
2011
2014
2017
2020
2024
2027
2031
2035
2040
2044
2048
2049
2049
2049
2048
2047
2043
2037
2029
2019
2008
1999
1991
1986
1982
1979
1976
1974
1973
1972
1972
1972
1972
1971
1971
1970
1970
1971
1972
1974
1974
1974
1973
1972
1971
1972
1974
1977
1979
1980
1979
1978
1978
1979
1979
1979
1979
1980
1981
1983
1985
1985
1985
1984
1983
1984
1985
1987
1988
1988
1987
1986
1985
1986
1987
1989
1991
1991
1991
1990
1990
1990
1990
1989
1989
1988
1988
1988
1989
1990
1991
1992
1992
1992
1992
1993
1993
1994
1995
1994
1992
1990
1989
1988
1990
1992
1995
1997
1998
1999
1999
1999
1999
1999
1999
1999
1998
1999
1999
1998
1998
1997
1996
1995
1995
1997
1999
2000
2001
1999
1993
1985
1979
1981
1996
2028
2071
2122
2170
2199
2196
2156
2086
2007
1942
1908
1908
1929
1956
1975
1985
1990
1993
1994
1995
1996
1996
1998
2000
2002
2003
2003
2003
2003
2005
2007
2009
2011
2011
2010
2008
2007
2008
2011
2015
2018
2020
2021
2021
2022
2024
2026
2029
2031
2035
2038
2042
2047
2050
2054
2057
2059
2061
2062
2062
2061
2059
2057
2054
2049
2043
2034
2025
2016
2009
2003
1998
1993
1990
1987
1986
1986
1987
1987
1987
1987
1986
1986
1986
1986
1986
1986
1986
1986
1987
1988
1988
1987
1986
1985
1985
1986
1987
1989
1990
1991
1992
1992
1993
1993
1993
1992
1991
1991
1992
1993
1994
1995
1996
1995
1993
1992
1990
1990
1991
1993
1995
1996
1995
1994
1993
1993
1992
1992
1993
1993
1993
1993
1993
1992
1991
1990
1988
1988
1989
1990
1992
1993
1993
1993
1992
1992
1991
1991
1990
1989
1987
1985
1984
1986
1989
1992
1995
1995
1994
1993
1993
1995
1997
1998
1998
1996
1993
1990
1988
1988
1990
1993
1995
1996
1994
1992
1990
1990
1991
1990
1987
1981
1978
1986
2009
2048
2098
2148
2185
2195
2170
2111
2035
1962
1915
1901
1915
1940
1962
1975
1980
1983
1985
1986
1985
1985
1984
1983
1984
1985
1988
1991
1992
1993
1992
1991
1991
1991
1992
1993
1993
1994
1994
1994
1994
1995
1997
1999
2003
2006
2009
2011
2013
2015
2016
2019
2023
2028
2032
2037
2041
2044
2047
2048
2048
2048
2044
2039
2031
2023
2015
2007
2001
1995
1988
1982
1977
1973
1971
1970
1969
1969
1968
1967
1966
1965
1964
1964
1965
1966
1966
1966
1966
1966
1966
1965
1964
1963
1963
1964
1966
1968
1969
1969
1968
1968
1968
1969
1969
1969
1969
1969
1970
1971
1972
1973
1973
1973
1973
1973
1973
1974
1974
1975
1975
1974
1974
1973
1973
1973
1974
1976
1976
1977
1976
1975
1975
1975
1975
1976
1976
1976
1977
1977
1977
1978
1978
1979
1979
1980
1980
1980
1981
1982
1983
1984
1984
1983
1983
1982
1982
1982
1982
1982
1982
1982
1982
1982
1983
1984
1985
1986
1988
1989
1991
1990
1989
1987
1985
1984
1985
1986
1987
1987
1987
1986
1984
1983
1983
1984
1985
1984
1978
1970
1963
1966
1986
2022
2069
2123
2167
2189
2175
2125
2049
1972
1914
1890
1897
1921
1945
1962
1969
1972
1974
1975
1976
1977
1979
1981
1983
1984
1984
1985
1985
1986
1987
1987
1988
1989
1990
1992
1994
1996
1998
1999
1999
1998
1998
1999
2001
2004
2007
2010
2013
2015
2018
2021
2025
2029
2033
2038
2041
2044
2046
2047
2048
2048
2047
2044
2040
2034
2027
2020
2012
2004
1997
1992
1988
1986
1984
1983
1983
1982
1981
1979
1978
1978
1977
1977
1977
1977
1976
1975
1975
1974
1974
1975
1975
1975
1974
1973
1972
1971
1970
1970
1970
1970
1970
1970
1969
1970
1970
1971
1971
1971
1970
1969
1969
1969
1969
1970
1970
1970
1969
1968
1967
1966
1965
1965
1965
1966
1967
1967
1967
1966
1966
1965
1964
1963
1962
1963
1964
1965
1966
1966
1965
1964
1963
1963
1963
1964
1964
1965
1964
1964
1963
1962
1962
1961
1961
1960
1959
1958
1957
1956
1956
1957
1958
1959
1960
1961
1962
1962
1962
1962
1961
1960
1960
1960
1960
1959
1958
1957
1956
1956
1956
1956
1956
1956
1957
1957
1956
1952
1945
1940
1945
1965
2002
2048
2097
2137
2155
2140
2091
2021
1946
1890
1867
1873
1897
1921
1938
1946
1950
1954
1956
1958
1957
1957
1957
1958
1959
1961
1962
1962
1961
1961
1962
1963
1966
1968
1970
1972
1974
1975
1974
1973
1972
1972
1973
1975
1977
1980
1982
1985
1987
1990
1994
1998
2002
2005
2009
2012
2014
2016
2018
2018
2018
2017
2015
2011
2005
1998
1990
1982
1974
1967
1961
1957
1955
1954
1953
1953
1953
1952
1952
1951
1951
1952
1953
1954
1955
1955
1955
1955
1955
1955
1955
1956
1957
1958
1959
1960
1960
1960
1959
1958
1958
1959
1960
1961
1963
1964
1964
1964
1964
1963
1963
1963
1964
1965
1965
1966
1965
1965
1964
1964
1963
1963
1964
1964
1965
1965
1965
1965
1965
1964
1964
1964
1964
1965
1966
1966
1965
1964
1964
1963
1963
1964
1964
1965
1965
1965
1966
1966
1966
1966
1966
1965
1965
1965
1965
1965
1964
1964
1964
1964
1965
1966
1968
1970
1971
1972
1973
1973
1973
1973
1972
1971
1971
1970
1970
1970
1970
1970
1970
1970
1970
1971
1972
1972
1970
1963
1955
1951
1958
1982
2022
2070
2119
2156
2165
2139
2079
2003
1930
1883
1869
1884
1910
1935
1950
1957
1960
1963
1965
1966
1968
1969
1970
1972
1973
1974
1975
1976
1976
1977
1977
1978
1979
1980
1982
1982
1983
1983
1984
1985
1986
1988
1990
1992
1995
1997
1999
2001
2003
2006
2009
2013
2017
2021
2025
2029
2031
2033
2034
2034
2033
2031
2027
2022
2015
2007
1999
1991
1983
1976
1970
1966
1963
1961
1960
1959
1958
1957
1956
1955
1955
1955
1956
1957
1957
1957
1957
1956
1956
1957
1957
1958
1958
1959
1959
1960
1960
1960
1961
1961
1962
1962
1963
1964
1964
1964
1964
1964
1964
1963
1963
1964
1964
1965
1965
1965
1965
1965
1965
1964
1964
1965
1965
1965
1966
1966
1966
1966
1966
1965
1965
1966
1966
1967
1968
1968
1969
1968
1968
1967
1967
1968
1969
1969
1970
1970
1969
1968
1966
1965
1965
1966
1967
1969
1971
1972
1973
1973
1973
1974
1974
1975
1975
1975
1975
1974
1973
1972
1972
1971
1971
1971
1972
1973
1974
1976
1975
1972
1965
1956
1952
1960
1986
2028
2079
2131
2167
2173
2143
2079
2000
1926
1881
1870
1886
1913
1938
1952
1957
1960
1963
1966
1969
1970
1972
1972
1973
1973
1974
1974
1975
1976
1977
1979
1981
1982
1983
1983
1983
1983
1983
1983
1984
1986
1989
1992
1994
1996
1996
1998
2000
2003
2008
2012
2017
2021
2025
2028
2030
2031
2031
2032
2033
2034
2032
2028
2021
2011
2001
1992
1984
1978
1973
1969
1965
1961
1958
1956
1954
1953
1952
1952
1952
1952
1953
1954
1954
1954
1954
1954
1954
1954
1954
1955
1955
1954
1954
1953
1953
1954
1954
1955
1956
1956
1957
1957
1957
1957
1957
1957
1957
1958
1959
1960
1960
1961
1960
1960
1959
1959
1959
1959
1959
1959
1960
1961
1961
1961
1961
1961
1961
1962
1963
1963
1963
1963
1963
1962
1961
1961
1961
1961
1962
1963
1963
1964
1965
1965
1964
1963
1962
1961
1961
1962
1963
1964
1965
1965
1966
1966
1968
1969
1970
1971
1971
1971
1971
1970
1968
1967
1965
1965
1965
1966
1966
1967
1967
1968
1969
1967
1962
1954
1947
1949
1965
1998
2043
2091
2134
2159
2154
2114
2047
1970
1907
1875
1875
1895
1921
1940
1950
1954
1958
1960
1962
1963
1964
1964
1965
1966
1967
1968
1969
1970
1971
1972
1973
1973
1973
1972
1973
1974
1976
1979
1981
1982
1983
1984
1984
1985
1986
1988
1992
1996
2001
2004
2007
2009
2010
2012
2014
2017
2020
2024
2026
2026
2024
2020
2014
2007
2000
1992
1984
1977
1971
1965
1960
1957
1954
1952
1951
1950
1950
1949
1949
1948
1948
1948
1949
1949
1949
1949
1950
1950
1950
1950
1950
1950
1950
1950
1949
1949
1949
1950
1952
1954
1955
1955
1955
1954
1954
1954
1955
1956
1958
1959
1960
1960
1960
1959
1958
1958
1959
1960
1961
1961
1961
1961
1961
1961
1962
1962
1963
1963
1963
1963
1963
1963
1964
1963
1963
1962
1963
1964
1966
1967
1967
1966
1966
1966
1967
1968
1968
1968
1967
1967
1967
1967
1968
1968
1969
1970
1971
1973
1975
1977
1978
1978
1977
1975
1973
1973
1973
1974
1974
1974
1973
1973
1973
1973
1974
1976
1978
1977
1974
1967
1960
1959
1971
2000
2043
2092
2139
2169
2170
2137
2074
2000
1935
1895
1887
1904
1929
1952
1966
1973
1977
1978
1978
1978
1979
1980
1983
1985
1986
1986
1987
1988
1990
1991
1991
1991
1992
1994
1996
1997
1997
1998
1998
2000
2002
2003
2004
2005
2007
2010
2013
2017
2020
2023
2025
2028
2032
2035
2039
2043
2047
2051
2053
2052
2049
2045
2040
2036
2030
2023
2014
2006
1998
1992
1988
1985
1983
1981
1980
1977
1975
1974
1974
1974
1974
1974
1974
1975
1977
1979
1980
1979
1977
1975
1974
1976
1978
1979
1980
1980
1979
1979
1981
1983
1987
1989
1989
1989
1988
1988
1988
1989
1990
1991
1991
1992
1992
1993
1993
1993
1994
1994
1994
1992
1991
1991
1991
1992
1994
1994
1995
1995
1994
1993
1992
1991
1991
1992
1994
1995
1996
1997
1997
1996
1994
1993
1994
1994
1995
1995
1993
1992
1991
1992
1994
1997
2000
2002
2003
2002
2000
1999
1998
1999
1999
1999
1999
1999
1999
1999
1999
1998
1998
1999
2000
2003
2005
2006
2004
1999
1990
1981
1978
1989
2017
2061
2114
2162
2191
2188
2149
2082
2008
1946
1912
1909
1927
1951
1970
1981
1987
1992
1995
1996
1996
1995
1996
1997
1999
2000
2000
2000
2001
2003
2005
2007
2006
2005
2004
2004
2006
2009
2012
2013
2014
2014
2015
2017
2019
2020
2023
2026
2030
2034
2037
2040
2042
2045
2048
2051
2053
2053
2053
2052
2053
2054
2054
2050
2045
2037
2027
2019
2013
2009
2005
2000
1994
1989
1986
1986
1987
1987
1986
1984
1982
1981
1981
1983
1986
1989
1992
1993
1992
1991
1991
1991
1992
1994
1994
1994
1995
1995
1996
1997
1998
1999
2000
2001
2003
2004
2005
2005
2005
2004
2002
2000
2000
2001
2004
2006
2007
2006
2005
2004
2004
2004
2004
2005
2004
2003
2001
2000
1999
1998
1999
1999
1999
1998
1997
1994
1991
1990
1990
1992
1995
1997
1998
1998
1999
2000
2001
2001
1999
1996
1994
1992
1992
1993
1995
1996
1995
1994
1991
1989
1987
1987
1988
1990
1992
1994
1995
1992
1985
1975
1970
1975
2000
2044
2101
2157
2195
2198
2160
2090
2008
1937
1896
1888
1904
1929
1949
1961
1966
1970
1975
1981
1986
1991
1994
1995
1995
1994
1993
1994
1995
1996
1997
1997
1997
1997
1998
1999
2000
2001
2002
2003
2005
2008
2011
2014
2016
2017
2017
2017
2019
2023
2028
2034
2040
2044
2048
2050
2053
2056
2059
2062
2064
2065
2063
2057
2049
2040
2029
2018
2009
2002
1995
1988
1984
1980
1978
1977
1976
1975
1974
1974
1976
1979
1980
1978
1976
1973
1973
1973
1975
1976
1976
1975
1974
1973
1973
1973
1973
1973
1973
1974
1976
1977
1979
1979
1979
1979
1978
1978
1978
1977
1976
1974
1973
1973
1974
1974
1974
1973
1971
1970
1971
1972
1974
1975
1976
1974
1972
1970
1969
1969
1971
1973
1974
1973
1971
1969
1968
1968
1969
1972
1973
1974
1974
1973
1974
1974
1974
1974
1974
1973
1972
1972
1973
1973
1973
1971
1970
1968
1967
1967
1968
1971
1974
1975
1974
1968
1958
1950
1952
1971
2009
2060
2116
2161
2181
2165
2113
2037
1957
1896
1869
1873
1897
1922
1941
1949
1952
1954
1957
1960
1963
1965
1966
1967
1967
1968
1969
1970
1972
1972
1973
1975
1976
1976
1976
1976
1976
1977
1979
1981
1983
1984
1986
1988
1991
1993
1996
1999
2004
2008
2012
2015
2018
2021
2024
2027
2029
2031
2033
2034
2035
2034
2031
2026
2018
2007
1995
1984
1974
1968
1962
1958
1954
1951
1948
1946
1946
1946
1946
1946
1947
1948
1950
1951
1952
1953
1953
1953
1952
1952
1952
1952
1954
1955
1957
1958
1958
1958
1958
1957
1957
1957
1957
1958
1960
1961
1962
1963
1963
1963
1964
1965
1966
1966
1966
1966
1966
1966
1966
1966
1965
1965
1966
1967
1969
1970
1970
1969
1969
1968
1969
1970
1971
1972
1972
1971
1970
1969
1968
1969
1970
1972
1973
1973
1973
1974
1975
1975
1976
1977
1978
1978
1978
1977
1975
1973
1970
1967
1966
1967
1969
1971
1972
1971
1969
1967
1966
1962
1956
1950
1947
1957
1984
2025
2073
2123
2159
2169
2143
2083
2003
1927
1879
1867
1883
1911
1933
1943
1943
1943
1946
1951
1957
1962
1965
1966
1965
1965
1965
1965
1964
1962
1960
1961
1964
1968
1974
1978
1981
1982
1983
1982
1982
1982
1983
1984
1987
1990
1992
1994
1994
1995
1997
2000
2003
2005
2005
2005
2007
2011
2018
2025
2031
2032
2030
2023
2014
2003
1995
1989
1985
1981
1975
1967
1957
1948
1941
1935
1930
1924
1919
1917
1921
1930
1940
1949
1953
1953
1951
1951
1952
1952
1950
1946
1941
1936
1931
1926
1923
1922
1925
1930
1934
1935
1935
1935
1938
1942
1946
1947
1946
1945
1944
1945
1948
1951
1950
1945
1939
1933
1933
1937
1945
1952
1956
1958
1959
1959
1959
1955
1950
1945
1943
1942
1942
1941
1939
1937
1936
1938
1942
1947
1948
1945
1939
1934
1934
1941
1952
1964
1970
1969
1962
1955
1950
1949
1949
1948
1947
1947
1949
1952
1957
1959
1958
1955
1949
1941
1935
1936
1947
1972
2009
2052
2097
2135
2151
2136
2088
2017
1942
1887
1864
1872
1896
1921
1938
1944
1946
1949
1952
1956
1960
1962
1962
1961
1960
1960
1962
1965
1966
1967
1966
1966
1965
1966
1966
1968
1970
1971
1972
1972
1971
1971
1970
1971
1971
1971
1972
1975
1979
1984
1989
1993
1997
2001
2004
2006
2008
2009
2010
2011
2011
2009
2005
1997
1987
1978
1971
1967
1965
1963
1960
1955
1951
1947
1943
1941
1941
1941
1942
1941
1939
1938
1937
1938
1940
1942
1944
1944
1945
1945
1945
1945
1944
1943
1943
1944
1945
1946
1947
1948
1950
1952
1954
1954
1954
1954
1954
1954
1956
1958
1960
1961
1962
1961
1960
1959
1958
1958
1960
1961
1963
1964
1964
1963
1963
1963
1964
1965
1965
1966
1965
1964
1964
1965
1966
1967
1968
1969
1971
1973
1976
1978
1979
1979
1978
1977
1976
1976
1977
1978
1980
1980
1980
1978
1977
1976
1976
1976
1975
1974
1974
1976
1978
1977
1972
1964
1962
1975
2006
2053
2108
2158
2187
2182
2136
2060
1975
1906
1873
1877
1902
1932
1954
1965
1970
1974
1977
1979
1981
1983
1985
1987
1988
1988
1988
1987
1988
1988
1990
1991
1992
1992
1992
1992
1992
1993
1994
1995
1998
2000
2003
2005
2007
2008
2011
2014
2018
2022
2027
2031
2035
2040
2043
2047
2049
2051
2052
2053
2053
2053
2050
2046
2039
2029
2019
2008
1999
1992
1986
1982
1978
1975
1972
1969
1968
1968
1968
1968
1968
1968
1967
1967
1967
1968
1968
1969
1969
1968
1967
1966
1965
1965
1966
1967
1968
1969
1969
1968
1968
1968
1968
1968
1967
1967
1967
1967
1968
1970
1971
1971
1969
1968
1966
1965
1965
1966
1967
1970
1972
1974
1976
1976
1975
1974
1972
1971
1971
1972
1973
1973
1973
1972
1971
1971
1971
1971
1971
1972
1972
1973
1975
1976
1977
1978
1978
1978
1977
1976
1976
1975
1975
1974
1973
1973
1972
1972
1972
1972
1971
1972
1972
1971
1968
1961
1955
1957
1974
2010
2058
2112
2158
2180
2166
2115
2040
1960
1898
1870
1874
1897
1924
1944
1954
1958
1962
1965
1967
1969
1969
1970
1971
1973
1974
1976
1976
1975
1974
1974
1975
1976
1979
1982
1984
1984
1984
1983
1983
1985
1988
1990
1991
1992
1994
1997
2000
2003
2006
2010
2013
2017
2021
2026
2029
2032
2034
2035
2036
2036
2034
2029
2023
2015
2007
1998
1990
1982
1974
1967
1961
1958
1956
1955
1954
1953
1952
1951
1950
1950
1950
1949
1948
1948
1948
1949
1951
1952
1953
1952
1952
1952
1952
1953
1953
1954
1954
1954
1954
1954
1954
1955
1955
1955
1956
1957
1958
1959
1960
1960
1960
1961
1961
1961
1961
1960
1959
1959
1958
1958
1959
1960
1962
1963
1963
1963
1961
1960
1960
1960
1960
1960
1961
1962
1964
1965
1966
1966
1965
1965
1966
1968
1969
1969
1968
1967
1966
1965
1964
1963
1962
1962
1962
1962
1962
1963
1964
1965
1966
1964
1960
1954
1949
1950
1964
1994
2037
2086
2132
2159
2157
2118
2051
1973
1907
1872
1869
1889
1916
1938
1950
1956
1960
1962
1964
1964
1965
1965
1967
1969
1971
1973
1974
1975
1974
1974
1973
1973
1974
1976
1979
1982
1983
1984
1985
1985
1986
1987
1988
1990
1992
1996
2000
2004
2007
2009
2012
2014
2018
2021
2025
2029
2031
2033
2034
2033
2031
2026
2020
2012
2003
1995
1988
1981
1975
1969
1964
1961
1959
1958
1956
1955
1953
1952
1951
1952
1953
1954
1954
1954
1954
1954
1954
1954
1955
1955
1955
1954
1953
1952
1952
1953
1956
1959
1961
1962
1961
1961
1960
1961
1962
1962
1961
1961
1961
1961
1962
1963
1963
1963
1963
1963
1964
1965
1965
1965
1964
1964
1965
1966
1966
1966
1966
1966
1966
1967
1966
1966
1965
1965
1965
1966
1967
1968
1970
1970
1970
1969
1969
1969
1971
1974
1975
1976
1976
1975
1974
1973
1972
1972
1971
1971
1970
1970
1970
1971
1971
1971
1972
1973
1972
1968
1962
1957
1961
1979
2012
2055
2102
2143
2165
2157
2114
2046
1969
1907
1877
1879
1902
1930
1951
1961
1965
1968
1970
1971
1972
1971
1972
1973
1974
1976
1977
1978
1978
1979
1980
1981
1982
1983
1984
1984
1986
1989
1991
1994
1996
1997
1998
1998
2000
2001
2003
2005
2007
2009
2011
2015
2019
2023
2026
2030
2033
2035
2037
2038
2037
2034
2030
2024
2017
2009
2001
1993
1986
1979
1973
1967
1962
1960
1959
1959
1960
1960
1960
1959
1958
1957
1957
1957
1957
1958
1959
1959
1960
1960
1959
1959
1958
1958
1958
1960
1961
1963
1964
1965
1964
1963
1963
1964
1964
1964
1965
1965
1965
1965
1965
1964
1964
1964
1965
1966
1966
1966
1966
1965
1965
1964
1964
1965
1966
1967
1967
1966
1966
1966
1966
1966
1966
1966
1966
1967
1968
1969
1969
1968
1968
1968
1968
1968
1968
1967
1966
1965
1965
1965
1966
1968
1969
1970
1970
1970
1971
1973
1974
1975
1976
1975
1973
1971
1969
1968
1968
1968
1969
1969
1969
1968
1968
1969
1970
1970
1967
1960
1953
1951
1959
1983
2022
2067
2115
2150
2161
2139
2083
2008
1934
1883
1866
1879
1906
1933
1950
1957
1960
1962
1964
1965
1966
1967
1968
1969
1971
1972
1973
1973
1973
1973
1973
1973
1974
1974
1975
1975
1975
1976
1978
1980
1982
1983
1984
1984
1985
1988
1991
1995
1998
2001
2004
2007
2012
2016
2019
2021
2022
2024
2027
2029
2030
2029
2024
2018
2010
2001
1993
1985
1977
1970
1964
1960
1957
1955
1954
1953
1952
1951
1950
1950
1950
1950
1950
1951
1952
1953
1954
1954
1952
1951
1950
1951
1952
1953
1955
1955
1955
1956
1956
1957
1958
1958
1959
1959
1960
1960
1960
1960
1961
1961
1961
1960
1959
1958
1959
1961
1964
1966
1966
1965
1964
1963
1963
1963
1964
1965
1965
1965
1964
1964
1964
1964
1965
1965
1966
1967
1968
1969
1970
1969
1968
1967
1968
1969
1970
1971
1971
1970
1970
1969
1970
1970
1970
1970
1970
1971
1972
1973
1974
1974
1975
1975
1976
1978
1979
1981
1982
1982
1982
1982
1981
1981
1980
1979
1979
1979
1980
1980
1980
1979
1980
1982
1982
1980
1975
1968
1966
1976
2002
2042
2089
2135
2168
2173
2145
2085
2010
1939
1894
1883
1900
1929
1955
1971
1977
1980
1981
1981
1982
1984
1985
1987
1989
1990
1991
1992
1992
1993
1994
1994
1995
1996
1997
1999
2001
2004
2006
2007
2009
2009
2010
2011
2013
2015
2018
2020
2023
2026
2028
2031
2034
2038
2043
2047
2051
2054
2056
2057
2056
2055
2052
2049
2045
2038
2031
2023
2015
2007
2001
1996
1992
1989
1986
1984
1982
1982
1982
1983
1983
1983
1983
1982
1982
1981
1981
1981
1981
1981
1982
1983
1984
1985
1986
1986
1986
1987
1987
1987
1987
1987
1988
1988
1988
1988
1988
1988
1988
1989
1990
1991
1991
1991
1991
1990
1990
1990
1990
1991
1991
1991
1991
1990
1989
1989
1990
1990
1990
1989
1989
1988
1988
1989
1989
1990
1990
1990
1990
1990
1990
1990
1990
1991
1992
1993
1993
1993
1992
1990
1989
1987
1986
1986
1987
1990
1993
1996
1997
1997
1996
1996
1997
1998
1999
1999
1999
2000
1999
1998
1996
1993
1991
1992
1993
1995
1997
1997
1997
1996
1996
1993
1987
1980
1978
1988
2016
2057
2108
2155
2185
2184
2149
2083
2005
1936
1896
1890
1909
1937
1961
1975
1981
1984
1988
1992
1995
1996
1997
1997
1998
1998
2000
2001
2002
2002
2002
2002
2002
2004
2005
2007
2008
2008
2009
2010
2012
2013
2014
2015
2015
2015
2016
2017
2020
2023
2028
2032
2036
2040
2042
2044
2046
2048
2049
2051
2052
2051
2048
2044
2038
2030
2022
2013
2005
1997
1991
1986
1982
1979
1976
1974
1972
1971
1969
1968
1968
1968
1968
1968
1967
1967
1967
1966
1967
1968
1969
1971
1972
1973
1972
1972
1972
1972
1973
1973
1974
1974
1974
1974
1973
1973
1973
1974
1975
1976
1976
1975
1974
1973
1973
1973
1974
1974
1974
1974
1974
1975
1975
1975
1974
1973
1973
1973
1974
1975
1976
1976
1976
1976
1975
1975
1975
1974
1974
1974
1974
1975
1975
1975
1974
1974
1975
1976
1978
1979
1980
1981
1980
1980
1979
1979
1980
1980
1981
1980
1980
1979
1978
1978
1977
1976
1976
1976
1977
1978
1978
1973
1965
1958
1962
1982
2021
2070
2122
2160
2171
2147
2088
2011
1935
1883
1864
1876
1903
1931
1951
1962
1968
1972
1974
1975
1976
1976
1977
1978
1981
1983
1985
1985
1985
1985
1985
1986
1988
1990
1992
1992
1992
1993
1994
1995
1997
1999
2001
2002
2004
2007
2009
2012
2014
2017
2020
2023
2027
2032
2036
2038
2040
2041
2042
2042
2042
2040
2036
2029
2021
2011
2002
1993
1985
1978
1973
1969
1966
1964
1962
1961
1959
1958
1956
1954
1953
1953
1954
1956
1958
1959
1960
1959
1958
1957
1956
1956
1956
1957
1959
1960
1961
1962
1961
1961
1961
1961
1961
1962
1962
1963
1963
1962
1961
1961
1962
1963
1964
1965
1965
1965
1964
1963
1963
1962
1963
1963
1963
1963
1963
1962
1962
1962
1962
1962
1962
1962
1961
1961
1960
1961
1961
1961
1961
1961
1962
1963
1964
1965
1964
1963
1963
1965
1967
1968
1968
1968
1967
1966
1965
1965
1963
1962
1961
1960
1960
1962
1964
1966
1966
1961
1954
1950
1955
1977
2013
2058
2104
2138
2148
2127
2074
2002
1931
1881
1863
1875
1901
1928
1946
1955
1960
1962
1964
1964
1965
1966
1968
1971
1973
1974
1974
1973
1972
1972
1973
1974
1976
1976
1976
1976
1977
1979
1981
1983
1985
1987
1988
1989
1991
1993
1995
1998
2001
2003
2005
2009
2013
2017
2021
2024
2026
2028
2029
2029
2028
2025
2021
2015
2007
1998
1990
1982
1975
1969
1964
1960
1957
1956
1955
1954
1953
1953
1952
1952
1952
1951
1950
1950
1950
1951
1952
1952
1951
1951
1950
1951
1952
1953
1954
1955
1956
1956
1956
1956
1956
1955
1955
1956
1956
1957
1957
1956
1955
1955
1955
1956
1957
1958
1958
1958
1958
1957
1955
1955
1955
1956
1957
1958
1959
1959
1958
1958
1957
1957
1957
1958
1959
1960
1960
1960
1959
1959
1959
1960
1960
1961
1962
1963
1965
1966
1968
1968
1967
1966
1965
1964
1964
1964
1964
1965
1965
1964
1964
1964
1965
1967
1966
1963
1956
1950
1951
1966
1997
2038
2082
2124
2148
2145
2109
2046
1971
1907
1871
1869
1889
1917
1940
1954
1960
1963
1965
1965
1965
1966
1966
1968
1970
1971
1973
1974
1974
1975
1974
1974
1974
1974
1976
1977
1979
1981
1983
1984
1985
1986
1988
1989
1991
1994
1996
1998
2001
2003
2006
2008
2011
2014
2018
2021
2025
2027
2029
2030
2029
2026
2022
2017
2011
2004
1996
1988
1980
1974
1968
1964
1960
1958
1956
1954
1954
1953
1954
1954
1954
1954
1954
1954
1954
1954
1955
1955
1955
1955
1954
1954
1954
1955
1956
1957
1958
1959
1959
1959
1959
1959
1959
1959
1960
1960
1961
1961
1962
1962
1961
1960
1960
1960
1961
1963
1964
1964
1963
1961
1960
1961
1962
1963
1963
1963
1963
1964
1965
1965
1965
1964
1963
1963
1963
1964
1965
1966
1965
1965
1965
1964
1964
1966
1968
1970
1972
1973
1973
1973
1972
1971
1970
1970
1969
1968
1967
1967
1968
1968
1968
1967
1967
1968
1969
1967
1961
1954
1953
1964
1990
2031
2077
2121
2149
2150
2118
2057
1982
1916
1876
1870
1889
1917
1942
1956
1962
1965
1966
1967
1967
1967
1968
1969
1971
1972
1973
1974
1975
1975
1975
1976
1977
1979
1980
1981
1981
1981
1982
1983
1984
1985
1986
1988
1990
1992
1994
1997
1999
2003
2006
2010
2013
2016
2019
2023
2027
2030
2033
2033
2032
2030
2027
2022
2016
2009
2001
1993
1985
1977
1971
1967
1964
1962
1960
1960
1959
1958
1957
1956
1955
1954
1954
1955
1956
1957
1957
1958
1958
1957
1956
1956
1956
1957
1958
1959
1960
1960
1960
1959
1959
1959
1959
1959
1960
1962
1963
1964
1963
1962
1961
1961
1961
1962
1963
1963
1964
1964
1963
1963
1963
1963
1963
1963
1964
1964
1965
1965
1966
1965
1965
1964
1964
1964
1965
1966
1967
1967
1966
1965
1965
1965
1965
1964
1964
1964
1964
1965
1966
1967
1968
1968
1968
1969
1970
1972
1973
1974
1973
1972
1971
1970
1969
1968
1968
1968
1968
1969
1969
1969
1969
1970
1971
1968
1961
1952
1949
1958
1984
2025
2073
2119
2150
2154
2125
2066
1991
1922
1879
1868
1884
1912
1938
1954
1961
1965
1967
1967
1967
1967
1967
1968
1969
1971
1972
1972
1973
1974
1975
1976
1977
1978
1978
1979
1981
1982
1983
1984
1985
1985
1986
1987
1989
1991
1994
1998
2001
2004
2007
2010
2013
2016
2019
2021
2024
2026
2029
2031
2031
2030
2026
2020
2014
2007
2000
1994
1987
1981
1975
1969
1965
1962
1959
1958
1956
1955
1955
1955
1955
1956
1957
1958
1959
1960
1960
1961
1963
1964
1965
1964
1963
1962
1962
1964
1966
1968
1968
1968
1967
1967
1967
1966
1966
1966
1966
1967
1968
1969
1969
1968
1967
1967
1966
1966
1967
1968
1970
1971
1972
1971
1970
1969
1968
1968
1968
1969
1969
1970
1970
1970
1970
1969
1968
1968
1968
1970
1971
1971
1971
1969
1968
1968
1969
1971
1972
1972
1972
1972
1971
1970
1969
1968
1967
1967
1967
1969
1971
1972
1973
1973
1973
1972
1973
1974
1974
1975
1976
1977
1977
1976
1975
1974
1972
1971
1971
1972
1972
1973
1974
1975
1974
1971
1965
1958
1956
1966
1991
2032
2078
2123
2153
2155
2124
2063
1989
1922
1882
1874
1891
1920
1944
1959
1965
1968
1970
1971
1972
1973
1974
1976
1977
1978
1977
1976
1977
1978
1981
1983
1985
1986
1986
1985
1986
1986
1988
1989
1991
1993
1995
1996
1997
1999
2001
2004
2007
2011
2014
2016
2019
2021
2024
2027
2029
2031
2033
2034
2035
2036
2035
2032
2026
2019
2011
2003
1995
1988
1982
1978
1974
1972
1969
1967
1966
1966
1966
1966
1966
1965
1965
1964
1963
1963
1963
1964
1964
1965
1965
1964
1964
1963
1963
1965
1966
1968
1969
1970
1969
1969
1969
1969
1969
1969
1969
1969
1970
1970
1971
1971
1971
1970
1970
1969
1969
1969
1970
1971
1972
1972
1972
1971
1971
1970
1970
1971
1971
1972
1973
1973
1973
1973
1973
1973
1973
1972
1972
1972
1972
1972
1973
1973
1973
1973
1973
1974
1974
1974
1974
1974
1974
1975
1975
1975
1975
1975
1976
1977
1978
1979
1980
1981
1981
1982
1983
1984
1985
1985
1985
1985
1984
1982
1980
1978
1978
1978
1979
1980
1980
1981
1982
1983
1981
1976
1968
1964
1968
1988
2024
2068
2115
2152
2164
2145
2093
2022
1950
1899
1880
1891
1916
1942
1960
1968
1972
1976
1978
1980
1982
1982
1982
1982
1982
1983
1984
1985
1986
1987
1989
1991
1992
1992
1992
1991
1991
1993
1995
1997
2000
2001
2002
2002
2003
2005
2007
2010
2013
2016
2019
2022
2026
2029
2032
2034
2036
2038
2039
2041
2042
2040
2037
2031
2023
2015
2008
2001
1996
1991
1986
1981
1976
1973
1970
1969
1968
1968
1968
1968
1969
1969
1968
1967
1967
1966
1967
1968
1969
1970
1970
1970
1970
1970
1970
1970
1970
1969
1970
1970
1971
1972
1973
1973
1972
1971
1971
1971
1971
1972
1972
1972
1972
1971
1970
1970
1969
1970
1970
1970
1971
1971
1971
1972
1972
1971
1971
1971
1972
1972
1973
1973
1973
1973
1973
1972
1972
1971
1971
1972
1974
1975
1976
1976
1974
1973
1972
1973
1974
1974
1974
1973
1972
1972
1972
1973
1974
1976
1977
1977
1978
1979
1979
1980
1980
1981
1981
1981
1981
1980
1979
1978
1977
1976
1976
1976
1976
1978
1979
1979
1975
1967
1960
1961
1978
2012
2059
2110
2152
2170
2154
2103
2030
1953
1895
1870
1877
1902
1931
1952
1964
1969
1972
1973
1975
1975
1976
1978
1979
1981
1983
1983
1983
1982
1982
1983
1984
1987
1989
1990
1991
1992
1992
1993
1994
1995
1997
1998
2000
2002
2005
2007
2009
2010
2012
2015
2018
2022
2026
2030
2033
2035
2037
2039
2040
2039
2037
2034
2029
2024
2017
2009
2000
1992
1984
1978
1974
1971
1969
1967
1966
1965
1964
1964
1964
1963
1962
1961
1961
1961
1963
1964
1964
1964
1963
1962
1962
1962
1962
1963
1965
1966
1966
1966
1966
1965
1965
1964
1965
1966
1967
1968
1968
1968
1968
1967
1967
1968
1968
1968
1967
1967
1967
1967
1967
1967
1968
1967
1967
1966
1967
1967
1968
1968
1968
1968
1967
1967
1967
1968
1968
1969
1969
1969
1970
1970
1969
1969
1969
1970
1970
1970
1970
1969
1968
1967
1966
1966
1967
1969
1971
1973
1973
1973
1974
1974
1975
1976
1976
1975
1974
1974
1974
1974
1972
1971
1970
1970
1970
1971
1972
1973
1974
1972
1966
1958
1953
1959
1981
2020
2067
2115
2150
2157
2131
2074
2000
1929
1883
1869
1883
1911
1937
1953
1961
1964
1967
1969
1970
1971
1973
1974
1975
1976
1976
1975
1976
1977
1978
1980
1982
1982
1983
1984
1984
1984
1985
1986
1988
1990
1993
1995
1996
1997
1998
1999
2001
2004
2008
2012
2016
2020
2024
2027
2029
2031
2032
2033
2034
2033
2032
2029
2024
2017
2008
1999
1991
1984
1978
1973
1969
1966
1964
1962
1960
1959
1958
1958
1958
1958
1958
1959
1959
1959
1958
1957
1957
1957
1958
1959
1960
1960
1961
1961
1960
1960
1960
1960
1961
1962
1963
1964
1965
1964
1964
1963
1962
1963
1963
1964
1965
1965
1964
1964
1964
1964
1964
1965
1966
1967
1967
1967
1966
1965
1964
1964
1965
1966
1967
1967
1967
1967
1967
1967
1966
1965
1965
1966
1966
1967
1968
1969
1969
1968
1968
1967
1967
1967
1967
1968
1968
1968
1968
1968
1969
1969
1971
1972
1972
1973
1973
1974
1975
1976
1976
1976
1975
1974
1973
1972
1971
1971
1971
1972
1972
1972
1972
1972
1972
1969
1963
1957
1956
1969
1998
2039
2087
2131
2157
2154
2116
2050
1975
1911
1876
1873
1893
1922
1945
1959
1966
1969
1971
1972
1972
1973
1974
1974
1976
1977
1979
1980
1981
1982
1981
1981
1982
1983
1985
1986
1987
1988
1988
1989
1990
1991
1993
1995
1997
1998
2000
2002
2005
2008
2011
2014
2018
2021
2025
2028
2030
2033
2035
2036
2037
2035
2032
2027
2022
2015
2008
2001
1993
1986
1979
1974
1970
1967
1965
1965
1964
1963
1963
1962
1962
1961
1961
1960
1960
1961
1961
1962
1962
1962
1962
1961
1962
1962
1963
1963
1964
1964
1964
1965
1965
1965
1966
1966
1966
1967
1968
1968
1967
1967
1967
1968
1968
1969
1969
1969
1969
1968
1968
1968
1969
1969
1969
1970
1970
1970
1970
1970
1970
1970
1970
1970
1969
1969
1970
1971
1972
1972
1972
1972
1971
1971
1972
1972
1971
1971
1971
1972
1973
1974
1975
1975
1974
1973
1972
1972
1972
1971
1971
1972
1972
1972
1973
1974
1975
1977
1979
1981
1981
1981
1980
1978
1977
1976
1976
1975
1975
1975
1975
1975
1975
1975
1976
1976
1976
1972
1964
1957
1957
1969
1999
2041
2088
2132
2158
2155
2118
2053
1978
1914
1879
1877
1899
1927
1950
1963
1969
1971
1973
1974
1974
1974
1975
1976
1977
1979
1981
1982
1982
1982
1983
1984
1985
1987
1988
1989
1990
1991
1992
1993
1993
1993
1994
1995
1997
1999
2002
2005
2008
2011
2014
2016
2019
2021
2025
2028
2032
2035
2036
2037
2037
2036
2034
2031
2026
2019
2011
2003
1995
1989
1982
1977
1972
1969
1967
1966
1965
1964
1963
1962
1962
1962
1962
1962
1963
1963
1963
1964
1964
1963
1963
1963
1963
1963
1963
1964
1965
1966
1966
1966
1965
1965
1965
1966
1967
1968
1969
1969
1969
1968
1967
1965
1965
1965
1967
1969
1970
1971
1971
1970
1969
1968
1968
1968
1969
1970
1971
1971
1971
1970
1969
1969
1969
1969
1970
1970
1970
1971
1971
1971
1971
1971
1970
1970
1971
1971
1972
1972
1972
1972
1972
1972
1973
1973
1973
1972
1972
1971
1970
1969
1969
1970
1972
1973
1974
1976
1977
1978
1979
1980
1981
1980
1979
1979
1978
1978
1977
1976
1975
1974
1974
1974
1975
1977
1978
1979
1977
1971
1963
1958
1965
1988
2027
2073
2121
2155
2164
2139
2083
2009
1937
1890
1875
1889
1917
1943
1960
1967
1970
1972
1974
1975
1976
1976
1978
1979
1981
1982
1982
1982
1983
1983
1983
1984
1986
1987
1989
1991
1992
1993
1993
1994
1995
1996
1997
1999
2001
2004
2006
2008
2011
2013
2016
2020
2023
2027
2031
2034
2036
2038
2040
2040
2040
2039
2036
2031
2025
2018
2010
2002
1995
1988
1983
1978
1975
1973
1972
1971
1969
1968
1967
1966
1966
1966
1965
1965
1965
1966
1967
1968
1968
1968
1967
1967
1968
1968
1969
1970
1970
1970
1970
1969
1970
1970
1971
1972
1973
1974
1974
1973
1973
1973
1973
1973
1973
1973
1973
1974
1974
1974
1974
1973
1973
1973
1973
1974
1974
1974
1974
1974
1973
1972
1972
1972
1972
1973
1974
1975
1976
1976
1975
1974
1974
1974
1974
1974
1974
1974
1974
1974
1974
1974
1974
1974
1974
1975
1976
1977
1977
1978
1977
1976
1974
1973
1973
1973
1974
1975
1976
1976
1976
1976
1976
1976
1978
1980
1982
1983
1983
1982
1980
1978
1976
1975
1974
1974
1975
1976
1976
1975
1975
1976
1976
1974
1969
1962
1959
1966
1989
2027
2073
2119
2152
2160
2134
2077
2004
1934
1888
1875
1889
1916
1941
1957
1964
1967
1969
1971
1972
1973
1974
1974
1975
1976
1977
1978
1979
1980
1980
1980
1980
1980
1981
1982
1984
1985
1986
1987
1988
1988
1989
1990
1992
1994
1996
1999
2001
2004
2007
2010
2013
2016
2019
2022
2025
2029
2031
2033
2033
2033
2031
2027
2023
2017
2010
2003
1995
1987
1979
1973
1968
1965
1963
1962
1961
1960
1959
1958
1957
1957
1956
1956
1956
1956
1957
1957
1957
1957
1956
1956
1957
1957
1957
1958
1958
1959
1959
1960
1961
1961
1961
1961
1961
1961
1962
1963
1963
1964
1964
1964
1964
1964
1964
1964
1965
1965
1965
1964
1964
1963
1962
1962
1961
1961
1962
1963
1964
1965
1964
1963
1962
1961
1960
1960
1962
1964
1966
1968
1969
1969
1968
1967
1966
1966
1966
1967
1968
1968
1968
1968
1967
1967
1967
1968
1968
1969
1969
1969
1969
1969
1969
1969
1969
1969
1968
1968
1968
1968
1968
1968
1968
1969
1969
1971
1972
1973
1975
1976
1978
1978
1978
1977
1976
1975
1974
1973
1972
1972
1972
1973
1973
1974
1975
1976
1976
1972
1965
1959
1959
1974
2006
2052
2104
2149
2171
2160
2114
2043
1965
1903
1872
1874
1896
1924
1946
1959
1965
1969
1971
1973
1973
1973
1974
1975
1977
1979
1980
1981
1982
1982
1982
1982
1983
1984
1985
1986
1987
1988
1988
1989
1991
1992
1995
1997
2000
2002
2004
2006
2008
2011
2013
2016
2020
2024
2027
2031
2034
2037
2039
2041
2042
2041
2040
2037
2033
2027
2019
2011
2002
1994
1988
1982
1978
1975
1972
1971
1970
1969
1969
1968
1967
1966
1966
1965
1965
1966
1966
1966
1967
1967
1968
1967
1967
1967
1967
1968
1969
1970
1970
1970
1970
1970
1970
1971
1972
1973
1974
1974
1974
1973
1973
1973
1973
1974
1974
1975
1976
1975
1974
1973
1972
1972
1972
1972
1973
1973
1973
1973
1973
1972
1973
1973
1974
1975
1976
1976
1976
1975
1975
1975
1974
1973
1973
1973
1973
1974
1975
1976
1977
1977
1977
1977
1976
1975
1975
1976
1977
1977
1976
1975
1974
1973
1973
1974
1976
1977
1978
1979
1980
1980
1981
1981
1981
1981
1980
1979
1978
1977
1977
1977
1976
1976
1976
1977
1979
1980
1980
1977
1971
1962
1959
1969
1997
2040
2090
2139
2171
2172
2138
2073
1996
1926
1883
1873
1890
1917
1942
1957
1963
1966
1969
1972
1974
1975
1977
1978
1979
1980
1980
1981
1982
1982
1983
1983
1984
1985
1987
1988
1990
1991
1992
1992
1993
1994
1996
1997
1999
2001
2003
2005
2007
2009
2012
2016
2020
2025
2029
2033
2036
2038
2040
2041
2042
2043
2042
2039
2034
2026
2017
2007
1997
1989
1982
1976
1972
1969
1967
1965
1964
1962
1961
1960
1960
1960
1960
1960
1960
1961
1961
1961
1960
1960
1960
1960
1961
1962
1962
1963
1963
1962
1962
1962
1962
1962
1962
1962
1962
1962
1962
1963
1962
1961
1960
1960
1959
1959
1960
1960
1960
1960
1960
1960
1960
1960
1960
1960
1961
1962
1963
1962
1961
1960
1960
1960
1961
1962
1963
1963
1963
1963
1962
1962
1962
1963
1963
1964
1964
1965
1965
1964
1964
1964
1965
1966
1967
1967
1966
1965
1964
1964
1965
1966
1967
1968
1968
1969
1970
1972
1973
1974
1975
1974
1973
1972
1972
1971
1971
1971
1971
1970
1970
1970
1970
1970
1972
1972
1970
1964
1957
1956
1966
1994
2037
2087
2136
2167
2168
2134
2069
1990
1919
1876
1867
1884
1912
1938
1953
1960
1963
1966
1968
1969
1970
1971
1972
1973
1974
1974
1975
1976
1976
1976
1977
1978
1979
1980
1982
1984
1984
1985
1985
1986
1987
1989
1992
1994
1997
1999
2002
2004
2007
2011
2014
2018
2022
2027
2031
2034
2037
2039
2040
2041
2041
2039
2035
2029
2022
2013
2003
1994
1985
1977
1971
1967
1964
1963
1962
1961
1960
1959
1957
1957
1956
1956
1957
1957
1957
1957
1957
1955
1954
1954
1954
1955
1956
1957
1958
1958
1958
1959
1959
1959
1960
1960
1961
1962
1963
1964
1964
1964
1964
1963
1963
1964
1965
1965
1965
1965
1965
1965
1964
1964
1964
1964
1965
1966
1966
1966
1965
1965
1964
1964
1965
1965
1966
1966
1967
1966
1966
1966
1965
1965
1966
1966
1967
1967
1968
1968
1968
1967
1967
1966
1966
1967
1968
1969
1969
1970
1970
1970
1970
1970
1969
1969
1968
1968
1967
1967
1968
1969
1970
1971
1971
1971
1972
1973
1974
1976
1977
1977
1976
1975
1973
1972
1972
1972
1972
1972
1973
1972
1972
1971
1972
1972
1972
1970
1964
1958
1957
1968
1994
2034
2080
2126
2158
2166
2140
2083
2009
1936
1888
1873
1886
1913
1937
1953
1960
1965
1968
1970
1971
1971
1971
1971
1972
1974
1975
1977
1977
1978
1978
1978
1979
1980
1981
1983
1984
1985
1985
1986
1986
1987
1989
1991
1993
1995
1997
1999
2001
2004
2007
2010
2013
2016
2019
2023
2027
2031
2034
2035
2036
2035
2033
2030
2025
2019
2012
2004
1995
1986
1978
1972
1968
1965
1963
1961
1959
1957
1956
1956
1956
1956
1956
1956
1956
1956
1956
1956
1956
1956
1956
1957
1957
1957
1958
1958
1959
1959
1959
1959
1959
1959
1959
1959
1960
1961
1962
1963
1963
1963
1962
1963
1963
1964
1964
1965
1965
1965
1965
1964
1963
1963
1963
1963
1964
1965
1965
1965
1965
1965
1964
1964
1964
1964
1965
1966
1966
1966
1966
1966
1966
1966
1966
1967
1967
1968
1968
1968
1968
1968
1967
1967
1967
1968
1969
1969
1969
1969
1969
1969
1969
1969
1970
1971
1972
1973
1973
1972
1972
1972
1972
1972
1972
1972
1972
1973
1973
1973
1973
1973
1972
1971
1971
1971
1972
1973
1974
1975
1975
1975
1975
1976
1976
1978
1979
1980
1981
1982
1982
1982
1982
1980
1979
1978
1978
1979
1980
1981
1981
1981
1980
1975
1968
1963
1966
1981
2012
2052
2098
2141
2170
2174
2145
2084
2008
1939
1898
1890
1908
1934
1955
1967
1972
1975
1977
1978
1979
1979
1979
1980
1981
1982
1982
1983
1984
1985
1986
1987
1988
1989
1989
1989
1990
1991
1992
1994
1995
1996
1997
1998
1998
2000
2001
2004
2006
2010
2013
2017
2020
2023
2027
2030
2032
2034
2036
2038
2040
2042
2041
2039
2034
2027
2019
2012
2004
1997
1990
1984
1979
1974
1970
1968
1966
1966
1967
1968
1968
1968
1968
1968
1967
1967
1966
1966
1965
1965
1965
1965
1965
1966
1967
1969
1969
1970
1970
1969
1969
1968
1968
1969
1969
1970
1970
1971
1971
1971
1971
1972
1972
1972
1972
1973
1973
1973
1973
1973
1973
1973
1973
1973
1973
1974
1974
1975
1976
1976
1976
1976
1975
1975
1974
1974
1975
1975
1976
1976
1977
1978
1978
1978
1978
1978
1978
1978
1978
1978
1978
1977
1977
1978
1978
1977
1977
1977
1978
1979
1980
1981
1981
1980
1979
1979
1978
1979
1979
1979
1980
1980
1980
1980
1980
1980
1980
1981
1982
1983
1983
1982
1981
1980
1980
1980
1980
1980
1980
1980
1980
1980
1980
1981
1981
1981
1982
1983
1984
1985
1987
1987
1987
1986
1985
1984
1983
1983
1983
1983
1984
1983
1983
1982
1981
1981
1982
1982
1981
1976
1970
1968
1976
1998
2035
2078
2124
2161
2177
2162
2112
2040
1965
1910
1887
1896
1921
1946
1963
1971
1974
1977
1979
1979
1979
1978
1978
1979
1981
1984
1985
1987
1987
1987
1987
1987
1987
1988
1989
1991
1992
1993
1994
1994
1994
1996
1998
2000
2003
2005
2007
2009
2011
2014
2016
2019
2022
2026
2030
2034
2037
2040
2042
2044
2044
2044
2043
2039
2035
2028
2021
2013
2005
1997
1990
1984
1979
1975
1973
1971
1970
1969
1968
1967
1966
1966
1966
1966
1967
1968
1968
1968
1968
1968
1968
1968
1969
1969
1968
1967
1966
1966
1968
1970
1972
1973
1973
1972
1971
1970
1971
1972
1972
1972
1971
1971
1971
1971
1971
1973
1974
1976
1976
1976
1974
1972
1971
1970
1971
1972
1973
1973
1973
1972
1971
1971
1971
1971
1972
1973
1973
1973
1973
1972
1971
1971
1970
1970
1970
1970
1970
1970
1970
1970
1970
1969
1968
1967
1967
1967
1967
1968
1969
1968
1968
1967
1966
1966
1966
1968
1970
1971
1971
1969
1967
1965
1965
1966
1969
1971
1972
1972
1972
1972
1973
1973
1974
1976
1977
1978
1979
1979
1978
1977
1975
1974
1973
1972
1972
1972
1972
1973
1973
1974
1974
1972
1968
1961
1956
1957
1973
2006
2049
2099
2143
2167
2160
2118
2048
1971
1907
1873
1873
1894
1923
1946
1958
1963
1966
1967
1968
1969
1970
1973
1975
1976
1977
1976
1977
1978
1980
1981
1981
1980
1979
1978
1979
1981
1983
1985
1987
1988
1989
1989
1989
1990
1991
1993
1995
1998
1999
2001
2002
2004
2007
2011
2015
2019
2022
2025
2026
2027
2027
2026
2024
2020
2014
2006
1998
1988
1980
1973
1967
1963
1961
1959
1958
1957
1957
1957
1957
1957
1956
1955
1954
1954
1955
1958
1961
1962
1963
1962
1961
1961
1961
1962
1962
1963
1963
1964
1964
1963
1963
1964
1965
1967
1969
1971
1973
1974
1976
1977
1978
1978
1977
1977
1976
1977
1978
1979
1980
1980
1979
1977
1976
1976
1976
1977
1978
1980
1980
1981
1981
1980
1980
1979
1978
1978
1978
1979
1980
1982
1983
1983
1982
1981
1980
1980
1981
1982
1983
1984
1984
1984
1983
1983
1984
1985
1986
1986
1986
1985
1984
1983
1983
1983
1984
1986
1987
1988
1989
1989
1989
1990
1991
1991
1990
1988
1986
1985
1985
1985
1986
1986
1985
1984
1983
1983
1984
1986
1986
1983
1976
1969
1968
1981
2010
2050
2098
2143
2171
2170
2135
2069
1992
1924
1885
1881
1902
1932
1955
1968
1973
1975
1976
1978
1978
1979
1979
1981
1984
1987
1990
1992
1992
1991
1990
1990
1989
1990
1991
1992
1994
1995
1996
1996
1995
1994
1995
1997
2001
2006
2009
2012
2014
2016
2020
2025
2030
2034
2035
2037
2037
2038
2038
2038
2037
2037
2036
2033
2028
2022
2013
2004
1995
1987
1980
1973
1967
1962
1960
1959
1959
1959
1958
1957
1955
1953
1952
1953
1954
1956
1957
1957
1956
1955
1954
1955
1956
1957
1957
1957
1957
1958
1957
1957
1956
1955
1956
1958
1959
1959
1958
1957
1956
1956
1956
1956
1956
1956
1956
1957
1958
1958
1956
1954
1953
1954
1954
1955
1954
1954
1953
1954
1955
1955
1956
1957
1958
1959
1960
1960
1960
1959
1958
1957
1957
1957
1958
1958
1958
1958
1959
1959
1958
1957
1956
1955
1956
1959
1962
1964
1965
1964
1963
1962
1963
1964
1965
1966
1967
1967
1966
1964
1962
1961
1961
1962
1964
1965
1965
1966
1967
1967
1965
1960
1953
1948
1951
1970
2006
2051
2100
2140
2156
2140
2092
2021
1947
1891
1867
1874
1898
1925
1944
1954
1958
1960
1962
1964
1965
1967
1967
1967
1968
1969
1971
1973
1975
1977
1977
1978
1979
1980
1981
1982
1983
1983
1984
1985
1986
1987
1989
1990
1991
1993
1994
1997
2000
2004
2009
2014
2017
2020
2023
2025
2028
2031
2035
2038
2039
2039
2036
2031
2025
2017
2008
1999
1991
1984
1977
1972
1968
1965
1963
1962
1961
1960
1959
1958
1958
1958
1958
1958
1958
1959
1959
1959
1958
1958
1958
1959
1960
1961
1962
1962
1962
1962
1963
1964
1964
1965
1965
1964
1964
1964
1964
1965
1966
1968
1968
1969
1968
1968
1968
1968
1968
1968
1969
1970
1970
1971
1971
1970
1970
1969
1969
1970
1971
1971
1971
1971
1970
1970
1970
1970
1969
1969
1970
1971
1972
1974
1974
1974
1973
1973
1974
1975
1976
1978
1979
1979
1978
1977
1976
1975
1975
1975
1975
1976
1976
1976
1976
1976
1977
1977
1976
1973
1967
1960
1957
1964
1989
2031
2084
2136
2171
2173
2136
2068
1987
1915
1873
1865
1882
1909
1933
1948
1956
1962
1967
1971
1974
1975
1976
1976
1976
1976
1978
1980
1981
1982
1982
1982
1981
1982
1984
1986
1988
1989
1989
1990
1991
1992
1993
1994
1996
1998
2000
2003
2007
2010
2014
2017
2020
2023
2026
2030
2033
2037
2040
2041
2042
2041
2039
2035
2030
2023
2015
2006
1996
1986
1977
1970
1965
1961
1959
1958
1958
1958
1958
1957
1955
1954
1953
1952
1952
1953
1954
1954
1955
1956
1956
1955
1954
1953
1953
1954
1955
1956
1957
1957
1956
1956
1956
1957
1958
1960
1961
1962
1962
1962
1962
1961
1962
1962
1963
1963
1964
1964
1964
1964
1964
1965
1965
1965
1964
1963
1964
1965
1967
1969
1969
1968
1967
1965
1965
1965
1966
1967
1968
1969
1969
1969
1969
1969
1971
1972
1974
1975
1975
1974
1973
1972
1971
1970
1968
1967
1967
1968
1969
1972
1974
1974
1972
1967
1960
1956
1961
1980
2016
2060
2107
2145
2160
2144
2095
2025
1950
1895
1872
1880
1905
1932
1952
1961
1965
1968
1970
1971
1972
1973
1974
1974
1974
1974
1974
1974
1975
1977
1979
1979
1979
1978
1977
1978
1980
1982
1985
1986
1987
1988
1989
1990
1992
1994
1997
2000
2003
2006
2009
2012
2015
2019
2022
2025
2028
2031
2033
2034
2034
2033
2029
2024
2017
2008
1999
1991
1984
1977
1971
1967
1963
1961
1960
1959
1959
1959
1958
1958
1958
1958
1957
1957
1956
1955
1955
1954
1955
1955
1956
1956
1957
1957
1958
1959
1960
1961
1961
1962
1962
1962
1961
1961
1961
1962
1962
1962
1963
1963
1963
1963
1963
1963
1964
1964
1964
1964
1964
1965
1965
1966
1966
1965
1963
1962
1961
1963
1965
1967
1968
1967
1966
1965
1964
1964
1965
1966
1967
1968
1969
1970
1970
1970
1971
1972
1973
1975
1976
1977
1976
1974
1972
1970
1969
1970
1971
1972
1973
1974
1975
1975
1971
1964
1957
1955
1967
1996
2039
2088
2134
2162
2162
2127
2063
1988
1921
1882
1877
1897
1925
1947
1958
1963
1966
1969
1972
1975
1976
1976
1976
1976
1977
1977
1978
1979
1980
1982
1983
1984
1985
1987
1988
1989
1989
1990
1991
1992
1994
1996
1998
2000
2001
2002
2004
2006
2009
2012
2017
2022
2026
2030
2034
2036
2039
2040
2040
2040
2039
2037
2033
2028
2021
2013
2004
1996
1988
1982
1978
1975
1973
1970
1968
1966
1965
1964
1964
1965
1965
1966
1966
1966
1965
1965
1965
1965
1966
1966
1967
1968
1968
1967
1967
1967
1967
1969
1970
1971
1972
1972
1971
1970
1970
1970
1970
1970
1971
1971
1972
1973
1974
1974
1973
1972
1972
1972
1972
1973
1973
1974
1975
1975
1974
1973
1973
1973
1974
1975
1977
1977
1977
1975
1974
1973
1973
1975
1976
1978
1979
1980
1981
1982
1982
1982
1982
1981
1982
1983
1983
1984
1984
1983
1982
1980
1979
1978
1978
1978
1979
1982
1985
1986
1982
1974
1966
1966
1982
2015
2060
2109
2151
2172
2163
2120
2051
1977
1917
1887
1889
1912
1940
1961
1972
1976
1978
1979
1980
1981
1983
1984
1984
1984
1984
1984
1984
1985
1985
1986
1985
1985
1985
1986
1987
1988
1989
1989
1990
1992
1995
1998
2000
2001
2002
2002
2004
2007
2010
2014
2018
2022
2026
2029
2032
2033
2034
2034
2034
2034
2032
2030
2026
2020
2012
2003
1993
1985
1978
1972
1968
1964
1962
1960
1959
1958
1957
1956
1956
1955
1955
1954
1954
1955
1955
1955
1955
1954
1953
1952
1952
1953
1955
1956
1956
1956
1954
1953
1952
1953
1954
1955
1956
1956
1956
1956
1957
1957
1957
1958
1958
1958
1958
1958
1958
1958
1959
1959
1959
1960
1960
1960
1961
1961
1961
1960
1959
1958
1957
1957
1958
1958
1958
1958
1959
1960
1960
1959
1958
1957
1957
1958
1959
1961
1961
1961
1961
1961
1962
1964
1966
1967
1967
1965
1964
1963
1962
1961
1960
1959
1958
1958
1959
1961
1963
1965
1965
1962
1956
1948
1944
1951
1973
2011
2056
2103
2138
2150
2130
2079
2009
1938
1888
1868
1877
1902
1929
1947
1956
1960
1963
1965
1966
1967
1969
1970
1971
1972
1972
1972
1972
1972
1974
1976
1979
1981
1981
1981
1981
1982
1984
1987
1990
1993
1995
1997
1997
1998
1999
2001
2006
2012
2017
2021
2023
2023
2024
2025
2028
2031
2035
2039
2042
2044
2044
2041
2036
2029
2020
2010
2000
1991
1983
1978
1975
1972
1969
1966
1965
1965
1966
1966
1966
1965
1965
1966
1967
1967
1968
1970
1973
1975
1977
1977
1975
1972
1972
1972
1974
1975
1976
1977
1978
1979
1980
1980
1980
1980
1980
1982
1983
1984
1984
1983
1983
1984
1986
1988
1989
1989
1988
1988
1987
1988
1988
1989
1990
1991
1990
1990
1989
1989
1988
1988
1988
1989
1990
1992
1993
1994
1994
1994
1993
1992
1992
1992
1992
1992
1994
1995
1996
1996
1995
1994
1994
1995
1997
1998
1998
1996
1993
1990
1988
1986
1985
1984
1983
1983
1984
1985
1987
1987
1985
1980
1972
1968
1971
1990
2025
2070
2119
2157
2170
2150
2096
2023
1950
1898
1877
1885
1908
1934
1955
1968
1976
1982
1984
1985
1985
1984
1984
1984
1984
1984
1986
1988
1989
1990
1989
1987
1985
1985
1985
1986
1988
1989
1989
1988
1988
1989
1991
1994
1996
1999
2001
2002
2004
2007
2010
2013
2017
2020
2023
2027
2030
2033
2035
2036
2037
2036
2034
2030
2024
2016
2006
1997
1988
1980
1972
1966
1961
1957
1954
1953
1952
1951
1950
1949
1947
1946
1945
1945
1947
1948
1950
1950
1949
1948
1947
1947
1948
1950
1952
1954
1956
1956
1957
1958
1958
1959
1960
1961
1961
1961
1962
1963
1965
1965
1966
1966
1966
1966
1967
1967
1967
1968
1968
1968
1968
1969
1970
1970
1970
1969
1970
1970
1971
1972
1972
1973
1973
1973
1973
1972
1972
1972
1972
1973
1974
1975
1976
1976
1977
1977
1978
1978
1979
1980
1980
1980
1979
1979
1978
1977
1977
1976
1975
1975
1974
1973
1973
1974
1976
1977
1976
1970
1962
1958
1964
1989
2032
2084
2136
2169
2170
2133
2065
1984
1914
1872
1866
1885
1915
1941
1956
1963
1966
1969
1971
1972
1972
1973
1974
1976
1977
1979
1979
1980
1980
1980
1980
1980
1981
1982
1983
1984
1984
1985
1985
1987
1989
1992
1994
1996
1998
2000
2002
2005
2008
2012
2015
2019
2022
2026
2029
2032
2035
2037
2038
2039
2039
2037
2033
2027
2019
2010
2000
1991
1982
1976
1972
1970
1968
1966
1963
1960
1957
1955
1954
1954
1955
1955
1954
1953
1953
1953
1954
1954
1955
1955
1955
1956
1958
1959
1960
1959
1958
1957
1957
1958
1960
1962
1964
1966
1966
1966
1964
1962
1961
1961
1960
1960
1960
1960
1962
1965
1967
1969
1969
1969
1969
1970
1970
1969
1969
1968
1967
1966
1964
1964
1964
1965
1966
1968
1970
1970
1969
1968
1967
1968
1970
1973
1976
1978
1978
1976
1974
1972
1970
1970
1970
1971
1971
1972
1971
1971
1971
1972
1971
1966
1960
1957
1965
1991
2034
2085
2134
2165
2166
2129
2062
1983
1912
1870
1861
1880
1910
1936
1953
1961
1966
1970
1973
1975
1976
1977
1978
1978
1978
1979
1979
1980
1981
1983
1985
1986
1986
1986
1986
1988
1990
1992
1994
1995
1996
1997
1999
2000
2002
2003
2005
2008
2012
2016
2021
2025
2028
2031
2034
2036
2038
2040
2042
2042
2041
2038
2033
2026
2018
2009
2001
1993
1986
1979
1973
1968
1964
1961
1959
1958
1958
1958
1958
1959
1959
1958
1957
1957
1957
1958
1958
1958
1958
1958
1959
1959
1959
1959
1959
1959
1959
1961
1962
1963
1963
1963
1963
1963
1962
1962
1963
1964
1964
1965
1964
1963
1962
1961
1962
1963
1964
1966
1966
1967
1968
1968
1968
1967
1966
1966
1965
1966
1966
1966
1965
1965
1965
1965
1965
1965
1966
1968
1969
1971
1972
1972
1971
1971
1970
1970
1971
1971
1970
1969
1968
1968
1969
1969
1970
1970
1971
1971
1968
1961
1952
1947
1953
1976
2015
2062
2109
2145
2154
2130
2074
2000
1927
1878
1862
1876
1904
1932
1951
1960
1963
1965
1966
1967
1968
1970
1973
1975
1976
1977
1977
1977
1976
1977
1979
1981
1983
1985
1986
1987
1987
1987
1988
1990
1991
1993
1995
1996
1998
2000
2003
2006
2008
2010
2013
2017
2022
2027
2032
2036
2038
2039
2039
2038
2036
2034
2030
2025
2018
2010
2001
1992
1985
1979
1975
1971
1968
1966
1965
1964
1964
1964
1964
1964
1963
1962
1962
1963
1964
1965
1965
1965
1964
1964
1964
1965
1965
1965
1965
1966
1966
1967
1967
1966
1966
1966
1967
1968
1969
1969
1968
1968
1968
1969
1971
1972
1972
1972
1971
1971
1970
1969
1969
1968
1968
1969
1971
1972
1972
1972
1972
1972
1971
1970
1969
1968
1969
1971
1974
1975
1976
1975
1974
1974
1975
1976
1978
1979
1980
1980
1980
1979
1977
1974
1973
1972
1972
1973
1974
1975
1976
1977
1978
1977
1973
1967
1961
1960
1973
2001
2044
2092
2138
2167
2167
2132
2068
1991
1924
1884
1878
1896
1924
1948
1962
1968
1972
1974
1976
1977
1978
1979
1979
1979
1980
1980
1981
1983
1984
1986
1986
1986
1986
1986
1988
1990
1992
1994
1995
1995
1996
1997
1998
1999
2000
2002
2006
2009
2013
2017
2020
2022
2025
2028
2032
2036
2040
2043
2045
2044
2042
2038
2033
2026
2018
2010
2001
1994
1987
1981
1976
1972
1968
1966
1964
1963
1963
1963
1962
1962
1962
1963
1965
1964
1963
1961
1960
1960
1962
1965
1966
1966
1966
1965
1966
1968
1970
1971
1970
1968
1966
1965
1965
1966
1966
1967
1968
1969
1969
1969
1967
1966
1965
1965
1966
1968
1969
1970
1971
1973
1973
1973
1973
1972
1971
1971
1972
1973
1974
1975
1974
1972
1970
1968
1968
1968
1969
1970
1969
1968
1967
1968
1969
1972
1973
1974
1975
1975
1976
1976
1976
1975
1974
1973
1973
1973
1974
1975
1975
1976
1976
1975
1972
1965
1957
1955
1965
1992
2033
2081
2128
2161
2167
2139
2080
2004
1932
1885
1872
1886
1913
1938
1953
1960
1964
1968
1972
1974
1975
1975
1975
1976
1976
1976
1976
1976
1977
1978
1980
1982
1983
1984
1984
1985
1985
1987
1988
1990
1992
1994
1996
1999
2001
2003
2006
2008
2011
2015
2019
2024
2028
2030
2033
2034
2036
2038
2040
2042
2043
2041
2037
2030
2022
2013
2004
1996
1989
1984
1979
1975
1972
1970
1967
1965
1964
1964
1965
1966
1968
1969
1970
1969
1968
1966
1966
1966
1968
1969
1971
1972
1972
1972
1971
1971
1971
1972
1973
1974
1974
1974
1974
1974
1974
1974
1973
1972
1972
1973
1975
1976
1977
1977
1976
1975
1974
1975
1977
1978
1979
1979
1978
1978
1977
1976
1976
1977
1978
1980
1980
1979
1978
1977
1976
1976
1977
1977
1978
1979
1981
1982
1983
1984
1985
1987
1988
1988
1988
1987
1987
1987
1986
1985
1983
1982
1981
1982
1983
1983
1983
1983
1984
1983
1979
1972
1966
1969
1987
2024
2072
2125
2167
2183
2165
2111
2035
1958
1902
1879
1887
1913
1941
1961
1970
1974
1977
1979
1981
1983
1984
1986
1987
1989
1990
1991
1992
1993
1993
1994
1995
1996
1997
1998
1999
2000
2001
2001
2003
2005
2006
2007
2008
2009
2011
2014
2018
2021
2025
2028
2032
2036
2040
2043
2045
2046
2047
2047
2048
2049
2049
2047
2041
2033
2023
2014
2005
1998
1992
1987
1984
1981
1978
1977
1975
1974
1973
1973
1973
1973
1973
1973
1973
1973
1972
1972
1972
1971
1972
1972
1974
1976
1977
1977
1977
1976
1976
1976
1976
1977
1978
1979
1980
1979
1979
1979
1979
1980
1981
1981
1982
1982
1982
1982
1982
1981
1980
1980
1980
1980
1981
1982
1981
1980
1979
1979
1979
1980
1981
1982
1982
1981
1979
1979
1978
1978
1979
1980
1982
1983
1984
1984
1984
1985
1985
1985
1985
1985
1985
1984
1984
1983
1982
1980
1980
1980
1981
1982
1983
1984
1984
1984
1981
1975
1967
1963
1969
1994
2036
2087
2140
2177
2183
2152
2087
2006
1931
1883
1870
1885
1913
1939
1955
1963
1966
1969
1971
1972
1973
1974
1975
1976
1977
1977
1977
1976
1976
1977
1978
1979
1980
1981
1983
1984
1984
1983
1982
1981
1982
1984
1986
1988
1989
1991
1994
1997
2002
2007
2012
2017
2023
2027
2030
2032
2033
2035
2037
2039
2039
2037
2032
2025
2017
2008
2000
1992
1985
1979
1973
1969
1965
1962
1960
1958
1957
1957
1958
1960
1961
1961
1959
1956
1954
1952
1953
1955
1957
1958
1959
1959
1959
1960
1961
1963
1965
1966
1967
1968
1968
1968
1968
1969
1968
1968
1967
1966
1967
1968
1970
1972
1973
1973
1972
1972
1972
1972
1972
1971
1971
1971
1971
1972
1973
1974
1975
1976
1978
1979
1981
1981
1982
1981
1981
1981
1981
1982
1983
1983
1982
1981
1981
1982
1983
1984
1984
1984
1984
1984
1984
1983
1982
1981
1980
1979
1978
1977
1975
1974
1975
1977
1980
1978
1972
1964
1959
1966
1988
2026
2071
2120
2160
2176
2159
2106
2029
1951
1896
1877
1890
1920
1950
1970
1979
1982
1983
1982
1981
1982
1984
1986
1988
1989
1991
1993
1995
1997
1999
2001
2002
2003
2003
2003
2004
2005
2007
2010
2011
2010
2008
2007
2009
2012
2017
2021
2024
2027
2029
2032
2035
2039
2044
2048
2051
2053
2054
2054
2052
2051
2050
2048
2044
2036
2027
2019
2012
2006
2000
1994
1989
1987
1987
1987
1988
1987
1985
1981
1977
1974
1974
1977
1982
1985
1987
1986
1983
1981
1981
1984
1987
1990
1993
1993
1992
1989
1987
1986
1987
1988
1989
1990
1991
1993
1995
1996
1996
1996
1996
1996
1997
1999
2002
2005
2007
2006
2005
2003
2004
2006
2009
2012
2014
2015
2015
2015
2014
2013
2013
2015
2018
2024
2029
2032
2032
2031
2030
2029
2030
2030
2030
2030
2030
2031
2033
2033
2033
2031
2030
2031
2033
2035
2036
2034
2033
2032
2033
2033
2031
2028
2024
2020
2020
2021
2022
2022
2021
2019
2017
2013
2009
2007
2013
2033
2068
2113
2160
2198
2211
2190
2136
2061
1986
1932
1912
1922
1950
1978
1997
2005
2008
2011
2014
2017
2020
2023
2025
2026
2026
2024
2024
2024
2027
2031
2033
2034
2031
2027
2025
2026
2028
2031
2032
2033
2032
2033
2035
2036
2037
2037
2037
2039
2043
2048
2052
2056
2057
2057
2058
2060
2064
2068
2071
2072
2070
2066
2062
2056
2048
2040
2031
2023
2018
2014
2010
2005
1998
1992
1988
1987
1987
1988
1989
1989
1989
1987
1985
1984
1985
1985
1986
1986
1985
1985
1984
1985
1985
1985
1986
1986
1987
1987
1987
1986
1986
1987
1988
1988
1988
1989
1989
1991
1993
1994
1994
1993
1993
1991
1990
1989
1988
1987
1987
1988
1990
1990
1991
1991
1992
1992
1991
1990
1989
1988
1989
1989
1990
1990
1991
1993
1995
1999
2001
2001
2002
2002
2002
2003
2004
2004
2006
2009
2013
2018
2022
2023
2022
2022
2022
2024
2026
2029
2030
2032
2032
2033
2032
2031
2030
2030
2031
2033
2035
2036
2037
2037
2033
2028
2021
2019
2027
2050
2089
2138
2189
2229
2243
2224
2172
2099
2027
1977
1959
1968
1991
2014
2030
2038
2043
2047
2049
2050
2050
2049
2049
2050
2052
2053
2054
2053
2053
2052
2052
2051
2049
2048
2046
2045
2044
2043
2043
2043
2043
2043
2044
2046
2048
2048
2049
2048
2048
2047
2047
2048
2049
2052
2054
2057
2060
2064
2067
2069
2070
2068
2064
2058
2050
2043
2034
2026
2019
2013
2008
2004
1999
1995
1992
1990
1989
1989
1990
1990
1990
1989
1988
1986
1985
1985
1985
1986
1986
1986
1986
1987
1988
1988
1988
1988
1988
1988
1990
1990
1991
1991
1990
1991
1991
1992
1993
1993
1993
1992
1991
1990
1988
1986
1986
1985
1986
1986
1987
1988
1988
1988
1988
1987
1987
1986
1986
1987
1987
1988
1989
1989
1989
1989
1989
1989
1989
1990
1990
1990
1989
1988
1987
1985
1984
1984
1985
1986
1987
1989
1990
1990
1991
1991
1992
1992
1992
1991
1989
1988
1987
1986
1986
1986
1986
1986
1987
1987
1987
1987
1986
1983
1978
1970
1963
1964
1979
2011
2055
2105
2146
2161
2143
2091
2018
1945
1893
1874
1884
1910
1936
1954
1962
1965
1967
1968
1970
1970
1970
1971
1972
1974
1976
1977
1978
1978
1979
1979
1980
1981
1982
1982
1982
1984
1985
1987
1987
1987
1988
1990
1992
1995
1997
1999
2001
2002
2004
2007
2011
2015
2020
2024
2027
2028
2030
2031
2033
2034
2035
2033
2028
2022
2016
2009
2002
1996
1989
1983
1979
1976
1973
1972
1971
1971
1971
1971
1971
1969
1968
1968
1968
1970
1971
1972
1972
1971
1971
1972
1973
1974
1975
1976
1975
1974
1973
1972
1973
1974
1977
1979
1979
1979
1978
1976
1976
1976
1977
1978
1979
1979
1979
1979
1978
1978
1978
1978
1978
1977
1977
1977
1978
1977
1977
1976
1975
1976
1977
1979
1980
1980
1979
1978
1978
1978
1979
1979
1979
1979
1979
1979
1979
1979
1979
1979
1979
1980
1980
1981
1983
1984
1985
1986
1986
1985
1984
1982
1980
1979
1978
1978
1978
1978
1978
1978
1978
1980
1982
1982
1979
1972
1965
1963
1974
2003
2046
2096
2141
2164
2156
2113
2047
1975
1918
1890
1890
1910
1935
1955
1968
1974
1978
1981
1982
1982
1982
1982
1983
1984
1986
1988
1990
1991
1992
1992
1992
1992
1991
1992
1994
1995
1997
1998
2000
2000
2001
2002
2003
2004
2006
2008
2011
2014
2016
2019
2022
2026
2029
2032
2035
2038
2040
2042
2043
2043
2041
2039
2035
2030
2024
2018
2011
2004
1996
1989
1982
1977
1974
1972
1971
1971
1970
1968
1967
1966
1966
1967
1968
1968
1969
1970
1970
1970
1970
1970
1970
1971
1972
1973
1974
1974
1974
1974
1974
1974
1974
1975
1976
1978
1979
1979
1980
1980
1981
1981
1981
1980
1979
1978
1978
1978
1979
1980
1981
1980
1980
1979
1979
1978
1978
1979
1980
1980
1980
1980
1980
1980
1980
1980
1980
1980
1979
1979
1980
1980
1981
1982
1982
1981
1981
1982
1983
1984
1985
1986
1986
1984
1983
1981
1980
1979
1979
1979
1980
1980
1980
1980
1980
1980
1977
1972
1966
1963
1970
1995
2036
2088
2140
2172
2170
2129
2058
1979
1914
1879
1876
1895
1922
1944
1958
1965
1969
1972
1974
1975
1976
1977
1978
1979
1982
1984
1985
1986
1985
1983
1982
1982
1983
1985
1988
1991
1993
1995
1995
1996
1996
1997
1998
2001
2004
2008
2012
2016
2018
2020
2023
2025
2028
2032
2035
2038
2041
2043
2044
2044
2043
2041
2036
2030
2023
2014
2005
1996
1988
1981
1976
1971
1968
1965
1963
1962
1962
1962
1961
1960
1959
1959
1959
1960
1960
1961
1961
1961
1961
1961
1961
1961
1961
1961
1962
1962
1963
1963
1962
1962
1962
1962
1962
1963
1963
1963
1963
1964
1965
1966
1966
1966
1965
1965
1965
1966
1966
1966
1965
1965
1965
1965
1966
1966
1967
1968
1967
1967
1965
1964
1964
1965
1967
1968
1968
1969
1969
1970
1972
1973
1973
1972
1971
1971
1970
1970
1970
1969
1968
1967
1966
1966
1965
1966
1968
1970
1970
1968
1961
1953
1950
1961
1992
2039
2093
2143
2169
2159
2111
2037
1958
1898
1869
1871
1893
1920
1940
1952
1959
1964
1968
1971
1972
1973
1974
1977
1979
1981
1982
1982
1982
1982
1982
1982
1983
1985
1987
1989
1990
1990
1990
1991
1992
1994
1996
1998
1999
2000
2002
2004
2007
2011
2015
2019
2023
2028
2032
2036
2038
2039
2040
2040
2040
2039
2038
2034
2027
2018
2009
1999
1991
1984
1978
1974
1970
1967
1965
1964
1964
1964
1964
1963
1962
1961
1961
1961
1962
1963
1963
1964
1963
1962
1962
1961
1962
1963
1964
1965
1965
1964
1964
1964
1965
1965
1966
1967
1966
1966
1966
1966
1967
1967
1967
1967
1968
1968
1968
1968
1967
1966
1966
1965
1965
1966
1966
1967
1968
1968
1968
1966
1965
1964
1965
1966
1967
1968
1968
1968
1967
1967
1968
1969
1970
1971
1971
1971
1970
1968
1966
1964
1963
1962
1963
1964
1965
1967
1968
1968
1965
1959
1951
1945
1947
1966
2001
2048
2097
2137
2153
2136
2085
2014
1941
1887
1866
1874
1899
1924
1943
1951
1956
1959
1961
1963
1964
1966
1967
1968
1970
1971
1972
1973
1973
1973
1973
1974
1975
1976
1978
1980
1981
1982
1983
1983
1985
1987
1989
1991
1992
1993
1994
1996
1999
2002
2007
2012
2016
2019
2022
2024
2026
2029
2031
2033
2033
2031
2027
2021
2014
2005
1997
1988
1981
1975
1971
1967
1965
1963
1961
1961
1962
1963
1963
1962
1960
1958
1957
1958
1960
1961
1962
1962
1961
1961
1962
1963
1965
1967
1969
1970
1970
1969
1967
1966
1966
1968
1970
1972
1973
1974
1974
1974
1975
1975
1976
1978
1980
1984
1986
1988
1988
1987
1986
1986
1987
1989
1992
1995
1998
2000
2001
2001
2001
2001
2002
2004
2005
2006
2007
2008
2009
2011
2011
2012
2012
2012
2011
2009
2008
2007
2006
2005
2004
2004
2003
2003
2003
2002
2001
1999
1997
1993
1986
1979
1976
1985
2010
2049
2097
2144
2176
2181
2151
2090
2013
1943
1897
1885
1899
1923
1945
1960
1966
1969
1971
1972
1973
1974
1974
1975
1975
1975
1975
1976
1978
1979
1980
1980
1980
1979
1980
1981
1983
1986
1989
1991
1992
1994
1995
1996
1997
1998
2000
2002
2006
2010
2015
2019
2023
2026
2028
2030
2032
2034
2036
2037
2038
2037
2033
2028
2019
2010
1999
1989
1981
1974
1968
1962
1956
1950
1946
1944
1943
1944
1945
1945
1945
1945
1944
1944
1942
1940
1938
1937
1936
1936
1937
1937
1937
1936
1935
1934
1934
1934
1934
1934
1933
1933
1934
1935
1936
1936
1936
1935
1935
1936
1938
1939
1938
1937
1936
1935
1934
1934
1935
1935
1936
1938
1939
1940
1940
1939
1936
1934
1933
1933
1935
1936
1938
1938
1938
1938
1938
1938
1940
1941
1942
1943
1944
1944
1944
1943
1942
1940
1939
1938
1937
1937
1937
1936
1936
1937
1940
1942
1944
1945
1945
1943
1937
1929
1923
1926
1944
1980
2029
2082
2129
2150
2136
2084
2007
1926
1866
1840
1848
1874
1902
1922
1932
1936
1938
1940
1941
1942
1943
1944
1945
1946
1947
1947
1947
1949
1951
1954
1956
1956
1956
1955
1955
1958
1961
1964
1965
1966
1967
1969
1971
1974
1976
1977
1979
1982
1985
1989
1994
1999
2004
2008
2011
2013
2014
2015
2015
2014
2012
2008
2003
1995
1984
1973
1963
1954
1948
1944
1941
1938
1935
1932
1929
1926
1925
1925
1926
1928
1931
1934
1935
1936
1936
1936
1935
1933
1932
1930
1929
1929
1931
1932
1932
1931
1930
1929
1930
1931
1933
1934
1935
1936
1936
1935
1934
1933
1933
1933
1934
1935
1935
1934
1934
1933
1932
1932
1933
1933
1935
1936
1936
1935
1934
1934
1935
1937
1938
1938
1937
1938
1939
1941
1942
1943
1943
1942
1942
1943
1944
1945
1946
1948
1949
1950
1949
1949
1949
1951
1954
1957
1959
1960
1960
1959
1958
1956
1955
1955
1955
1956
1957
1958
1959
1959
1960
1960
1956
1949
1942
1943
1959
1991
2035
2082
2125
2150
2146
2108
2042
1964
1899
1865
1864
1886
1914
1936
1948
1952
1955
1957
1958
1959
1960
1961
1961
1962
1961
1961
1962
1964
1967
1970
1974
1976
1976
1975
1974
1975
1976
1978
1979
1980
1980
1981
1983
1985
1988
1991
1994
1997
2000
2004
2008
2012
2016
2020
2023
2026
2029
2031
2032
2032
2030
2026
2021
2014
2007
1999
1991
1983
1978
1973
1969
1966
1963
1960
1958
1956
1956
1956
1957
1958
1958
1958
1957
1958
1958
1960
1960
1960
1960
1960
1960
1961
1961
1962
1963
1964
1965
1965
1965
1965
1965
1965
1965
1965
1965
1966
1968
1970
1972
1973
1971
1967
1962
1958
1958
1960
1965
1971
1975
1978
1978
1976
1975
1974
1974
1973
1973
1972
1971
1970
1969
1968
1967
1966
1967
1969
1971
1973
1974
1973
1973
1974
1975
1977
1979
1980
1981
1981
1982
1982
1982
1983
1984
1986
1986
1985
1983
1980
1978
1979
1980
1981
1982
1983
1984
1986
1986
1981
1973
1967
1970
1990
2025
2071
2121
2161
2179
2163
2112
2039
1962
1904
1878
1884
1908
1936
1958
1971
1978
1981
1981
1980
1979
1979
1980
1981
1983
1984
1986
1987
1986
1985
1983
1984
1986
1989
1991
1991
1990
1989
1991
1995
1999
2002
2001
1998
1996
1998
2003
2010
2016
2020
2023
2027
2030
2031
2030
2027
2025
2028
2034
2040
2044
2042
2037
2030
2024
2018
2012
2005
1998
1989
1979
1971
1965
1963
1964
1966
1968
1970
1970
1969
1967
1965
1964
1964
1966
1968
1969
1969
1969
1969
1970
1971
1971
1971
1970
1970
1972
1974
1977
1978
1978
1976
1975
1975
1976
1977
1978
1978
1978
1979
1980
1982
1984
1986
1986
1982
1976
1970
1968
1972
1980
1986
1990
1990
1989
1988
1989
1991
1991
1989
1987
1985
1983
1983
1983
1984
1986
1986
1983
1980
1976
1976
1979
1985
1991
1995
1996
1995
1993
1991
1989
1988
1987
1986
1987
1987
1988
1987
1986
1983
1980
1976
1972
1970
1974
1989
2018
2058
2107
2153
2181
2180
2144
2078
2001
1935
1897
1892
1911
1939
1962
1975
1980
1984
1987
1988
1989
1988
1988
1989
1991
1994
1996
1998
1999
2000
2001
2001
2001
2001
2001
2002
2003
2004
2005
2005
2005
2006
2007
2009
2011
2013
2015
2018
2022
2027
2032
2036
2039
2042
2045
2048
2051
2053
2054
2052
2048
2043
2036
2028
2020
2012
2005
2000
1996
1992
1988
1983
1978
1975
1974
1973
1972
1970
1967
1966
1965
1965
1966
1966
1967
1966
1965
1964
1963
1964
1965
1967
1968
1968
1968
1968
1967
1967
1967
1969
1971
1973
1973
1972
1969
1968
1969
1971
1975
1977
1976
1974
1971
1970
1970
1972
1975
1977
1977
1977
1974
1972
1971
1971
1972
1973
1974
1975
1974
1973
1972
1971
1969
1969
1969
1970
1971
1971
1971
1971
1972
1974
1976
1977
1978
1978
1977
1976
1975
1974
1973
1973
1972
1971
1971
1970
1969
1968
1968
1968
1969
1968
1964
1959
1959
1970
1997
2039
2088
2135
2165
2166
2131
2066
1988
1920
1880
1874
1893
1921
1944
1958
1964
1967
1970
1971
1972
1973
1974
1976
1976
1976
1976
1976
1976
1978
1980
1982
1984
1985
1985
1985
1985
1986
1987
1988
1990
1992
1994
1995
1996
1997
1999
2002
2005
2008
2012
2017
2023
2029
2034
2037
2039
2041
2042
2042
2042
2041
2037
2033
2026
2018
2009
2000
1991
1984
1979
1976
1974
1971
1970
1968
1967
1966
1965
1965
1964
1964
1964
1964
1964
1964
1964
1964
1964
1965
1966
1967
1967
1967
1967
1967
1968
1968
1969
1969
1970
1970
1972
1973
1973
1974
1973
1972
1972
1971
1971
1971
1971
1972
1972
1972
1971
1970
1969
1969
1969
1969
1969
1970
1970
1970
1970
1970
1970
1970
1970
1971
1972
1973
1973
1973
1972
1971
1970
1969
1968
1968
1969
1970
1971
1973
1975
1976
1976
1977
1977
1978
1978
1978
1978
1977
1975
1973
1971
1970
1971
1972
1974
1975
1976
1976
1974
1969
1962
1957
1961
1978
2013
2057
2106
2147
2165
2151
2104
2034
1959
1902
1877
1884
1909
1938
1959
1968
1972
1973
1974
1976
1979
1982
1985
1986
1987
1987
1987
1986
1986
1987
1988
1989
1990
1991
1992
1992
1993
1994
1994
1995
1997
1999
2001
2003
2005
2007
2008
2009
2011
2013
2016
2021
2027
2032
2035
2037
2038
2039
2040
2042
2042
2040
2037
2032
2025
2017
2008
1999
1992
1985
1980
1976
1973
1972
1970
1968
1966
1964
1963
1964
1965
1966
1966
1966
1966
1966
1966
1965
1965
1965
1966
1966
1966
1966
1966
1965
1965
1964
1965
1966
1967
1968
1968
1968
1968
1966
1966
1965
1966
1967
1969
1971
1972
1971
1971
1970
1970
1969
1970
1970
1970
1970
1970
1970
1970
1970
1970
1970
1970
1970
1970
1971
1971
1971
1971
1971
1970
1969
1969
1970
1970
1971
1972
1972
1972
1972
1973
1973
1974
1975
1977
1978
1978
1978
1977
1976
1975
1974
1972
1972
1973
1973
1973
1973
1973
1974
1974
1972
1966
1960
1958
1969
1997
2041
2091
2138
2167
2164
2126
2059
1981
1914
1876
1873
1894
1923
1946
1959
1964
1967
1968
1970
1973
1975
1977
1978
1978
1979
1979
1980
1982
1983
1985
1986
1986
1986
1986
1986
1986
1988
1990
1993
1995
1996
1997
1998
2000
2001
2004
2007
2010
2013
2015
2018
2021
2025
2027
2030
2032
2033
2035
2037
2038
2038
2035
2029
2022
2013
2005
1997
1989
1982
1976
1972
1969
1966
1964
1962
1961
1961
1961
1961
1961
1961
1961
1960
1959
1958
1959
1960
1962
1963
1963
1963
1963
1963
1963
1963
1963
1963
1965
1967
1968
1968
1967
1965
1965
1965
1966
1967
1968
1968
1968
1969
1969
1969
1969
1968
1967
1966
1966
1966
1966
1966
1966
1965
1964
1964
1964
1964
1964
1965
1964
1964
1963
1962
1962
1961
1962
1963
1964
1965
1965
1965
1966
1966
1966
1965
1964
1964
1965
1967
1969
1970
1970
1969
1967
1965
1963
1962
1961
1962
1963
1964
1964
1963
1963
1962
1962
1959
1953
1946
1945
1957
1985
2027
2076
2122
2150
2148
2111
2045
1966
1900
1862
1859
1880
1908
1932
1946
1952
1956
1959
1960
1962
1962
1963
1964
1965
1967
1968
1969
1970
1970
1970
1971
1972
1974
1976
1977
1979
1980
1981
1982
1983
1984
1985
1986
1989
1991
1994
1997
2000
2002
2005
2007
2011
2015
2019
2023
2026
2028
2029
2030
2029
2027
2024
2019
2013
2005
1996
1988
1981
1975
1970
1965
1961
1958
1956
1955
1955
1955
1954
1954
1953
1953
1952
1952
1952
1954
1955
1956
1957
1958
1958
1957
1957
1957
1957
1958
1959
1960
1961
1961
1962
1962
1962
1962
1963
1963
1964
1965
1965
1966
1966
1965
1964
1964
1964
1964
1965
1966
1965
1965
1965
1965
1965
1964
1964
1964
1964
1965
1966
1967
1967
1967
1967
1967
1967
1967
1967
1968
1969
1970
1969
1967
1965
1964
1966
1968
1971
1973
1974
1974
1974
1975
1976
1977
1976
1976
1975
1975
1975
1976
1975
1974
1972
1970
1970
1971
1973
1976
1978
1977
1973
1965
1959
1962
1979
2012
2053
2100
2140
2160
2151
2107
2039
1963
1903
1876
1881
1906
1934
1955
1966
1970
1971
1971
1971
1972
1974
1977
1979
1980
1980
1980
1980
1981
1981
1982
1983
1984
1985
1987
1988
1989
1989
1989
1990
1991
1993
1995
1997
1999
2001
2002
2004
2006
2009
2012
2016
2019
2022
2025
2027
2029
2031
2032
2032
2031
2030
2027
2023
2017
2010
2002
1994
1986
1979
1973
1970
1967
1966
1966
1966
1965
1965
1963
1962
1960
1960
1960
1961
1962
1962
1962
1961
1960
1960
1960
1960
1962
1962
1963
1962
1962
1961
1961
1962
1963
1964
1966
1967
1967
1968
1968
1969
1969
1968
1968
1969
1969
1969
1969
1969
1968
1967
1967
1967
1967
1968
1969
1970
1970
1971
1970
1969
1968
1967
1967
1967
1968
1969
1970
1970
1969
1968
1968
1967
1966
1966
1966
1967
1969
1970
1970
1970
1970
1970
1971
1973
1974
1976
1977
1977
1976
1975
1974
1972
1971
1971
1971
1971
1972
1971
1971
1972
1972
1970
1965
1959
1956
1963
1985
2023
2068
2115
2150
2160
2137
2081
2006
1933
1884
1870
1885
1913
1940
1957
1964
1968
1970
1971
1971
1972
1973
1974
1976
1977
1979
1980
1981
1981
1982
1983
1984
1984
1984
1984
1985
1986
1989
1990
1992
1993
1994
1994
1995
1996
1997
2000
2002
2005
2008
2010
2013
2015
2018
2021
2024
2026
2028
2028
2028
2026
2024
2020
2015
2009
2002
1995
1988
1981
1975
1970
1966
1963
1962
1961
1960
1959
1958
1957
1957
1958
1958
1958
1959
1959
1959
1960
1960
1961
1962
1963
1963
1963
1962
1961
1961
1960
1960
1961
1962
1962
1963
1963
1964
1964
1965
1965
1965
1966
1966
1966
1965
1965
1965
1965
1965
1966
1966
1966
1966
1966
1966
1965
1965
1966
1966
1967
1968
1969
1969
1968
1967
1965
1965
1965
1966
1968
1969
1971
1972
1971
1970
1968
1967
1966
1967
1968
1970
1971
1971
1972
1972
1974
1974
1975
1975
1975
1975
1974
1973
1972
1970
1968
1968
1968
1969
1971
1973
1974
1973
1969
1962
1955
1954
1966
1995
2037
2084
2128
2153
2150
2112
2047
1970
1906
1870
1869
1892
1923
1948
1962
1967
1968
1969
1969
1970
1972
1973
1975
1976
1977
1977
1977
1977
1978
1979
1981
1982
1983
1984
1984
1984
1984
1984
1985
1986
1988
1990
1992
1993
1995
1996
1997
1998
2001
2004
2008
2012
2017
2021
2024
2025
2025
2026
2026
2027
2027
2025
2021
2016
2008
2000
1992
1984
1978
1972
1967
1963
1959
1957
1956
1955
1955
1954
1954
1953
1953
1954
1955
1955
1956
1956
1955
1955
1955
1955
1955
1957
1959
1961
1962
1962
1960
1958
1957
1957
1958
1959
1960
1960
1959
1959
1959
1959
1960
1959
1959
1959
1959
1960
1961
1962
1962
1961
1959
1959
1959
1959
1960
1961
1960
1959
1958
1959
1960
1961
1961
1961
1961
1961
1962
1962
1962
1961
1960
1959
1959
1960
1961
1962
1962
1963
1964
1965
1966
1967
1969
1971
1972
1972
1972
1971
1968
1965
1964
1963
1964
1966
1968
1969
1969
1968
1969
1969
1967
1962
1955
1954
1963
1989
2029
2075
2121
2149
2149
2116
2053
1978
1911
1871
1864
1883
1912
1937
1953
1959
1963
1965
1968
1970
1971
1971
1971
1971
1972
1974
1976
1978
1979
1980
1981
1983
1983
1984
1984
1985
1986
1988
1990
1991
1992
1992
1993
1994
1996
1998
2001
2003
2006
2009
2012
2016
2019
2022
2024
2027
2029
2032
2034
2034
2033
2030
2026
2019
2011
2003
1995
1987
1981
1976
1971
1967
1964
1961
1959
1958
1958
1958
1958
1958
1958
1957
1956
1956
1956
1956
1957
1959
1960
1961
1962
1962
1961
1961
1960
1960
1960
1960
1961
1962
1963
1964
1964
1963
1962
1962
1962
1962
1962
1962
1963
1963
1964
1964
1963
1962
1962
1961
1962
1962
1962
1962
1961
1961
1960
1961
1961
1962
1963
1964
1964
1964
1964
1963
1963
1962
1962
1962
1963
1964
1965
1967
1967
1968
1967
1967
1968
1968
1969
1970
1970
1970
1970
1969
1968
1967
1967
1968
1968
1967
1966
1965
1965
1965
1964
1959
1954
1951
1958
1981
2022
2071
2121
2155
2157
2121
2054
1976
1907
1866
1858
1876
1904
1928
1943
1948
1951
1954
1958
1962
1965
1966
1965
1963
1962
1962
1963
1964
1965
1965
1965
1964
1965
1966
1967
1969
1970
1970
1971
1972
1972
1974
1975
1977
1979
1982
1985
1988
1992
1995
1999
2002
2005
2007
2008
2010
2013
2016
2019
2020
2020
2017
2012
2005
1997
1988
1979
1970
1962
1956
1952
1949
1946
1945
1943
1942
1941
1941
1942
1942
1943
1943
1943
1942
1943
1944
1945
1945
1945
1945
1944
1945
1946
1948
1949
1950
1950
1949
1949
1948
1948
1949
1950
1951
1952
1951
1951
1950
1950
1950
1951
1951
1952
1953
1953
1953
1952
1952
1952
1952
1952
1953
1953
1952
1952
1951
1952
1952
1953
1954
1953
1953
1952
1951
1951
1951
1952
1953
1953
1955
1956
1957
1957
1957
1956
1956
1956
1956
1955
1954
1953
1952
1952
1952
1953
1954
1954
1954
1950
1944
1939
1940
1954
1984
2028
2077
2120
2143
2133
2089
2019
1942
1881
1850
1852
1876
1906
1930
1943
1948
1951
1954
1956
1959
1961
1962
1962
1963
1964
1965
1967
1967
1968
1968
1968
1970
1972
1974
1976
1977
1978
1979
1980
1981
1983
1985
1987
1990
1992
1995
1998
2001
2004
2006
2009
2013
2018
2022
2026
2028
2030
2030
2030
2029
2027
2024
2020
2014
2007
1999
1991
1983
1975
1969
1964
1961
1959
1958
1958
1957
1957
1956
1956
1956
1955
1955
1956
1956
1957
1958
1958
1958
1957
1957
1957
1957
1959
1961
1962
1963
1963
1963
1963
1962
1962
1962
1962
1962
1963
1964
1966
1967
1966
1966
1965
1965
1966
1967
1967
1966
1966
1966
1966
1967
1967
1968
1968
1968
1967
1967
1967
1966
1965
1964
1965
1965
1966
1967
1968
1970
1971
1971
1970
1970
1970
1970
1971
1972
1972
1971
1970
1970
1970
1970
1971
1972
1972
1972
1970
1964
1957
1955
1963
1988
2030
2078
2126
2155
2155
2121
2058
1984
1918
1878
1871
1889
1918
1943
1959
1966
1969
1970
1970
1970
1971
1973
1975
1978
1980
1981
1981
1981
1980
1980
1981
1982
1983
1985
1987
1988
1990
1990
1990
1990
1991
1992
1995
1998
2001
2004
2006
2007
2008
2011
2014
2019
2024
2028
2031
2033
2035
2035
2035
2035
2033
2030
2026
2020
2013
2005
1997
1989
1983
1977
1972
1968
1965
1964
1963
1963
1963
1963
1962
1961
1959
1959
1959
1960
1961
1962
1963
1963
1963
1963
1962
1963
1963
1965
1966
1967
1967
1966
1966
1966
1966
1967
1967
1968
1968
1969
1969
1968
1968
1967
1967
1967
1967
1968
1969
1969
1968
1967
1966
1966
1966
1966
1967
1968
1969
1969
1968
1968
1968
1969
1971
1972
1974
1974
1974
1974
1975
1975
1976
1975
1974
1974
1973
1973
1972
1972
1972
1971
1970
1970
1969
1970
1972
1973
1972
1968
1960
1955
1959
1980
2017
2064
2113
2149
2158
2134
2080
2009
1939
1891
1875
1886
1911
1937
1955
1964
1967
1969
1970
1972
1973
1975
1977
1978
1979
1979
1979
1980
1981
1982
1983
1984
1985
1986
1987
1988
1989
1990
1990
1991
1991
1992
1993
1995
1996
1998
1999
2001
2004
2009
2014
2019
2023
2027
2031
2033
2036
2037
2038
2038
2038
2035
2031
2024
2015
2006
1996
1988
1980
1974
1970
1967
1965
1963
1962
1961
1960
1961
1961
1960
1959
1958
1958
1958
1959
1960
1960
1959
1957
1956
1955
1956
1958
1960
1961
1962
1961
1960
1960
1960
1960
1961
1962
1963
1963
1963
1963
1962
1962
1962
1963
1965
1966
1966
1965
1964
1963
1963
1963
1963
1963
1963
1963
1962
1961
1962
1963
1964
1964
1965
1965
1966
1967
1968
1969
1969
1970
1969
1967
1965
1963
1961
1961
1961
1962
1963
1963
1963
1962
1961
1961
1960
1957
1953
1947
1945
1955
1983
2028
2083
2136
2168
2164
2119
2045
1959
1888
1849
1846
1868
1898
1923
1939
1947
1952
1956
1960
1961
1963
1963
1964
1966
1968
1970
1972
1973
1974
1974
1974
1974
1975
1976
1977
1979
1981
1982
1984
1985
1987
1988
1989
1992
1995
1998
2002
2005
2009
2013
2016
2020
2022
2025
2028
2032
2034
2036
2036
2036
2034
2030
2024
2016
2006
1996
1987
1979
1973
1968
1964
1961
1958
1956
1955
1954
1954
1954
1953
1953
1953
1952
1953
1953
1954
1956
1957
1958
1958
1957
1956
1956
1956
1957
1959
1960
1962
1963
1963
1962
1962
1961
1961
1961
1962
1963
1964
1965
1965
1964
1963
1962
1962
1963
1964
1964
1964
1964
1964
1964
1964
1964
1965
1966
1966
1966
1965
1963
1962
1961
1961
1962
1963
1964
1965
1966
1968
1969
1970
1969
1968
1968
1967
1967
1967
1966
1965
1964
1963
1963
1963
1964
1965
1967
1968
1966
1961
1954
1951
1960
1985
2025
2071
2119
2152
2159
2131
2072
1996
1925
1878
1866
1881
1908
1934
1949
1957
1961
1965
1967
1968
1968
1969
1970
1971
1972
1973
1973
1974
1974
1975
1976
1977
1978
1979
1980
1981
1983
1984
1986
1986
1987
1987
1988
1990
1993
1996
1999
2001
2004
2008
2011
2015
2019
2022
2026
2028
2030
2032
2032
2031
2029
2025
2020
2013
2004
1996
1987
1980
1974
1969
1964
1960
1958
1956
1957
1958
1959
1960
1960
1959
1958
1957
1956
1957
1958
1959
1960
1960
1960
1960
1960
1961
1962
1962
1962
1963
1963
1964
1964
1965
1965
1965
1965
1965
1965
1965
1966
1966
1965
1963
1961
1960
1959
1960
1962
1964
1964
1964
1962
1960
1957
1956
1956
1957
1960
1962
1963
1963
1960
1957
1955
1954
1955
1956
1958
1959
1960
1960
1961
1961
1962
1963
1963
1964
1964
1964
1964
1963
1962
1961
1960
1959
1959
1959
1958
1958
1959
1959
1958
1953
1945
1938
1939
1954
1987
2032
2083
2129
2157
2153
2114
2047
1968
1902
1867
1865
1886
1914
1936
1947
1952
1955
1958
1960
1961
1962
1962
1963
1964
1964
1965
1965
1966
1967
1969
1970
1972
1973
1974
1975
1975
1975
1976
1979
1982
1985
1986
1988
1989
1991
1993
1998
2002
2007
2012
2017
2022
2025
2028
2031
2035
2039
2042
2043
2043
2040
2035
2028
2020
2011
2002
1993
1987
1982
1978
1976
1975
1974
1973
1972
1970
1969
1969
1970
1972
1975
1977
1979
1980
1980
1980
1980
1981
1982
1984
1986
1987
1988
1987
1986
1985
1984
1985
1987
1988
1989
1989
1989
1989
1988
1988
1987
1986
1986
1985
1986
1986
1986
1986
1986
1985
1984
1984
1985
1986
1987
1987
1987
1986
1985
1984
1984
1986
1988
1989
1988
1987
1986
1985
1985
1986
1987
1987
1986
1986
1987
1987
1986
1985
1982
1980
1979
1979
1980
1980
1981
1981
1981
1981
1980
1977
1975
1974
1975
1977
1978
1978
1977
1974
1972
1971
1971
1971
1970
1967
1964
1961
1960
1960
1958
1952
1946
1944
1955
1982
2023
2069
2114
2144
2148
2119
2060
1985
1915
1870
1858
1873
1901
1926
1941
1947
1950
1952
1954
1957
1959
1960
1961
1962
1963
1964
1966
1967
1968
1969
1970
1971
1972
1973
1974
1975
1976
1976
1977
1979
1980
1981
1983
1985
1988
1992
1997
2001
2005
2009
2012
2015
2018
2020
2023
2026
2030
2033
2035
2036
2036
2034
2031
2027
2021
2013
2005
1997
1990
1985
1981
1977
1975
1973
1971
1972
1973
1974
1975
1974
1972
1971
1971
1972
1975
1977
1978
1977
1977
1976
1976
1976
1975
1974
1975
1976
1978
1980
1981
1981
1981
1981
1981
1982
1982
1982
1982
1982
1982
1982
1982
1982
1981
1981
1981
1981
1983
1984
1985
1985
1984
1984
1984
1983
1981
1979
1979
1979
1982
1984
1985
1985
1985
1984
1985
1986
1987
1987
1986
1984
1984
1985
1986
1987
1987
1987
1986
1986
1988
1989
1990
1991
1991
1990
1989
1988
1988
1989
1991
1992
1994
1995
1996
1995
1995
1994
1995
1996
1997
1999
2000
2001
2002
2002
2000
1999
1998
1998
1999
2000
2001
2002
2002
2002
2001
2000
2000
2001
2002
2003
2002
2000
1998
1998
2000
2001
2003
2004
2005
2007
2007
2007
2006
2004
2002
2000
1999
1998
1998
1999
1999
2000
2000
2000
2000
1999
1998
1997
1994
1989
1983
1980
1988
2011
2048
2094
2139
2172
2180
2157
2104
2035
1966
1918
1901
1911
1935
1960
1976
1982
1984
1985
1986
1988
1989
1990
1990
1991
1993
1994
1994
1994
1994
1994
1995
1996
1997
1997
1999
2000
2002
2003
2004
2004
2004
2004
2005
2007
2009
2010
2011
2011
2013
2016
2020
2024
2028
2030
2033
2036
2039
2042
2044
2045
2046
2045
2044
2041
2036
2030
2022
2014
2006
1999
1993
1988
1984
1981
1980
1979
1978
1976
1974
1971
1969
1969
1969
1969
1970
1969
1969
1967
1966
1966
1966
1967
1967
1967
1967
1967
1967
1967
1967
1967
1968
1969
1970
1970
1970
1970
1970
1971
1971
1971
1971
1971
1971
1972
1974
1975
1975
1974
1973
1972
1971
1971
1971
1971
1971
1971
1971
1971
1971
1971
1972
1973
1973
1973
1973
1972
1972
1973
1973
1974
1974
1973
1971
1969
1969
1971
1973
1974
1973
1971
1970
1970
1971
1972
1971
1970
1969
1968
1969
1969
1969
1969
1969
1969
1969
1970
1970
1969
1969
1969
1968
1968
1968
1968
1966
1965
1964
1964
1965
1967
1970
1972
1973
1974
1975
1975
1975
1975
1974
1973
1972
1971
1970
1968
1967
1967
1968
1970
1972
1974
1974
1973
1969
1964
1957
1955
1963
1987
2027
2074
2123
2156
2163
2136
2079
2008
1940
1895
1881
1893
1916
1939
1953
1960
1963
1965
1967
1969
1970
1971
1972
1973
1974
1974
1975
1977
1978
1980
1981
1982
1982
1983
1984
1985
1987
1989
1991
1991
1992
1992
1992
1994
1996
1998
2001
2004
2007
2011
2015
2018
2022
2025
2027
2030
2033
2037
2040
2043
2043
2041
2038
2034
2028
2021
2013
2004
1996
1989
1983
1978
1973
1969
1966
1964
1963
1962
1962
1962
1963
1963
1963
1962
1961
1960
1960
1960
1961
1962
1962
1962
1961
1961
1961
1962
1963
1964
1964
1964
1964
1964
1965
1966
1966
1966
1967
1967
1968
1969
1970
1970
1969
1968
1968
1968
1969
1969
1970
1971
1971
1971
1971
1971
1971
1971
1972
1973
1973
1973
1973
1972
1972
1972
1972
1973
1974
1975
1976
1976
1976
1975
1974
1974
1973
1973
1973
1974
1975
1975
1976
1975
1975
1974
1973
1974
1975
1976
1977
1977
1977
1978
1979
1980
1981
1982
1983
1983
1983
1982
1980
1979
1977
1976
1976
1976
1976
1977
1979
1980
1980
1975
1968
1961
1961
1976
2010
2058
2113
2162
2189
2182
2137
2063
1981
1914
1879
1877
1899
1925
1947
1958
1964
1968
1972
1974
1976
1977
1978
1979
1980
1982
1983
1983
1982
1983
1983
1985
1986
1988
1989
1990
1991
1991
1992
1993
1994
1996
1998
2000
2001
2003
2005
2007
2009
2012
2016
2021
2026
2031
2035
2039
2043
2045
2047
2048
2049
2048
2046
2041
2032
2023
2013
2003
1995
1988
1981
1976
1971
1967
1964
1962
1960
1959
1957
1955
1955
1955
1956
1957
1958
1958
1957
1956
1955
1955
1955
1957
1958
1959
1960
1960
1960
1959
1959
1960
1960
1961
1961
1962
1962
1961
1961
1960
1960
1960
1961
1963
1964
1965
1965
1964
1964
1963
1962
1962
1961
1961
1961
1961
1961
1960
1960
1960
1960
1961
1961
1960
1959
1959
1959
1960
1962
1962
1962
1962
1961
1961
1961
1961
1960
1958
1958
1958
1960
1962
1965
1966
1967
1967
1966
1966
1965
1963
1961
1960
1959
1958
1957
1958
1958
1959
1959
1959
1961
1962
1960
1956
1948
1943
1948
1969
2009
2059
2112
2155
2171
2152
2098
2021
1941
1882
1858
1865
1891
1919
1939
1949
1954
1958
1960
1962
1963
1964
1964
1964
1965
1967
1968
1969
1970
1971
1971
1972
1972
1973
1975
1976
1978
1979
1981
1983
1985
1987
1989
1990
1993
1996
1999
2003
2006
2009
2012
2015
2019
2023
2028
2033
2037
2041
2043
2043
2042
2040
2035
2029
2020
2011
2002
1993
1985
1977
1969
1963
1959
1956
1955
1955
1955
1955
1953
1951
1949
1948
1948
1948
1949
1950
1951
1951
1950
1949
1948
1948
1949
1952
1954
1955
1956
1956
1956
1957
1957
1957
1957
1958
1958
1960
1961
1961
1961
1960
1959
1959
1960
1962
1963
1964
1963
1962
1961
1961
1960
1960
1960
1960
1961
1962
1963
1963
1963
1962
1961
1961
1961
1961
1961
1961
1961
1961
1960
1960
1960
1960
1961
1962
1963
1964
1964
1964
1964
1964
1963
1963
1963
1962
1962
1961
1960
1960
1960
1960
1960
1959
1959
1960
1960
1959
1954
1947
1943
1949
1972
2011
2058
2109
2150
2166
2149
2097
2021
1942
1884
1860
1868
1894
1921
1940
1948
1952
1955
1957
1959
1961
1962
1963
1964
1965
1966
1967
1968
1969
1970
1970
1971
1972
1973
1975
1976
1977
1977
1978
1979
1980
1982
1983
1985
1987
1989
1992
1994
1998
2001
2006
2010
2016
2020
2025
2029
2032
2035
2036
2036
2035
2032
2028
2023
2015
2006
1997
1987
1978
1971
1965
1961
1958
1956
1955
1954
1954
1953
1953
1952
1951
1951
1951
1952
1952
1952
1952
1951
1951
1951
1951
1952
1952
1953
1954
1954
1955
1955
1956
1956
1956
1956
1957
1958
1959
1959
1960
1960
1959
1959
1958
1958
1958
1959
1960
1962
1963
1963
1963
1962
1962
1962
1962
1962
1962
1963
1963
1964
1965
1965
1965
1964
1963
1963
1964
1964
1965
1966
1966
1967
1967
1967
1967
1967
1967
1966
1966
1965
1964
1963
1963
1964
1966
1968
1970
1971
1972
1973
1973
1974
1974
1974
1975
1975
1975
1974
1972
1971
1971
1971
1971
1971
1973
1974
1973
1969
1962
1956
1957
1973
2005
2049
2100
2146
2175
2174
2139
2072
1993
1923
1881
1873
1890
1916
1938
1951
1957
1961
1963
1964
1965
1965
1966
1968
1970
1973
1976
1977
1978
1978
1977
1977
1977
1978
1979
1980
1981
1982
1983
1984
1986
1988
1990
1992
1994
1995
1998
2000
2003
2006
2010
2014
2018
2024
2029
2034
2037
2039
2040
2040
2040
2040
2039
2036
2031
2023
2014
2004
1994
1985
1977
1972
1968
1965
1963
1961
1960
1959
1958
1957
1955
1954
1954
1955
1957
1958
1958
1958
1958
1958
1958
1957
1956
1956
1957
1958
1959
1960
1959
1958
1957
1957
1959
1961
1962
1962
1962
1962
1962
1962
1961
1961
1961
1962
1963
1964
1964
1964
1963
1962
1961
1961
1961
1962
1962
1962
1962
1962
1962
1962
1962
1962
1962
1963
1963
1964
1965
1966
1966
1966
1966
1966
1966
1966
1966
1965
1965
1965
1966
1967
1968
1968
1969
1969
1971
1973
1976
1977
1977
1977
1976
1975
1974
1974
1974
1974
1974
1974
1973
1973
1972
1973
1975
1977
1976
1971
1963
1958
1962
1982
2018
2064
2114
2157
2179
2167
2120
2047
1968
1906
1877
1881
1905
1932
1952
1962
1966
1969
1971
1971
1972
1974
1975
1976
1977
1978
1980
1982
1983
1984
1983
1983
1983
1985
1986
1988
1990
1992
1993
1993
1993
1993
1994
1996
1999
2002
2006
2008
2011
2013
2016
2020
2025
2030
2034
2038
2041
2043
2045
2045
2045
2043
2040
2035
2028
2020
2011
2001
1992
1985
1979
1975
1972
1969
1966
1964
1962
1961
1960
1960
1960
1960
1961
1961
1961
1961
1962
1962
1963
1962
1961
1961
1960
1961
1962
1963
1964
1965
1965
1965
1964
1963
1963
1965
1966
1967
1966
1965
1963
1963
1964
1965
1966
1966
1965
1964
1965
1966
1968
1969
1969
1968
1967
1966
1966
1967
1967
1967
1966
1965
1964
1964
1964
1966
1967
1968
1969
1969
1968
1967
1965
1965
1965
1965
1966
1967
1967
1967
1966
1965
1964
1964
1964
1964
1965
1967
1969
1970
1970
1970
1970
1970
1971
1972
1973
1972
1971
1968
1967
1966
1967
1968
1970
1972
1973
1975
1977
1979
1980
1980
1980
1980
1979
1979
1979
1979
1980
1980
1980
1980
1979
1978
1979
1980
1981
1979
1975
1968
1963
1965
1981
2011
2051
2097
2144
2177
2184
2156
2095
2016
1945
1904
1897
1917
1945
1967
1978
1982
1984
1985
1985
1986
1988
1990
1993
1995
1997
1998
1999
2000
2002
2003
2005
2005
2006
2007
2007
2007
2008
2008
2009
2010
2011
2012
2013
2015
2016
2017
2019
2021
2023
2026
2029
2032
2036
2039
2043
2047
2049
2050
2050
2049
2048
2047
2045
2041
2035
2027
2018
2009
2000
1993
1987
1983
1980
1977
1975
1973
1972
1971
1971
1970
1969
1968
1968
1968
1969
1969
1968
1967
1965
1964
1963
1963
1963
1964
1966
1966
1966
1965
1963
1961
1960
1960
1960
1961
1961
1961
1961
1961
1961
1961
1960
1959
1959
1960
1961
1963
1965
1966
1966
1966
1966
1965
1965
1965
1966
1966
1965
1965
1964
1963
1963
1963
1963
1963
1964
1964
1964
1964
1964
1964
1964
1964
1964
1965
1965
1965
1965
1964
1962
1962
1962
1963
1964
1964
1965
1966
1966
1966
1966
1966
1966
1967
1968
1970
1971
1971
1970
1969
1968
1967
1967
1968
1969
1970
1970
1971
1971
1972
1973
1974
1975
1974
1973
1971
1970
1970
1971
1972
1974
1974
1973
1971
1970
1969
1970
1971
1973
1974
1972
1966
1961
1960
1973
2001
2043
2090
2136
2167
2172
2143
2082
2006
1934
1889
1878
1895
1923
1948
1962
1968
1972
1976
1979
1982
1985
1988
1990
1992
1992
1994
1997
2001
2006
2006
2000
1991
1980
1974
1975
1982
1994
2008
2021
2031
2040
2043
2045
2043
2040
2039
2039
2041
2044
2048
2050
2053
2055
2058
2060
2062
2062
2063
2062
2061
2058
2054
2050
2047
2042
2036
2028
2018
2009
2001
1995
1993
1991
1989
1987
1984
1984
1985
1987
1989
1990
1990
1991
1993
1995
1997
1998
1998
1997
1995
1995
1996
1998
1999
1999
1997
1995
1993
1994
1996
1998
1998
1996
1993
1989
1987
1988
1990
1992
1993
1993
1992
1991
1989
1988
1988
1987
1985
1980
1974
1970
1970
1974
1980
1986
1989
1988
1984
1981
1980
1981
1982
1982
1982
1981
1980
1980
1980
1980
1980
1979
1979
1980
1980
1979
1978
1977
1976
1976
1977
1979
1980
1981
1981
1980
1979
1978
1978
1981
1984
1986
1987
1986
1983
1982
1981
1982
1983
1984
1985
1986
1987
1988
1988
1987
1986
1985
1985
1985
1985
1985
1984
1984
1985
1986
1987
1988
1990
1991
1992
1990
1984
1977
1974
1980
2001
2037
2080
2125
2161
2175
2158
2108
2036
1961
1906
1882
1889
1915
1944
1966
1978
1981
1982
1981
1982
1986
1990
1995
1998
1999
1998
1995
1992
1988
1986
1985
1987
1990
1994
1995
1995
1994
1993
1994
1997
2002
2008
2013
2015
2016
2016
2016
2016
2017
2019
2021
2025
2028
2032
2036
2040
2043
2044
2044
2042
2040
2038
2035
2031
2024
2015
2007
2001
1996
1993
1989
1984
1980
1977
1975
1974
1972
1969
1967
1964
1960
1955
1951
1949
1952
1961
1971
1979
1981
1979
1975
1972
1971
1973
1974
1975
1976
1975
1974
1972
1972
1973
1974
1975
1975
1973
1971
1969
1969
1971
1974
1978
1982
1984
1986
1987
1985
1983
1982
1983
1984
1983
1981
1978
1974
1972
1971
1971
1973
1975
1979
1982
1985
1986
1987
1986
1986
1986
1985
1983
1982
1982
1982
1983
1982
1980
1977
1975
1973
1973
1975
1976
1975
1974
1971
1970
1970
1972
1976
1980
1983
1984
1985
1985
1985
1985
1985
1986
1987
1987
1986
1984
1983
1981
1980
1979
1979
1979
1980
1981
1983
1985
1985
1981
1972
1964
1964
1979
2011
2056
2105
2147
2170
2164
2126
2062
1987
1923
1886
1883
1904
1935
1960
1975
1979
1980
1979
1979
1980
1981
1983
1985
1986
1987
1986
1985
1986
1988
1992
1995
1997
1998
1998
1998
1998
1999
2000
2001
2001
2001
2000
1999
2000
2003
2008
2013
2016
2017
2018
2020
2025
2031
2037
2041
2043
2044
2044
2044
2044
2042
2040
2036
2031
2026
2020
2013
2006
1999
1991
1985
1980
1977
1975
1973
1972
1971
1969
1967
1966
1966
1966
1967
1968
1969
1969
1969
1969
1969
1969
1970
1972
1974
1976
1976
1977
1977
1979
1981
1983
1985
1985
1984
1982
1981
1982
1983
1985
1986
1986
1985
1986
1987
1989
1989
1989
1988
1987
1986
1986
1986
1986
1987
1988
1989
1989
1988
1986
1984
1983
1982
1984
1986
1988
1990
1990
1989
1988
1987
1987
1987
1986
1986
1985
1984
1983
1982
1981
1981
1983
1986
1987
1987
1984
1983
1986
1991
1996
1998
1997
1993
1989
1987
1987
1986
1985
1983
1982
1982
1983
1985
1987
1988
1985
1979
1972
1969
1976
2000
2039
2086
2133
2163
2164
2131
2069
1995
1929
1890
1882
1901
1929
1954
1969
1976
1979
1982
1984
1985
1986
1986
1986
1986
1987
1989
1990
1991
1992
1992
1993
1994
1996
1997
1998
2000
2001
2003
2004
2005
2005
2006
2007
2010
2012
2015
2017
2017
2019
2021
2025
2030
2035
2040
2043
2045
2046
2048
2048
2049
2048
2047
2043
2038
2032
2026
2018
2009
2001
1993
1987
1982
1977
1974
1972
1971
1972
1973
1972
1971
1969
1968
1968
1969
1970
1971
1971
1971
1970
1970
1969
1969
1969
1969
1971
1972
1972
1972
1972
1972
1972
1973
1973
1973
1973
1972
1973
1974
1975
1975
1974
1974
1974
1974
1976
1976
1976
1975
1973
1973
1973
1974
1976
1978
1979
1979
1979
1978
1977
1976
1976
1976
1976
1976
1976
1976
1976
1976
1976
1977
1977
1978
1979
1980
1982
1984
1985
1986
1984
1982
1980
1979
1978
1977
1978
1978
1978
1977
1976
1975
1975
1976
1977
1977
1974
1968
1962
1964
1981
2016
2064
2118
2160
2175
2153
2096
2020
1944
1891
1870
1878
1902
1928
1947
1959
1965
1970
1973
1974
1973
1972
1971
1971
1972
1974
1977
1980
1981
1981
1981
1980
1980
1980
1980
1982
1984
1986
1988
1990
1991
1991
1992
1994
1996
1999
2003
2006
2010
2013
2016
2019
2022
2024
2027
2031
2034
2037
2038
2038
2037
2034
2030
2024
2017
2010
2003
1995
1988
1981
1974
1968
1964
1961
1959
1958
1956
1955
1954
1953
1952
1951
1950
1951
1952
1953
1954
1954
1953
1952
1950
1949
1948
1948
1950
1952
1954
1956
1955
1953
1951
1950
1949
1950
1950
1951
1951
1951
1952
1951
1951
1951
1952
1954
1956
1957
1956
1955
1953
1953
1954
1956
1957
1958
1959
1961
1962
1962
1963
1963
1964
1965
1967
1969
1971
1972
1974
1975
1977
1980
1984
1986
1987
1987
1986
1985
1984
1984
1984
1985
1986
1987
1989
1992
1993
1993
1993
1991
1986
1980
1975
1976
1989
2020
2065
2117
2165
2193
2188
2147
2078
2003
1939
1906
1905
1926
1953
1976
1990
1997
2002
2007
2011
2013
2013
2013
2013
2013
2013
2013
2013
2013
2015
2019
2022
2025
2026
2025
2023
2022
2020
2020
2020
2021
2023
2026
2029
2034
2037
2038
2039
2039
2041
2046
2051
2057
2062
2065
2067
2070
2072
2075
2076
2074
2071
2068
2064
2059
2053
2045
2035
2026
2019
2013
2009
2004
2000
1996
1992
1990
1989
1988
1988
1987
1985
1982
1980
1979
1982
1985
1988
1989
1988
1985
1984
1983
1984
1985
1985
1985
1984
1983
1983
1983
1984
1986
1987
1989
1990
1989
1988
1987
1986
1987
1988
1989
1989
1988
1986
1984
1983
1983
1985
1988
1990
1990
1987
1985
1983
1984
1984
1985
1985
1987
1988
1990
1991
1990
1988
1987
1987
1987
1987
1987
1987
1987
1988
1988
1988
1986
1985
1984
1983
1984
1984
1986
1989
1991
1991
1985
1975
1967
1970
1991
2032
2084
2139
2180
2193
2170
2115
2040
1965
1912
1892
1900
1924
1948
1964
1972
1977
1981
1985
1987
1987
1987
1986
1985
1986
1986
1987
1988
1989
1990
1992
1994
1996
1999
2000
2000
1999
1997
1997
1998
2002
2006
2010
2011
2012
2011
2012
2014
2020
2027
2034
2041
2044
2044
2041
2038
2036
2037
2041
2045
2048
2048
2044
2036
2025
2012
2000
1992
1989
1988
1989
1987
1983
1978
1973
1969
1968
1967
1967
1966
1966
1965
1964
1964
1963
1962
1961
1960
1959
1958
1957
1956
1957
1958
1960
1962
1962
1961
1959
1957
1958
1958
1960
1961
1961
1962
1962
1963
1963
1962
1960
1958
1957
1958
1960
1962
1963
1962
1962
1963
1967
1971
1973
1973
1972
1969
1967
1967
1969
1972
1974
1974
1974
1975
1978
1981
1984
1985
1983
1980
1977
1976
1976
1977
1977
1977
1978
1980
1984
1988
1991
1993
1991
1984
1976
1970
1975
1996
2037
2089
2146
2191
2209
2189
2132
2051
1969
1909
1884
1893
1922
1955
1979
1991
1994
1994
1994
1994
1996
1998
2001
2002
2003
2002
2002
2003
2004
2004
2003
2002
2002
2003
2005
2008
2010
2011
2011
2010
2009
2010
2011
2014
2018
2022
2024
2024
2024
2025
2028
2033
2037
2041
2043
2046
2050
2055
2059
2061
2060
2058
2055
2053
2051
2046
2035
2022
2007
1992
1981
1973
1969
1969
1972
1974
1973
1969
1962
1955
1952
1954
1960
1966
1970
1969
1965
1960
1958
1957
1957
1958
1958
1957
1956
1955
1956
1957
1959
1961
1962
1962
1962
1961
1961
1962
1963
1963
1962
1961
1962
1965
1969
1972
1974
1974
1972
1971
1968
1966
1963
1962
1963
1965
1967
1968
1966
1963
1962
1964
1968
1974
1977
1977
1975
1972
1970
1970
1971
1973
1974
1973
1972
1971
1972
1974
1977
1979
1979
1979
1977
1975
1971
1965
1963
1972
1996
2035
2084
2134
2173
2185
2164
2107
2028
1949
1894
1874
1887
1917
1947
1966
1974
1977
1980
1981
1982
1980
1979
1978
1980
1984
1987
1989
1990
1989
1989
1990
1992
1994
1997
1999
1999
1998
1996
1994
1996
2000
2005
2009
2010
2009
2008
2009
2013
2019
2025
2030
2033
2034
2035
2037
2040
2042
2043
2043
2042
2039
2037
2034
2029
2021
2011
2002
1996
1993
1993
1991
1989
1987
1986
1986
1987
1987
1984
1982
1980
1980
1982
1984
1986
1990
1995
1999
2002
2004
2005
2005
2006
2005
2004
2003
2003
2003
2004
2005
2006
2008
2010
2011
2011
2011
2012
2014
2015
2015
2014
2012
2010
2010
2011
2014
2017
2019
2019
2016
2010
2005
2001
2000
2000
2000
2000
1998
1996
1995
1995
1997
1999
2001
2002
2003
2003
2002
2001
1999
1996
1993
1991
1989
1989
1988
1986
1984
1981
1980
1980
1981
1982
1980
1975
1968
1964
1969
1989
2023
2065
2113
2153
2173
2161
2115
2044
1967
1908
1879
1882
1903
1927
1943
1951
1954
1957
1959
1961
1963
1964
1966
1967
1968
1969
1969
1970
1971
1973
1975
1978
1979
1980
1980
1979
1977
1976
1977
1978
1981
1984
1987
1989
1990
1991
1993
1996
1999
2003
2008
2012
2016
2019
2021
2023
2025
2028
2029
2028
2025
2020
2014
2007
1999
1990
1980
1973
1971
1969
1966
1959
1950
1943
1941
1944
1950
1954
1955
1952
1948
1945
1944
1943
1943
1943
1943
1943
1943
1942
1942
1943
1944
1944
1944
1943
1942
1943
1945
1947
1949
1951
1952
1952
1952
1950
1948
1948
1949
1951
1953
1953
1952
1949
1947
1945
1946
1949
1951
1952
1951
1949
1948
1947
1947
1948
1948
1948
1948
1949
1951
1954
1955
1956
1955
1955
1956
1956
1957
1956
1956
1955
1956
1955
1953
1951
1948
1946
1946
1947
1949
1950
1951
1952
1950
1946
1938
1931
1931
1943
1972
2015
2063
2110
2143
2149
2121
2063
1990
1921
1876
1864
1877
1903
1927
1943
1950
1953
1955
1955
1956
1957
1960
1964
1967
1970
1970
1970
1969
1969
1969
1971
1973
1975
1976
1976
1976
1977
1979
1981
1982
1984
1985
1985
1985
1985
1987
1992
1998
2005
2010
2012
2012
2012
2013
2017
2021
2026
2030
2031
2030
2027
2023
2017
2010
2002
1993
1985
1978
1972
1967
1963
1960
1957
1955
1955
1955
1955
1955
1955
1955
1956
1958
1960
1960
1960
1958
1957
1956
1957
1956
1956
1957
1958
1958
1957
1955
1953
1954
1957
1962
1967
1970
1971
1972
1972
1972
1971
1971
1971
1972
1973
1973
1970
1965
1960
1956
1956
1958
1961
1963
1966
1968
1971
1973
1974
1974
1973
1973
1973
1972
1971
1969
1966
1964
1962
1962
1964
1967
1970
1973
1975
1975
1975
1975
1976
1977
1978
1978
1978
1976
1974
1970
1966
1963
1963
1966
1972
1978
1982
1985
1985
1983
1980
1973
1964
1959
1964
1983
2019
2063
2113
2153
2169
2152
2100
2029
1955
1903
1884
1894
1920
1946
1965
1974
1977
1979
1980
1981
1983
1984
1985
1985
1985
1984
1984
1986
1988
1991
1992
1992
1992
1991
1991
1992
1994
1995
1997
1998
2000
2001
2003
2004
2005
2008
2010
2014
2017
2020
2023
2027
2031
2035
2039
2042
2044
2045
2047
2048
2047
2045
2040
2034
2026
2017
2008
1999
1991
1985
1981
1978
1975
1972
1969
1967
1966
1965
1964
1963
1962
1961
1961
1962
1962
1962
1961
1961
1961
1962
1963
1963
1963
1962
1962
1962
1964
1965
1967
1967
1966
1965
1965
1966
1966
1967
1966
1966
1965
1966
1966
1967
1967
1967
1967
1967
1966
1966
1966
1966
1967
1968
1968
1969
1969
1968
1968
1967
1967
1967
1968
1968
1969
1969
1968
1968
1967
1967
1967
1967
1968
1969
1970
1970
1970
1970
1971
1972
1973
1974
1975
1976
1976
1977
1976
1975
1974
1972
1971
1971
1972
1974
1975
1974
1973
1973
1973
1973
1972
1966
1959
1957
1969
1998
2043
2094
2142
2169
2164
2123
2053
1976
1911
1876
1874
1895
1921
1943
1954
1958
1961
1965
1970
1973
1975
1975
1974
1974
1975
1977
1980
1982
1982
1981
1980
1979
1980
1983
1985
1987
1989
1990
1991
1992
1993
1994
1995
1996
1998
2001
2004
2007
2010
2013
2016
2019
2022
2026
2030
2033
2035
2037
2038
2037
2035
2030
