1954
1941
1944
1954
1963
1967
1968
1969
1970
1971
1971
1972
1973
1973
1974
1975
1976
1977
1978
1979
1979
1980
1980
1980
1980
1981
1981
1982
1984
1986
1987
1988
1989
1990
1991
1993
1995
1998
2002
2005
2007
2009
2011
2011
2012
2012
2012
2012
2012
2012
2011
2009
2006
2002
1998
1994
1991
1988
1986
1984
1982
1980
1978
1977
1975
1975
1974
1974
1975
1975
1976
1977
1976
1976
1975
1975
1976
1976
1977
1978
1979
1979
1979
1979
1979
1979
1980
1982
1984
1985
1986
1987
1986
1986
1985
1985
1985
1985
1986
1987
1987
1987
1987
1986
1985
1985
1985
1985
1986
1987
1987
1987
1987
1986
1986
1985
1985
1985
1985
1985
1986
1986
1986
1986
1987
1988
1990
1992
1995
1996
1996
1994
1991
1989
1987
1986
1986
1986
1986
1987
1987
1988
1988
1986
1983
1978
1975
1976
1986
2006
2037
2074
2106
2121
2110
2074
2028
1985
1959
1953
1960
1971
1978
1981
1981
1981
1981
1981
1981
1982
1983
1984
1984
1983
1983
1983
1984
1985
1986
1988
1989
1990
1990
1990
1991
1991
1993
1994
1996
1998
2000
2002
2004
2005
2007
2009
2011
2014
2017
2019
2021
2022
2023
2022
2022
2021
2021
2020
2019
2017
2015
2012
2008
2004
2000
1996
1993
1991
1990
1988
1987
1986
1985
1984
1983
1982
1982
1982
1983
1983
1983
1983
1983
1982
1982
1982
1982
1982
1983
1984
1984
1984
1983
1983
1982
1982
1983
1983
1984
1984
1984
1984
1983
1983
1982
1981
1981
1982
1983
1983
1983
1983
1982
1981
1981
1980
1980
1980
1981
1981
1981
1981
1981
1981
1980
1980
1980
1980
1981
1981
1982
1981
1981
1980
1979
1978
1979
1980
1981
1984
1986
1988
1989
1988
1986
1984
1983
1982
1981
1981
1981
1981
1981
1981
1981
1981
1980
1978
1975
1972
1973
1980
1995
2021
2053
2087
2108
2106
2079
2037
1993
1961
1950
1953
1964
1973
1978
1979
1980
1981
1980
1980
1980
1979
1979
1979
1979
1980
1981
1982
1982
1983
1983
1983
1983
1983
1984
1985
1986
1988
1989
1990
1991
1992
1993
1994
1996
1999
2001
2004
2006
2008
2009
2010
2011
2011
2012
2012
2012
2013
2012
2011
2010
2007
2004
2000
1997
1994
1991
1989
1987
1985
1982
1980
1978
1977
1977
1977
1977
1977
1977
1977
1976
1976
1975
1974
1974
1974
1975
1975
1976
1976
1976
1976
1975
1975
1975
1975
1975
1976
1976
1976
1976
1975
1975
1975
1975
1975
1976
1976
1977
1977
1977
1976
1976
1975
1975
1975
1975
1976
1977
1977
1977
1977
1976
1975
1975
1976
1976
1977
1977
1977
1977
1976
1976
1976
1976
1976
1976
1977
1977
1977
1977
1977
1977
1977
1977
1979
1982
1984
1985
1985
1983
1981
1979
1978
1977
1977
1978
1978
1979
1979
1979
1979
1978
1976
1973
1969
1970
1977
1993
2019
2052
2085
2105
2102
2074
2032
1989
1959
1948
1953
1963
1972
1976
1976
1977
1977
1977
1977
1978
1978
1978
1978
1978
1978
1978
1979
1980
1981
1981
1982
1982
1982
1982
1983
1984
1985
1987
1988
1990
1991
1992
1993
1995
1996
1999
2002
2005
2007
2009
2011
2011
2012
2012
2012
2012
2012
2012
2011
2009
2007
2004
2000
1997
1994
1991
1988
1986
1984
1981
1979
1977
1975
1974
1973
1972
1972
1972
1972
1973
1973
1973
1973
1972
1972
1971
1971
1972
1973
1974
1974
1974
1974
1973
1973
1973
1973
1974
1975
1975
1975
1975
1975
1974
1974
1974
1974
1974
1975
1975
1975
1975
1974
1973
1972
1971
1971
1972
1972
1973
1973
1973
1972
1971
1970
1969
1968
1968
1968
1968
1968
1968
1967
1967
1968
1969
1971
1974
1975
1976
1975
1973
1971
1969
1967
1966
1965
1965
1966
1967
1968
1968
1967
1964
1960
1955
1954
1959
1973
1998
2033
2068
2092
2094
2070
2028
1982
1947
1933
1935
1945
1955
1960
1961
1961
1962
1962
1962
1962
1963
1963
1963
1963
1963
1963
1964
1965
1966
1968
1969
1969
1970
1970
1970
1970
1971
1973
1975
1977
1979
1980
1982
1984
1986
1988
1990
1992
1995
1997
1999
2001
2002
2002
2002
2002
2002
2001
2001
1999
1997
1994
1991
1987
1983
1979
1976
1973
1971
1969
1968
1966
1965
1964
1963
1963
1963
1963
1964
1964
1964
1964
1964
1964
1964
1964
1964
1964
1964
1964
1964
1964
1964
1964
1964
1964
1964
1964
1965
1965
1965
1965
1965
1964
1964
1963
1963
1963
1963
1964
1964
1964
1963
1963
1962
1962
1961
1961
1962
1962
1963
1963
1962
1961
1961
1962
1963
1966
1968
1969
1969
1967
1965
1963
1961
1960
1960
1961
1961
1962
1962
1963
1963
1961
1958
1954
1951
1953
1964
1985
2019
2057
2090
2104
2091
2053
2005
1961
1937
1932
1940
1951
1958
1960
1960
1961
1961
1962
1963
1963
1964
1964
1964
1964
1963
1963
1964
1965
1966
1967
1969
1969
1970
1970
1970
1971
1972
1974
1975
1978
1980
1981
1983
1985
1987
1989
1992
1995
1998
2000
2002
2004
2005
2005
2005
2004
2003
2002
2001
1999
1997
1994
1991
1987
1984
1981
1978
1976
1974
1973
1972
1971
1970
1969
1968
1967
1967
1967
1968
1968
1969
1969
1969
1968
1968
1968
1968
1968
1969
1969
1970
1971
1971
1971
1970
1970
1971
1972
1972
1973
1973
1973
1972
1972
1972
1971
1971
1971
1972
1972
1972
1972
1972
1972
1972
1971
1971
1972
1972
1972
1972
1972
1972
1971
1972
1973
1975
1977
1978
1979
1978
1976
1974
1973
1971
1970
1970
1970
1971
1972
1973
1973
1973
1970
1966
1963
1965
1974
1993
2023
2058
2091
2107
2097
2063
2017
1974
1948
1943
1950
1962
1970
1973
1973
1973
1972
1972
1973
1973
1974
1975
1976
1976
1977
1977
1977
1978
1979
1980
1982
1983
1983
1984
1985
1986
1987
1989
1992
1994
1997
1999
2001
2003
2004
2005
2007
2010
2013
2016
2019
2021
2021
2021
2021
2020
2020
2019
2018
2016
2015
2012
2009
2006
2002
1998
1995
1992
1990
1989
1989
1988
1987
1987
1986
1985
1985
1985
1985
1985
1986
1986
1987
1986
1986
1985
1985
1985
1986
1987
1988
1989
1989
1988
1987
1987
1986
1987
1987
1988
1988
1989
1989
1990
1991
1991
1991
1991
1990
1989
1989
1988
1988
1987
1986
1986
1985
1985
1985
1986
1986
1986
1986
1986
1986
1988
1990
1992
1994
1995
1995
1993
1991
1989
1988
1987
1986
1986
1987
1988
1989
1990
1988
1985
1981
1979
1984
1997
2021
2054
2089
2114
2117
2094
2052
2006
1970
1955
1956
1967
1978
1984
1986
1986
1985
1984
1983
1983
1984
1984
1985
1985
1986
1986
1985
1985
1985
1985
1986
1987
1988
1989
1990
1990
1990
1991
1992
1993
1994
1996
1998
2000
2002
2004
2006
2008
2010
2012
2014
2015
2017
2017
2017
2017
2016
2014
2013
2011
2009
2006
2004
2000
1997
1993
1990
1987
1984
1982
1981
1980
1980
1980
1979
1979
1978
1977
1976
1975
1976
1976
1977
1977
1977
1977
1977
1977
1977
1978
1978
1979
1979
1980
1980
1980
1980
1979
1979
1979
1979
1979
1980
1980
1980
1980
1979
1979
1978
1978
1978
1979
1980
1980
1980
1979
1979
1978
1978
1978
1978
1979
1979
1979
1980
1981
1982
1983
1984
1984
1984
1983
1982
1981
1979
1978
1976
1974
1973
1973
1973
1974
1974
1973
1970
1966
1964
1968
1980
2003
2036
2072
2100
2107
2088
2048
2001
1964
1946
1947
1957
1969
1976
1978
1979
1978
1977
1976
1975
1975
1976
1977
1978
1979
1979
1979
1979
1979
1979
1980
1981
1982
1983
1984
1985
1985
1985
1986
1987
1988
1990
1992
1995
1997
2000
2002
2003
2005
2006
2008
2009
2011
2012
2013
2013
2012
2011
2010
2007
2004
2000
1995
1991
1987
1984
1980
1977
1975
1973
1971
1970
1970
1970
1970
1969
1969
1969
1968
1967
1967
1967
1967
1968
1969
1969
1969
1969
1969
1969
1969
1970
1970
1971
1971
1972
1972
1971
1971
1971
1971
1971
1972
1972
1972
1972
1972
1972
1971
1971
1971
1971
1972
1973
1973
1974
1974
1973
1973
1972
1972
1971
1972
1973
1973
1974
1973
1973
1972
1973
1974
1977
1979
1981
1981
1980
1978
1976
1974
1973
1973
1972
1972
1973
1973
1974
1975
1974
1972
1968
1965
1964
1970
1985
2011
2045
2078
2100
2098
2072
2029
1985
1954
1943
1948
1959
1969
1973
1974
1974
1974
1974
1974
1975
1976
1977
1977
1977
1976
1976
1976
1977
1978
1979
1980
1981
1981
1981
1981
1982
1983
1984
1986
1988
1989
1991
1992
1993
1995
1997
1999
2002
2004
2007
2008
2009
2009
2009
2009
2009
2009
2009
2008
2006
2004
2001
1998
1995
1991
1987
1984
1982
1980
1978
1977
1976
1974
1973
1972
1972
1971
1972
1972
1972
1973
1972
1972
1972
1971
1971
1972
1972
1973
1974
1974
1974
1974
1973
1973
1973
1973
1974
1974
1975
1975
1975
1975
1975
1974
1974
1974
1975
1975
1976
1976
1976
1976
1975
1975
1974
1974
1974
1975
1976
1976
1976
1976
1975
1974
1974
1974
1974
1975
1975
1976
1975
1975
1975
1974
1974
1974
1975
1976
1979
1981
1982
1983
1982
1980
1978
1976
1976
1976
1976
1976
1976
1976
1975
1975
1976
1975
1973
1970
1967
1968
1974
1990
2017
2050
2083
2103
2099
2070
2027
1984
1955
1945
1950
1960
1968
1972
1973
1974
1975
1975
1975
1975
1975
1975
1975
1976
1976
1977
1978
1979
1979
1979
1979
1979
1980
1980
1981
1983
1984
1985
1987
1988
1989
1989
1991
1992
1995
1997
2000
2003
2005
2006
2007
2008
2009
2009
2010
2011
2011
2010
2009
2007
2004
2001
1997
1994
1991
1988
1986
1984
1982
1979
1977
1975
1973
1972
1972
1972
1972
1972
1972
1972
1972
1971
1971
1971
1971
1972
1972
1973
1973
1973
1973
1973
1972
1972
1973
1974
1974
1975
1975
1975
1974
1974
1974
1974
1974
1974
1975
1975
1975
1975
1974
1973
1972
1971
1970
1970
1970
1970
1970
1969
1968
1967
1967
1967
1968
1968
1968
1968
1967
1966
1965
1964
1963
1964
1965
1968
1971
1972
1972
1971
1968
1964
1962
1961
1960
1960
1960
1960
1960
1959
1959
1957
1955
1952
1949
1949
1954
1968
1993
2027
2061
2084
2085
2060
2019
1973
1940
1927
1929
1939
1948
1952
1953
1954
1955
1956
1958
1959
1959
1959
1958
1958
1958
1958
1959
1959
1959
1958
1957
1957
1957
1958
1959
1960
1962
1963
1965
1967
1968
1970
1971
1973
1976
1978
1981
1984
1987
1989
1991
1993
1994
1994
1995
1996
1996
1996
1995
1993
1991
1989
1986
1982
1979
1976
1973
1971
1969
1967
1966
1964
1963
1963
1962
1962
1963
1963
1964
1964
1964
1964
1964
1964
1964
1965
1966
1967
1968
1969
1970
1970
1970
1970
1970
1971
1971
1972
1972
1972
1973
1972
1971
1969
1968
1966
1966
1967
1968
1969
1969
1968
1967
1966
1966
1966
1966
1966
1967
1966
1966
1966
1966
1965
1965
1965
1967
1969
1971
1973
1974
1974
1972
1970
1969
1967
1966
1966
1966
1966
1967
1967
1968
1967
1966
1963
1958
1954
1954
1962
1981
2012
2049
2085
2104
2096
2062
2015
1969
1941
1932
1937
1948
1955
1958
1958
1958
1958
1959
1959
1960
1960
1960
1960
1960
1960
1960
1960
1961
1962
1963
1963
1963
1964
1966
1968
1970
1972
1974
1976
1977
1979
1981
1983
1985
1987
1990
1993
1997
2000
2003
2004
2005
2005
2005
2005
2005
2005
2003
2001
1997
1993
1990
1986
1983
1980
1977
1974
1972
1969
1967
1965
1963
1961
1961
1961
1962
1962
1961
1961
1960
1960
1961
1962
1963
1964
1964
1965
1965
1966
1966
1966
1966
1965
1964
1963
1962
1963
1964
1965
1967
1967
1967
1966
1964
1963
1963
1964
1965
1965
1965
1964
1962
1960
1959
1958
1957
1956
1956
1956
1957
1959
1960
1960
1960
1958
1956
1954
1953
1952
1951
1949
1947
1945
1943
1943
1944
1946
1945
1942
1937
1932
1934
1948
1976
2017
2061
2095
2104
2083
2038
1985
1941
1917
1915
1924
1936
1943
1946
1947
1948
1949
1950
1951
1951
1952
1952
1954
1956
1958
1960
1962
1963
1964
1965
1966
1967
1969
1972
1974
1975
1975
1975
1975
1977
1979
1982
1985
1988
1991
1995
1998
2001
2002
2003
2003
2004
2005
2007
2007
2006
2005
2002
2000
1997
1993
1989
1984
1979
1974
1971
1968
1965
1963
1962
1961
1962
1963
1964
1964
1964
1963
1963
1962
1962
1962
1964
1966
1967
1968
1969
1968
1967
1967
1966
1966
1965
1966
1966
1967
1968
1968
1967
1967
1967
1967
1968
1968
1968
1968
1968
1967
1966
1964
1963
1963
1966
1968
1970
1971
1972
1973
1974
1974
1973
1970
1967
1965
1963
1963
1963
1963
1963
1964
1965
1966
1966
1964
1959
1953
1953
1962
1984
2020
2067
2113
2140
2136
2099
2043
1989
1954
1944
1953
1967
1978
1983
1984
1986
1987
1987
1986
1986
1985
1986
1986
1987
1988
1990
1991
1993
1994
1995
1996
1997
1998
1999
2001
2002
2003
2005
2007
2009
2011
2013
2015
2017
2021
2024
2028
2031
2034
2037
2038
2039
2038
2036
2035
2033
2032
2029
2024
2018
2011
2004
1998
1994
1991
1988
1984
1980
1976
1972
1970
1968
1967
1965
1964
1963
1963
1963
1962
1962
1963
1965
1966
1968
1968
1967
1965
1963
1962
1962
1962
1963
1965
1966
1966
1965
1964
1964
1964
1965
1965
1965
1964
1964
1965
1966
1967
1966
1964
1961
1958
1957
1957
1958
1960
1962
1964
1964
1963
1960
1956
1953
1952
1950
1950
1950
1950
1950
1950
1950
1948
1943
1936
1930
1930
1942
1967
2008
2056
2100
2122
2110
2067
2007
1952
1917
1907
1915
1929
1939
1944
1944
1944
1942
1939
1939
1940
1941
1942
1941
1938
1936
1934
1934
1935
1936
1936
1937
1939
1941
1942
1943
1943
1944
1946
1948
1950
1951
1951
1951
1954
1957
1962
1969
1975
1981
1986
1990
1993
1996
1998
2001
2004
2005
2006
2006
2005
2004
2003
2001
1999
1997
1994
1994
1996
2000
2005
2007
2007
2005
2004
2004
2004
2006
2009
2014
2018
2022
2022
2020
2018
2020
2023
2028
2032
2033
2035
2037
2038
2037
2035
2033
2034
2037
2043
2048
2052
2051
2048
2041
2034
2030
2031
2037
2044
2048
2049
2048
2044
2041
2041
2044
2048
2051
2053
2054
2054
2054
2053
2051
2050
2050
2051
2053
2055
2057
2057
2058
2058
2057
2053
2048
2044
2045
2055
2080
2117
2162
2199
2215
2199
2156
2100
2049
2021
2014
2022
2033
2041
2042
2040
2038
2036
2034
2033
2032
2031
2030
2029
2027
2025
2023
2022
2021
2020
2019
2018
2018
2018
2018
2018
2018
2018
2019
2020
2022
2024
2025
2026
2026
2025
2025
2025
2027
2029
2031
2033
2034
2034
2033
2032
2031
2028
2026
2023
2020
2015
2011
2005
2000
1995
1989
1983
1976
1969
1961
1954
1948
1944
1940
1935
1929
1922
1916
1912
1909
1908
1907
1907
1906
1904
1903
1901
1899
1897
1896
1896
1896
1896
1895
1894
1894
1894
1894
1895
1895
1895
1894
1893
1892
1890
1890
1890
1890
1891
1891
1892
1891
1890
1889
1888
1889
1892
1896
1900
1902
1903
1902
1901
1900
1900
1900
1901
1902
1904
1905
1908
1910
1911
1912
1909
1905
1900
1900
1908
1928
1961
2005
2049
2080
2083
2054
2003
1948
1908
1892
1895
1908
1920
1925
1926
1927
1927
1928
1929
1930
1931
1933
1934
1934
1935
1935
1936
1938
1939
1941
1942
1943
1943
1944
1945
1947
1949
1951
1954
1957
1959
1962
1965
1967
1970
1973
1976
1979
1982
1985
1987
1989
1990
1991
1991
1992
1993
1993
1993
1991
1989
1985
1981
1977
1974
1970
1968
1966
1964
1964
1964
1964
1964
1964
1963
1963
1964
1965
1966
1966
1966
1967
1967
1968
1968
1969
1969
1971
1972
1974
1975
1976
1975
1974
1973
1972
1973
1975
1977
1979
1980
1980
1979
1978
1977
1976
1976
1977
1978
1978
1979
1980
1979
1978
1977
1976
1976
1976
1977
1978
1980
1982
1983
1984
1984
1983
1981
1979
1978
1978
1978
1978
1977
1977
1976
1976
1977
1978
1977
1975
1972
1969
1971
1981
2001
2031
2068
2102
2118
2108
2072
2023
1977
1949
1942
1950
1961
1970
1973
1974
1975
1976
1977
1978
1979
1979
1979
1980
1980
1981
1982
1983
1983
1984
1985
1986
1988
1990
1992
1995
1996
1998
1999
2002
2005
2008
2012
2015
2018
2021
2024
2028
2031
2033
2036
2037
2039
2040
2041
2043
2043
2044
2044
2043
2041
2038
2035
2032
2029
2026
2024
2021
2018
2015
2013
2012
2011
2011
2010
2010
2010
2009
2008
2007
2007
2007
2007
2008
2008
2008
2007
2006
2006
2005
2005
2005
2005
2005
2005
2005
2005
2004
2004
2003
2001
2001
2000
2000
2000
2001
2001
2000
2000
1998
1997
1995
1995
1995
1996
1997
1997
1996
1996
1995
1996
1997
1999
2000
2001
2001
2000
1998
1997
1995
1993
1992
1991
1991
1991
1992
1993
1993
1992
1989
1984
1979
1978
1983
1997
2022
2056
2092
2118
2121
2098
2055
2008
1971
1955
1956
1966
1976
1982
1983
1984
1984
1983
1983
1983
1983
1983
1983
1982
1982
1982
1983
1983
1984
1985
1986
1987
1988
1988
1988
1989
1989
1990
1992
1993
1996
1998
2000
2002
2003
2004
2005
2007
2010
2013
2016
2018
2019
2019
2019
2018
2017
2015
2014
2013
2013
2012
2009
2005
1999
1993
1988
1984
1983
1982
1982
1980
1979
1976
1974
1972
1971
1970
1970
1971
1971
1972
1972
1971
1970
1969
1968
1967
1967
1968
1969
1969
1969
1968
1967
1965
1965
1965
1965
1966
1965
1964
1962
1960
1958
1957
1957
1957
1957
1957
1957
1956
1956
1956
1955
1954
1954
1953
1954
1955
1958
1960
1963
1964
1963
1961
1959
1956
1955
1955
1955
1956
1956
1956
1956
1956
1956
1954
1951
1948
1946
1949
1962
1985
2019
2058
2092
2106
2092
2052
2001
1956
1931
1927
1936
1948
1955
1957
1957
1958
1958
1958
1958
1959
1959
1959
1960
1961
1962
1962
1963
1964
1965
1966
1966
1966
1966
1967
1968
1971
1973
1975
1977
1978
1980
1981
1983
1985
1988
1992
1995
1998
2000
2001
2002
2003
2004
2005
2006
2006
2007
2006
2004
2000
1996
1992
1989
1985
1983
1980
1977
1975
1974
1973
1971
1970
1968
1967
1967
1966
1966
1967
1967
1967
1968
1968
1968
1968
1968
1968
1969
1970
1971
1971
1972
1971
1971
1971
1971
1972
1972
1973
1973
1973
1973
1972
1972
1972
1973
1974
1974
1974
1973
1972
1971
1971
1971
1972
1974
1976
1978
1980
1981
1980
1979
1977
1975
1973
1972
1971
1971
1971
1972
1973
1974
1974
1973
1969
1964
1961
1965
1978
2003
2041
2084
2120
2132
2113
2068
2013
1968
1944
1943
1954
1966
1972
1974
1973
1974
1975
1976
1977
1977
1977
1977
1977
1978
1979
1980
1981
1981
1982
1982
1983
1984
1985
1986
1988
1990
1991
1993
1995
1996
1998
1999
2001
2003
2006
2008
2011
2014
2016
2018
2019
2019
2019
2019
2019
2019
2019
2019
2017
2015
2011
2007
2002
1997
1993
1990
1988
1986
1984
1983
1982
1981
1980
1979
1979
1979
1979
1980
1981
1981
1981
1980
1980
1980
1981
1982
1982
1982
1982
1982
1982
1983
1983
1983
1983
1983
1983
1983
1983
1984
1984
1984
1984
1984
1983
1983
1983
1984
1984
1984
1984
1983
1983
1983
1984
1986
1989
1992
1994
1994
1994
1992
1990
1989
1988
1987
1987
1986
1986
1987
1988
1988
1987
1984
1980
1976
1977
1986
2007
2041
2083
2123
2146
2140
2104
2049
1997
1963
1953
1960
1973
1982
1985
1983
1983
1982
1983
1983
1983
1983
1983
1983
1984
1984
1984
1985
1986
1987
1988
1989
1988
1988
1988
1989
1990
1992
1994
1995
1997
1998
2000
2002
2003
2005
2007
2010
2013
2015
2017
2018
2018
2018
2017
2017
2017
2017
2017
2016
2014
2011
2007
2004
2000
1996
1993
1990
1987
1986
1984
1983
1982
1981
1980
1980
1980
1980
1981
1981
1981
1980
1980
1980
1980
1980
1981
1981
1982
1982
1982
1983
1983
1984
1983
1982
1982
1982
1982
1983
1984
1984
1983
1983
1982
1982
1983
1983
1983
1983
1983
1982
1981
1980
1979
1978
1978
1979
1981
1985
1988
1990
1990
1989
1987
1985
1984
1983
1983
1982
1982
1981
1982
1982
1983
1981
1978
1973
1970
1971
1981
2001
2033
2073
2114
2138
2134
2099
2046
1992
1957
1946
1952
1966
1976
1980
1980
1981
1980
1980
1980
1980
1981
1980
1980
1980
1980
1980
1981
1982
1984
1985
1986
1986
1986
1985
1986
1987
1989
1990
1992
1993
1994
1995
1996
1998
1999
2002
2005
2008
2011
2013
2015
2015
2015
2015
2014
2014
2013
2012
2011
2010
2007
2004
2000
1996
1992
1989
1986
1984
1981
1980
1978
1976
1975
1974
1973
1974
1975
1976
1976
1976
1976
1975
1974
1974
1974
1975
1976
1976
1977
1977
1977
1977
1978
1978
1979
1979
1978
1978
1978
1977
1977
1977
1977
1976
1977
1977
1977
1977
1977
1977
1977
1977
1978
1979
1979
1978
1978
1977
1978
1979
1981
1983
1985
1986
1985
1984
1982
1981
1980
1979
1978
1978
1977
1978
1979
1980
1980
1978
1974
1969
1969
1977
1995
2027
2067
2106
2130
2125
2090
2039
1988
1955
1946
1954
1969
1979
1984
1984
1983
1983
1982
1983
1983
1984
1984
1985
1985
1985
1986
1986
1986
1986
1987
1987
1988
1989
1991
1993
1994
1994
1995
1995
1995
1997
1999
2001
2004
2007
2010
2012
2014
2016
2018
2019
2019
2020
2021
2021
2021
2021
2020
2018
2016
2014
2012
2010
2007
2004
2002
2000
1999
1997
1996
1995
1994
1995
1995
1997
1998
1999
2000
2001
2002
2003
2004
2005
2007
2008
2009
2009
2008
2007
2005
2005
2005
2006
2008
2009
2009
2009
2008
2007
2006
2005
2004
2004
2004
2005
2006
2006
2006
2005
2004
2003
2002
2002
2002
2003
2003
2003
2003
2003
2003
2005
2007
2009
2010
2010
2010
2009
2008
2007
2006
2005
2004
2004
2004
2005
2007
2008
2007
2004
1999
1996
2000
2013
2039
2074
2112
2140
2143
2118
2072
2023
1986
1971
1975
1988
2000
2005
2006
2005
2003
2002
2002
2002
2003
2004
2005
2006
2006
2006
2006
2006
2007
2008
2009
2010
2011
2011
2011
2010
2010
2011
2013
2016
2018
2021
2023
2025
2026
2028
2029
2031
2033
2035
2036
2038
2038
2038
2037
2036
2035
2034
2032
2031
2029
2027
2024
2021
2018
2014
2011
2007
2005
2004
2004
2004
2004
2004
2003
2002
2001
2000
2000
2000
2001
2002
2003
2002
2002
2001
2000
1999
1999
1999
1999
2000
2001
2001
2000
1999
1999
1998
1999
1999
1999
1999
1998
1998
1997
1996
1996
1996
1996
1996
1995
1994
1993
1992
1992
1991
1990
1990
1990
1990
1992
1994
1997
1999
2000
2000
1998
1996
1994
1992
1992
1992
1992
1991
1991
1991
1991
1990
1989
1987
1983
1980
1983
1995
2017
2051
2089
2117
2123
2101
2057
2009
1971
1953
1954
1964
1974
1979
1980
1980
1981
1981
1982
1981
1981
1980
1978
1976
1975
1975
1976
1978
1978
1978
1978
1977
1977
1978
1979
1980
1980
1980
1980
1981
1982
1983
1984
1986
1987
1989
1992
1995
1998
2000
2001
2002
2003
2003
2004
2004
2005
2004
2004
2002
1999
1995
1992
1988
1985
1983
1982
1980
1978
1976
1975
1973
1972
1971
1971
1970
1971
1971
1971
1972
1972
1972
1972
1972
1972
1972
1973
1974
1975
1975
1975
1974
1974
1975
1975
1976
1975
1975
1974
1974
1974
1973
1973
1972
1972
1973
1974
1974
1974
1973
1972
1972
1971
1971
1971
1971
1971
1972
1972
1972
1974
1975
1977
1978
1978
1977
1976
1975
1974
1973
1972
1970
1969
1969
1969
1971
1972
1972
1969
1965
1961
1961
1970
1989
2019
2056
2089
2106
2096
2060
2012
1967
1940
1933
1942
1954
1964
1968
1969
1969
1968
1967
1966
1966
1967
1968
1969
1969
1970
1970
1971
1972
1973
1973
1973
1972
1972
1973
1975
1977
1978
1979
1979
1980
1982
1983
1986
1988
1991
1993
1995
1996
1997
1997
1998
2000
2002
2003
2004
2004
2004
2003
2001
1999
1997
1994
1992
1990
1987
1984
1981
1978
1976
1974
1972
1972
1971
1971
1971
1971
1970
1970
1969
1969
1969
1969
1970
1971
1971
1972
1972
1972
1972
1972
1971
1971
1971
1972
1972
1972
1972
1971
1971
1970
1970
1969
1969
1970
1970
1970
1969
1969
1968
1967
1967
1966
1966
1966
1966
1966
1965
1965
1965
1966
1969
1971
1972
1972
1971
1970
1968
1967
1966
1965
1965
1965
1965
1965
1965
1965
1962
1959
1955
1955
1962
1980
2009
2047
2082
2103
2098
2067
2021
1975
1946
1936
1943
1954
1963
1967
1967
1967
1967
1967
1967
1967
1968
1969
1971
1971
1971
1970
1969
1969
1968
1969
1970
1972
1973
1974
1976
1976
1977
1978
1980
1982
1984
1986
1989
1991
1993
1995
1998
2000
2002
2004
2006
2008
2009
2010
2010
2010
2009
2008
2007
2006
2004
2001
1998
1995
1991
1988
1984
1982
1980
1978
1977
1977
1977
1976
1976
1975
1975
1974
1975
1975
1976
1977
1977
1978
1978
1978
1977
1977
1977
1977
1977
1978
1978
1978
1978
1977
1976
1976
1977
1977
1978
1979
1979
1978
1978
1977
1977
1977
1977
1977
1977
1978
1978
1979
1980
1981
1982
1983
1983
1983
1982
1980
1979
1978
1977
1976
1976
1976
1977
1978
1979
1978
1975
1970
1966
1967
1977
1999
2035
2075
2110
2123
2107
2066
2016
1973
1951
1949
1959
1971
1979
1982
1982
1983
1982
1982
1981
1981
1982
1983
1985
1987
1988
1988
1989
1988
1988
1989
1990
1991
1993
1994
1996
1997
1998
1999
2000
2001
2003
2005
2007
2010
2013
2016
2018
2020
2022
2024
2025
2027
2028
2029
2030
2030
2029
2028
2026
2023
2020
2018
2015
2013
2010
2007
2003
2000
1998
1997
1997
1998
1998
1999
1999
1999
1999
1999
1998
1998
1997
1997
1997
1997
1998
1998
1998
1998
1998
1998
1999
2001
2002
2004
2003
2003
2003
2004
2006
2008
2007
2005
2002
2000
1999
2000
2000
2001
2000
1998
1996
1994
1994
1997
2001
2005
2008
2008
2007
2004
2002
2001
2000
2000
2000
2000
2000
2001
2002
2003
2003
2001
1997
1993
1991
1994
2006
2028
2060
2097
2126
2133
2114
2073
2027
1990
1973
1974
1984
1995
2002
2005
2006
2006
2004
2003
2003
2005
2008
2012
2014
2016
2018
2020
2021
2021
2017
2013
2009
2008
2008
2008
2008
2008
2008
2011
2014
2017
2020
2023
2028
2034
2041
2048
2052
2055
2057
2058
2061
2065
2069
2074
2076
2076
2074
2071
2068
2066
2064
2063
2062
2060
2058
2055
2052
2049
2048
2048
2048
2048
2048
2048
2049
2051
2053
2055
2057
2056
2054
2052
2050
2050
2051
2052
2054
2055
2056
2055
2054
2053
2052
2052
2051
2050
2050
2051
2052
2053
2053
2054
2053
2053
2053
2052
2051
2050
2050
2050
2050
2050
2051
2052
2054
2054
2055
2054
2053
2051
2049
2047
2046
2045
2045
2044
2045
2045
2045
2043
2040
2035
2030
2031
2040
2058
2087
2121
2149
2162
2153
2123
2082
2046
2023
2017
2023
2033
2040
2043
2043
2044
2044
2043
2042
2041
2040
2040
2040
2041
2043
2043
2044
2045
2046
2047
2048
2048
2049
2050
2051
2051
2052
2053
2054
2055
2057
2058
2058
2059
2059
2060
2062
2065
2067
2068
2068
2067
2066
2064
2062
2061
2059
2058
2056
2054
2051
2049
2047
2044
2040
2035
2031
2028
2026
2024
2022
2019
2017
2015
2014
2014
2014
2014
2014
2014
2013
2013
2013
2013
2014
2015
2016
2018
2020
2021
2023
2023
2024
2024
2024
2024
2025
2026
2027
2027
2026
2025
2025
2024
2024
2024
2024
2026
2028
2031
2034
2036
2037
2037
2037
2036
2037
2037
2039
2040
2040
2041
2041
2041
2041
2040
2039
2035
2032
2032
2040
2058
2088
2124
2156
2169
2157
2124
2080
2043
2022
2019
2027
2037
2043
2045
2045
2045
2046
2046
2046
2046
2045
2043
2041
2040
2038
2037
2037
2037
2038
2038
2038
2037
2035
2035
2035
2036
2038
2040
2042
2042
2042
2042
2041
2042
2045
2048
2051
2053
2055
2057
2057
2057
2056
2057
2060
2063
2067
2070
2071
2070
2068
2066
2064
2062
2060
2057
2054
2051
2049
2048
2048
2048
2048
2048
2048
2048
2047
2045
2043
2041
2040
2039
2038
2038
2039
2039
2039
2038
2036
2033
2030
2027
2025
2023
2023
2022
2021
2019
2016
2013
2010
2008
2006
2004
2002
2000
1999
1998
1999
2000
2002
2003
2003
2000
1997
1995
1993
1993
1994
1996
1997
1997
1998
1998
1999
2000
2000
1998
1995
1994
1999
2011
2034
2066
2100
2126
2131
2111
2072
2028
1992
1974
1972
1980
1990
1995
1996
1996
1996
1996
1995
1994
1993
1991
1990
1990
1992
1994
1997
1998
1997
1996
1995
1994
1993
1994
1995
1996
1998
1998
1999
2000
2000
2000
2001
2002
2004
2006
2009
2012
2014
2015
2016
2017
2018
2019
2020
2020
2020
2020
2021
2020
2019
2017
2014
2012
2010
2009
2008
2007
2004
2002
2001
2001
2000
2000
2000
2000
2000
2001
2001
1999
1997
1994
1991
1990
1989
1988
1986
1984
1981
1979
1976
1974
1972
1970
1969
1967
1966
1964
1962
1958
1955
1951
1949
1949
1949
1950
1949
1948
1945
1943
1942
1943
1944
1946
1946
1946
1945
1945
1944
1943
1941
1940
1940
1941
1943
1946
1948
1949
1948
1944
1940
1941
1950
1971
2004
2043
2075
2089
2077
2045
2001
1964
1944
1941
1949
1959
1966
1967
1967
1966
1965
1965
1966
1967
1969
1970
1971
1972
1973
1973
1973
1973
1974
1976
1978
1981
1985
1988
1992
1994
1995
1995
1995
1995
1997
2000
2003
2006
2008
2010
2011
2011
2010
2008
2007
2006
2005
2003
2001
1999
1997
1994
1992
1989
1986
1984
1980
1977
1972
1968
1965
1962
1960
1959
1959
1960
1960
1961
1962
1961
1961
1961
1961
1963
1964
1964
1963
1962
1962
1964
1966
1968
1967
1965
1961
1958
1958
1959
1961
1962
1961
1961
1961
1961
1962
1962
1962
1961
1959
1958
1957
1957
1958
1960
1962
1964
1964
1964
1962
1960
1959
1958
1958
1958
1958
1958
1957
1957
1958
1958
1958
1956
1952
1949
1949
1956
1971
1996
2027
2054
2070
2066
2042
2005
1969
1946
1939
1942
1950
1955
1956
1955
1956
1957
1958
1959
1959
1960
1960
1961
1962
1964
1965
1966
1967
1968
1970
1970
1971
1970
1970
1970
1971
1973
1975
1977
1980
1982
1984
1986
1988
1990
1992
1994
1996
1998
2000
2001
2000
1999
1998
1997
1997
1997
1997
1996
1994
1991
1987
1984
1981
1978
1976
1974
1972
1971
1968
1965
1962
1959
1955
1952
1950
1948
1947
1946
1945
1944
1943
1941
1938
1935
1933
1931
1930
1929
1929
1928
1927
1925
1923
1922
1922
1923
1924
1925
1924
1923
1922
1921
1921
1920
1919
1919
1919
1920
1922
1924
1925
1925
1923
1921
1919
1918
1918
1918
1919
1919
1920
1921
1922
1922
1921
1919
1916
1912
1913
1920
1938
1967
2003
2037
2053
2047
2016
1972
1930
1904
1896
1902
1912
1920
1924
1926
1927
1929
1929
1930
1931
1931
1932
1933
1934
1936
1938
1941
1943
1945
1946
1947
1948
1949
1951
1953
1955
1957
1959
1961
1962
1963
1965
1966
1968
1971
1973
1976
1978
1979
1980
1980
1981
1981
1981
1981
1981
1981
1980
1978
1976
1974
1971
1968
1965
1962
1960
1957
1955
1954
1952
1951
1951
1950
1950
1950
1950
1951
1952
1953
1953
1953
1953
1953
1954
1954
1955
1956
1957
1958
1958
1957
1957
1957
1957
1958
1958
1959
1960
1960
1960
1960
1960
1959
1960
1960
1961
1963
1964
1966
1968
1969
1969
1968
1967
1966
1965
1965
1965
1965
1965
1964
1964
1964
1964
1962
1958
1954
1952
1957
1972
1998
2034
2069
2092
2090
2063
2020
1977
1948
1938
1942
1952
1960
1963
1964
1965
1966
1966
1966
1966
1966
1966
1967
1967
1968
1969
1970
1971
1972
1973
1973
1974
1974
1975
1976
1978
1980
1981
1983
1984
1984
1985
1987
1989
1992
1995
1999
2002
2006
2008
2010
2011
2012
2012
2013
2013
2013
2013
2012
2010
2007
2004
2001
1998
1995
1993
1991
1989
1988
1986
1985
1984
1984
1985
1986
1988
1989
1990
1990
1990
1990
1990
1990
1990
1990
1991
1991
1991
1991
1989
1988
1987
1987
1987
1988
1988
1988
1987
1986
1986
1986
1985
1985
1984
1984
1984
1985
1985
1986
1987
1988
1989
1989
1988
1987
1986
1986
1985
1985
1984
1984
1983
1983
1984
1985
1985
1983
1979
1975
1974
1979
1995
2022
2058
2093
2114
2111
2082
2038
1994
1966
1956
1961
1971
1979
1983
1984
1985
1986
1985
1985
1984
1984
1984
1985
1986
1987
1988
1988
1988
1988
1987
1987
1988
1989
1990
1991
1992
1993
1994
1996
1997
1998
1999
2000
2002
2004
2006
2008
2010
2011
2011
2012
2013
2014
2015
2016
2017
2017
2016
2015
2012
2009
2006
2003
2001
1999
1996
1993
1990
1987
1985
1984
1983
1984
1984
1984
1985
1985
1985
1985
1984
1984
1984
1984
1984
1985
1985
1985
1985
1984
1984
1984
1983
1984
1984
1985
1985
1985
1985
1984
1983
1982
1982
1982
1982
1983
1983
1983
1982
1982
1982
1984
1985
1986
1986
1986
1985
1984
1982
1981
1979
1978
1977
1977
1978
1979
1981
1982
1981
1977
1972
1969
1972
1984
2008
2042
2079
2107
2115
2094
2053
2006
1968
1950
1951
1962
1973
1979
1979
1978
1977
1975
1975
1975
1976
1976
1977
1977
1976
1976
1976
1976
1976
1976
1976
1976
1977
1978
1979
1979
1980
1980
1981
1982
1984
1987
1989
1991
1993
1995
1997
2000
2003
2006
2009
2012
2014
2015
2015
2015
2014
2013
2011
2010
2009
2007
2005
2002
2000
1997
1994
1992
1991
1990
1990
1990
1990
1990
1989
1989
1988
1988
1988
1988
1989
1989
1989
1990
1990
1989
1989
1988
1988
1988
1988
1989
1988
1988
1988
1987
1986
1986
1986
1985
1986
1986
1986
1986
1986
1986
1985
1984
1984
1985
1986
1988
1990
1991
1991
1990
1989
1987
1986
1985
1985
1985
1985
1985
1985
1985
1985
1985
1983
1980
1976
1975
1979
1993
2017
2050
2084
2106
2106
2082
2042
2000
1970
1958
1961
1970
1978
1981
1981
1981
1982
1982
1983
1983
1983
1982
1982
1981
1982
1982
1983
1984
1985
1986
1986
1986
1987
1987
1988
1989
1991
1992
1994
1995
1997
1998
1999
2000
2002
2004
2006
2009
2011
2012
2012
2012
2012
2013
2013
2014
2014
2014
2013
2011
2008
2006
2003
2000
1997
1994
1992
1990
1988
1987
1986
1985
1983
1983
1982
1982
1983
1983
1983
1983
1983
1983
1983
1982
1982
1983
1984
1985
1986
1986
1986
1985
1985
1984
1984
1985
1986
1987
1987
1987
1987
1986
1986
1986
1986
1987
1987
1988
1988
1989
1990
1992
1993
1994
1994
1993
1992
1992
1991
1991
1990
1990
1989
1989
1989
1990
1991
1990
1987
1983
1979
1981
1992
2015
2048
2086
2115
2122
2102
2061
2016
1980
1964
1964
1974
1984
1989
1991
1991
1992
1992
1992
1991
1991
1990
1990
1990
1990
1990
1991
1991
1990
1990
1989
1989
1990
1991
1993
1994
1995
1995
1996
1997
1998
2000
2002
2004
2006
2009
2011
2013
2015
2016
2017
2017
2018
2019
2020
2020
2020
2018
2017
2014
2012
2009
2006
2003
2000
1997
1994
1991
1988
1986
1984
1984
1983
1984
1984
1984
1984
1984
1983
1983
1982
1983
1983
1984
1984
1985
1985
1985
1985
1983
1982
1982
1982
1982
1983
1983
1983
1983
1982
1982
1981
1981
1981
1981
1981
1982
1982
1981
1981
1981
1982
1983
1984
1985
1985
1985
1983
1981
1979
1977
1976
1976
1976
1977
1977
1978
1978
1975
1970
1964
1962
1967
1985
2015
2054
2092
2115
2111
2079
2032
1985
1954
1944
1949
1959
1968
1971
1971
1971
1970
1970
1969
1970
1970
1971
1971
1972
1972
1972
1972
1972
1972
1973
1974
1976
1977
1978
1978
1979
1979
1980
1981
1983
1985
1987
1989
1991
1993
1995
1997
1999
2001
2002
2003
2005
2005
2006
2005
2005
2004
2002
2001
1999
1996
1994
1991
1988
1985
1981
1978
1975
1973
1971
1971
1971
1971
1971
1971
1970
1969
1969
1968
1969
1969
1970
1971
1971
1971
1971
1971
1971
1971
1972
1972
1973
1973
1973
1973
1973
1973
1972
1971
1971
1971
1971
1972
1972
1973
1972
1972
1972
1973
1975
1977
1978
1979
1978
1976
1974
1972
1970
1970
1970
1970
1971
1972
1973
1973
1972
1968
1963
1958
1958
1967
1987
2020
2060
2097
2115
2105
2069
2020
1976
1949
1943
1951
1962
1969
1971
1971
1971
1972
1972
1973
1973
1974
1974
1974
1974
1974
1975
1975
1976
1978
1979
1980
1981
1982
1983
1984
1985
1986
1988
1990
1992
1994
1997
2000
2002
2005
2008
2010
2012
2014
2016
2017
2018
2018
2018
2017
2016
2015
2014
2013
2010
2008
2005
2001
1997
1993
1990
1987
1985
1984
1984
1983
1982
1981
1980
1979
1978
1978
1978
1979
1979
1979
1979
1979
1979
1979
1978
1978
1977
1977
1978
1978
1979
1979
1978
1977
1977
1976
1976
1977
1978
1979
1979
1980
1979
1978
1977
1976
1976
1976
1977
1977
1977
1976
1975
1974
1973
1974
1974
1974
1974
1974
1974
1974
1975
1976
1977
1977
1974
1970
1965
1962
1965
1979
2003
2039
2076
2105
2113
2093
2051
2005
1968
1949
1948
1956
1965
1970
1973
1975
1978
1979
1979
1977
1975
1973
1971
1971
1972
1975
1979
1981
1983
1983
1982
1982
1982
1984
1986
1990
1993
1995
1997
1999
2002
2004
2006
2008
2009
2010
2012
2013
2016
2018
2019
2019
2019
2020
2021
2022
2022
2021
2019
2016
2014
2013
2012
2009
2006
2002
1999
1997
1997
1996
1995
1994
1992
1991
1989
1989
1988
1989
1991
1992
1993
1992
1990
1989
1989
1991
1992
1993
1993
1991
1989
1988
1989
1990
1992
1993
1992
1991
1990
1989
1988
1987
1987
1986
1986
1985
1985
1984
1984
1983
1983
1984
1985
1985
1986
1985
1984
1983
1981
1980
1978
1977
1976
1975
1975
1976
1975
1975
1973
1969
1965
1963
1966
1977
1998
2030
2064
2092
2101
2085
2049
2005
1968
1947
1944
1951
1961
1967
1969
1968
1968
1967
1967
1966
1965
1964
1963
1962
1963
1963
1963
1963
1964
1965
1967
1968
1969
1970
1969
1969
1968
1968
1968
1970
1972
1976
1979
1983
1985
1987
1988
1989
1990
1992
1995
1998
2001
2003
2002
2001
2000
1999
1999
1998
1997
1996
1993
1990
1987
1985
1983
1982
1981
1981
1980
1979
1977
1976
1976
1977
1978
1978
1978
1977
1978
1979
1979
1980
1980
1980
1980
1981
1981
1982
1983
1985
1986
1987
1987
1985
1984
1983
1983
1984
1985
1986
1986
1986
1985
1984
1983
1983
1982
1982
1982
1983
1984
1985
1987
1989
1989
1988
1987
1985
1983
1983
1982
1981
1980
1979
1978
1977
1978
1979
1979
1978
1977
1974
1972
1975
1985
2004
2033
2066
2094
2105
2092
2059
2017
1979
1958
1955
1963
1973
1980
1983
1984
1985
1985
1985
1985
1984
1984
1984
1985
1986
1986
1987
1987
1988
1988
1988
1987
1986
1985
1984
1983
1983
1984
1985
1985
1986
1988
1989
1991
1994
1996
1998
2001
2002
2004
2005
2006
2006
2008
2009
2009
2010
2009
2008
2006
2004
2001
1998
1995
1993
1991
1989
1987
1985
1983
1981
1980
1979
1979
1979
1979
1979
1979
1979
1979
1979
1979
1979
1980
1981
1982
1983
1983
1984
1983
1983
1983
1983
1983
1983
1984
1985
1986
1987
1987
1987
1987
1987
1987
1988
1988
1989
1989
1988
1988
1988
1988
1989
1991
1993
1996
1997
1997
1996
1995
1993
1991
1990
1990
1990
1991
1991
1992
1993
1993
1992
1989
1985
1982
1983
1993
2012
2042
2078
2110
2126
2117
2084
2039
1998
1973
1966
1972
1982
1989
1991
1991
1991
1991
1991
1991
1992
1993
1993
1992
1992
1992
1992
1994
1997
2000
2003
2005
2006
2006
2007
2007
2008
2009
2011
2013
2015
2016
2018
2019
2020
2022
2024
2026
2029
2031
2033
2034
2034
2034
2033
2033
2033
2032
2032
2031
2029
2026
2023
2020
2016
2013
2011
2009
2007
2006
2005
2004
2003
2002
2001
2000
2000
2001
2002
2003
2003
2003
2003
2002
2001
2001
2002
2002
2003
2003
2004
2004
2004
2004
2003
2002
2002
2001
2001
2001
2002
2001
2001
2000
1999
1998
1998
1998
1998
1999
1999
1999
1999
2000
2001
2001
2002
2001
2000
1998
1997
1995
1994
1993
1992
1991
1991
1992
1992
1993
1992
1988
1983
1980
1984
1997
2022
2058
2098
2128
2135
2114
2071
2023
1985
1967
1967
1977
1987
1992
1994
1994
1993
1993
1992
1992
1993
1993
1994
1995
1995
1995
1995
1995
1995
1995
1995
1996
1997
1998
1999
2000
2000
2000
2000
2001
2002
2004
2007
2011
2014
2017
2019
2020
2021
2022
2023
2024
2024
2025
2025
2025
2024
2022
2020
2017
2015
2012
2010
2008
2005
2002
1998
1995
1992
1990
1988
1987
1987
1986
1986
1985
1985
1984
1984
1983
1983
1984
1984
1985
1985
1985
1984
1984
1984
1984
1984
1984
1985
1985
1985
1984
1984
1984
1984
1983
1983
1983
1983
1983
1983
1983
1983
1982
1981
1980
1980
1981
1982
1983
1985
1987
1988
1987
1986
1984
1982
1981
1981
1981
1982
1982
1982
1982
1982
1981
1980
1977
1974
1972
1974
1984
2004
2034
2070
2101
2114
2101
2065
2019
1978
1954
1949
1957
1967
1974
1976
1976
1977
1977
1977
1977
1976
1976
1976
1976
1977
1977
1978
1979
1980
1981
1981
1981
1980
1980
1981
1982
1983
1985
1986
1987
1988
1989
1990
1991
1993
1995
1998
2001
2003
2005
2006
2006
2006
2006
2005
2005
2005
2005
2005
2004
2001
1998
1994
1991
1988
1985
1983
1981
1979
1977
1975
1973
1972
1971
1971
1971
1971
1972
1972
1972
1972
1971
1971
1971
1971
1972
1973
1973
1973
1973
1973
1972
1972
1971
1971
1971
1972
1972
1973
1974
1973
1973
1972
1972
1971
1971
1971
1972
1972
1973
1972
1972
1971
1971
1972
1974
1976
1978
1979
1978
1976
1974
1971
1969
1968
1967
1968
1968
1969
1970
1970
1969
1966
1962
1959
1960
1968
1985
2013
2048
2081
2099
2093
2063
2018
1975
1946
1938
1944
1955
1963
1965
1965
1965
1965
1965
1965
1966
1967
1967
1967
1966
1966
1966
1966
1967
1968
1969
1970
1971
1971
1971
1972
1972
1973
1975
1976
1978
1979
1981
1982
1984
1985
1987
1989
1991
1993
1994
1995
1996
1997
1997
1996
1995
1994
1993
1992
1991
1990
1987
1983
1979
1975
1972
1970
1968
1966
1965
1964
1963
1962
1961
1960
1959
1958
1958
1958
1958
1958
1958
1958
1958
1957
1956
1956
1956
1956
1957
1957
1957
1956
1955
1955
1954
1954
1954
1955
1955
1955
1954
1953
1952
1951
1950
1950
1950
1950
1951
1951
1951
1951
1951
1951
1952
1953
1955
1956
1957
1957
1955
1954
1952
1950
1950
1949
1950
1950
1951
1952
1953
1952
1950
1945
1942
1943
1951
1971
2002
2040
2072
2089
2079
2045
1997
1954
1928
1921
1929
1939
1946
1948
1947
1946
1945
1945
1945
1946
1947
1947
1948
1947
1947
1947
1947
1947
1949
1950
1952
1953
1953
1953
1953
1953
1953
1953
1954
1956
1957
1960
1962
1964
1966
1968
1970
1971
1973
1974
1976
1977
1977
1977
1976
1975
1973
1972
1970
1968
1966
1964
1962
1958
1955
1952
1949
1946
1945
1944
1944
1944
1943
1942
1942
1941
1940
1940
1940
1940
1941
1942
1942
1942
1941
1941
1940
1940
1940
1941
1941
1942
1942
1942
1942
1941
1940
1939
1939
1939
1939
1940
1941
1940
1940
1938
1938
1937
1937
1938
1938
1939
1939
1940
1941
1942
1943
1943
1943
1941
1940
1938
1936
1935
1935
1934
1934
1934
1934
1935
1935
1932
1928
1923
1923
1932
1953
1986
2026
2060
2074
2061
2023
1973
1929
1903
1899
1907
1918
1925
1928
1929
1931
1931
1931
1931
1930
1930
1930
1931
1932
1933
1933
1933
1933
1933
1933
1934
1936
1938
1940
1941
1943
1943
1944
1945
1946
1948
1950
1952
1955
1958
1960
1962
1963
1964
1965
1967
1968
1969
1969
1969
1969
1969
1967
1965
1963
1960
1956
1953
1950
1948
1945
1942
1940
1938
1937
1936
1935
1934
1934
1935
1935
1935
1935
1935
1934
1934
1935
1936
1937
1938
1938
1939
1938
1938
1938
1939
1939
1940
1941
1941
1941
1941
1941
1940
1940
1941
1941
1941
1942
1942
1942
1942
1941
1941
1940
1940
1941
1942
1944
1946
1949
1950
1950
1949
1947
1945
1944
1944
1944
1944
1944
1945
1945
1945
1945
1944
1943
1940
1937
1939
1947
1966
1996
2035
2069
2089
2081
2048
2002
1958
1931
1924
1932
1943
1952
1955
1956
1957
1958
1959
1959
1959
1959
1959
1959
1960
1961
1963
1965
1966
1968
1969
1970
1970
1971
1971
1972
1974
1976
1978
1980
1982
1984
1986
1988
1990
1993
1996
1998
2000
2003
2006
2009
2012
2014
2016
2017
2017
2017
2017
2015
2013
2009
2006
2002
1998
1996
1993
1992
1990
1988
1987
1986
1986
1985
1985
1985
1985
1985
1986
1986
1986
1986
1986
1986
1986
1987
1988
1989
1990
1990
1990
1990
1989
1988
1988
1989
1989
1990
1990
1990
1989
1988
1988
1988
1988
1988
1988
1988
1988
1988
1987
1987
1986
1985
1985
1985
1986
1988
1990
1991
1991
1990
1989
1987
1985
1984
1983
1982
1982
1981
1981
1981
1981
1980
1978
1975
1971
1968
1971
1982
2003
2034
2068
2098
2109
2095
2058
2012
1971
1949
1946
1954
1965
1972
1975
1975
1975
1975
1975
1975
1975
1975
1974
1975
1975
1976
1977
1977
1978
1978
1979
1979
1979
1979
1980
1981
1983
1984
1986
1987
1988
1989
1990
1991
1993
1995
1998
2000
2002
2004
2005
2005
2005
2006
2006
2006
2006
2006
2004
2002
2000
1997
1994
1990
1987
1985
1983
1981
1979
1978
1976
1975
1973
1973
1972
1973
1973
1974
1974
1974
1974
1973
1973
1973
1973
1973
1974
1975
1975
1976
1976
1975
1975
1974
1974
1975
1975
1976
1976
1976
1976
1975
1975
1975
1975
1976
1977
1977
1977
1977
1977
1976
1975
1975
1975
1975
1976
1977
1979
1980
1981
1981
1979
1977
1975
1973
1971
1971
1970
1970
1970
1969
1969
1969
1968
1967
1964
1960
1960
1966
1981
2007
2044
2079
2103
2103
2075
2031
1984
1951
1938
1942
1952
1961
1966
1967
1968
1969
1970
1970
1970
1970
1970
1969
1970
1970
1971
1972
1972
1973
1973
1973
1972
1972
1972
1973
1974
1976
1977
1977
1978
1979
1980
1981
1983
1985
1987
1989
1991
1993
1994
1994
1994
1994
1994
1993
1992
1991
1989
1987
1983
1979
1975
1971
1967
1964
1961
1958
1956
1954
1952
1950
1948
1947
1946
1946
1946
1946
1947
1947
1947
1946
1945
1945
1945
1945
1946
1946
1947
1948
1948
1947
1947
1946
1946
1946
1947
1947
1947
1947
1947
1947
1946
1946
1946
1946
1946
1946
1945
1945
1945
1945
1945
1944
1944
1944
1944
1946
1948
1950
1952
1953
1953
1952
1950
1949
1948
1947
1947
1947
1947
1947
1947
1947
1948
1947
1945
1941
1937
1937
1945
1963
1994
2033
2069
2088
2080
2046
1996
1949
1920
1912
1918
1929
1937
1941
1942
1942
1943
1942
1942
1942
1941
1941
1941
1941
1942
1943
1943
1944
1944
1944
1945
1946
1947
1949
1950
1952
1953
1954
1955
1956
1957
1959
1961
1964
1966
1969
1971
1974
1975
1976
1977
1978
1980
1981
1982
1982
1981
1980
1978
1975
1972
1969
1966
1963
1960
1958
1955
1953
1950
1948
1947
1946
1945
1945
1946
1946
1946
1946
1945
1945
1944
1944
1944
1944
1945
1946
1947
1947
1947
1947
1947
1946
1946
1947
1947
1948
1949
1949
1948
1948
1947
1946
1946
1947
1948
1949
1949
1949
1949
1948
1947
1946
1945
1945
1946
1947
1948
1949
1951
1952
1953
1954
1953
1952
1951
1950
1949
1948
1947
1947
1946
1947
1948
1949
1949
1948
1944
1939
1938
1943
1960
1990
2031
2070
2096
2096
2066
2019
1968
1932
1918
1922
1933
1942
1947
1948
1949
1950
1950
1950
1950
1950
1950
1951
1952
1953
1954
1955
1956
1956
1956
1956
1957
1958
1959
1961
1963
1965
1966
1966
1967
1968
1970
1972
1975
1979
1981
1984
1986
1988
1989
1990
1992
1993
1994
1995
1995
1994
1992
1990
1988
1985
1982
1979
1975
1972
1969
1967
1964
1962
1960
1959
1958
1958
1958
1958
1959
1959
1959
1959
1959
1960
1960
1961
1962
1963
1964
1965
1965
1966
1966
1967
1968
1970
1971
1973
1975
1976
1976
1976
1976
1976
1976
1976
1977
1977
1978
1978
1978
1977
1977
1977
1977
1977
1978
1978
1979
1979
1978
1978
1979
1980
1982
1984
1986
1988
1987
1986
1984
1983
1981
1980
1980
1980
1981
1981
1982
1982
1982
1979
1976
1972
1971
1978
1995
2022
2059
2097
2120
2119
2091
2045
1997
1964
1952
1957
1968
1977
1981
1981
1981
1981
1980
1980
1981
1983
1985
1987
1989
1990
1990
1991
1992
1994
1996
1998
1999
2000
2001
2001
2001
2001
2003
2004
2007
2009
2011
2013
2015
2017
2019
2021
2023
2024
2026
2028
2030
2031
2031
2031
2031
2030
2029
2028
2026
2024
2021
2018
2014
2010
2006
2003
2000
1998
1996
1995
1994
1994
1993
1992
1991
1990
1990
1990
1991
1991
1992
1992
1992
1992
1991
1991
1991
1992
1992
1993
1993
1993
1993
1992
1992
1991
1991
1991
1991
1992
1992
1992
1991
1991
1990
1990
1990
1990
1990
1990
1990
1990
1989
1989
1987
1986
1986
1985
1985
1986
1986
1986
1987
1988
1989
1990
1992
1992
1992
1992
1991
1989
1987
1985
1984
1983
1983
1983
1984
1985
1985
1983
1979
1975
1972
1976
1988
2011
2045
2083
2112
2120
2100
2058
2009
1970
1952
1953
1964
1976
1982
1983
1983
1982
1981
1981
1981
1981
1982
1983
1984
1984
1984
1984
1984
1985
1985
1986
1986
1987
1988
1988
1989
1990
1991
1992
1994
1996
1998
2000
2003
2005
2007
2009
2011
2012
2014
2016
2017
2019
2020
2020
2020
2019
2018
2016
2015
2013
2011
2009
2006
2003
1999
1996
1993
1991
1989
1988
1988
1988
1988
1988
1988
1987
1987
1987
1987
1987
1988
1989
1990
1990
1990
1990
1990
1990
1990
1991
1991
1992
1993
1994
1993
1993
1993
1992
1993
1993
1994
1995
1996
1996
1996
1996
1996
1996
1996
1996
1997
1998
1999
1999
1999
1999
1999
1999
1999
1999
2000
2000
2000
2000
2000
2000
2000
2000
2001
2002
2005
2007
2010
2011
2012
2011
2009
2007
2006
2006
2006
2006
2006
2007
2007
2008
2008
2008
2006
2002
1999
1999
2007
2023
2050
2085
2120
2141
2138
2110
2065
2021
1991
1981
1986
1998
2007
2011
2011
2011
2012
2012
2013
2013
2013
2013
2013
2013
2014
2015
2016
2018
2019
2019
2020
2020
2020
2020
2021
2022
2024
2026
2028
2029
2030
2031
2032
2034
2035
2038
2041
2044
2046
2048
2048
2048
2048
2048
2049
2049
2049
2049
2048
2047
2044
2041
2037
2034
2030
2027
2025
2023
2021
2019
2017
2016
2014
2014
2013
2013
2014
2014
2014
2014
2013
2013
2012
2012
2012
2013
2014
2014
2014
2014
2013
2013
2012
2012
2012
2012
2013
2013
2014
2014
2013
2012
2011
2011
2010
2010
2011
2011
2012
2012
2011
2010
2009
2009
2008
2008
2008
2009
2009
2009
2009
2008
2007
2006
2005
2005
2004
2004
2005
2005
2006
2006
2008
2009
2011
2012
2012
2011
2009
2007
2005
2004
2003
2002
2003
2003
2004
2005
2005
2003
1999
1994
1990
1991
2002
2023
2056
2095
2127
2139
2123
2083
2035
1994
1972
1969
1979
1990
1996
1998
1998
1997
1997
1996
1996
1997
1998
1999
1999
1999
1999
1998
1998
1999
1999
2000
2001
2001
2002
2002
2003
2003
2003
2003
2004
2005
2007
2009
2012
2014
2016
2017
2018
2020
2021
2023
2025
2026
2027
2027
2026
2025
2023
2021
2020
2018
2015
2012
2008
2003
1998
1992
1988
1984
1981
1979
1977
1976
1974
1973
1972
1971
1970
1970
1970
1970
1970
1971
1971
1971
1971
1970
1970
1970
1970
1969
1969
1969
1968
1968
1968
1968
1967
1967
1966
1967
1967
1968
1968
1968
1967
1966
1965
1965
1965
1965
1964
1964
1964
1964
1964
1963
1962
1962
1961
1961
1961
1961
1962
1962
1963
1964
1965
1967
1968
1969
1968
1968
1966
1965
1963
1962
1961
1961
1961
1962
1962
1963
1963
1961
1957
1953
1952
1958
1975
2004
2043
2080
2103
2099
2068
2021
1973
1940
1929
1934
1946
1955
1960
1961
1961
1961
1960
1959
1959
1959
1960
1961
1962
1963
1962
1962
1962
1962
1962
1963
1964
1965
1965
1966
1966
1967
1967
1968
1969
1971
1973
1975
1978
1980
1982
1984
1985
1986
1988
1990
1991
1992
1993
1993
1992
1992
1991
1991
1991
1989
1985
1981
1976
1971
1966
1962
1959
1958
1957
1957
1957
1956
1956
1955
1955
1955
1955
1955
1955
1956
1958
1959
1961
1961
1961
1961
1961
1962
1964
1966
1967
1969
1969
1971
1972
1974
1975
1976
1977
1977
1977
1978
1978
1979
1979
1980
1979
1979
1979
1979
1979
1979
1979
1979
1979
1979
1978
1978
1979
1980
1981
1983
1984
1985
1985
1985
1986
1987
1989
1991
1993
1993
1993
1991
1990
1988
1987
1986
1986
1987
1987
1988
1989
1988
1986
1982
1978
1978
1984
2000
2027
2060
2093
2111
2106
2076
2033
1989
1960
1951
1957
1969
1978
1982
1982
1981
1980
1978
1978
1978
1979
1980
1980
1980
1980
1979
1979
1978
1978
1978
1978
1979
1980
1981
1981
1981
1981
1982
1982
1984
1985
1987
1988
1989
1990
1991
1992
1994
1995
1997
1998
2000
2001
2001
2001
2000
1999
1998
1996
1994
1992
1989
1986
1983
1980
1976
1972
1969
1967
1965
1964
1964
1964
1963
1962
1961
1960
1959
1959
1960
1960
1961
1962
1962
1962
1962
1962
1962
1962
1962
1963
1963
1963
1963
1962
1962
1961
1961
1961
1962
1962
1963
1963
1963
1963
1963
1962
1962
1961
1961
1961
1962
1963
1963
1963
1962
1961
1960
1960
1961
1962
1962
1963
1963
1963
1965
1966
1967
1968
1967
1967
1965
1964
1963
1961
1960
1959
1958
1958
1959
1960
1961
1960
1957
1954
1952
1954
1965
1985
2015
2049
2077
2087
2072
2035
1989
1951
1930
1929
1938
1949
1957
1959
1959
1959
1959
1958
1958
1958
1958
1958
1958
1959
1960
1960
1960
1960
1960
1959
1960
1961
1962
1963
1963
1964
1964
1964
1964
1965
1967
1969
1972
1974
1976
1977
1978
1979
1980
1981
1983
1984
1985
1986
1985
1985
1983
1982
1980
1978
1976
1973
1970
1967
1963
1959
1956
1953
1951
1949
1949
1949
1949
1949
1948
1947
1946
1945
1945
1944
1944
1945
1946
1946
1947
1947
1947
1947
1946
1945
1945
1944
1944
1944
1944
1943
1943
1941
1940
1940
1939
1940
1940
1940
1939
1939
1938
1937
1936
1935
1934
1933
1933
1932
1931
1930
1928
1926
1926
1926
1927
1928
1930
1932
1932
1931
1930
1928
1926
1925
1924
1924
1925
1926
1927
1927
1927
1926
1923
1919
1917
1919
1930
1951
1983
2020
2051
2064
2051
2016
1968
1926
1903
1899
1907
1918
1925
1926
1925
1924
1924
1925
1925
1925
1925
1925
1924
1924
1925
1926
1926
1927
1928
1928
1928
1929
1929
1930
1931
1932
1933
1935
1938
1940
1942
1943
1945
1946
1948
1951
1954
1957
1960
1962
1963
1963
1962
1961
1960
1960
1960
1959
1957
1955
1952
1948
1944
1940
1936
1932
1929
1927
1924
1923
1922
1921
1920
1919
1919
1918
1918
1919
1920
1920
1921
1921
1921
1921
1921
1922
1922
1923
1924
1924
1924
1925
1925
1926
1926
1926
1925
1925
1926
1927
1928
1928
1928
1928
1928
1929
1930
1931
1932
1933
1933
1934
1934
1934
1934
1935
1937
1939
1942
1944
1944
1944
1942
1940
1938
1937
1936
1936
1936
1937
1938
1939
1939
1939
1936
1933
1928
1926
1930
1944
1971
2010
2050
2079
2083
2059
2014
1963
1924
1906
1907
1918
1928
1934
1934
1934
1933
1933
1933
1934
1934
1935
1935
1936
1936
1936
1937
1938
1939
1940
1941
1941
1942
1942
1944
1945
1946
1948
1950
1952
1954
1956
1957
1959
1961
1963
1966
1969
1972
1975
1977
1978
1979
1979
1979
1979
1979
1978
1977
1975
1973
1970
1966
1963
1960
1956
1953
1951
1949
1948
1947
1946
1945
1945
1944
1945
1945
1946
1947
1947
1947
1947
1947
1947
1947
1948
1949
1950
1951
1951
1951
1951
1951
1951
1951
1951
1951
1952
1952
1953
1953
1954
1954
1954
1954
1954
1954
1954
1955
1955
1955
1955
1955
1955
1956
1957
1959
1962
1965
1967
1968
1968
1967
1966
1964
1964
1963
1963
1964
1964
1964
1965
1965
1965
1962
1958
1954
1954
1961
1978
2005
2042
2079
2105
2107
2080
2035
1986
1950
1935
1939
1950
1959
1963
1962
1962
1963
1964
1965
1966
1965
1965
1964
1964
1965
1966
1968
1971
1973
1975
1978
1980
1983
1986
1989
1993
1996
2000
2004
2007
2011
2015
2019
2022
2026
2031
2036
2042
2048
2054
2059
2064
2066
2067
2067
2066
2066
2066
2065
2063
2060
2056
2052
2048
2044
2040
2037
2034
2032
2030
2028
2026
2024
2022
2021
2020
2020
2019
2019
2019
2018
2017
2016
2015
2014
2014
2014
2014
2015
2015
2014
2014
2013
2012
2011
2011
2010
2010
2010
2010
2010
2010
2009
2009
2008
2007
2007
2008
2008
2008
2008
2008
2007
2006
2005
2005
2006
2009
2011
2013
2013
2012
2010
2008
2006
2005
2004
2004
2004
2005
2005
2006
2006
2006
2003
2000
1997
1998
2007
2025
2052
2087
2119
2137
2130
2099
2053
2010
1982
1975
1981
1992
2000
2002
2002
2001
2002
2003
2004
2004
2003
2001
2000
1999
2000
2000
2001
2002
2004
2005
2006
2007
2007
2006
2005
2005
2006
2008
2010
2010
2008
2007
2006
2007
2010
2014
2018
2021
2023
2024
2024
2023
2022
2020
2018
2018
2019
2019
2019
2017
2013
2008
2004
1999
1995
1992
1989
1986
1984
1982
1981
1980
1980
1981
1981
1980
1979
1978
1977
1977
1977
1977
1977
1977
1977
1977
1978
1978
1979
1979
1979
1978
1978
1978
1977
1976
1975
1975
1975
1975
1976
1975
1975
1974
1973
1972
1970
1970
1971
1972
1975
1977
1978
1977
1975
1973
1972
1972
1973
1973
1973
1971
1968
1965
1963
1962
1964
1966
1969
1971
1970
1967
1962
1956
1951
1948
1951
1961
1979
2004
2037
2067
2087
2085
2060
2021
1980
1952
1944
1949
1960
1968
1972
1972
1972
1972
1972
1972
1971
1971
1972
1973
1975
1977
1977
1977
1976
1976
1975
1974
1974
1975
1975
1976
1976
1976
1977
1979
1982
1985
1987
1987
1987
1987
1987
1989
1992
1994
1997
1999
1999
2000
2000
2001
2001
2001
2001
2001
2001
1999
1998
1995
1993
1991
1989
1988
1987
1987
1988
1987
1985
1982
1979
1977
1977
1978
1978
1978
1977
1975
1973
1970
1969
1968
1968
1968
1968
1967
1966
1966
1967
1967
1967
1967
1966
1966
1965
1964
1962
1961
1960
1959
1960
1960
1960
1959
1958
1958
1958
1957
1957
1957
1957
1958
1958
1959
1959
1958
1958
1957
1956
1954
1951
1948
1945
1943
1943
1943
1944
1944
1940
1934
1929
1928
1937
1959
1993
2031
2061
2071
2054
2015
1965
1924
1901
1898
1907
1918
1924
1926
1924
1922
1920
1918
1916
1915
1914
1913
1912
1910
1908
1907
1906
1906
1905
1904
1903
1902
1903
1903
1904
1904
1904
1904
1904
1904
1906
1908
1911
1915
1917
1919
1921
1923
1925
1928
1931
1933
1934
1935
1936
1936
1934
1932
1929
1926
1923
1921
1919
1917
1914
1911
1908
1905
1902
1901
1900
1902
1903
1905
1905
1904
1902
1901
1901
1903
1905
1907
1909
1909
1910
1910
1911
1912
1913
1915
1916
1917
1918
1919
1921
1922
1923
1923
1923
1924
1926
1928
1930
1932
1932
1932
1932
1932
1933
1935
1937
1940
1943
1946
1948
1950
1951
1952
1952
1951
1951
1950
1951
1952
1953
1953
1954
1954
1955
1955
1953
1950
1947
1949
1960
1980
2013
2051
2086
2102
2091
2054
2005
1961
1935
1931
1941
1953
1962
1965
1966
1967
1967
1967
1966
1966
1965
1965
1966
1967
1968
1969
1969
1969
1968
1968
1967
1968
1968
1969
1970
1972
1973
1974
1975
1975
1976
1978
1979
1982
1984
1987
1990
1992
1994
1995
1996
1996
1995
1995
1995
1995
1995
1993
1991
1987
1983
1979
1976
1973
1971
1969
1967
1966
1964
1963
1961
1960
1959
1958
1958
1958
1959
1960
1961
1963
1964
1965
1965
1965
1966
1967
1969
1970
1971
1971
1971
1971
1972
1972
1973
1974
1976
1978
1981
1984
1985
1985
1985
1983
1982
1982
1981
1981
1982
1982
1983
1985
1986
1987
1989
1990
1991
1990
1988
1984
1981
1978
1977
1978
1979
1981
1983
1983
1981
1979
1975
1971
1968
1969
1977
1996
2025
2061
2093
2108
2097
2061
2014
1972
1948
1944
1953
1963
1969
1970
1970
1969
1969
1969
1970
1970
1971
1971
1970
1969
1967
1966
1965
1965
1965
1967
1968
1970
1972
1972
1972
1972
1973
1974
1976
1978
1981
1983
1985
1987
1989
1991
1993
1996
1998
2001
2003
2004
2004
2004
2004
2004
2003
2003
2002
2000
1998
1996
1994
1991
1988
1985
1982
1980
1979
1978
1978
1977
1977
1977
1977
1977
1977
1977
1978
1978
1979
1980
1981
1981
1981
1981
1980
1981
1981
1982
1983
1984
1985
1985
1985
1984
1983
1983
1983
1984
1985
1985
1984
1983
1981
1980
1980
1980
1982
1984
1986
1987
1987
1987
1985
1983
1980
1977
1975
1974
1975
1976
1978
1979
1979
1977
1974
1970
1965
1964
1970
1986
2014
2049
2085
2105
2100
2070
2027
1984
1956
1948
1953
1964
1972
1976
1976
1977
1978
1979
1980
1981
1981
1981
1981
1981
1981
1982
1983
1984
1986
1988
1990
1991
1992
1993
1995
1997
1998
2000
2001
2003
2004
2006
2008
2009
2010
2011
2014
2018
2022
2026
2029
2030
2030
2029
2029
2029
2030
2030
2029
2026
2022
2018
2015
2013
2010
2006
2002
1997
1994
1992
1992
1991
1990
1988
1987
1986
1985
1984
1984
1986
1989
1991
1992
1990
1987
1983
1981
1980
1981
1982
1983
1983
1982
1982
1981
1980
1980
1980
1980
1981
1981
1981
1980
1980
1979
1980
1980
1980
1980
1979
1979
1979
1981
1983
1984
1984
1983
1981
1979
1977
1977
1977
1976
1975
1975
1975
1977
1978
1977
1973
1968
1965
1968
1981
2005
2040
2077
2106
2114
2094
2052
2006
1968
1951
1953
1964
1975
1981
1982
1982
1981
1980
1979
1978
1979
1979
1980
1981
1982
1982
1982
1982
1983
1983
1984
1984
1985
1986
1987
1988
1989
1990
1990
1990
1991
1993
1995
1998
2001
2004
2007
2009
2011
2012
2014
2015
2016
2017
2018
2018
2018
2017
2015
2012
2010
2007
2004
2001
1998
1996
1994
1992
1990
1988
1986
1986
1986
1986
1986
1986
1986
1986
1986
1986
1986
1986
1986
1987
1988
1989
1989
1989
1989
1988
1988
1989
1989
1990
1990
1990
1990
1990
1990
1989
1988
1988
1988
1989
1990
1990
1990
1990
1989
1989
1990
1991
1994
1996
1997
1998
1997
1995
1993
1992
1991
1990
1989
1988
1987
1988
1989
1990
1988
1983
1977
1974
1977
1990
2014
2048
2085
2113
2118
2097
2054
2007
1970
1955
1958
1970
1981
1986
1987
1985
1984
1983
1983
1984
1985
1985
1985
1986
1986
1986
1986
1987
1988
1989
1991
1992
1992
1992
1992
1993
1993
1995
1996
1997
1999
2001
2003
2005
2007
2008
2009
2010
2012
2014
2015
2017
2018
2018
2017
2015
2013
2012
2011
2010
2009
2007
2004
2000
1996
1993
1991
1989
1989
1989
1990
1990
1991
1991
1992
1993
1994
1996
1997
1999
2000
2002
2003
2004
2005
2007
2008
2010
2011
2012
2013
2013
2013
2013
2014
2014
2014
2013
2012
2011
2011
2011
2011
2011
2010
2010
2009
2009
2010
2010
2010
2011
2012
2013
2014
2014
2013
2012
2011
2010
2009
2008
2007
2004
2002
2000
1999
1999
2000
1999
1996
1991
1987
1986
1992
2007
2033
2066
2096
2109
2097
2062
2018
1978
1957
1955
1964
1975
1982
1984
1985
1985
1984
1983
1982
1982
1981
1981
1982
1983
1983
1984
1984
1984
1983
1983
1983
1983
1984
1985
1986
1986
1987
1987
1986
1985
1984
1984
1984
1985
1986
1987
1989
1990
1991
1991
1991
1991
1992
1992
1993
1993
1992
1990
1988
1986
1984
1982
1981
1979
1976
1973
1970
1968
1966
1964
1963
1963
1962
1962
1963
1963
1962
1962
1961
1961
1961
1962
1964
1966
1969
1970
1970
1970
1969
1968
1967
1968
1968
1969
1969
1969
1969
1968
1968
1968
1967
1967
1966
1966
1965
1965
1965
1966
1966
1966
1966
1965
1966
1967
1969
1971
1972
1972
1970
1968
1966
1965
1964
1964
1964
1964
1964
1965
1965
1965
1965
1962
1958
1954
1955
1962
1980
2008
2044
2074
2089
2079
2046
2001
1961
1938
1934
1942
1953
1959
1959
1958
1958
1958
1959
1960
1961
1961
1960
1959
1959
1959
1960
1962
1963
1964
1965
1966
1966
1967
1967
1968
1969
1971
1973
1975
1976
1977
1978
1979
1980
1982
1985
1988
1989
1991
1991
1991
1991
1991
1992
1992
1992
1992
1991
1989
1987
1984
1981
1978
1975
1972
1969
1967
1965
1964
1963
1962
1960
1959
1957
1957
1957
1958
1959
1959
1959
1958
1958
1957
1957
1957
1958
1958
1958
1959
1959
1959
1958
1958
1958
1958
1958
1959
1959
1960
1960
1960
1960
1959
1959
1958
1958
1959
1959
1959
1959
1958
1958
1958
1959
1962
1965
1967
1966
1965
1962
1961
1960
1959
1958
1957
1957
1957
1958
1960
1960
1959
1955
1949
1945
1947
1959
1982
2015
2050
2076
2079
2056
2015
1970
1938
1927
1932
1944
1955
1959
1959
1958
1957
1956
1955
1955
1956
1957
1958
1958
1958
1958
1958
1958
1958
1959
1961
1962
1963
1963
1963
1964
1964
1964
1965
1966
1968
1970
1973
1975
1977
1979
1980
1982
1983
1985
1986
1987
1987
1988
1988
1988
1987
1985
1982
1980
1978
1976
1974
1971
1968
1965
1961
1958
1955
1954
1953
1953
1952
1952
1951
1951
1950
1950
1950
1950
1950
1951
1951
1951
1951
1951
1951
1950
1950
1950
1951
1952
1953
1953
1953
1953
1952
1952
1952
1953
1953
1954
1954
1954
1954
1955
1955
1954
1954
1953
1954
1955
1957
1959
1961
1963
1963
1962
1961
1960
1959
1958
1958
1958
1957
1956
1956
1956
1958
1958
1958
1954
1949
1946
1950
1962
1986
2019
2052
2075
2076
2052
2013
1971
1942
1932
1937
1948
1956
1958
1958
1958
1958
1958
1958
1957
1957
1956
1957
1957
1958
1959
1959
1959
1958
1956
1955
1955
1955
1956
1956
1958
1959
1960
1961
1960
1960
1960
1961
1963
1966
1970
1973
1976
1978
1980
1980
1980
1979
1979
1979
1980
1980
1980
1979
1976
1973
1968
1964
1962
1962
1963
1963
1962
1960
1955
1952
1950
1950
1952
1954
1956
1956
1955
1954
1953
1953
1954
1956
1958
1961
1962
1962
1962
1961
1960
1961
1963
1964
1966
1967
1968
1969
1970
1972
1973
1974
1974
1974
1975
1977
1979
1981
1981
1979
1978
1978
1980
1983
1986
1987
1988
1986
1984
1981
1979
1977
1976
1977
1978
1979
1979
1979
1978
1976
1972
1968
1968
1974
1990
2016
2049
2079
2093
2085
2053
2011
1972
1949
1944
1952
1965
1974
1978
1979
1978
1976
1974
1973
1973
1974
1975
1975
1976
1975
1974
1974
1973
1973
1973
1974
1976
1978
1980
1982
1984
1984
1984
1984
1985
1987
1990
1993
1996
1997
1998
1999
2000
2002
2004
2007
2009
2010
2011
2011
2011
2010
2009
2007
2004
2001
1999
1997
1996
1993
1990
1986
1982
1979
1978
1977
1976
1975
1974
1975
1976
1977
1977
1978
1978
1977
1977
1976
1975
1976
1977
1979
1980
1981
1981
1980
1978
1975
1974
1973
1975
1977
1980
1981
1979
1977
1974
1972
1971
1970
1969
1969
1968
1967
1967
1967
1970
1972
1974
1974
1971
1967
1963
1962
1963
1965
1966
1966
1966
1966
1966
1964
1961
1956
1951
1950
1954
1965
1984
2009
2039
2064
2073
2060
2027
1985
1950
1933
1933
1945
1956
1962
1963
1962
1962
1963
1965
1966
1968
1969
1969
1968
1967
1966
1966
1967
1967
1968
1968
1970
1971
1973
1975
1976
1976
1978
1980
1983
1986
1988
1990
1991
1992
1994
1996
1998
2000
2002
2003
2004
2005
2006
2007
2007
2006
2006
2006
2005
2004
2002
1998
1994
1990
1987
1985
1985
1986
1986
1985
1984
1982
1982
1982
1983
1983
1984
1985
1985
1984
1983
1983
1982
1981
1982
1983
1984
1984
1983
1983
1983
1984
1983
1982
1981
1979
1979
1981
1983
1984
1984
1983
1982
1982
1982
1983
1984
1984
1984
1985
1986
1988
1991
1992
1992
1991
1989
1987
1986
1986
1984
1982
1979
1976
1974
1975
1976
1976
1975
1971
1970
1974
1987
2010
2042
2071
2089
2085
2058
2020
1981
1956
1949
1954
1964
1971
1974
1975
1975
1975
1975
1976
1976
1975
1973
1972
1972
1973
1975
1977
1977
1976
1975
1974
1973
1974
1976
1978
1980
1981
1981
1981
1981
1983
1985
1988
1991
1994
1997
1999
2001
2001
2000
1998
1997
1997
1996
1997
1997
1996
1995
1994
1992
1991
1989
1986
1983
1980
1977
1975
1973
1971
1969
1966
1965
1965
1966
1967
1968
1968
1968
1966
1965
1964
1965
1967
1969
1971
1971
1970
1968
1967
1967
1967
1967
1966
1964
1963
1963
1963
1963
1962
1962
1961
1960
1960
1960
1960
1961
1961
1961
1960
1960
1961
1962
1962
1961
1960
1959
1957
1956
1956
1955
1954
1954
1954
1955
1956
1957
1955
1950
1946
1945
1952
1970
1999
2034
2063
2076
2065
2033
1990
1952
1931
1927
1936
1948
1956
1960
1961
1961
1960
1958
1956
1956
1957
1957
1958
1959
1959
1958
1957
1956
1955
1955
1956
1957
1959
1960
1960
1960
1961
1961
1962
1964
1965
1967
1969
1971
1973
1975
1976
1977
1977
1978
1979
1981
1982
1982
1981
1979
1976
1974
1972
1970
1967
1965
1963
1960
1957
1954
1951
1949
1947
1945
1944
1943
1942
1942
1941
1940
1939
1938
1937
1937
1937
1938
1938
1939
1940
1942
1943
1945
1945
1945
1944
1944
1944
1944
1944
1944
1945
1945
1945
1945
1944
1944
1943
1944
1945
1946
1947
1947
1947
1948
1949
1950
1951
1951
1950
1948
1947
1946
1946
1947
1948
1949
1951
1952
1951
1948
1942
1937
1937
1945
1965
1997
2036
2068
2082
2069
2033
1986
1945
1923
1920
1931
1944
1954
1958
1960
1960
1961
1961
1962
1962
1963
1964
1966
1967
1969
1971
1973
1974
1974
1974
1974
1974
1975
1977
1980
1982
1984
1986
1986
1987
1989
1990
1992
1994
1995
1997
1998
1999
2001
2003
2005
2007
2008
2009
2008
2008
2006
2006
2005
2004
2002
2001
1999
1998
1996
1995
1993
1992
1990
1990
1991
1993
1996
1999
2001
2003
2005
2008
2012
2016
2019
2020
2020
2019
2019
2019
2019
2019
2019
2021
2022
2024
2024
2023
2021
2019
2017
2016
2016
2016
2016
2016
2016
2017
2018
2019
2019
2019
2018
2018
2018
2016
2014
2011
2009
2008
2007
2008
2008
2009
2010
2011
2011
2009
2003
1999
1999
2009
2030
2061
2099
2129
2140
2124
2087
2042
2003
1984
1982
1990
2000
2005
2006
2004
2003
2001
1999
1998
1997
1996
1995
1994
1993
1993
1993
1992
1991
1991
1991
1992
1993
1994
1995
1997
2000
2003
2006
2007
2008
2009
2012
2015
2019
2022
2025
2027
2028
2030
2032
2033
2034
2034
2034
2033
2032
2032
2030
2028
2026
2024
2021
2018
2016
2014
2012
2010
2008
2007
2006
2005
2004
2004
2003
2003
2004
2004
2003
2002
2001
2001
2002
2003
2005
2005
2005
2004
2003
2003
2003
2003
2003
2004
2004
2004
2004
2003
2002
2001
2001
2001
2001
2001
2001
2002
2003
2003
2004
2003
2003
2001
2000
1999
1998
1996
1995
1993
1992
1991
1991
1991
1991
1991
1989
1985
1979
1976
1979
1991
2014
2047
2078
2100
2099
2074
2034
1992
1961
1949
1953
1963
1972
1977
1978
1979
1979
1979
1978
1978
1977
1977
1978
1979
1979
1979
1979
1979
1979
1979
1980
1981
1982
1984
1984
1985
1986
1987
1988
1990
1992
1993
1995
1996
1998
2000
2002
2005
2008
2010
2012
2012
2013
2013
2013
2013
2012
2010
2008
2005
2003
2001
1998
1995
1990
1984
1979
1975
1974
1974
1974
1974
1972
1970
1969
1968
1967
1967
1967
1967
1967
1967
1967
1966
1966
1965
1966
1966
1967
1967
1967
1967
1966
1965
1964
1964
1963
1963
1963
1962
1961
1960
1959
1959
1959
1959
1958
1958
1959
1960
1962
1963
1963
1963
1961
1958
1955
1952
1949
1946
1945
1946
1948
1951
1953
1953
1950
1944
1939
1938
1945
1963
1994
2032
2067
2087
2081
2049
2005
1963
1937
1932
1941
1953
1963
1967
1968
1968
1969
1969
1970
1970
1971
1972
1972
1972
1972
1971
1971
1970
1969
1969
1970
1971
1972
1972
1972
1972
1972
1972
1973
1975
1977
1979
1981
1982
1983
1984
1985
1986
1988
1989
1991
1993
1995
1995
1995
1995
1993
1992
1990
1987
1985
1982
1979
1976
1973
1969
1965
1963
1961
1960
1960
1960
1960
1959
1958
1957
1956
1956
1957
1957
1958
1957
1957
1957
1956
1956
1956
1955
1955
1955
1955
1955
1955
1954
1953
1952
1951
1950
1950
1949
1949
1949
1948
1948
1947
1946
1945
1944
1944
1945
1947
1949
1950
1951
1950
1949
1947
1945
1944
1943
1942
1942
1941
1941
1940
1940
1940
1939
1937
1933
1928
1927
1934
1952
1982
2021
2058
2081
2078
2048
2000
1952
1920
1908
1913
1924
1933
1937
1938
1939
1941
1942
1942
1942
1942
1942
1943
1943
1944
1945
1946
1946
1947
1948
1949
1949
1949
1950
1951
1952
1953
1954
1955
1956
1957
1959
1961
1963
1966
1969
1971
1974
1976
1978
1979
1979
1980
1979
1979
1979
1978
1977
1974
1972
1968
1965
1962
1958
1955
1952
1950
1948
1946
1945
1943
1942
1942
1941
1941
1941
1942
1943
1944
1944
1944
1944
1943
1944
1944
1945
1947
1948
1948
1948
1947
1946
1946
1946
1947
1949
1951
1952
1952
1952
1952
1952
1951
1950
1950
1950
1950
1951
1952
1953
1953
1954
1954
1953
1953
1952
1951
1950
1950
1949
1948
1948
1947
1947
1947
1948
1947
1944
1938
1934
1934
1944
1966
2001
2044
2080
2096
2083
2044
1992
1946
1919
1914
1922
1933
1941
1944
1945
1945
1945
1945
1944
1944
1944
1945
1945
1946
1947
1948
1949
1949
1950
1950
1951
1952
1953
1955
1957
1958
1959
1960
1962
1962
1964
1966
1969
1972
1975
1978
1980
1981
1982
1983
1984
1985
1987
1988
1989
1989
1989
1988
1986
1983
1980
1978
1975
1973
1972
1970
1968
1966
1963
1962
1961
1961
1962
1963
1965
1966
1966
1966
1966
1965
1964
1964
1964
1965
1965
1966
1966
1967
1966
1966
1965
1965
1965
1966
1966
1966
1966
1966
1965
1964
1964
1965
1965
1966
1967
1967
1967
1966
1967
1968
1970
1973
1977
1981
1984
1985
1984
1983
1982
1981
1980
1981
1982
1983
1986
1988
1990
1990
1988
1984
1980
1979
1986
2003
2030
2066
2103
2128
2129
2103
2057
2009
1974
1960
1964
1975
1985
1990
1990
1989
1989
1988
1988
1989
1989
1990
1990
1990
1990
1990
1989
1989
1990
1991
1991
1992
1993
1994
1994
1994
1995
1995
1997
1998
2000
2002
2004
2005
2007
2009
2011
2013
2015
2017
2019
2020
2020
2020
2020
2020
2020
2020
2019
2018
2015
2012
2009
2006
2002
1999
1996
1993
1991
1990
1989
1989
1988
1987
1987
1986
1986
1985
1985
1986
1986
1986
1986
1986
1986
1985
1984
1984
1984
1985
1985
1985
1985
1985
1984
1984
1983
1983
1983
1984
1984
1984
1984
1983
1982
1981
1980
1981
1981
1982
1982
1982
1982
1982
1982
1982
1983
1984
1985
1985
1984
1983
1982
1980
1979
1978
1977
1977
1977
1978
1979
1980
1979
1975
1970
1968
1972
1985
2009
2043
2079
2107
2113
2093
2051
2004
1966
1948
1948
1959
1971
1977
1979
1979
1978
1977
1977
1977
1978
1979
1979
1980
1981
1981
1981
1981
1981
1981
1982
1984
1986
1987
1988
1988
1989
1989
1990
1991
1993
1994
1996
1998
2001
2003
2004
2006
2007
2009
2010
2012
2013
2013
2013
2013
2012
2010
2009
2007
2005
2003
2000
1997
1994
1991
1987
1984
1982
1981
1980
1980
1980
1980
1980
1979
1979
1978
1978
1978
1978
1979
1979
1980
1980
1980
1980
1979
1979
1979
1979
1980
1981
1981
1981
1980
1980
1979
1979
1979
1980
1980
1981
1981
1981
1980
1980
1980
1979
1979
1979
1980
1980
1980
1981
1980
1980
1980
1980
1981
1983
1985
1987
1987
1986
1985
1983
1981
1980
1979
1979
1979
1979
1980
1980
1980
1979
1976
1972
1970
1972
1981
1999
2027
2061
2093
2109
2101
2069
2025
1982
1955
1948
1955
1967
1975
1978
1978
1978
1978
1978
1979
1980
1980
1981
1981
1981
1981
1981
1982
1983
1983
1984
1985
1986
1986
1986
1987
1987
1988
1989
1991
1992
1994
1996
1998
2000
2001
2003
2004
2006
2009
2010
2012
2012
2012
2012
2011
2011
2010
2009
2008
2007
2004
2002
1998
1994
1991
1987
1985
1983
1982
1981
1980
1979
1977
1976
1975
1975
1975
1975
1976
1976
1977
1977
1978
1978
1977
1977
1977
1977
1978
1978
1979
1979
1979
1979
1978
1978
1978
1978
1979
1979
1979
1979
1979
1978
1978
1977
1977
1978
1978
1979
1979
1979
1978
1978
1977
1977
1977
1977
1978
1978
1979
1980
1981
1982
1983
1983
1983
1983
1982
1981
1980
1979
1978
1976
1975
1975
1975
1976
1977
1978
1976
1973
1970
1969
1975
1990
2016
2050
2084
2105
2102
2075
2031
1986
1956
1945
1950
1962
1972
1977
1978
1978
1977
1977
1976
1976
1976
1976
1977
1977
1978
1979
1979
1979
1979
1979
1979
1980
1981
1982
1983
1984
1985
1985
1986
1987
1989
1991
1993
1996
1998
2000
2002
2003
2005
2006
2007
2008
2009
2010
2011
2010
2010
2009
2007
2005
2002
2000
1997
1994
1991
1988
1985
1983
1980
1978
1977
1976
1976
1976
1976
1976
1976
1975
1975
1975
1975
1975
1975
1976
1976
1976
1976
1976
1976
1976
1976
1977
1978
1979
1979
1979
1979
1978
1977
1977
1977
1977
1978
1979
1979
1979
1978
1978
1977
1977
1978
1979
1979
1980
1980
1979
1979
1978
1978
1978
1978
1979
1980
1982
1984
1985
1986
1986
1985
1983
1981
1980
1980
1979
1979
1978
1978
1977
1977
1977
1977
1976
1973
1970
1970
1975
1989
2013
2047
2081
2105
2106
2082
2041
1996
1963
1949
1951
1961
1970
1975
1977
1978
1978
1978
1978
1978
1977
1976
1976
1976
1977
1979
1980
1981
1982
1982
1981
1981
1981
1982
1983
1985
1986
1988
1989
1991
1992
1993
1994
1996
1998
2000
2002
2005
2007
2008
2009
2010
2010
2010
2010
2011
2011
2010
2008
2006
2003
1999
1996
1993
1990
1988
1986
1983
1981
1978
1976
1974
1973
1973
1973
1973
1973
1973
1973
1973
1972
1972
1972
1972
1972
1973
1974
1974
1974
1974
1973
1973
1972
1972
1973
1973
1974
1974
1974
1974
1973
1973
1973
1972
1972
1973
1973
1973
1974
1973
1973
1972
1971
1971
1971
1972
1972
1973
1973
1973
1973
1973
1974
1976
1977
1978
1979
1978
1976
1974
1973
1971
1971
1970
1970
1971
1972
1973
1972
1970
1966
1962
1961
1966
1980
2006
2041
2076
2100
2102
2077
2035
1988
1954
1939
1942
1953
1964
1969
1970
1969
1969
1968
1968
1969
1969
1970
1970
1971
1971
1971
1971
1970
1971
1971
1973
1974
1975
1975
1976
1976
1977
1977
1978
1980
1982
1984
1986
1988
1990
1992
1993
1995
1997
1998
2000
2002
2003
2004
2004
2003
2002
2001
1999
1997
1995
1993
1991
1988
1984
1981
1977
1973
1971
1970
1969
1969
1969
1969
1969
1968
1968
1967
1967
1968
1968
1969
1969
1969
1969
1969
1968
1968
1968
1969
1970
1970
1971
1971
1971
1971
1971
1971
1971
1971
1971
1972
1972
1972
1972
1971
1971
1970
1970
1970
1971
1971
1972
1972
1972
1971
1971
1970
1970
1970
1971
1972
1973
1974
1975
1977
1978
1978
1977
1976
1975
1974
1973
1972
1971
1971
1971
1971
1972
1973
1973
1971
1968
1965
1968
1977
1997
2027
2061
2092
2105
2093
2058
2013
1972
1949
1944
1952
1964
1971
1974
1974
1975
1975
1975
1974
1974
1974
1975
1976
1976
1977
1978
1978
1978
1978
1978
1979
1980
1981
1982
1984
1985
1986
1987
1988
1989
1991
1992
1994
1997
1999
2002
2004
2006
2007
2007
2008
2009
2010
2012
2013
2013
2012
2010
2007
2005
2002
2000
1997
1994
1991
1988
1985
1982
1979
1977
1976
1975
1975
1975
1975
1975
1975
1974
1974
1973
1972
1971
1970
1971
1972
1973
1973
1973
1973
1972
1971
1971
1971
1972
1972
1973
1972
1972
1971
1970
1970
1970
1970
1971
1972
1972
1972
1971
1971
1970
1969
1969
1968
1968
1968
1967
1967
1967
1967
1967
1967
1967
1967
1967
1966
1964
1963
1962
1961
1961
1961
1962
1963
1965
1966
1965
1962
1957
1955
1957
1970
1995
2031
2071
2102
2111
2092
2049
1999
1958
1938
1938
1948
1960
1966
1969
1970
1970
1970
1970
1970
1971
1971
1973
1974
1975
1976
1977
1977
1977
1977
1978
1979
1981
1983
1984
1986
1987
1988
1990
1991
1993
1995
1997
2000
2003
2006
2008
2010
2012
2013
2015
2017
2019
2020
2021
2021
2021
2021
2019
2017
2015
2012
2009
2007
2004
2001
1998
1995
1993
1991
1990
1990
1990
1990
1990
1990
1990
1990
1989
1989
1990
1991
1992
1994
1995
1996
1997
1998
1999
2000
2002
2003
2004
2005
2006
2006
2006
2005
2005
2005
2005
2006
2007
2007
2007
2007
2007
2006
2006
2005
2004
2003
2002
2002
2003
2003
2003
2004
2004
2005
2006
2006
2006
2005
2003
2002
2000
1999
1998
1997
1996
1996
1997
1997
1997
1995
1991
1987
1986
1992
2007
2034
2069
2105
2127
2125
2097
2050
2003
1969
1956
1959
1970
1979
1982
1982
1982
1981
1980
1979
1979
1980
1981
1983
1984
1985
1986
1986
1985
1985
1986
1987
1988
1990
1991
1992
1993
1993
1995
1996
1998
2001
2003
2005
2008
2011
2015
2017
2019
2021
2022
2024
2027
2029
2032
2034
2034
2034
2033
2031
2029
2027
2025
2023
2020
2017
2013
2010
2008
2006
2005
2006
2006
2006
2006
2006
2006
2006
2006
2005
2005
2005
2005
2005
2006
2006
2006
2006
2005
2004
2004
2004
2004
2005
2005
2005
2005
2004
2002
2001
2001
2000
2001
2000
2000
1998
1997
1995
1993
1992
1991
1990
1989
1989
1988
1986
1984
1983
1982
1982
1982
1981
1980
1978
1975
1972
1969
1966
1963
1961
1960
1959
1960
1961
1961
1960
1957
1952
1948
1948
1956
1974
2003
2040
2073
2093
2087
2055
2007
1961
1930
1920
1927
1939
1948
1952
1952
1952
1951
1951
1951
1951
1951
1952
1953
1953
1954
1954
1954
1954
1954
1955
1956
1957
1958
1959
1960
1961
1962
1963
1964
1966
1968
1970
1972
1974
1976
1977
1979
1980
1982
1983
1984
1985
1986
1986
1985
1985
1984
1983
1981
1979
1977
1975
1971
1968
1963
1959
1956
1954
1952
1951
1950
1950
1950
1949
1949
1948
1947
1947
1946
1947
1947
1948
1949
1949
1949
1949
1949
1949
1949
1949
1950
1950
1950
1950
1950
1950
1949
1949
1949
1949
1949
1949
1950
1950
1949
1948
1948
1947
1947
1948
1948
1949
1949
1949
1949
1949
1950
1952
1953
1954
1955
1955
1954
1953
1951
1950
1948
1946
1945
1946
1947
1949
1950
1949
1946
1941
1938
1941
1954
1978
2013
2053
2084
2095
2078
2038
1989
1949
1929
1928
1938
1949
1956
1958
1957
1957
1956
1955
1956
1957
1958
1960
1962
1963
1964
1964
1964
1965
1965
1966
1968
1969
1971
1972
1973
1973
1974
1975
1976
1978
1981
1983
1986
1988
1990
1991
1993
1995
1996
1998
1999
2001
2002
2002
2001
2000
1999
1997
1995
1992
1990
1987
1984
1981
1977
1974
1971
1968
1966
1965
1964
1964
1964
1964
1964
1964
1963
1963
1963
1963
1964
1965
1965
1965
1965
1964
1964
1964
1964
1965
1965
1965
1966
1966
1965
1965
1964
1964
1963
1963
1963
1964
1964
1964
1963
1962
1961
1960
1960
1959
1960
1960
1960
1960
1960
1960
1961
1962
1963
1964
1965
1965
1964
1962
1961
1959
1958
1957
1956
1956
1956
1957
1958
1958
1957
1954
1950
1947
1948
1958
1978
2010
2048
2081
2097
2086
2050
2002
1958
1932
1926
1934
1946
1953
1955
1955
1955
1955
1955
1954
1954
1955
1955
1955
1955
1955
1955
1954
1954
1955
1955
1956
1957
1957
1958
1958
1959
1959
1960
1962
1963
1965
1967
1969
1971
1973
1976
1978
1981
1983
1985
1987
1989
1990
1990
1991
1990
1989
1988
1987
1985
1983
1980
1977
1973
1970
1966
1963
1962
1961
1960
1960
1959
1958
1958
1957
1956
1956
1956
1956
1957
1957
1957
1956
1956
1956
1955
1955
1955
1956
1956
1956
1957
1957
1957
1956
1956
1955
1955
1955
1955
1956
1956
1956
1955
1955
1954
1954
1954
1954
1955
1955
1956
1955
1954
1953
1952
1952
1952
1952
1953
1954
1955
1955
1957
1958
1959
1959
1958
1958
1957
1956
1956
1955
1953
1952
1952
1952
1952
1954
1954
1954
1951
1947
1944
1947
1959
1980
2013
2050
2081
2092
2075
2035
1985
1943
1922
1921
1932
1944
1952
1954
1954
1954
1953
1952
1952
1952
1953
1953
1954
1955
1956
1957
1958
1959
1960
1962
1964
1966
1967
1969
1970
1971
1972
1973
1974
1975
1977
1979
1982
1985
1988
1991
1994
1997
1999
2001
2003
2004
2004
2005
2006
2005
2005
2003
2001
1998
1995
1993
1990
1987
1985
1982
1979
1977
1974
1973
1972
1972
1972
1972
1971
1971
1970
1970
1970
1969
1969
1969
1969
1969
1970
1970
1970
1970
1970
1970
1970
1970
1970
1971
1971
1971
1971
1970
1969
1968
1968
1968
1969
1970
1970
1970
1969
1969
1968
1968
1968
1968
1969
1969
1969
1969
1968
1967
1967
1966
1966
1966
1966
1967
1969
1970
1972
1972
1971
1970
1968
1967
1966
1966
1965
1964
1962
1961
1960
1961
1962
1962
1961
1958
1955
1954
1960
1974
1999
2033
2065
2087
2087
2061
2020
1975
1943
1930
1934
1946
1956
1961
1963
1963
1964
1963
1963
1962
1962
1962
1962
1963
1964
1964
1965
1966
1966
1966
1966
1966
1967
1968
1969
1971
1972
1973
1974
1974
1975
1977
1978
1980
1983
1985
1988
1990
1992
1992
1993
1993
1994
1995
1997
1998
1998
1997
1996
1994
1991
1988
1986
1984
1982
1980
1978
1976
1974
1972
1971
1969
1969
1969
1970
1970
1971
1970
1970
1969
1969
1969
1969
1969
1970
1971
1971
1972
1972
1972
1971
1971
1971
1972
1972
1973
1973
1973
1972
1971
1971
1970
1970
1971
1972
1972
1973
1973
1972
1972
1972
1972
1972
1971
1971
1971
1972
1973
1975
1975
1975
1974
1973
1973
1974
1976
1978
1978
1978
1976
1973
1971
1970
1969
1969
1969
1970
1970
1970
1970
1970
1970
1968
1964
1962
1963
1972
1991
2019
2054
2086
2102
2094
2062
2017
1976
1950
1943
1950
1962
1970
1973
1974
1974
1975
1976
1977
1977
1977
1977
1977
1977
1977
1978
1979
1981
1981
1982
1982
1982
1982
1983
1984
1986
1987
1989
1990
1992
1993
1994
1995
1997
1999
2001
2004
2006
2008
2010
2011
2011
2011
2011
2010
2010
2009
2009
2008
2005
2002
1998
1994
1990
1986
1983
1980
1978
1975
1974
1972
1971
1970
1969
1968
1968
1968
1968
1969
1969
1969
1968
1968
1968
1967
1968
1968
1969
1970
1970
1970
1969
1969
1968
1969
1969
1970
1971
1971
1971
1971
1970
1969
1969
1968
1967
1966
1965
1964
1963
1963
1962
1961
1960
1959
1959
1959
1961
1962
1963
1964
1962
1959
1956
1952
1949
1947
1946
1945
1944
1942
1940
1939
1939
1939
1939
1937
1933
1929
1927
1934
1951
1980
2019
2056
2078
2075
2045
1997
1949
1916
1905
1910
1922
1931
1936
1937
1938
1939
1939
1939
1939
1939
1939
1939
1940
1941
1942
1943
1944
1945
1945
1945
1945
1946
1948
1949
1951
1953
1955
1956
1958
1959
1961
1962
1964
1967
1970
1973
1976
1978
1979
1980
1981
1981
1982
1983
1983
1983
1981
1980
1977
1974
1971
1968
1965
1963
1960
1958
1955
1952
1950
1948
1947
1947
1947
1948
1949
1950
1950
1950
1949
1949
1949
1950
1950
1951
1952
1953
1953
1953
1953
1953
1953
1953
1953
1954
1955
1956
1956
1956
1956
1956
1956
1956
1956
1956
1956
1957
1957
1957
1957
1956
1955
1956
1957
1959
1961
1964
1965
1965
1963
1961
1959
1958
1958
1957
1957
1958
1957
1957
1958
1958
1957
1955
1951
1947
1947
1954
1972
2001
2040
2076
2099
2097
2067
2020
1973
1941
1930
1935
1947
1956
1960
1961
1962
1963
1964
1965
1966
1966
1966
1965
1966
1966
1967
1968
1969
1971
1974
1977
1980
1983
1986
1987
1989
1991
1992
1994
1996
1997
1999
2000
2003
2006
2009
2012
2016
2018
2020
2022
2022
2022
2022
2022
2022
2022
2021
2020
2017
2014
2010
2006
2002
1999
1997
1994
1992
1990
1988
1986
1985
1984
1983
1983
1983
1983
1984
1984
1984
1983
1983
1982
1983
1984
1985
1988
1990
1991
1991
1991
1990
1989
1989
1989
1990
1990
1990
1990
1990
1990
1990
1990
1990
1989
1989
1989
1990
1990
1991
1991
1990
1990
1990
1990
1991
1993
1995
1997
1997
1996
1995
1993
1992
1991
1991
1991
1991
1991
1992
1992
1993
1992
1989
1986
1983
1985
1994
2012
2040
2074
2106
2123
2116
2084
2039
1995
1967
1959
1966
1977
1986
1989
1989
1988
1988
1988
1989
1989
1989
1989
1989
1989
1989
1989
1990
1991
1991
1992
1992
1993
1993
1993
1993
1994
1995
1997
1998
2000
2002
2003
2004
2006
2007
2010
2012
2014
2016
2017
2018
2019
2019
2019
2019
2018
2018
2017
2015
2013
2011
2007
2004
2000
1997
1994
1991
1989
1987
1986
1984
1983
1981
1980
1979
1979
1979
1979
1979
1979
1979
1979
1978
1978
1977
1977
1978
1978
1979
1979
1980
1979
1979
1979
1979
1979
1979
1980
1980
1981
1981
1980
1980
1979
1979
1979
1979
1979
1979
1979
1979
1979
1978
1978
1978
1978
1980
1982
1983
1984
1984
1983
1981
1979
1977
1976
1975
1975
1975
1975
1975
1975
1975
1974
1972
1968
1965
1965
1971
1985
2009
2041
2074
2098
2101
2078
2038
1993
1958
1944
1946
1956
1966
1971
1972
1972
1972
1972
1972
1973
1973
1973
1973
1973
1973
1973
1974
1975
1976
1976
1976
1976
1976
1977
1978
1979
1981
1982
1984
1985
1986
1988
1989
1990
1991
1993
1995
1997
2000
2002
2003
2004
2004
2003
2003
2002
2002
2001
2001
1999
1997
1993
1990
1986
1983
1980
1978
1977
1975
1974
1973
1972
1971
1970
1969
1968
1968
1969
1969
1970
1970
1970
1970
1970
1970
1970
1970
1971
1971
1972
1972
1972
1972
1971
1971
1971
1971
1972
1973
1973
1973
1973
1972
1972
1971
1971
1972
1972
1972
1972
1972
1972
1971
1971
1971
1971
1971
1972
1973
1975
1977
1977
1977
1976
1975
1973
1972
1971
1971
1970
1970
1969
1969
1969
1969
1969
1969
1966
1963
1961
1964
1975
1996
2026
2060
2088
2097
2081
2045
2000
1962
1941
1939
1948
1959
1966
1968
1969
1969
1969
1968
1968
1968
1968
1968
1968
1969
1970
1971
1971
1972
1972
1972
1972
1973
1973
1974
1976
1977
1978
1979
1980
1981
1982
1984
1985
1987
1990
1992
1994
1995
1996
1997
1998
1998
1998
1999
1999
2000
2000
1999
1997
1994
1991
1988
1985
1983
1981
1979
1977
1974
1972
1970
1969
1968
1967
1967
1967
1967
1968
1967
1967
1967
1966
1966
1967
1967
1968
1968
1969
1969
1969
1969
1968
1968
1968
1969
1969
1970
1970
1970
1970
1970
1969
1969
1969
1969
1969
1970
1970
1970
1969
1969
1968
1968
1968
1968
1969
1969
1969
1969
1968
1968
1968
1970
1971
1973
1974
1974
1974
1972
1970
1969
1968
1967
1966
1966
1967
1968
1969
1968
1967
1963
1958
1955
1957
1968
1988
2019
2055
2084
2095
2081
2045
1998
1958
1936
1932
1941
1952
1959
1961
1961
1960
1960
1959
1960
1960
1961
1962
1962
1961
1961
1960
1960
1961
1963
1964
1965
1966
1966
1966
1966
1966
1967
1968
1970
1972
1974
1976
1978
1980
1981
1982
1984
1985
1987
1989
1991
1992
1993
1993
1993
1992
1991
1990
1988
1987
1985
1982
1979
1976
1973
1969
1966
1964
1962
1962
1961
1961
1960
1959
1958
1957
1957
1957
1957
1958
1958
1958
1958
1957
1957
1956
1956
1956
1957
1958
1959
1959
1959
1959
1958
1957
1957
1956
1956
1957
1957
1958
1958
1957
1957
1956
1955
1954
1954
1954
1954
1955
1955
1954
1954
1953
1953
1952
1953
1955
1956
1958
1959
1959
1958
1955
1953
1951
1950
1950
1950
1949
1950
1950
1950
1951
1950
1948
1944
1941
1940
1947
1964
1993
2030
2065
2087
2083
2053
2006
1960
1928
1918
1922
1933
1942
1946
1946
1946
1946
1945
1945
1945
1944
1943
1942
1941
1940
1941
1941
1942
1943
1943
1943
1943
1943
1943
1944
1945
1947
1949
1951
1952
1954
1955
1957
1959
1961
1964
1966
1969
1971
1972
1974
1974
1975
1975
1975
1975
1975
1974
1973
1971
1968
1965
1961
1957
1954
1950
1948
1946
1945
1943
1941
1940
1939
1938
1938
1938
1939
1940
1941
1941
1941
1941
1941
1941
1941
1942
1943
1943
1944
1944
1944
1944
1944
1945
1946
1946
1947
1947
1947
1947
1947
1948
1947
1947
1947
1948
1948
1949
1949
1950
1949
1949
1948
1947
1948
1949
1951
1953
1955
1955
1955
1952
1950
1948
1946
1945
1944
1944
1943
1943
1944
1944
1945
1944
1942
1938
1934
1932
1936
1950
1976
2013
2053
2084
2092
2071
2028
1977
1936
1916
1915
1925
1935
1941
1942
1943
1944
1945
1945
1945
1945
1945
1944
1944
1945
1946
1948
1949
1950
1951
1951
1952
1953
1953
1954
1955
1957
1958
1960
1961
1962
1963
1965
1967
1970
1973
1976
1979
1981
1982
1984
1984
1985
1985
1985
1985
1985
1985
1984
1982
1979
1976
1972
1968
1964
1961
1958
1956
1954
1952
1951
1950
1949
1948
1948
1948
1948
1948
1949
1949
1949
1949
1949
1949
1949
1949
1950
1950
1951
1951
1951
1951
1951
1951
1951
1952
1952
1953
1953
1953
1953
1954
1956
1957
1958
1959
1960
1960
1960
1960
1960
1960
1960
1960
1961
1963
1965
1967
1969
1970
1970
1968
1966
1964
1962
1961
1961
1962
1962
1962
1963
1963
1963
1961
1958
1954
1951
1954
1966
1989
2024
2063
2096
2108
2091
2050
2001
1959
1937
1934
1943
1954
1961
1962
1963
1964
1965
1965
1966
1966
1967
1967
1967
1967
1968
1969
1970
1971
1972
1974
1975
1977
1980
1982
1985
1987
1989
1991
1993
1994
1996
1998
2000
2003
2005
2008
2011
2014
2016
2018
2020
2021
2021
2021
2022
2022
2022
2021
2019
2017
2014
2010
2006
2002
1999
1996
1994
1993
1992
1991
1989
1988
1987
1986
1986
1986
1987
1987
1987
1987
1987
1987
1987
1988
1989
1990
1991
1991
1992
1992
1991
1991
1991
1991
1991
1991
1992
1992
1992
1992
1991
1991
1990
1989
1989
1989
1989
1990
1990
1990
1990
1990
1990
1989
1989
1990
1990
1992
1994
1995
1997
1997
1996
1994
1992
1991
1990
1990
1990
1990
1990
1990
1990
1990
1990
1990
1988
1985
1983
1986
1997
2018
2048
2083
2113
2125
2111
2074
2027
1986
1964
1961
1970
1981
1987
1990
1990
1990
1990
1990
1990
1990
1989
1989
1990
1991
1992
1993
1993
1994
1994
1994
1994
1994
1994
1995
1996
1998
1999
2000
2001
2001
2002
2003
2005
2007
2009
2012
2014
2016
2017
2017
2017
2018
2018
2019
2019
2019
2018
2017
2015
2013
2009
2006
2003
1999
1996
1994
1991
1989
1987
1985
1984
1983
1982
1982
1982
1982
1982
1982
1982
1982
1981
1981
1982
1983
1984
1985
1985
1986
1985
1985
1984
1984
1984
1985
1985
1986
1986
1986
1985
1985
1984
1983
1983
1982
1982
1982
1982
1982
1981
1980
1979
1978
1977
1977
1977
1977
1977
1976
1975
1975
1975
1976
1978
1979
1979
1979
1978
1977
1975
1973
1971
1970
1969
1968
1969
1970
1971
1972
1971
1968
1963
1960
1963
1975
1998
2032
2068
2098
2107
2090
2049
2002
1961
1941
1940
1950
1961
1967
1969
1968
1967
1967
1967
1967
1968
1968
1968
1967
1966
1965
1964
1963
1963
1964
1965
1965
1966
1966
1966
1967
1967
1968
1969
1970
1972
1974
1975
1976
1977
1979
1980
1982
1985
1987
1990
1991
1992
1992
1991
1991
1990
1990
1988
1987
1985
1983
1980
1976
1972
1968
1964
1961
1959
1958
1957
1957
1957
1956
1955
1953
1953
1952
1952
1953
1954
1954
1955
1955
1953
1951
1949
1946
1944
1942
1942
1943
1944
1944
1944
1943
1942
1942
1943
1943
1944
1944
1944
1944
1944
1944
1944
1944
1944
1943
1943
1943
1943
1943
1943
1943
1942
1941
1941
1943
1945
1948
1950
1951
1950
1949
1947
1946
1944
1944
1944
1944
1945
1945
1945
1946
1946
1945
1942
1938
1934
1935
1944
1964
1995
2035
2071
2092
2087
2053
2005
1957
1925
1916
1923
1935
1943
1947
1947
1947
1948
1949
1949
1950
1950
1950
1950
1950
1950
1951
1952
1953
1955
1955
1956
1956
1957
1958
1958
1959
1961
1962
1964
1966
1967
1969
1971
1972
1975
1977
1980
1983
1986
1988
1989
1989
1989
1990
1990
1990
1990
1990
1988
1986
1983
1979
1975
1971
1968
1965
1963
1962
1960
1958
1957
1955
1954
1954
1953
1954
1954
1954
1955
1955
1955
1955
1954
1954
1954
1955
1956
1957
1958
1958
1958
1959
1959
1959
1959
1960
1961
1961
1961
1962
1963
1965
1967
1969
1970
1971
1972
1972
1973
1973
1972
1972
1971
1971
1972
1973
1974
1975
1975
1976
1976
1977
1978
1981
1983
1985
1986
1986
1985
1984
1983
1983
1982
1981
1981
1981
1982
1983
1983
1982
1979
1975
1972
1974
1984
2005
2036
2074
2109
2127
2118
2082
2033
1987
1960
1955
1964
1977
1986
1989
1988
1987
1987
1986
1986
1987
1988
1989
1989
1990
1989
1989
1989
1989
1990
1991
1993
1994
1996
1997
1997
1998
1998
1999
2000
2001
2003
2005
2007
2009
2011
2012
2014
2016
2017
2020
2022
2024
2025
2025
2023
2021
2020
2018
2018
2016
2015
2012
2009
2005
2002
1998
1994
1992
1990
1988
1988
1987
1987
1986
1985
1984
1983
1983
1983
1982
1983
1983
1983
1982
1982
1981
1980
1980
1980
1980
1980
1981
1981
1981
1981
1980
1979
1979
1979
1979
1979
1980
1980
1979
1978
1977
1977
1976
1976
1976
1977
1977
1977
1977
1976
1975
1974
1973
1972
1973
1974
1975
1977
1979
1979
1978
1975
1972
1970
1968
1967
1967
1966
1966
1966
1965
1965
1965
1963
1960
1956
1955
1958
1971
1994
2028
2065
2094
2102
2082
2041
1992
1952
1932
1931
1941
1951
1956
1958
1958
1958
1958
1958
1958
1957
1957
1956
1956
1956
1958
1959
1960
1960
1958
1957
1955
1954
1954
1954
1956
1958
1960
1962
1964
1965
1966
1968
1969
1971
1973
1976
1979
1981
1983
1984
1985
1985
1985
1986
1987
1987
1987
1986
1984
1982
1978
1974
1971
1968
1965
1963
1962
1960
1958
1956
1955
1954
1954
1954
1954
1955
1955
1956
1956
1955
1955
1955
1955
1956
1957
1958
1959
1959
1960
1960
1960
1959
1959
1960
1961
1962
1962
1962
1961
1961
1960
1960
1961
1962
1962
1963
1963
1963
1964
1963
1963
1962
1962
1962
1963
1964
1964
1965
1967
1968
1970
1972
1973
1973
1972
1972
1971
1971
1970
1969
1968
1968
1968
1969
1971
1972
1972
1970
1967
1964
1967
1978
2000
2033
2072
2106
2120
2107
2068
2018
1974
1950
1946
1956
1969
1977
1980
1981
1981
1981
1981
1981
1981
1982
1983
1985
1986
1988
1989
1989
1989
1990
1990
1991
1992
1993
1995
1997
1999
2000
2001
2002
2003
2005
2007
2010
2013
2016
2018
2020
2022
2024
2025
2026
2028
2029
2030
2031
2031
2031
2029
2028
2025
2023
2020
2018
2016
2013
2010
2008
2005
2002
2001
2000
2001
2001
2001
2002
2002
2002
2001
2001
2001
2001
2002
2003
2004
2005
2006
2005
2005
2005
2005
2005
2006
2007
2008
2009
2009
2009
2009
2009
2009
2009
2009
2010
2010
2011
2011
2011
2010
2009
2009
2009
2010
2013
2015
2018
2019
2019
2019
2019
2019
2021
2023
2025
2026
2026
2025
2023
2021
2019
2018
2018
2019
2020
2022
2023
2023
2023
2021
2018
2014
2013
2019
2033
2057
2092
2129
2156
2161
2138
2093
2045
2008
1992
1995
2006
2016
2021
2021
2021
2020
2020
2020
2021
2022
2023
2023
2023
2022
2022
2022
2023
2023
2025
2025
2026
2026
2026
2026
2027
2028
2029
2031
2033
2035
2037
2040
2043
2045
2048
2049
2051
2053
2055
2056
2057
2057
2057
2057
2056
2056
2055
2053
2052
2049
2047
2044
2040
2037
2033
2030
2028
2026
2025
2024
2024
2023
2022
2022
2021
2021
2020
2020
2021
2021
2021
2021
2021
2021
2021
2020
2019
2019
2019
2019
2020
2020
2020
2019
2018
2018
2018
2018
2018
2018
2018
2018
2017
2016
2015
2014
2014
2014
2014
2014
2014
2014
2013
2013
2012
2012
2012
2012
2013
2015
2017
2019
2019
2018
2017
2015
2013
2012
2011
2011
2010
2010
2009
2009
2010
2010
2008
2006
2002
2000
2003
2013
2032
2060
2094
2123
2136
2124
2090
2045
2004
1981
1977
1986
1996
2003
2005
2005
2005
2004
2005
2005
2005
2004
2004
2004
2004
2005
2006
2007
2007
2007
2007
2007
2007
2007
2008
2009
2010
2011
2013
2014
2015
2016
2017
2018
2020
2021
2024
2026
2028
2029
2030
2031
2031
2031
2031
2031
2030
2030
2029
2027
2025
2022
2019
2015
2012
2009
2007
2005
2003
2001
1999
1997
1995
1994
1994
1994
1994
1995
1995
1995
1995
1994
1994
1994
1994
1994
1995
1995
1995
1994
1994
1993
1993
1992
1992
1992
1992
1992
1992
1992
1991
1990
1989
1989
1989
1989
1989
1988
1988
1987
1987
1986
1985
1985
1984
1985
1986
1988
1990
1991
1991
1989
1987
1985
1983
1982
1982
1982
1982
1982
1982
1982
1981
1980
1978
1974
1970
1971
1978
1995
2023
2059
2093
2113
2107
2076
2031
1987
1958
1950
1955
1965
1972
1974
1974
1974
1975
1975
1976
1976
1976
1976
1976
1975
1976
1976
1978
1979
1980
1979
1978
1977
1976
1977
1978
1979
1981
1982
1984
1985
1986
1987
1988
1989
1991
1994
1996
1999
2001
2003
2004
2004
2004
2004
2004
2004
2003
2003
2001
1999
1996
1993
1989
1985
1982
1979
1977
1975
1974
1972
1971
1969
1968
1966
1966
1966
1966
1967
1967
1967
1967
1967
1966
1966
1966
1966
1967
1967
1967
1967
1967
1966
1965
1965
1964
1964
1965
1965
1965
1965
1964
1963
1962
1962
1962
1962
1962
1962
1962
1962
1961
1961
1962
1963
1965
1966
1966
1964
1961
1959
1957
1956
1955
1954
1954
1955
1956
1957
1957
1955
1950
1945
1943
1948
1965
1994
2033
2070
2091
2085
2052
2003
1955
1924
1915
1921
1933
1941
1945
1945
1945
1944
1944
1944
1944
1944
1945
1946
1946
1947
1947
1947
1948
1948
1949
1950
1951
1953
1954
1955
1956
1957
1957
1958
1960
1961
1963
1966
1968
1971
1972
1974
1976
1977
1979
1980
1981
1983
1983
1984
1983
1982
1979
1977
1974
1970
1967
1965
1962
1959
1956
1952
1949
1946
1944
1943
1942
1942
1942
1942
1942
1941
1941
1941
1941
1941
1942
1942
1942
1942
1941
1941
1940
1940
1941
1941
1942
1943
1943
1943
1943
1943
1942
1942
1942
1942
1942
1942
1942
1942
1941
1941
1940
1939
1940
1942
1944
1946
1947
1947
1945
1942
1940
1938
1937
1937
1937
1938
1939
1941
1941
1939
1935
1929
1924
1925
1937
1961
1998
2041
2076
2089
2073
2031
1978
1934
1911
1909
1919
1931
1938
1939
1939
1938
1938
1938
1939
1940
1940
1941
1941
1941
1941
1941
1942
1943
1944
1945
1946
1948
1948
1949
1949
1950
1951
1953
1956
1958
1960
1962
1964
1966
1968
1970
1972
1974
1976
1977
1979
1980
1980
1980
1978
1977
1976
1975
1973
1971
1968
1964
1960
1956
1953
1950
1948
1947
1946
1946
1946
1946
1946
1946
1945
1945
1945
1946
1947
1947
1948
1948
1948
1948
1947
1947
1948
1949
1950
1952
1953
1953
1954
1953
1953
1952
1952
1953
1953
1954
1955
1955
1955
1954
1954
1954
1955
1956
1959
1961
1963
1963
1962
1960
1957
1955
1954
1954
1954
1954
1955
1955
1955
1955
1955
1952
1948
1943
1940
1945
1960
1986
2024
2063
2090
2093
2068
2024
1976
1941
1928
1932
1944
1954
1959
1960
1961
1962
1963
1964
1965
1965
1966
1965
1965
1965
1965
1965
1967
1968
1969
1969
1970
1970
1970
1971
1972
1974
1977
1979
1981
1983
1984
1986
1988
1990
1993
1996
1999
2002
2004
2005
2006
2006
2006
2006
2005
2005
2004
2002
2000
1997
1993
1989
1985
1981
1978
1975
1974
1972
1972
1971
1970
1969
1968
1967
1967
1967
1968
1968
1968
1968
1967
1966
1966
1965
1966
1966
1967
1968
1969
1969
1969
1968
1968
1968
1968
1969
1969
1970
1970
1970
1970
1970
1970
1971
1971
1972
1973
1974
1975
1977
1978
1978
1977
1976
1974
1973
1972
1971
1971
1971
1971
1970
1970
1970
1970
1970
1967
1962
1958
1959
1968
1987
2018
2055
2089
2105
2096
2061
2014
1972
1947
1941
1948
1959
1967
1969
1969
1969
1969
1969
1969
1969
1969
1969
1970
1970
1971
1972
1972
1973
1973
1973
1974
1975
1976
1977
1978
1980
1981
1982
1983
1984
1985
1986
1988
1990
1992
1995
1997
1999
2000
2001
2001
2001
2001
2001
2002
2002
2001
1999
1997
1994
1990
1987
1984
1981
1979
1977
1975
1973
1971
1970
1968
1967
1967
1967
1967
1968
1968
1968
1969
1968
1968
1968
1969
1969
1970
1971
1972
1973
1973
1973
1972
1972
1973
1974
1975
1975
1976
1976
1975
1975
1974
1974
1974
1974
1974
1975
1975
1975
1975
1975
1975
1975
1977
1979
1981
1982
1982
1981
1979
1976
1974
1972
1971
1971
1972
1973
1974
1974
1974
1972
1968
1963
1960
1963
1974
1996
2028
2063
2093
2103
2088
2050
2005
1966
1946
1944
1954
1965
1971
1972
1971
1971
1970
1971
1972
1973
1974
1975
1975
1974
1974
1974
1974
1975
1976
1977
1978
1979
1979
1980
1980
1980
1981
1983
1984
1986
1988
1990
1991
1993
1994
1996
1998
2000
2003
2005
2006
2007
2007
2007
2006
2005
2004
2002
2001
1999
1997
1994
1991
1987
1984
1981
1978
1976
1976
1975
1974
1974
1973
1973
1972
1971
1971
1971
1972
1973
1973
1974
1974
1974
1974
1974
1973
1973
1974
1975
1975
1975
1975
1975
1974
1974
1974
1974
1975
1976
1976
1976
1976
1975
1975
1975
1975
1975
1975
1976
1976
1976
1975
1975
1975
1975
1975
1975
1976
1978
1980
1981
1982
1981
1980
1978
1977
1975
1974
1974
1974
1974
1974
1974
1974
1974
1973
1971
1968
1965
1966
1973
1989
2016
2050
2084
2104
2100
2071
2027
1983
1954
1944
1949
1959
1968
1972
1973
1973
1974
1974
1974
1973
1973
1973
1973
1973
1974
1976
1977
1978
1979
1980
1980
1980
1980
1980
1980
1981
1983
1984
1986
1987
1988
1989
1990
1991
1993
1996
1998
2001
2002
2004
2004
2005
2005
2006
2006
2006
2006
2005
2004
2001
1998
1995
1991
1989
1986
1984
1982
1980
1977
1975
1974
1972
1971
1970
1969
1969
1969
1969
1969
1969
1968
1968
1967
1967
1968
1968
1968
1969
1969
1969
1968
1967
1967
1967
1967
1968
1968
1969
1969
1968
1968
1967
1966
1966
1966
1967
1967
1967
1966
1966
1965
1965
1965
1965
1965
1965
1964
1964
1964
1963
1963
1962
1962
1963
1964
1966
1969
1971
1972
1971
1968
1965
1963
1962
1961
1961
1962
1962
1962
1962
1962
1962
1962
1960
1956
1953
1952
1957
1971
1996
2031
2067
2092
2095
2071
2029
1982
1947
1932
1935
1945
1954
1959
1960
1960
1960
1961
1961
1961
1961
1961
1960
1960
1960
1961
1962
1963
1964
1964
1964
1965
1965
1966
1967
1967
1968
1969
1971
1973
1974
1975
1976
1977
1978
1980
1983
1985
1987
1988
1989
1990
1990
1990
1989
1989
1988
1988
1986
1984
1982
1978
1975
1971
1968
1965
1962
1960
1958
1956
1954
1952
1951
1950
1950
1950
1950
1951
1951
1951
1951
1951
1951
1951
1952
1953
1954
1954
1954
1954
1953
1952
1952
1952
1952
1952
1953
1954
1954
1954
1954
1953
1953
1953
1953
1954
1954
1954
1954
1953
1952
1951
1951
1950
1950
1950
1950
1950
1949
1949
1948
1949
1950
1951
1952
1953
1953
1952
1951
1949
1948
1947
1946
1946
1946
1947
1947
1948
1949
1947
1944
1939
1933
1931
1938
1956
1987
2027
2065
2087
2082
2049
1999
1950
1917
1907
1914
1926
1935
1939
1939
1939
1939
1939
1940
1941
1942
1943
1943
1944
1944
1944
1944
1944
1944
1945
1947
1948
1950
1951
1952
1952
1953
1954
1955
1957
1959
1961
1964
1967
1969
1972
1974
1976
1978
1980
1982
1984
1986
1986
1986
1985
1983
1981
1980
1978
1976
1974
1971
1968
1964
1960
1956
1953
1950
1949
1948
1948
1948
1948
1948
1948
1948
1947
1947
1946
1946
1947
1947
1948
1947
1946
1946
1946
1946
1947
1948
1948
1949
1949
1949
1949
1949
1949
1950
1950
1950
1951
1951
1951
1951
1951
1950
1950
1950
1950
1951
1951
1951
1951
1950
1950
1949
1950
1951
1953
1955
1957
1958
1958
1957
1956
1954
1952
1950
1950
1950
1950
1951
1951
1952
1952
1950
1948
1943
1939
1939
1948
1968
2002
2044
2083
2106
2101
2067
2016
1965
1931
1920
1926
1937
1946
1950
1950
1951
1951
1952
1952
1953
1953
1953
1953
1953
1953
1953
1953
1954
1955
1956
1957
1957
1957
1958
1959
1961
1963
1964
1966
1967
1969
1971
1973
1975
1977
1979
1982
1985
1987
1989
1990
1991
1991
1991
1991
1991
1991
1990
1988
1986
1983
1979
1975
1971
1967
1964
1961
1959
1957
1955
1954
1954
1953
1953
1953
1953
1953
1953
1953
1953
1954
1954
1953
1953
1954
1954
1954
1955
1956
1956
1956
1956
1956
1956
1957
1958
1959
1960
1960
1961
1961
1961
1960
1960
1959
1959
1960
1961
1961
1961
1961
1960
1959
1958
1958
1958
1958
1960
1963
1966
1968
1969
1968
1967
1965
1963
1962
1962
1962
1961
1961
1961
1962
1963
1965
1965
1964
1961
1958
1958
1965
1982
2012
2051
2090
2116
2115
2086
2038
1987
1952
1938
1942
1954
1963
1968
1968
1969
1970
1970
1969
1969
1968
1968
1969
1969
1970
1971
1973
1974
1974
1975
1975
1975
1975
1976
1977
1979
1981
1983
1984
1985
1986
1987
1988
1990
1993
1997
2000
2003
2006
2007
2008
2009
2009
2010
2011
2012
2012
2011
2010
2007
2004
2001
1999
1997
1995
1994
1992
1989
1987
1986
1985
1984
1983
1983
1984
1985
1987
1988
1989
1990
1990
1989
1989
1989
1990
1991
1992
1992
1992
1992
1992
1992
1991
1991
1992
1992
1993
1994
1994
1994
1993
1993
1992
1992
1992
1992
1993
1993
1993
1994
1994
1994
1995
1995
1995
1995
1995
1994
1994
1994
1993
1992
1991
1992
1993
1995
1997
1999
1999
1998
1997
1995
1994
1993
1992
1992
1992
1992
1992
1991
1991
1990
1989
1987
1984
1983
1988
2000
2023
2055
2093
2123
2134
2118
2079
2031
1990
1968
1966
1976
1986
1993
1995
1995
1995
1995
1995
1996
1996
1996
1996
1996
1996
1996
1997
1997
1999
2000
2001
2002
2002
2002
2002
2002
2003
2004
2006
2007
2008
2009
2010
2011
2012
2014
2016
2019
2021
2023
2025
2025
2025
2024
2024
2023
2023
2022
2021
2019
2016
2013
2009
2005
2001
1997
1994
1992
1990
1988
1986
1985
1983
1982
1981
1981
1981
1981
1981
1981
1981
1981
1980
1980
1979
1979
1979
1980
1980
1980
1980
1980
1980
1980
1979
1979
1979
1979
1980
1980
1980
1979
1979
1978
1977
1977
1977
1978
1978
1979
1979
1978
1977
1977
1976
1976
1976
1976
1977
1977
1977
1976
1975
1974
1974
1973
1973
1974
1974
1974
1974
1974
1974
1975
1976
1978
1979
1979
1978
1977
1975
1973
1971
1970
1969
1969
1969
1970
1971
1972
1972
1970
1966
1962
1960
1966
1980
2004
2038
2072
2096
2099
2076
2034
1988
1953
1939
1942
1953
1964
1970
1971
1971
1970
1969
1969
1969
1969
1970
1971
1971
1971
1971
1971
1971
1972
1972
1973
1974
1975
1976
1976
1976
1976
1977
1978
1979
1981
1983
1985
1987
1989
1990
1992
1994
1996
1998
2000
2001
2002
2003
2003
2003
2002
2001
2000
1999
1997
1995
1993
1990
1987
1983
1980
1977
1974
1973
1971
1971
1970
1970
1969
1968
1968
1967
1967
1967
1968
1969
1969
1969
1969
1969
1969
1969
1969
1970
1971
1971
1972
1972
1972
1972
1971
1971
1971
1972
1972
1973
1973
1973
1973
1973
1972
1972
1972
1972
1972
1973
1974
1974
1974
1974
1973
1973
1973
1973
1974
1975
1975
1976
1976
1975
1975
1974
1974
1974
1975
1975
1976
1976
1976
1976
1976
1976
1978
1980
1982
1984
1984
1982
1980
1978
1976
1975
1974
1975
1975
1976
1977
1978
1978
1976
1973
1968
1965
1968
1978
1999
2029
2063
2091
2103
2089
2054
2010
1971
1950
1947
1955
1965
1972
1974
1973
1973
1972
1972
1973
1974
1975
1976
1976
1976
1976
1976
1977
1978
1979
1979
1980
1981
1981
1982
1983
1983
1984
1986
1988
1990
1992
1993
1995
1996
1997
1998
2000
2002
2004
2006
2008
2009
2009
2009
2008
2007
2006
2004
2003
2001
1999
1996
1992
1988
1984
1980
1976
1973
1971
1969
1967
1966
1965
1964
1963
1963
1962
1963
1963
1963
1963
1964
1964
1963
1963
1963
1962
1962
1963
1964
1964
1965
1965
1964
1964
1964
1964
1964
1965
1965
1966
1965
1965
1964
1963
1963
1963
1963
1963
1964
1965
1965
1965
1965
1964
1962
1961
1960
1959
1959
1960
1960
1959
1958
1957
1957
1958
1960
1962
1964
1965
1965
1963
1960
1958
1957
1956
1956
1956
1956
1957
1957
1958
1958
1956
1953
1948
1945
1949
1962
1986
2021
2059
2087
2094
2073
2032
1982
1943
1924
1924
1934
1945
1951
1952
1952
1952
1953
1953
1954
1954
1954
1953
1952
1952
1952
1953
1954
1956
1958
1959
1959
1958
1957
1956
1955
1956
1957
1958
1960
1961
1962
1963
1965
1967
1969
1972
1975
1978
1980
1982
1983
1983
1984
1984
1984
1984
1984
1983
1982
1980
1978
1974
1970
1966
1962
1958
1955
1953
1952
1950
1949
1948
1947
1947
1946
1946
1946
1947
1948
1948
1949
1949
1948
1947
1947
1947
1948
1948
1949
1950
1950
1949
1949
1948
1948
1948
1949
1949
1949
1949
1948
1948
1947
1947
1947
1947
1947
1948
1948
1948
1948
1948
1947
1947
1947
1947
1947
1948
1950
1952
1954
1956
1957
1957
1957
1955
1953
1952
1952
1952
1951
1951
1950
1949
1949
1951
1951
1950
1946
1941
1939
1943
1959
1988
2029
2070
2099
2102
2076
2028
1975
1935
1918
1920
1931
1941
1947
1948
1948
1949
1949
1949
1949
1950
1950
1952
1953
1955
1955
1956
1956
1956
1956
1956
1957
1957
1958
1960
1961
1963
1964
1965
1966
1967
1969
1972
1975
1978
1981
1983
1985
1987
1988
1989
1991
1992
1993
1994
1994
1994
1993
1991
1989
1985
1981
1978
1974
1971
1968
1965
1961
1959
1956
1954
1953
1952
1952
1952
1952
1952
1952
1952
1952
1951
1951
1951
1951
1952
1953
1954
1955
1955
1955
1954
1954
1954
1955
1957
1958
1959
1959
1958
1957
1956
1956
1956
1957
1959
1960
1961
1961
1961
1961
1961
1962
1963
1964
1964
1965
1965
1966
1968
1971
1972
1973
1973
1971
1970
1969
1969
1968
1968
1968
1967
1967
1967
1968
1969
1969
1967
1964
1962
1966
1981
2007
2045
2085
2117
2125
2103
2058
2007
1966
1946
1947
1959
1970
1977
1980
1981
1982
1981
1980
1980
1979
1980
1982
1984
1985
1986
1987
1987
1988
1989
1990
1991
1992
1994
1996
1998
2001
2004
2007
2010
2013
2015
2017
2020
2023
2026
2029
2032
2033
2034
2035
2036
2037
2038
2039
2040
2040
2039
2037
2035
2032
2029
2026
2023
2020
2017
2013
2010
2008
2006
2004
2003
2003
2003
2003
2003
2004
2005
2005
2004
2003
2003
2003
2004
2005
2006
2006
2006
2005
2005
2004
2004
2004
2004
2004
2004
2004
2004
2003
2002
2001
2000
2000
2000
2001
2002
2001
2001
2000
1999
1998
1998
1997
1998
1998
1999
1999
2000
2001
2002
2003
2004
2004
2004
2003
2002
2001
2000
1999
1998
1998
1999
2000
2002
2003
2002
1999
1995
1993
1998
2012
2036
2068
2104
2130
2133
2110
2066
2018
1981
1964
1966
1978
1989
1996
1997
1997
1996
1995
1993
1993
1993
1993
1994
1995
1995
1995
1995
1995
1995
1995
1995
1996
1997
1998
1999
2000
2000
2001
2002
2002
2004
2005
2007
2009
2011
2013
2014
2015
2016
2018
2019
2020
2021
2021
2021
2021
2020
2019
2018
2016
2013
2010
2006
2003
2000
1997
1994
1991
1988
1986
1985
1984
1983
1983
1983
1982
1981
1981
1980
1980
1980
1980
1980
1981
1981
1981
1981
1980
1980
1980
1980
1980
1981
1982
1982
1982
1982
1982
1981
1980
1980
1981
1981
1982
1982
1982
1982
1981
1980
1979
1979
1979
1980
1980
1981
1981
1981
1981
1982
1983
1984
1985
1985
1984
1983
1982
1980
1978
1977
1976
1976
1976
1977
1978
1979
1978
1976
1972
1968
1969
1978
1997
2026
2060
2092
2109
2101
2069
2024
1981
1954
1947
1954
1967
1976
1979
1979
1979
1978
1977
1977
1977
1978
1979
1980
1980
1981
1981
1981
1981
1981
1982
1983
1985
1986
1987
1987
1988
1988
1988
1989
1991
1993
1995
1997
1999
2001
2002
2004
2005
2007
2008
2010
2012
2013
2014
2014
2014
2013
2012
2011
2009
2007
2005
2003
2000
1997
1994
1990
1988
1986
1985
1985
1985
1985
1984
1984
1983
1982
1982
1982
1982
1982
1983
1984
1984
1984
1984
1985
1985
1985
1985
1986
1986
1987
1987
1988
1988
1987
1987
1986
1986
1986
1987
1988
1989
1989
1988
1987
1987
1987
1987
1988
1989
1989
1989
1989
1988
1988
1989
1991
1994
1996
1997
1997
1996
1994
1992
1990
1989
1989
1989
1989
1990
1990
1991
1992
1991
1989
1985
1982
1983
1993
2013
2043
2079
2111
2125
2114
2079
2033
1992
1968
1964
1972
1983
1991
1994
1994
1993
1993
1992
1993
1993
1994
1994
1994
1994
1993
1993
1993
1994
1995
1995
1996
1997
1997
1997
1997
1997
1998
2000
2002
2004
2006
2007
2008
2009
2010
2012
2014
2016
2019
2021
2022
2023
2023
2022
2022
2021
2021
2021
2020
2019
2017
2014
2010
2006
2002
1999
1997
1996
1994
1993
1992
1991
1990
1989
1989
1988
1987
1987
1987
1988
1989
1989
1989
1989
1989
1989
1989
1989
1989
1989
