2041
2043
2060
2095
2135
2166
2173
2151
2108
2064
2032
2018
2019
2030
2041
2048
2053
2055
2055
2054
2054
2054
2054
2055
2055
2056
2057
2058
2058
2059
2059
2059
2059
2059
2059
2059
2060
2060
2061
2062
2062
2061
2060
2059
2059
2061
2062
2064
2065
2065
2065
2066
2067
2069
2071
2073
2075
2076
2075
2074
2073
2072
2071
2070
2069
2068
2066
2064
2062
2060
2057
2054
2051
2049
2048
2046
2045
2043
2043
2042
2042
2042
2042
2042
2042
2042
2042
2042
2042
2043
2043
2043
2043
2042
2042
2042
2041
2041
2041
2041
2040
2040
2039
2040
2040
2041
2041
2041
2041
2041
2040
2039
2039
2039
2039
2040
2041
2041
2040
2038
2037
2036
2035
2035
2036
2036
2037
2036
2035
2034
2034
2032
2031
2030
2028
2029
2030
2032
2034
2037
2038
2037
2033
2026
2019
2019
2035
2068
2110
2143
2153
2133
2090
2044
2008
1993
1995
2007
2019
2027
2032
2033
2034
2033
2032
2032
2033
2035
2037
2038
2039
2040
2040
2040
2040
2041
2041
2042
2043
2043
2043
2041
2039
2039
2040
2043
2047
2048
2050
2051
2053
2055
2057
2057
2056
2055
2055
2056
2058
2060
2062
2063
2064
2064
2063
2063
2064
2063
2063
2061
2059
2056
2053
2051
2049
2048
2047
2045
2042
2041
2039
2038
2038
2037
2036
2037
2037
2037
2038
2038
2038
2038
2038
2038
2039
2039
2040
2041
2041
2042
2041
2039
2038
2038
2038
2039
2040
2041
2042
2042
2042
2041
2040
2040
2039
2040
2041
2041
2042
2042
2042
2041
2040
2041
2041
2042
2042
2042
2042
2042
2042
2041
2040
2040
2040
2040
2041
2041
2041
2040
2040
2042
2043
2042
2037
2031
2025
2031
2051
2088
2127
2151
2149
2119
2074
2033
2007
2000
2006
2017
2025
2031
2033
2035
2036
2036
2036
2035
2036
2036
2037
2039
2040
2042
2043
2044
2044
2044
2044
2043
2042
2042
2043
2044
2045
2046
2046
2048
2048
2049
2051
2052
2053
2053
2052
2052
2053
2054
2055
2056
2056
2055
2054
2054
2055
2057
2058
2057
2057
2056
2054
2053
2051
2048
2044
2039
2035
2031
2030
2029
2029
2029
2029
2029
2028
2027
2027
2026
2027
2028
2029
2028
2027
2025
2024
2024
2025
2026
2026
2025
2024
2024
2024
2024
2024
2024
2025
2025
2025
2024
2024
2023
2023
2024
2025
2025
2026
2027
2027
2028
2029
2028
2029
2030
2032
2034
2035
2034
2033
2030
2029
2028
2028
2028
2027
2026
2025
2025
2025
2024
2023
2024
2025
2026
2023
2016
2008
2008
2023
2055
2097
2128
2135
2114
2072
2029
1997
1985
1989
2001
2013
2021
2025
2028
2029
2028
2027
2027
2027
2028
2029
2029
2028
2026
2025
2024
2024
2024
2025
2025
2024
2023
2023
2024
2026
2027
2029
2030
2030
2031
2032
2034
2036
2041
2046
2049
2051
2051
2048
2044
2042
2042
2042
2043
2046
2049
2054
2060
2062
2062
2058
2052
2047
2042
2039
2039
2038
2038
2037
2034
2031
2029
2028
2029
2029
2028
2027
2026
2025
2025
2026
2027
2030
2032
2033
2032
2030
2028
2028
2029
2032
2035
2035
2035
2035
2034
2034
2034
2034
2034
2034
2034
2034
2033
2034
2035
2036
2037
2037
2036
2036
2036
2037
2039
2040
2042
2043
2043
2042
2041
2039
2037
2037
2036
2036
2036
2036
2035
2036
2037
2038
2040
2039
2036
2029
2023
2024
2039
2069
2106
2134
2141
2123
2086
2047
2018
2003
2003
2010
2018
2026
2031
2034
2035
2035
2036
2037
2038
2039
2039
2038
2036
2036
2036
2037
2039
2042
2043
2043
2043
2042
2042
2043
2044
2045
2045
2045
2046
2048
2049
2050
2050
2050
2050
2052
2055
2057
2060
2062
2063
2064
2066
2068
2070
2071
2073
2074
2075
2076
2076
2075
2074
2071
2069
2066
2064
2061
2060
2058
2057
2055
2054
2053
2053
2053
2052
2052
2052
2051
2050
2050
2050
2050
2050
2051
2052
2053
2054
2054
2053
2053
2053
2053
2053
2053
2054
2054
2054
2054
2054
2054
2054
2055
2056
2056
2057
2056
2055
2054
2054
2053
2052
2052
2053
2055
2056
2057
2057
2056
2055
2053
2052
2052
2051
2051
2051
2051
2050
2050
2050
2050
2051
2050
2048
2042
2037
2039
2053
2084
2122
2152
2160
2142
2105
2063
2031
2015
2015
2023
2032
2038
2042
2044
2045
2044
2044
2045
2046
2047
2048
2048
2048
2048
2048
2049
2050
2051
2052
2053
2053
2054
2054
2053
2053
2053
2054
2054
2055
2056
2056
2056
2056
2056
2057
2058
2060
2061
2063
2065
2066
2067
2068
2069
2069
2069
2068
2067
2067
2067
2067
2067
2065
2063
2060
2055
2051
2049
2048
2047
2048
2048
2047
2046
2044
2042
2043
2044
2046
2047
2047
2046
2045
2043
2040
2039
2039
2040
2042
2045
2047
2047
2046
2044
2042
2041
2039
2039
2039
2041
2044
2046
2047
2048
2047
2046
2046
2046
2047
2047
2047
2047
2047
2047
2048
2048
2048
2048
2048
2048
2047
2046
2045
2043
2042
2042
2041
2042
2042
2041
2041
2041
2040
2037
2032
2027
2027
2041
2068
2107
2141
2157
2146
2110
2066
2028
2006
2002
2009
2020
2028
2033
2034
2034
2034
2034
2034
2035
2036
2037
2036
2036
2035
2035
2035
2035
2037
2038
2039
2039
2040
2040
2040
2040
2040
2041
2042
2043
2044
2045
2046
2047
2048
2049
2049
2050
2051
2052
2054
2055
2057
2058
2058
2058
2059
2059
2060
2061
2061
2061
2059
2057
2055
2051
2048
2046
2044
2043
2042
2041
2040
2039
2038
2037
2037
2036
2036
2037
2037
2037
2037
2037
2037
2037
2037
2037
2037
2038
2039
2039
2040
2039
2039
2039
2039
2039
2040
2040
2041
2041
2042
2042
2041
2041
2040
2040
2040
2040
2041
2041
2040
2040
2039
2039
2039
2040
2041
2041
2040
2039
2039
2038
2037
2036
2036
2036
2036
2037
2036
2037
2038
2038
2034
2028
2022
2024
2040
2074
2115
2148
2156
2135
2091
2045
2011
1995
1997
2007
2018
2026
2030
2033
2035
2035
2034
2035
2035
2036
2037
2038
2038
2038
2038
2039
2039
2040
2041
2042
2043
2043
2044
2044
2044
2043
2043
2043
2045
2046
2048
2048
2048
2048
2050
2051
2053
2054
2055
2057
2058
2059
2060
2061
2061
2061
2061
2061
2060
2059
2057
2055
2053
2051
2049
2047
2043
2040
2037
2035
2033
2031
2030
2029
2029
2028
2028
2029
2030
2032
2033
2034
2035
2034
2034
2033
2033
2032
2033
2034
2034
2035
2034
2034
2034
2034
2034
2035
2035
2036
2036
2037
2036
2036
2035
2035
2035
2036
2036
2036
2037
2037
2037
2037
2036
2036
2036
2037
2038
2039
2039
2039
2038
2037
2035
2035
2034
2034
2034
2035
2035
2035
2035
2036
2035
2033
2029
2023
2022
2032
2057
2097
2135
2157
2151
2117
2070
2028
2002
1995
2002
2014
2023
2028
2030
2031
2031
2030
2031
2031
2032
2033
2033
2033
2033
2032
2033
2033
2034
2035
2036
2036
2037
2037
2037
2037
2037
2038
2038
2039
2040
2041
2042
2042
2043
2043
2044
2045
2046
2048
2049
2051
2052
2053
2053
2054
2054
2055
2055
2056
2056
2055
2054
2052
2049
2047
2044
2042
2040
2038
2037
2036
2036
2035
2035
2034
2034
2034
2035
2035
2036
2036
2037
2037
2037
2037
2038
2038
2038
2038
2039
2039
2039
2039
2039
2039
2039
2040
2040
2040
2041
2041
2041
2041
2040
2040
2039
2039
2039
2039
2039
2039
2040
2040
2039
2039
2039
2038
2038
2038
2039
2039
2040
2040
2039
2039
2039
2040
2041
2042
2043
2042
2042
2040
2039
2038
2038
2038
2038
2039
2039
2040
2041
2042
2042
2040
2036
2031
2029
2037
2060
2098
2138
2165
2166
2138
2092
2047
2015
2003
2006
2017
2028
2034
2036
2038
2038
2038
2038
2038
2039
2040
2040
2040
2040
2040
2040
2040
2041
2042
2042
2043
2043
2042
2042
2043
2044
2044
2045
2046
2047
2048
2048
2048
2048
2049
2050
2051
2053
2055
2056
2058
2059
2059
2060
2059
2060
2060
2061
2063
2064
2064
2062
2060
2057
2054
2051
2049
2048
2046
2044
2042
2040
2039
2037
2037
2036
2036
2037
2037
2037
2037
2037
2037
2036
2036
2037
2037
2038
2038
2038
2038
2038
2038
2038
2038
2038
2039
2039
2039
2039
2039
2040
2040
2040
2039
2039
2039
2039
2039
2039
2039
2039
2039
2039
2039
2039
2038
2038
2038
2039
2040
2040
2039
2038
2037
2037
2037
2037
2038
2039
2040
2040
2041
2041
2041
2041
2040
2040
2040
2040
2040
2040
2039
2039
2039
2039
2040
2042
2043
2041
2036
2031
2031
2043
2070
2110
2147
2166
2158
2123
2076
2034
2008
2001
2007
2019
2028
2034
2037
2038
2038
2037
2037
2036
2036
2037
2037
2038
2039
2039
2039
2040
2040
2040
2040
2040
2041
2041
2042
2043
2043
2044
2044
2044
2044
2044
2045
2046
2048
2048
2050
2051
2052
2053
2054
2056
2057
2059
2060
2061
2062
2062
2063
2063
2063
2062
2061
2060
2058
2056
2053
2049
2047
2044
2042
2040
2039
2038
2038
2037
2037
2037
2037
2037
2037
2036
2036
2036
2036
2036
2037
2037
2037
2037
2037
2037
2037
2038
2038
2039
2039
2039
2039
2039
2039
2038
2038
2039
2040
2040
2041
2041
2041
2040
2040
2040
2041
2041
2042
2042
2042
2042
2041
2040
2040
2040
2040
2041
2041
2042
2041
2041
2040
2039
2039
2040
2040
2040
2040
2041
2041
2042
2042
2042
2041
2040
2039
2039
2039
2040
2041
2041
2041
2040
2040
2040
2042
2043
2042
2038
2033
2030
2039
2062
2101
2140
2163
2159
2126
2078
2033
2004
1994
1998
2009
2019
2026
2030
2034
2036
2036
2036
2036
2035
2035
2036
2036
2037
2038
2039
2039
2040
2040
2040
2039
2039
2039
2040
2041
2042
2043
2043
2044
2045
2045
2046
2048
2048
2050
2052
2054
2055
2056
2057
2059
2060
2062
2064
2066
2067
2068
2068
2068
2068
2068
2067
2066
2064
2061
2058
2055
2051
2048
2046
2043
2041
2039
2038
2037
2037
2038
2038
2038
2038
2038
2037
2037
2038
2038
2039
2039
2039
2039
2039
2038
2039
2039
2040
2041
2042
2043
2044
2044
2044
2044
2044
2043
2043
2044
2044
2044
2044
2044
2043
2043
2043
2043
2043
2043
2043
2042
2042
2042
2041
2040
2040
2039
2040
2041
2042
2043
2043
2043
2042
2041
2040
2040
2040
2041
2042
2042
2042
2042
2042
2043
2044
2044
2042
2036
2032
2035
2053
2088
2130
2163
2172
2149
2105
2056
2019
2002
2002
2013
2024
2032
2036
2039
2040
2040
2040
2041
2041
2041
2041
2041
2041
2041
2042
2042
2042
2043
2043
2043
2043
2043
2044
2044
2045
2046
2047
2048
2048
2048
2048
2048
2049
2051
2052
2054
2056
2057
2059
2060
2061
2063
2065
2066
2067
2068
2069
2069
2069
2069
2067
2064
2061
2058
2054
2051
2048
2046
2043
2041
2039
2037
2036
2036
2035
2036
2036
2036
2036
2036
2036
2035
2036
2036
2037
2037
2038
2039
2039
2039
2039
2039
2039
2040
2041
2041
2042
2042
2042
2042
2042
2042
2043
2043
2044
2044
2045
2045
2045
2045
2044
2044
2044
2044
2045
2046
2046
2045
2045
2043
2043
2042
2042
2042
2042
2043
2043
2044
2044
2044
2044
2043
2042
2041
2041
2041
2040
2040
2039
2038
2038
2038
2038
2039
2041
2042
2040
2035
2030
2029
2040
2067
2108
2149
2174
2171
2138
2089
2042
2011
2001
2006
2018
2029
2035
2037
2038
2038
2037
2036
2036
2036
2037
2038
2039
2040
2040
2041
2041
2041
2042
2042
2042
2042
2043
2043
2044
2045
2045
2045
2046
2046
2046
2047
2048
2049
2051
2053
2054
2055
2055
2057
2058
2060
2062
2063
2065
2066
2067
2067
2067
2066
2065
2064
2062
2060
2057
2054
2051
2048
2045
2042
2040
2039
2038
2038
2038
2038
2038
2038
2037
2037
2037
2038
2038
2038
2039
2039
2039
2039
2039
2038
2039
2039
2039
2040
2040
2041
2041
2041
2041
2041
2041
2041
2041
2042
2042
2043
2043
2043
2042
2042
2042
2042
2043
2043
2043
2043
2043
2043
2042
2042
2042
2042
2042
2042
2042
2043
2043
2042
2042
2042
2042
2042
2044
2045
2046
2046
2046
2044
2043
2042
2042
2042
2043
2044
2044
2044
2044
2044
2044
2045
2045
2042
2037
2034
2038
2055
2087
2128
2161
2173
2157
2117
2068
2029
2008
2006
2015
2027
2035
2039
2041
2041
2042
2042
2042
2043
2043
2043
2044
2044
2044
2044
2044
2044
2044
2044
2044
2044
2044
2043
2044
2045
2046
2047
2048
2048
2049
2049
2048
2048
2048
2048
2049
2052
2055
2057
2058
2059
2060
2061
2062
2064
2066
2067
2067
2068
2067
2066
2064
2062
2058
2055
2053
2050
2048
2046
2044
2043
2042
2041
2040
2039
2039
2038
2039
2040
2041
2041
2041
2041
2042
2043
2044
2045
2046
2047
2047
2047
2046
2046
2046
2048
2048
2050
2051
2052
2052
2052
2051
2051
2050
2050
2051
2051
2052
2052
2052
2052
2051
2051
2051
2051
2051
2052
2052
2052
2051
2051
2050
2050
2050
2050
2051
2051
2051
2050
2050
2050
2050
2050
2050
2050
2050
2051
2051
2052
2052
2052
2052
2051
2050
2049
2049
2049
2049
2049
2049
2050
2051
2052
2053
2055
2056
2054
2051
2048
2050
2065
2095
2134
2167
2180
2167
2130
2084
2045
2023
2018
2026
2036
2046
2050
2052
2052
2052
2052
2052
2052
2052
2052
2052
2052
2053
2053
2054
2054
2055
2055
2055
2055
2055
2055
2055
2056
2056
2057
2058
2059
2059
2059
2059
2060
2060
2061
2062
2063
2064
2065
2066
2067
2067
2068
2069
2070
2071
2071
2071
2071
2070
2070
2069
2068
2067
2064
2061
2058
2055
2052
2050
2048
2047
2046
2045
2044
2044
2044
2043
2043
2043
2043
2043
2044
2044
2045
2045
2046
2046
2046
2046
2046
2046
2046
2046
2047
2048
2048
2048
2048
2048
2048
2048
2048
2048
2048
2049
2049
2048
2048
2048
2048
2048
2047
2048
2048
2048
2048
2048
2048
2048
2047
2047
2047
2047
2048
2048
2047
2047
2047
2047
2048
2048
2048
2048
2047
2046
2046
2045
2044
2044
2043
2043
2044
2044
2045
2045
2046
2046
2042
2036
2032
2035
2052
2089
2132
2164
2169
2142
2095
2047
2013
1999
2002
2013
2023
2030
2035
2040
2042
2043
2043
2043
2044
2045
2046
2046
2047
2047
2047
2048
2048
2048
2049
2050
2051
2052
2052
2052
2052
2053
2053
2054
2054
2055
2057
2058
2060
2061
2062
2063
2064
2065
2066
2067
2068
2069
2071
2071
2072
2072
2072
2072
2072
2072
2071
2070
2067
2064
2060
2056
2051
2048
2045
2043
2041
2039
2038
2037
2036
2035
2035
2035
2035
2036
2036
2036
2037
2037
2037
2037
2037
2038
2038
2039
2040
2040
2041
2041
2041
2041
2042
2042
2042
2043
2043
2043
2044
2044
2043
2043
2043
2043
2043
2044
2044
2045
2045
2045
2045
2045
2045
2045
2045
2045
2045
2046
2047
2047
2047
2046
2046
2047
2047
2048
2049
2049
2049
2048
2048
2047
2046
2046
2046
2046
2046
2047
2047
2047
2048
2048
2047
2043
2037
2035
2043
2066
2106
2148
2176
2178
2149
2102
2054
2021
2008
2012
2024
2035
2042
2044
2046
2046
2045
2045
2046
2047
2048
2048
2048
2048
2048
2048
2048
2048
2049
2049
2050
2050
2050
2050
2050
2050
2050
2051
2052
2053
2053
2054
2055
2055
2056
2057
2058
2060
2061
2063
2065
2066
2067
2068
2069
2069
2070
2070
2071
2071
2071
2070
2068
2066
2063
2059
2056
2053
2051
2049
2048
2046
2044
2042
2041
2040
2040
2040
2040
2041
2041
2041
2041
2041
2041
2041
2042
2043
2043
2044
2044
2044
2044
2044
2043
2044
2044
2045
2046
2047
2048
2048
2048
2048
2048
2048
2048
2049
2049
2050
2050
2051
2051
2051
2051
2051
2051
2051
2052
2052
2052
2052
2052
2051
2051
2051
2051
2051
2051
2051
2051
2053
2054
2056
2056
2055
2055
2054
2054
2055
2055
2054
2054
2053
2053
2053
2054
2056
2057
2057
2054
2048
2045
2048
2066
2101
2143
2177
2189
2169
2127
2077
2038
2018
2017
2027
2039
2048
2051
2052
2053
2052
2052
2051
2051
2052
2052
2053
2053
2054
2054
2054
2054
2054
2054
2055
2055
2056
2056
2057
2057
2057
2058
2058
2058
2058
2058
2058
2059
2061
2063
2064
2065
2066
2067
2068
2069
2070
2071
2071
2072
2072
2072
2072
2071
2071
2070
2069
2067
2064
2061
2057
2053
2050
2048
2045
2043
2042
2041
2040
2039
2039
2038
2037
2036
2036
2036
2036
2036
2037
2037
2036
2036
2036
2036
2037
2037
2037
2038
2038
2039
2039
2039
2039
2039
2039
2039
2040
2040
2041
2042
2042
2042
2042
2042
2043
2043
2044
2045
2046
2046
2046
2046
2046
2045
2046
2046
2046
2047
2048
2048
2048
2047
2047
2046
2046
2047
2048
2048
2048
2048
2049
2049
2050
2050
2050
2050
2049
2049
2048
2048
2048
2048
2048
2048
2048
2048
2049
2051
2052
2050
2045
2040
2041
2055
2086
2128
2164
2180
2167
2128
2079
2037
2013
2009
2018
2030
2039
2045
2047
2047
2047
2046
2045
2045
2046
2047
2048
2048
2049
2049
2049
2049
2049
2050
2050
2051
2052
2053
2054
2055
2055
2055
2055
2055
2056
2057
2058
2060
2061
2062
2064
2065
2066
2067
2068
2069
2070
2071
2072
2073
2074
2074
2074
2074
2073
2073
2072
2070
2069
2066
2063
2060
2056
2052
2049
2048
2047
2047
2046
2046
2045
2044
2043
2042
2042
2043
2043
2044
2044
2044
2044
2043
2043
2043
2043
2043
2043
2044
2044
2045
2045
2045
2045
2045
2045
2045
2045
2046
2046
2047
2047
2047
2047
2047
2047
2047
2047
2048
2048
2048
2048
2048
2048
2047
2047
2048
2048
2048
2048
2048
2048
2048
2048
2048
2048
2048
2048
2048
2048
2049
2049
2049
2048
2048
2048
2049
2051
2052
2053
2052
2051
2050
2049
2048
2048
2048
2048
2048
2048
2048
2048
2049
2050
2049
2046
2041
2037
2042
2060
2094
2134
2165
2173
2153
2110
2062
2025
2008
2008
2019
2031
2039
2042
2043
2043
2042
2042
2043
2044
2045
2045
2045
2045
2045
2045
2045
2046
2047
2047
2048
2048
2048
2048
2048
2048
2048
2049
2050
2050
2050
2050
2051
2051
2052
2052
2053
2055
2056
2058
2059
2060
2061
2061
2062
2062
2063
2064
2064
2064
2064
2064
2063
2061
2058
2055
2053
2050
2048
2047
2045
2042
2041
2039
2039
2038
2038
2039
2039
2039
2039
2039
2038
2038
2038
2038
2038
2039
2040
2040
2041
2040
2040
2040
2040
2040
2040
2041
2041
2041
2041
2041
2041
2040
2040
2040
2041
2041
2042
2043
2043
2043
2042
2041
2041
2041
2041
2042
2043
2043
2043
2042
2042
2041
2041
2041
2042
2042
2043
2043
2043
2043
2043
2043
2044
2044
2044
2044
2045
2046
2047
2047
2047
2047
2046
2045
2045
2045
2045
2045
2045
2046
2046
2045
2046
2046
2046
2044
2039
2036
2041
2058
2092
2132
2163
2170
2149
2106
2059
2024
2008
2008
2019
2030
2038
2042
2044
2045
2046
2046
2047
2047
2047
2047
2047
2048
2048
2049
2050
2050
2050
2050
2050
2050
2051
2052
2052
2053
2055
2055
2056
2057
2057
2057
2058
2059
2060
2061
2062
2063
2064
2065
2067
2068
2069
2070
2070
2071
2072
2073
2073
2073
2073
2072
2072
2071
2069
2067
2065
2061
2059
2056
2054
2051
2049
2048
2047
2046
2046
2046
2046
2046
2046
2045
2045
2044
2044
2045
2046
2046
2047
2047
2047
2047
2047
2047
2048
2048
2048
2048
2049
2049
2049
2049
2049
2049
2049
2049
2049
2049
2049
2049
2048
2048
2048
2048
2048
2048
2048
2048
2048
2048
2048
2048
2048
2048
2048
2048
2049
2050
2050
2050
2049
2048
2047
2046
2046
2045
2046
2045
2045
2045
2045
2045
2045
2047
2047
2045
2040
2035
2035
2049
2083
2125
2160
2171
2149
2104
2053
2016
1999
2000
2010
2020
2028
2033
2038
2042
2043
2044
2044
2044
2044
2044
2045
2045
2046
2046
2047
2047
2048
2048
2048
2048
2048
2048
2049
2050
2051
2052
2052
2053
2053
2053
2054
2055
2057
2058
2060
2061
2063
2064
2066
2067
2068
2069
2070
2071
2072
2073
2073
2073
2072
2070
2068
2066
2063
2060
2057
2054
2050
2047
2044
2042
2039
2038
2037
2037
2038
2037
2037
2037
2037
2037
2037
2037
2038
2038
2039
2039
2040
2040
2039
2039
2039
2039
2040
2040
2041
2041
2042
2042
2042
2042
2042
2041
2041
2041
2042
2042
2042
2042
2042
2042
2041
2041
2041
2041
2042
2042
2042
2042
2042
2042
2041
2041
2041
2041
2042
2043
2044
2045
2046
2045
2044
2043
2043
2043
2043
2043
2043
2043
2043
2043
2043
2043
2044
2046
2045
2042
2036
2033
2039
2059
2096
2137
2166
2169
2143
2098
2051
2018
2005
2009
2021
2032
2039
2042
2043
2043
2043
2043
2043
2043
2044
2044
2044
2045
2045
2045
2046
2046
2046
2046
2046
2047
2047
2047
2048
2048
2048
2049
2049
2049
2049
2050
2051
2052
2053
2054
2055
2056
2057
2058
2059
2060
2061
2062
2063
2064
2065
2065
2065
2065
2064
2063
2062
2060
2058
2056
2053
2051
2048
2047
2044
2043
2042
2041
2041
2042
2042
2041
2041
2040
2040
2040
2040
2041
2042
2042
2043
2043
2043
2043
2043
2043
2044
2045
2045
2045
2046
2045
2045
2045
2045
2045
2045
2046
2047
2047
2047
2047
2047
2046
2046
2046
2047
2047
2048
2048
2048
2048
2048
2048
2048
2048
2048
2048
2049
2050
2050
2051
2051
2051
2050
2049
2049
2049
2049
2049
2049
2048
2048
2048
2048
2049
2051
2052
2050
2047
2041
2039
2048
2074
2114
2153
2175
2169
2135
2087
2043
2016
2008
2016
2028
2039
2045
2047
2048
2048
2048
2048
2048
2048
2048
2048
2048
2049
2049
2050
2050
2051
2051
2051
2051
2051
2052
2052
2053
2053
2054
2054
2054
2054
2054
2055
2055
2057
2058
2059
2060
2061
2062
2063
2064
2065
2066
2066
2067
2068
2068
2068
2068
2067
2066
2065
2063
2062
2059
2057
2054
2052
2049
2048
2045
2044
2043
2043
2043
2043
2043
2043
2042
2042
2041
2041
2041
2042
2043
2043
2043
2044
2044
2044
2044
2044
2044
2045
2045
2046
2046
2046
2046
2046
2046
2046
2045
2046
2046
2047
2048
2048
2048
2048
2048
2048
2048
2048
2049
2049
2049
2049
2049
2049
2049
2049
2049
2050
2051
2052
2053
2054
2054
2053
2052
2051
2050
2050
2050
2050
2050
2050
2050
2050
2051
2052
2053
2052
2049
2044
2040
2046
2066
2103
2142
2169
2170
2143
2098
2052
2021
2010
2015
2027
2038
2045
2048
2049
2049
2049
2049
2049
2049
2048
2048
2048
2049
2049
2050
2050
2051
2050
2050
2050
2050
2050
2050
2051
2051
2052
2052
2052
2052
2053
2053
2053
2054
2056
2057
2058
2058
2059
2060
2060
2061
2062
2063
2064
2064
2065
2065
2065
2065
2064
2064
2062
2061
2058
2056
2053
2050
2048
2046
2044
2042
2041
2040
2040
2040
2040
2040
2040
2039
2039
2039
2039
2039
2039
2040
2040
2041
2040
2040
2040
2040
2040
2040
2041
2041
2042
2042
2042
2042
2042
2042
2042
2043
2043
2044
2045
2045
2045
2045
2045
2044
2044
2045
2046
2046
2047
2047
2047
2047
2047
2047
2047
2047
2047
2048
2049
2050
2051
2051
2050
2049
2048
2048
2048
2048
2048
2048
2048
2048
2048
2048
2049
2050
2049
2046
2040
2039
2048
2072
2111
2149
2170
2164
2130
2082
2040
2014
2007
2015
2028
2038
2043
2046
2047
2047
2047
2047
2047
2048
2048
2048
2048
2048
2048
2049
2049
2050
2050
2050
2049
2049
2050
2050
2050
2051
2051
2052
2052
2052
2052
2053
2053
2054
2055
2056
2057
2058
2059
2060
2060
2061
2061
2062
2062
2063
2063
2063
2063
2063
2062
2061
2059
2058
2055
2053
2050
2048
2046
2044
2042
2040
2039
2039
2039
2039
2039
2039
2039
2038
2038
2037
2037
2038
2039
2039
2040
2041
2041
2041
2041
2041
2041
2042
2043
2043
2044
2044
2044
2044
2044
2044
2044
2044
2045
2045
2046
2046
2046
2046
2046
2046
2046
2046
2046
2047
2047
2047
2047
2047
2047
2047
2048
2048
2048
2048
2049
2050
2050
2050
2049
2048
2048
2047
2047
2047
2048
2048
2048
2048
2048
2048
2048
2049
2048
2044
2039
2037
2046
2070
2108
2145
2167
2161
2128
2081
2039
2013
2006
2013
2025
2035
2041
2044
2046
2046
2046
2045
2045
2045
2045
2045
2045
2045
2046
2046
2047
2047
2047
2047
2047
2047
2047
2047
2048
2048
2048
2049
2050
2050
2050
2050
2051
2052
2053
2054
2055
2056
2057
2058
2058
2059
2059
2060
2060
2061
2062
2063
2062
2062
2060
2059
2058
2056
2054
2052
2049
2048
2045
2044
2042
2040
2040
2039
2039
2038
2038
2038
2038
2038
2037
2037
2037
2037
2038
2038
2038
2039
2038
2038
2038
2038
2038
2038
2039
2039
2040
2041
2041
2041
2041
2041
2041
2041
2041
2042
2042
2042
2042
2042
2042
2042
2042
2042
2043
2043
2043
2043
2043
2043
2043
2042
2042
2043
2043
2044
2045
2046
2047
2047
2046
2046
2045
2044
2044
2044
2044
2044
2044
2044
2044
2044
2045
2046
2046
2042
2037
2033
2039
2058
2094
2133
2159
2159
2131
2085
2041
2011
2001
2007
2019
2030
2036
2039
2041
2042
2041
2041
2041
2041
2042
2042
2042
2043
2043
2044
2044
2044
2044
2045
2045
2045
2045
2046
2046
2047
2047
2048
2048
2048
2048
2048
2048
2049
2050
2051
2052
2053
2054
2054
2055
2055
2056
2057
2057
2058
2058
2058
2058
2058
2057
2056
2055
2053
2051
2049
2047
2045
2042
2040
2038
2037
2036
2035
2035
2035
2035
2035
2035
2034
2034
2034
2034
2034
2035
2035
2036
2036
2036
2036
2036
2036
2036
2036
2037
2037
2037
2038
2038
2038
2038
2038
2038
2038
2039
2039
2040
2040
2040
2040
2040
2039
2039
2039
2039
2040
2040
2040
2040
2040
2040
2040
2040
2040
2041
2041
2041
2042
2042
2043
2044
2044
2044
2043
2043
2042
2042
2042
2041
2041
2041
2041
2041
2042
2043
2045
2045
2042
2036
2033
2037
2055
2090
2129
2158
2161
2136
2092
2046
2013
2000
2004
2016
2028
2036
2040
2043
2043
2042
2042
2041
2041
2042
2042
2043
2044
2045
2045
2045
2046
2046
2046
2046
2047
2047
2048
2048
2048
2049
2049
2049
2049
2050
2050
2051
2053
2054
2055
2056
2057
2058
2058
2059
2061
2062
2063
2064
2064
2064
2064
2063
2063
2063
2063
2062
2061
2059
2056
2054
2051
2048
2046
2044
2043
2042
2042
2041
2041
2041
2040
2040
2040
2039
2039
2040
2040
2041
2041
2041
2041
2040
2040
2040
2040
2041
2042
2042
2043
2043
2043
2042
2042
2042
2042
2042
2043
2043
2044
2044
2044
2044
2044
2044
2044
2044
2044
2045
2045
2045
2045
2044
2044
2044
2044
2045
2045
2045
2045
2046
2047
2048
2048
2047
2046
2046
2045
2045
2045
2045
2045
2045
2045
2045
2046
2048
2048
2047
2042
2037
2036
2048
2074
2113
2148
2166
2155
2118
2071
2031
2008
2004
2013
2026
2036
2041
2044
2046
2046
2045
2045
2045
2045
2046
2047
2048
2048
2048
2049
2049
2049
2049
2049
2049
2050
2051
2051
2052
2052
2053
2053
2053
2054
2055
2056
2056
2057
2058
2059
2060
2061
2062
2063
2064
2065
2066
2067
2068
2069
2069
2068
2067
2067
2066
2065
2064
2062
2060
2057
2054
2051
2049
2047
2046
2044
2044
2043
2043
2043
2043
2042
2042
2041
2041
2041
2041
2042
2042
2043
2043
2043
2043
2043
2043
2044
2044
2045
2045
2045
2046
2046
2046
2046
2046
2046
2046
2047
2048
2048
2048
2048
2047
2047
2047
2048
2048
2049
2049
2049
2049
2048
2048
2048
2048
2049
2049
2049
2050
2051
2052
2052
2052
2051
2050
2049
2048
2048
2048
2048
2048
2047
2047
2046
2047
2048
2049
2048
2044
2038
2036
2047
2072
2111
2148
2167
2157
2122
2075
2034
2010
2005
2013
2026
2036
2041
2044
2045
2045
2045
2046
2046
2045
2045
2045
2045
2046
2047
2048
2048
2048
2048
2048
2048
2048
2049
2049
2050
2050
2051
2051
2051
2051
2051
2052
2053
2054
2055
2056
2057
2059
2060
2060
2061
2062
2062
2063
2064
2066
2066
2067
2067
2066
2065
2064
2063
2061
2059
2057
2054
2051
2049
2047
2045
2044
2043
2042
2042
2042
2042
2043
2043
2042
2042
2041
2042
2042
2043
2043
2043
2044
2044
2044
2044
2043
2044
2044
2044
2044
2044
2044
2044
2044
2044
2044
2045
2045
2045
2045
2045
2045
2045
2045
2045
2045
2045
2045
2046
2046
2046
2046
2046
2045
2045
2045
2046
2048
2048
2049
2049
2048
2048
2047
2046
2046
2046
2046
2046
2046
2047
2047
2048
2048
2048
2046
2040
2035
2036
2049
2079
2119
2152
2165
2149
2110
2063
2026
2007
2007
2017
2029
2038
2042
2044
2045
2044
2044
2044
2045
2045
2045
2045
2045
2045
2046
2046
2047
2048
2048
2048
2048
2048
2048
2048
2049
2050
2051
2052
2052
2052
2052
2052
2053
2054
2055
2056
2057
2058
2059
2060
2061
2062
2062
2062
2063
2063
2064
2064
2064
2063
2062
2060
2058
2056
2054
2051
2049
2048
2045
2043
2041
2040
2039
2039
2039
2039
2039
2039
2039
2039
2039
2039
2040
2040
2040
2040
2040
2041
2042
2042
2042
2041
2041
2041
2040
2040
2041
2041
2042
2042
2043
2043
2042
2042
2042
2043
2044
2045
2046
2047
2047
2047
2047
2046
2046
2046
2047
2047
2048
2048
2048
2048
2048
2048
2048
2049
2050
2050
2050
2050
2048
2048
2047
2047
2047
2047
2048
2048
2048
2049
2050
2050
2047
2041
2036
2041
2060
2096
2135
2162
2165
2139
2095
2049
2018
2006
2009
2021
2032
2040
2044
2046
2047
2047
2047
2047
2047
2048
2048
2048
2049
2049
2049
2048
2048
2048
2050
2052
2054
2054
2054
2054
2054
2055
2056
2056
2054
2052
2050
2050
2053
2057
2062
2066
2068
2067
2067
2067
2068
2071
2072
2074
2073
2072
2071
2070
2069
2069
2069
2068
2067
2065
2062
2057
2053
2049
2047
2046
2045
2046
2046
2045
2044
2044
2043
2043
2042
2042
2041
2040
2039
2037
2037
2036
2036
2036
2036
2036
2036
2037
2037
2037
2036
2035
2034
2033
2032
2032
2033
2034
2034
2034
2033
2032
2032
2032
2033
2034
2034
2034
2033
2033
2033
2033
2033
2033
2033
2033
2033
2032
2032
2032
2031
2030
2030
2029
2029
2030
2030
2031
2031
2032
2033
2033
2029
2025
2027
2043
2077
2120
2152
2159
2133
2086
2036
2001
1986
1988
1998
2009
2017
2023
2030
2033
2034
2034
2036
2039
2041
2041
2041
2039
2039
2039
2040
2040
2040
2038
2036
2036
2037
2041
2046
2048
2050
2049
2048
2048
2049
2051
2053
2054
2055
2054
2055
2056
2059
2063
2068
2071
2072
2071
2069
2067
2066
2067
2068
2070
2071
2071
2067
2062
2057
2052
2049
2047
2045
2043
2041
2040
2038
2037
2035
2034
2035
2036
2038
2039
2039
2039
2039
2039
2039
2040
2040
2041
2042
2043
2043
2042
2041
2041
2043
2044
2045
2044
2042
2040
2041
2042
2044
2044
2043
2043
2045
2047
2048
2047
2044
2041
2040
2040
2040
2039
2035
2031
2030
2032
2036
2040
2041
2040
2038
2037
2036
2034
2032
2028
2026
2025
2026
2028
2029
2030
2031
2031
2028
2022
2014
2012
2023
2054
2099
2140
2160
2147
2106
2055
2014
1992
1990
1999
2011
2021
2027
2030
2031
2030
2029
2029
2031
2033
2034
2032
2029
2027
2028
2031
2036
2039
2040
2039
2037
2035
2036
2039
2042
2044
2042
2040
2039
2041
2045
2048
2051
2051
2050
2049
2048
2049
2050
2053
2056
2059
2064
2068
2071
2071
2068
2064
2059
2056
2055
2054
2051
2048
2045
2044
2046
2049
2051
2048
2043
2036
2032
2033
2037
2041
2043
2042
2040
2039
2039
2041
2043
2043
2043
2042
2040
2038
2037
2037
2038
2039
2040
2039
2039
2040
2042
2044
2045
2044
2042
2041
2041
2043
2044
2045
2044
2043
2041
2040
2039
2038
2038
2039
2042
2044
2046
2047
2045
2043
2042
2043
2046
2048
2050
2048
2046
2041
2037
2036
2037
2039
2039
2039
2040
2042
2045
2047
2045
2038
2031
2029
2043
2077
2124
2167
2185
2170
2125
2071
2028
2007
2007
2020
2033
2041
2043
2043
2044
2043
2041
2040
2039
2039
2042
2045
2048
2048
2046
2043
2042
2042
2043
2044
2045
2045
2046
2048
2048
2049
2048
2048
2049
2050
2050
2050
2049
2050
2052
2055
2056
2056
2056
2056
2059
2063
2066
2067
2064
2061
2060
2061
2064
2067
2068
2066
2062
2057
2053
2049
2046
2044
2042
2043
2044
2046
2046
2045
2042
2042
2042
2044
2045
2045
2044
2042
2041
2043
2046
2049
2050
2049
2047
2043
2041
2044
2048
2053
2055
2052
2047
2042
2042
2045
2049
2053
2055
2053
2051
2051
2052
2054
2053
2051
2049
2048
2050
2053
2055
2056
2055
2054
2053
2055
2057
2058
2058
2057
2057
2059
2061
2063
2063
2061
2060
2060
2062
2065
2068
2068
2067
2065
2065
2065
2065
2066
2066
2066
2066
2067
2068
2070
2071
2068
2063
2056
2052
2058
2078
2115
2160
2196
2211
2194
2152
2100
2058
2037
2036
2048
2061
2070
2071
2069
2069
2069
2072
2075
2077
2078
2078
2078
2077
2075
2075
2076
2078
2082
2084
2085
2082
2079
2078
2078
2081
2084
2085
2085
2085
2084
2083
2084
2087
2090
2092
2093
2093
2093
2093
2094
2095
2097
2098
2098
2098
2099
2100
2102
2102
2101
2099
2095
2091
2088
2086
2086
2085
2084
2081
2079
2076
2075
2075
2076
2077
2076
2074
2072
2070
2069
2070
2071
2072
2072
2073
2074
2075
2076
2077
2076
2076
2075
2074
2072
2071
2070
2070
2070
2070
2069
2068
2067
2067
2068
2069
2071
2073
2073
2070
2068
2068
2070
2073
2075
2074
2070
2066
2065
2066
2070
2071
2070
2067
2065
2064
2065
2065
2065
2064
2063
2063
2065
2068
2069
2069
2067
2066
2065
2065
2064
2064
2063
2062
2062
2063
2064
2066
2068
2070
2072
2072
2071
2069
2067
2067
2069
2071
2071
2070
2068
2066
2066
2066
2067
2069
2071
2071
2068
2062
2058
2062
2082
2118
2159
2187
2188
2159
2111
2065
2036
2026
2032
2044
2053
2058
2060
2062
2062
2060
2057
2056
2056
2057
2060
2062
2063
2063
2062
2060
2060
2061
2062
2064
2064
2064
2063
2063
2064
2065
2066
2066
2065
2065
2066
2067
2068
2069
2069
2069
2069
2071
2074
2076
2077
2077
2077
2077
2079
2081
2083
2084
2083
2082
2081
2080
2079
2077
2075
2072
2069
2067
2064
2062
2061
2062
2063
2064
2063
2060
2054
2050
2049
2051
2054
2054
2051
2047
2045
2048
2053
2059
2061
2059
2055
2052
2052
2055
2058
2059
2057
2052
2049
2048
2050
2054
2057
2057
2055
2053
2052
2055
2058
2060
2060
2057
2053
2051
2052
2054
2057
2058
2057
2057
2056
2056
2056
2054
2053
2052
2052
2053
2056
2058
2059
2059
2059
2058
2057
2056
2055
2055
2055
2055
2055
2055
2056
2057
2057
2056
2056
2057
2059
2058
2056
2053
2050
2049
2051
2055
2059
2062
2062
2061
2058
2053
2048
2042
2042
2054
2083
2125
2164
2184
2174
2136
2085
2041
2015
2011
2020
2033
2043
2048
2048
2050
2050
2051
2051
2053
2054
2054
2052
2049
2048
2047
2048
2049
2051
2053
2054
2054
2054
2054
2054
2054
2053
2052
2052
2053
2055
2057
2057
2057
2057
2058
2060
2062
2063
2063
2062
2062
2064
2067
2070
2072
2072
2072
2072
2072
2072
2072
2070
2068
2066
2064
2062
2060
2056
2053
2049
2046
2043
2041
2040
2041
2042
2042
2041
2039
2037
2038
2040
2042
2043
2042
2041
2040
2040
2041
2041
2041
2040
2041
2042
2043
2044
2043
2042
2041
2040
2039
2039
2040
2043
2046
2047
2048
2047
2046
2045
2044
2044
2044
2044
2045
2046
2048
2048
2047
2045
2042
2041
2041
2042
2045
2047
2047
2046
2045
2044
2044
2045
2046
2047
2048
2048
2048
2048
2048
2046
2044
2043
2044
2046
2047
2048
2046
2045
2044
2045
2047
2049
2051
2053
2053
2050
2045
2039
2037
2048
2075
2117
2156
2176
2164
2126
2076
2035
2012
2010
2019
2030
2038
2043
2046
2049
2050
2048
2047
2046
2047
2048
2048
2048
2048
2048
2048
2048
2048
2049
2051
2053
2055
2055
2055
2054
2053
2053
2054
2054
2054
2054
2054
2055
2058
2062
2066
2069
2070
2069
2068
2068
2069
2071
2073
2076
2077
2077
2075
2073
2072
2074
2075
2075
2073
2070
2066
2061
2055
2052
2050
2050
2052
2053
2053
2051
2048
2047
2047
2046
2045
2043
2043
2044
2047
2048
2048
2047
2044
2043
2045
2046
2048
2048
2048
2047
2047
2047
2048
2050
2051
2050
2049
2047
2045
2045
2047
2048
2050
2050
2048
2047
2046
2047
2049
2053
2055
2054
2051
2048
2047
2047
2049
2052
2054
2054
2053
2051
2050
2049
2049
2048
2049
2050
2052
2054
2055
2056
2057
2057
2056
2054
2051
2049
2048
2049
2051
2053
2054
2054
2053
2051
2051
2050
2048
2045
2043
2048
2065
2098
2137
2164
2167
2142
2098
2053
2022
2010
2011
2020
2029
2036
2042
2046
2048
2046
2044
2042
2043
2045
2047
2048
2047
2046
2044
2043
2044
2045
2047
2048
2048
2047
2046
2046
2047
2049
2052
2053
2051
2048
2048
2048
2050
2053
2056
2058
2058
2059
2059
2060
2060
2061
2062
2064
2066
2068
2068
2068
2067
2067
2068
2068
2067
2065
2061
2058
2054
2051
2048
2044
2040
2038
2037
2038
2039
2039
2037
2035
2034
2034
2034
2033
2032
2030
2030
2032
2035
2037
2038
2037
2036
2036
2036
2035
2035
2034
2034
2035
2036
2036
2036
2034
2032
2031
2031
2032
2035
2037
2036
2035
2033
2033
2035
2037
2038
2037
2035
2032
2032
2033
2035
2035
2033
2030
2029
2031
2033
2035
2035
2034
2035
2037
2040
2043
2042
2040
2038
2037
2037
2039
2038
2035
2032
2028
2026
2026
2028
2030
2034
2036
2035
2032
2028
2029
2044
2074
2113
2143
2152
2132
2090
2044
2007
1989
1989
1999
2012
2021
2026
2029
2032
2033
2035
2036
2036
2035
2034
2034
2035
2036
2036
2035
2034
2033
2032
2033
2035
2037
2038
2039
2040
2040
2040
2040
2041
2041
2042
2043
2044
2045
2044
2043
2044
2045
2048
2051
2053
2054
2054
2054
2055
2057
2058
2059
2060
2059
2057
2055
2052
2049
2047
2045
2044
2042
2040
2038
2034
2031
2028
2027
2025
2025
2026
2026
2027
2027
2027
2026
2025
2025
2026
2028
2031
2031
2030
2028
2027
2027
2028
2030
2031
2031
2031
2031
2030
2030
2031
2032
2035
2035
2034
2031
2029
2028
2030
2032
2033
2032
2030
2028
2028
2030
2032
2033
2032
2031
2031
2032
2034
2036
2036
2034
2032
2030
2031
2033
2036
2038
2037
2035
2032
2030
2029
2030
2032
2033
2032
2032
2031
2030
2029
2029
2028
2026
2021
2017
2019
2034
2062
2101
2133
2147
2132
2094
2048
2010
1988
1984
1992
2003
2013
2019
2022
2024
2025
2025
2026
2027
2028
2028
2027
2025
2024
2023
2025
2028
2032
2033
2033
2031
2030
2030
2033
2035
2038
2039
2038
2037
2037
2036
2037
2037
2037
2038
2039
2041
2044
2046
2047
2047
2048
2048
2049
2051
2052
2052
2052
2051
2050
2049
2048
2046
2044
2041
2038
2035
2032
2030
2029
2027
2025
2023
2022
2022
2022
2022
2022
2021
2021
2021
2021
2022
2021
2020
2020
2019
2019
2020
2021
2023
2025
2026
2026
2026
2025
2025
2025
2025
2025
2024
2024
2024
2025
2025
2026
2026
2026
2027
2027
2027
2026
2025
2026
2026
2027
2027
2027
2028
2028
2028
2028
2028
2028
2028
2028
2028
2029
2030
2031
2031
2031
2031
2030
2030
2030
2029
2028
2026
2025
2025
2027
2030
2032
2034
2034
2032
2027
2022
2021
2031
2054
2091
2128
2151
2149
2120
2076
2033
2002
1990
1993
2004
2016
2025
2029
2031
2030
2028
2025
2025
2026
2028
2031
2033
2034
2034
2033
2033
2034
2034
2035
2035
2035
2035
2034
2034
2034
2035
2036
2037
2038
2039
2041
2043
2045
2047
2048
2048
2049
2049
2050
2050
2052
2053
2056
2058
2060
2060
2059
2058
2059
2061
2063
2064
2062
2059
2055
2052
2048
2047
2045
2043
2041
2040
2039
2038
2037
2036
2036
2036
2037
2038
2038
2038
2038
2037
2037
2038
2039
2039
2039
2038
2037
2037
2038
2040
2041
2042
2041
2040
2039
2037
2037
2038
2039
2041
2043
2043
2043
2042
2041
2040
2040
2041
2043
2044
2044
2044
2042
2040
2039
2040
2042
2044
2046
2046
2046
2045
2044
2044
2045
2045
2046
2046
2045
2043
2041
2040
2041
2043
2046
2048
2048
2048
2044
2038
2033
2034
2048
2077
2118
2153
2168
2154
2115
2067
2027
2006
2002
2009
2020
2029
2034
2037
2039
2039
2039
2039
2040
2042
2043
2044
2044
2043
2044
2045
2047
2047
2048
2047
2046
2045
2045
2046
2048
2050
2052
2054
2055
2054
2053
2052
2052
2052
2053
2055
2058
2060
2061
2062
2063
2063
2064
2065
2066
2067
2067
2066
2065
2064
2062
2060
2058
2056
2053
2050
2048
2045
2041
2037
2034
2031
2029
2027
2026
2025
2025
2026
2026
2026
2026
2025
2025
2026
2027
2027
2027
2026
2025
2024
2024
2025
2026
2027
2027
2027
2026
2026
2027
2028
2030
2032
2033
2032
2031
2030
2030
2030
2030
2030
2029
2028
2028
2029
2029
2030
2030
2031
2031
2032
2032
2033
2032
2032
2032
2031
2030
2029
2027
2026
2025
2025
2026
2026
2027
2029
2031
2031
2028
2021
2016
2019
2039
2075
2119
2152
2158
2133
2086
2037
2001
1986
1988
1998
2010
2019
2024
2028
2029
2029
2030
2031
2033
2033
2034
2034
2035
2036
2037
2036
2035
2034
2033
2034
2035
2037
2039
2040
2041
2042
2042
2041
2041
2041
2043
2045
2048
2049
2049
2048
2048
2049
2052
2055
2058
2060
2061
2062
2062
2063
2065
2066
2066
2065
2063
2060
2057
2055
2052
2049
2047
2043
2040
2038
2037
2036
2034
2033
2031
2029
2029
2030
2032
2035
2038
2039
2039
2038
2036
2034
2033
2034
2034
2035
2035
2035
2035
2036
2036
2035
2035
2035
2035
2038
2041
2043
2043
2041
2040
2039
2040
2043
2045
2045
2044
2043
2041
2040
2040
2040
2041
2041
2042
2043
2044
2045
2046
2046
2046
2046
2046
2047
2048
2048
2050
2052
2053
2053
2053
2054
2053
2050
2045
2038
2035
2046
2073
2115
2155
2177
2169
2134
2085
2040
2012
2004
2012
2024
2034
2038
2038
2037
2036
2036
2038
2040
2042
2042
2041
2040
2040
2040
2041
2042
2043
2044
2044
2044
2043
2042
2042
2043
2044
2045
2046
2047
2047
2047
2048
2049
2050
2051
2051
2051
2051
2051
2052
2053
2055
2058
2059
2061
2061
2060
2060
2060
2060
2060
2058
2056
2053
2050
2048
2044
2040
2036
2035
2036
2036
2035
2033
2032
2032
2034
2036
2038
2037
2037
2037
2037
2037
2037
2036
2036
2038
2040
2043
2044
2045
2046
2047
2048
2048
2048
2048
2050
2052
2054
2054
2054
2053
2052
2051
2051
2051
2051
2051
2051
2050
2049
2049
2049
2050
2052
2055
2057
2058
2059
2059
2057
2055
2054
2052
2052
2053
2053
2052
2050
2048
2048
2048
2050
2054
2057
2058
2056
2049
2042
2038
2046
2069
2107
2146
2168
2164
2132
2085
2040
2011
2001
2005
2016
2026
2031
2033
2035
2036
2036
2036
2036
2036
2037
2038
2039
2040
2041
2041
2041
2041
2041
2042
2043
2044
2045
2046
2046
2047
2047
2048
2049
2051
2051
2051
2049
2049
2050
2053
2054
2055
2055
2055
2055
2058
2061
2065
2068
2070
2070
2070
2069
2069
2067
2066
2064
2062
2060
2057
2054
2051
2048
2046
2044
2042
2041
2041
2041
2042
2042
2042
2041
2041
2041
2041
2042
2043
2043
2044
2044
2044
2043
2043
2042
2042
2042
2045
2047
2048
2048
2047
2045
2045
2045
2047
2048
2048
2047
2046
2045
2045
2046
2046
2047
2048
2048
2048
2048
2048
2048
2048
2048
2047
2045
2044
2043
2044
2047
2048
2049
2048
2048
2047
2045
2044
2043
2044
2045
2048
2050
2052
2053
2052
2051
2052
2050
2047
2039
2031
2031
2046
2078
2122
2157
2170
2154
2113
2066
2030
2011
2009
2017
2026
2031
2033
2035
2037
2039
2041
2043
2044
2042
2040
2038
2037
2037
2039
2040
2040
2042
2044
2047
2049
2052
2054
2053
2050
2048
2047
2047
2048
2050
2050
2049
2048
2046
2046
2048
2052
2056
2057
2057
2057
2058
2061
2065
2067
2067
2065
2063
2062
2063
2064
2065
2064
2062
2058
2052
2047
2044
2042
2041
2040
2039
2038
2036
2035
2037
2038
2040
2039
2036
2032
2029
2030
2033
2039
2042
2042
2038
2034
2031
2030
2033
2036
2039
2040
2038
2035
2031
2030
2030
2032
2035
2038
2040
2040
2039
2037
2035
2034
2035
2037
2039
2039
2038
2037
2036
2037
2040
2043
2047
2048
2047
2044
2041
2041
2045
2050
2054
2054
2050
2047
2047
2048
2053
2056
2057
2054
2052
2048
2046
2044
2045
2048
2052
2058
2061
2058
2048
2040
2039
2055
2090
2134
2170
2184
2168
2129
2080
2040
2018
2014
2021
2031
2039
2043
2043
2043
2043
2042
2043
2046
2047
2047
2045
2041
2039
2040
2045
2049
2053
2054
2053
2050
2048
2048
2049
2050
2052
2052
2050
2048
2046
2045
2045
2048
2051
2055
2057
2059
2059
2057
2056
2055
2055
2056
2058
2060
2060
2060
2060
2060
2061
2062
2062
2062
2060
2058
2054
2050
2047
2043
2041
2040
2040
2040
2040
2040
2039
2037
2035
2033
2034
2036
2039
2040
2040
2038
2036
2035
2036
2038
2041
2042
2043
2042
2041
2042
2044
2046
2047
2046
2045
2046
2048
2050
2052
2050
2048
2047
2046
2047
2047
2046
2043
2041
2040
2041
2043
2045
2047
2048
2049
2050
2051
2052
2052
2052
2051
2050
2049
2048
2048
2048
2049
2049
2049
2049
2049
2048
2048
2049
2050
2051
2051
2048
2044
2040
2043
2057
2089
2129
2163
2176
2161
2122
2074
2036
2014
2010
2018
2030
2039
2046
2051
2055
2056
2054
2051
2048
2049
2052
2055
2056
2055
2053
2049
2048
2049
2052
2055
2058
2059
2059
2059
2059
2058
2058
2059
2060
2062
2065
2067
2068
2069
2068
2068
2068
2068
2069
2070
2071
2071
2073
2074
2075
2077
2077
2078
2079
2079
2079
2079
2078
2076
2072
2068
2063
2059
2057
2056
2056
2056
2056
2054
2052
2051
2052
2054
2056
2056
2055
2053
2051
2051
2053
2055
2057
2058
2058
2057
2057
2056
2056
2054
2053
2053
2054
2056
2057
2058
2057
2056
2055
2055
2056
2058
2059
2060
2059
2058
2057
2057
2057
2057
2056
2053
2051
2049
2049
2050
2051
2053
2055
2056
2058
2058
2058
2057
2055
2053
2052
2051
2050
2050
2050
2050
2051
2052
2053
2054
2052
2049
2045
2041
2044
2060
2091
2132
2166
2180
2166
2127
2079
2040
2017
2012
2020
2031
2039
2044
2044
2044
2042
2042
2043
2045
2048
2048
2048
2048
2048
2047
2047
2048
2048
2049
2049
2049
2048
2048
2048
2048
2049
2050
2051
2052
2053
2053
2052
2052
2053
2054
2056
2057
2058
2059
2061
2062
2064
2065
2066
2067
2067
2069
2070
2072
2072
2071
2069
2066
2062
2059
2055
2052
2049
2048
2047
2045
2042
2040
2037
2036
2036
2037
2040
2042
2042
2042
2040
2039
2039
2039
2040
2040
2041
2041
2042
2043
2044
2043
2042
2041
2041
2041
2042
2043
2044
2045
2045
2044
2044
2044
2044
2044
2045
2045
2046
2047
2047
2048
2047
2046
2045
2046
2047
2048
2048
2049
2049
2049
2048
2047
2045
2044
2044
2045
2048
2050
2051
2050
2048
2048
2048
2048
2046
2040
2036
2043
2067
2109
2152
2178
2173
2135
2082
2036
2008
2003
2011
2022
2031
2035
2039
2043
2046
2048
2048
2047
2047
2046
2046
2046
2047
2048
2048
2048
2048
2048
2048
2048
2048
2048
2049
2050
2051
2053
2054
2054
2055
2055
2055
2055
2056
2057
2059
2061
2064
2066
2069
2072
2073
2073
2072
2071
2071
2073
2076
2078
2078
2076
2074
2070
2066
2062
2057
2053
2050
2048
2048
2046
2043
2040
2038
2036
2037
2038
2040
2041
2040
2039
2037
2036
2037
2039
2041
2042
2043
2043
2042
2041
2039
2039
2039
2040
2042
2044
2045
2044
2043
2042
2041
2042
2043
2045
2045
2046
2046
2046
2046
2046
2046
2045
2045
2045
2045
2045
2046
2047
2048
2048
2048
2048
2046
2045
2045
2045
2046
2047
2047
2046
2045
2044
2044
2044
2046
2048
2048
2046
2040
2035
2038
2055
2090
2135
2171
2183
2163
2119
2069
2030
2011
2010
2020
2031
2038
2041
2042
2044
2045
2046
2047
2047
2047
2046
2046
2047
2048
2048
2048
2048
2048
2048
2048
2049
2049
2050
2050
2050
2050
2049
2049
2050
2051
2052
2054
2055
2056
2058
2060
2061
2062
2063
2065
2067
2068
2069
2070
2071
2072
2072
2072
2071
2070
2069
2067
2065
2062
2059
2056
2052
2048
2046
2044
2043
2043
2044
2045
2045
2045
2044
2042
2041
2041
2041
2042
2043
2043
2044
2044
2043
2043
2043
2043
2043
2044
2044
2045
2045
2045
2045
2044
2044
2044
2044
2044
2044
2045
2044
2044
2044
2044
2043
2043
2042
2043
2044
2045
2045
2044
2043
2042
2042
2043
2046
2047
2047
2045
2044
2044
2044
2043
2041
2039
2037
2037
2039
2041
2043
2044
2042
2037
2030
2024
2025
2040
2073
2118
2158
2178
2166
2125
2072
2027
2001
1996
2006
2020
2031
2035
2036
2035
2033
2033
2033
2034
2036
2039
2040
2041
2041
2040
2040
2040
2041
2043
2044
2045
2046
2046
2047
2048
2048
2049
2050
2051
2051
2052
2052
2053
2055
2057
2059
2060
2061
2062
2063
2065
2068
2070
2072
2073
2073
2073
2074
2074
2074
2073
2071
2067
2063
2060
2057
2054
2052
2050
2048
2047
2045
2044
2044
2044
2045
2045
2045
2045
2045
2045
2046
2045
2045
2044
2043
2043
2044
2045
2046
2046
2046
2046
2046
2047
2047
2047
2048
2048
2049
2049
2048
2048
2048
2048
2048
2048
2048
2048
2048
2048
2048
2048
2048
2048
2048
2048
2049
2050
2050
2050
2050
2050
2050
2050
2050
2050
2049
2049
2048
2048
2047
2047
2047
2048
2048
2048
2047
2048
2049
2049
2047
2041
2036
2041
2061
2098
2142
2176
2184
2160
2113
2062
2025
2008
2009
2021
2032
2039
2042
2043
2043
2042
2041
2041
2041
2043
2045
2046
2047
2047
2047
2047
2048
2048
2048
2048
2048
2048
2048
2049
2051
2051
2052
2051
2050
2049
2050
2051
2053
2056
2059
2063
2066
2068
2068
2067
2067
2068
2071
2075
2080
2080
2078
2075
2073
2073
2072
2072
2070
2068
2066
2063
2060
2055
2051
2047
2045
2044
2046
2047
2048
2048
2047
2047
2046
2047
2048
2048
2048
2046
2044
2043
2045
2046
2046
2046
2045
2047
2048
2050
2052
2052
2053
2054
2056
2058
2058
2057
2055
2055
2056
2058
2062
2064
2064
2062
2060
2059
2062
2066
2069
2069
2066
2062
2057
2056
2059
2062
2066
2068
2067
2065
2064
2064
2064
2067
2068
2068
2064
2061
2059
2059
2061
2063
2064
2063
2062
2061
2061
2061
2062
2061
2058
2054
2051
2055
2072
2104
2142
2173
2182
2163
2121
2073
2034
2016
2016
2028
2042
2051
2055
2056
2055
2052
2051
2051
2052
2055
2058
2059
2059
2057
2056
2056
2059
2061
2063
2063
2062
2062
2062
2063
2063
2063
2062
2061
2060
2060
2062
2064
2066
2068
2069
2068
2068
2069
2070
2072
2074
2076
2077
2079
2080
2080
2079
2078
2077
2077
2077
2077
2076
2074
2071
2067
2064
2061
2059
2058
2057
2056
2055
2054
2053
2053
2053
2053
2053
2054
2055
2056
2057
2058
2056
2054
2052
2052
2053
2056
2057
2057
2054
2052
2050
2050
2052
2055
2057
2058
2058
2058
2056
2055
2055
2055
2055
2055
2056
2056
2056
2055
2055
2055
2055
2055
2055
2055
2054
2054
2054
2055
2056
2057
2057
2056
2054
2052
2051
2052
2053
2053
2052
2052
2051
2051
2053
2055
2056
2056
2056
2054
2050
2046
2041
2041
2053
2082
2122
2157
2172
2159
2120
2073
2034
2012
2008
2015
2025
2034
2041
2046
2049
2050
2049
2048
2048
2048
2049
2050
2051
2051
2051
2052
2052
2053
2053
2053
2053
2053
2054
2055
2056
2056
2056
2056
2057
2058
2059
2060
2061
2063
2064
2066
2068
2068
2069
2068
2069
2071
2074
2077
2078
2079
2079
2078
2078
2078
2078
2077
2075
2071
2068
2064
2060
2056
2052
2049
2048
2048
2049
2050
2050
2049
2048
2047
2047
2047
2047
2046
2046
2046
2046
2047
2047
2047
2047
2047
2047
2047
2048
2048
2049
2049
2049
2049
2049
2049
2049
2049
2049
2050
2051
2051
2052
2052
2051
2050
2049
2049
2048
2048
2048
2048
2047
2047
2046
2045
2045
2045
2046
2047
2047
2048
2048
2048
2048
2048
2048
2048
2048
2048
2047
2046
2045
2044
2045
2046
2047
2047
2048
2048
2047
2044
2039
2034
2034
2048
2075
2116
2155
2176
2169
2135
2087
2043
2015
2007
2014
2026
2036
2041
2041
2041
2041
2041
2042
2042
2043
2044
2044
2044
2044
2045
2045
2045
2045
2045
2046
2047
2048
2048
2049
2049
2048
2048
2048
2049
2049
2051
2052
2054
2055
2056
2056
2057
2058
2060
2061
2063
2064
2065
2067
2068
2068
2069
2069
2069
2070
2070
2069
2067
2063
2059
2056
2053
2050
2049
2048
2047
2046
2046
2045
2044
2044
2043
2043
2042
2042
2042
2042
2043
2043
2044
2044
2044
2044
2044
2044
2044
2044
2043
2043
2043
2043
2044
2044
2045
2045
2045
2044
2043
2043
2042
2042
2043
2043
2044
2045
2045
2045
2045
2046
2046
2046
2046
2045
2044
2042
2042
2043
2044
2045
2046
2047
2047
2047
2047
2047
2047
2047
2047
2047
2046
2045
2043
2042
2042
2042
2044
2046
2047
2048
2049
2049
2048
2044
2038
2036
2042
2062
2098
2140
2171
2179
2157
2113
2064
2027
2010
2010
2021
2033
2041
2044
2044
2043
2041
2041
2041
2043
2045
2047
2048
2048
2048
2048
2048
2048
2048
2049
2050
2050
2050
2048
2048
2048
2049
2051
2053
2054
2054
2054
2054
2055
2056
2056
2056
2057
2060
2063
2066
2068
2069
2068
2068
2067
2068
2069
2071
2072
2073
2072
2069
2065
2061
2057
2054
2053
2051
2049
2048
2048
2048
2048
2047
2047
2045
2044
2043
2042
2042
2043
2044
2046
2047
2047
2047
2046
2045
2045
2046
2046
2045
2045
2045
2045
2046
2046
2045
2045
2045
2046
2047
2048
2048
2047
2044
2041
2039
2038
2039
2040
2040
2040
2039
2037
2036
2036
2036
2037
2037
2037
2037
2037
2037
2037
2037
2037
2037
2037
2038
2039
2040
2040
2039
2039
2039
2041
2042
2043
2042
2040
2040
2040
2041
2040
2040
2039
2040
2040
2041
2040
2041
2042
2044
2043
2040
2036
2037
2052
2083
2124
2157
2169
2152
2112
2065
2026
2006
2004
2013
2026
2035
2039
2039
2037
2036
2034
2035
2037
2040
2041
2043
2043
2043
2043
2044
2044
2043
2040
2038
2037
2039
2043
2047
2048
2048
2046
2044
2045
2047
2050
2052
2053
2051
2048
2048
2048
2049
2053
2058
2063
2065
2066
2064
2062
2061
2062
2067
2071
2072
2072
2068
2065
2063
2062
2061
2059
2057
2055
2053
2050
2048
2044
2042
2042
2043
2045
2046
2048
2048
2047
2046
2045
2045
2045
2045
2045
2045
2046
2047
2047
2046
2044
2041
2040
2042
2047
2049
2050
2050
2049
2048
2048
2047
2044
2041
2041
2042
2045
2048
2049
2050
2050
2050
2048
2047
2046
2046
2047
2048
2048
2046
2044
2043
2045
2048
2049
2049
2048
2047
2046
2045
2047
2048
2048
2050
2050
2050
2050
2049
2048
2047
2047
2047
2048
2048
2047
2044
2041
2039
2038
2039
2041
2043
2040
2034
2028
2032
2052
2092
2139
2171
2174
2146
2097
2048
2012
1998
2001
2011
2021
2027
2031
2032
2035
2037
2039
2041
2043
2044
2043
2042
2043
2045
2048
2048
2048
2047
2045
2045
2046
2048
2048
2049
2048
2048
2047
2048
2049
2051
2053
2054
2054
2054
2055
2057
2059
2060
2061
2061
2062
2063
2064
2065
2065
2066
2068
2069
2071
2070
2070
2068
2066
2064
2062
2059
2057
2054
2049
2045
2041
2039
2040
2043
2046
2046
2043
2039
2036
2036
2037
2039
2041
2042
2041
2041
2040
2039
2039
2040
2042
2045
2045
2044
2041
2038
2036
2037
2038
2040
2041
2041
2042
2042
2043
2043
2042
2042
2042
2042
2042
2042
2041
2042
2042
2043
2044
2043
2041
2038
2037
2038
2039
2040
2040
2040
2040
2040
2041
2041
2041
2041
2040
2039
2038
2037
2036
2035
2035
2037
2038
2039
2039
2039
2039
2037
2033
2027
2024
2030
2052
2092
2137
2168
2172
2143
2093
2043
2007
1994
1997
2009
2020
2026
2029
2032
2034
2035
2035
2036
2036
2036
2037
2037
2037
2038
2038
2038
2039
2038
2038
2038
2039
2040
2042
2044
2045
2045
2045
2045
2045
2046
2047
2048
2049
2049
2050
2052
2053
2056
2058
2060
2061
2062
2062
2063
2064
2066
2067
2067
2067
2067
2066
2063
2060
2057
2053
2049
2047
2044
2041
2038
2036
2035
2034
2033
2033
2033
2033
2033
2033
2033
2032
2031
2031
2032
2033
2034
2035
2035
2035
2035
2035
2035
2035
2035
2035
2036
2036
2036
2035
2035
2035
2036
2037
2038
2038
2038
2038
2038
2039
2039
2038
2036
2034
2034
2035
2038
2040
2041
2041
2039
2037
2036
2036
2036
2037
2037
2037
2037
2038
2038
2039
2040
2039
2039
2038
2037
2036
2036
2036
2036
2036
2036
2037
2037
2036
2036
2037
2038
2038
2035
2030
2025
2025
2039
2067
2110
2150
2172
2164
2128
2077
2030
2000
1992
1999
2012
2023
2029
2031
2031
2031
2030
2029
2029
2030
2031
2032
2033
2033
2033
2034
2034
2034
2034
2034
2034
2035
2035
2036
2037
2038
2039
2040
2040
2041
2042
2043
2044
2045
2046
2047
2047
2047
2048
2049
2051
2054
2056
2057
2058
2057
2056
2056
2056
2057
2059
2059
2058
2055
2051
2048
2044
2041
2038
2036
2035
2035
2035
2034
2033
2032
2031
2030
2031
2031
2032
2032
2033
2034
2035
2034
2032
2031
2030
2030
2031
2031
2031
2031
2031
2032
2033
2034
2035
2036
2037
2038
2039
2039
2039
2038
2037
2037
2037
2038
2037
2036
2035
2035
2036
2037
2038
2037
2036
2036
2036
2038
2039
2040
2039
2037
2035
2034
2034
2035
2036
2036
2036
2035
2035
2037
2040
2042
2043
2042
2040
2038
2037
2037
2037
2036
2036
2035
2034
2034
2034
2036
2039
2041
2039
2033
2026
2026
2041
2076
2122
2162
2178
2160
2115
2061
2018
1997
1997
2009
2023
2034
2038
2039
2038
2038
2038
2039
2040
2039
2038
2037
2037
2039
2041
2044
2044
2043
2041
2041
2042
2045
2048
2048
2048
2045
2041
2040
2041
2043
2045
2046
2046
2047
2047
2047
2048
2048
2048
2050
2053
2056
2058
2059
2058
2058
2058
2058
2058
2058
2058
2058
2057
2055
2052
2048
2045
2042
2039
2037
2035
2034
2033
2032
2032
2033
2032
2031
2030
2029
2030
2032
2034
2036
2036
2034
2032
2032
2032
2034
2035
2036
2035
2036
2037
2039
2039
2039
2038
2037
2037
2038
2039
2040
2039
2039
2039
2041
2042
2042
2040
2038
2037
2038
2040
2042
2043
2042
2040
2039
2039
2042
2044
2046
2046
2044
2043
2040
2039
2038
2038
2039
2039
2039
2038
2037
2037
2039
2043
2045
2045
2044
2043
2043
2044
2045
2045
2044
2042
2041
2039
2038
2038
2038
2039
2041
2044
2045
2042
2037
2031
2030
2042
2070
2113
2155
2178
2171
2134
2082
2035
2006
1998
2006
2018
2030
2036
2038
2039
2039
2039
2040
2042
2043
2043
2041
2040
2039
2038
2039
2040
2041
2042
2042
2043
2043
2043
2043
2043
2044
2045
2046
2047
2048
2048
2048
2048
2048
2048
2049
2051
2052
2054
2056
2057
2059
2060
2061
2062
2062
2063
2064
2064
2065
2064
2063
2062
2060
2057
2054
2050
2048
2044
2041
2039
2037
2037
2039
2041
2042
2042
2041
2040
2040
2041
2042
2042
2041
2039
2038
2039
2041
2044
2045
2045
2043
2041
2040
2041
2042
2042
2040
2040
2040
2042
2044
2044
2042
2040
2038
2038
2040
2042
2043
2043
2041
2041
2041
2043
2044
2046
2045
2044
2043
2042
2042
2042
2042
2042
2042
2043
2043
2044
2045
2045
2045
2045
2044
2044
2044
2045
2047
2048
2049
2049
2049
2048
2048
2048
2048
2048
2048
2048
2047
2048
2048
2048
2048
2048
2048
2050
2051
2050
2047
2041
2038
2045
2068
2108
2152
2182
2182
2151
2101
2049
2015
2002
2007
2021
2034
2042
2046
2048
2048
2048
2048
2048
2048
2048
2047
2046
2045
2046
2046
2047
2048
2048
2048
2049
2051
2053
2054
2054
2053
2053
2053
2054
2054
2055
2056
2056
2056
2057
2058
2061
2064
2066
2067
2067
2066
2067
2068
2070
2072
2073
2073
2072
2071
2070
2070
2070
2071
2069
2066
2062
2057
2053
2051
2050
2050
2049
2048
2047
2047
2047
2048
2048
2047
2047
2046
2046
2046
2047
2047
2048
2048
2048
2048
2048
2047
2047
2047
2048
2048
2048
2048
2048
2048
2048
2049
2051
2052
2052
2051
2048
2046
2044
2044
2044
2046
2047
2048
2048
2048
2047
2047
2047
2047
2048
2048
2048
2048
2048
2047
2046
2046
2046
2046
2047
2048
2048
2048
2049
2049
2049
2049
2049
2048
2048
2048
2048
2048
2048
2047
2047
2047
2047
2047
2046
2047
2048
2048
2049
2049
2048
2044
2037
2033
2037
2054
2089
2133
2169
2181
2162
2118
2067
2026
2006
2004
2014
2025
2034
2039
2042
2044
2045
2044
2042
2042
2043
2046
2048
2051
2053
2051
2048
2046
2045
2046
2048
2050
2051
2050
2049
2048
2047
2048
2049
2052
2054
2056
2057
2057
2057
2058
2058
2058
2059
2061
2064
2067
2069
2070
2070
2069
2069
2070
2071
2071
2070
2069
2069
2069
2069
2068
2066
2062
2058
2053
2050
2048
2046
2045
2044
2043
2043
2043
2044
2046
2047
2046
2045
2043
2043
2043
2044
2044
2043
2042
2041
2041
2043
2045
2046
2047
2046
2045
2045
2047
2048
2049
2049
2049
2048
2045
2042
2039
2039
2041
2045
2048
2048
2048
2048
2046
2046
2045
2045
2045
2046
2047
2047
2047
2046
2045
2044
2045
2045
2046
2046
2046
2045
2046
2046
2047
2046
2045
2043
2042
2043
2046
2048
2049
2048
2047
2044
2042
2042
2042
2045
2047
2047
2043
2036
2032
2038
2058
2098
2142
2175
2181
2155
2106
2053
2016
2000
2001
2013
2025
2033
2037
2040
2043
2044
2043
2041
2040
2040
2040
2041
2042
2043
2044
2045
2046
2048
2049
2050
2051
2051
2051
2050
2049
2048
2048
2049
2050
2053
2056
2058
2060
2061
2061
2061
2061
2062
2063
2064
2067
2070
2072
2073
2073
2073
2072
2072
2073
2074
2073
2073
2072
2071
2069
2066
2062
2057
2054
2053
2052
2051
2050
2049
2048
2048
2048
2047
2047
2047
2047
2048
2049
2049
2050
2050
2049
2049
2048
2048
2048
2049
2050
2050
2049
2049
2049
2049
2049
2049
2049
2050
2050
2051
2052
2052
2051
2050
2049
2050
2051
2053
2053
2052
2050
2048
2048
2048
2048
2048
2049
2050
2050
2049
2049
2049
2048
2048
2048
2049
2050
2050
2051
2051
2051
2050
2049
2048
2047
2046
2045
2046
2047
2048
2048
2049
2049
2049
2050
2050
2048
2045
2039
2038
2049
2076
2116
2155
2176
2170
2135
2085
2039
2009
2001
2009
2023
2036
2044
2046
2047
2047
2046
2046
2045
2044
2044
2044
2045
2047
2048
2048
2048
2048
2047
2048
2049
2050
2051
2052
2051
2051
2052
2053
2054
2054
2053
2053
2053
2055
2057
2059
2060
2060
2061
2062
2064
2065
2065
2066
2067
2067
2068
2068
2069
2069
2069
2069
2068
2066
2065
2063
2059
2055
2050
2047
2045
2044
2045
2046
2047
2046
2045
2045
2044
2044
2043
2042
2041
2041
2041
2042
2043
2045
2045
2044
2043
2042
2043
2045
2046
2047
2047
2046
2046
2047
2048
2048
2047
2046
2045
2045
2045
2045
2046
2047
2047
2047
2046
2047
2047
2048
2048
2048
2047
2046
2046
2046
2047
2047
2047
2046
2045
2044
2044
2044
2046
2048
2049
2049
2049
2048
2047
2046
2046
2046
2046
2046
2046
2044
2042
2041
2042
2046
2049
2050
2047
2040
2036
2042
2066
2106
2148
2174
2172
2140
2090
2042
2010
2000
2007
2020
2030
2035
2036
2038
2041
2043
2044
2044
2043
2042
2043
2044
2046
2047
2048
2048
2047
2046
2045
2044
2045
2047
2048
2049
2049
2049
2048
2049
2050
2052
2054
2055
2055
2054
2054
2054
2055
2057
2059
2060
2061
2063
2065
2067
2069
2069
2068
2067
2066
2066
2067
2067
2066
2063
2058
2054
2052
2052
2052
2052
2049
2048
2045
2043
2042
2041
2041
2041
2041
2042
2042
2041
2040
2041
2041
2042
2043
2043
2044
2044
2045
2046
2045
2045
2045
2045
2045
2044
2043
2041
2041
2042
2044
2046
2047
2047
2046
2045
2044
2044
2044
2045
2047
2048
2048
2047
2044
2042
2041
2042
2044
2045
2045
2044
2043
2044
2045
2046
2046
2046
2047
2048
2048
2048
2046
2045
2043
2042
2042
2042
2043
2044
2045
2047
2046
2041
2036
2031
2033
2047
2076
2117
2155
2176
2167
2130
2077
2029
1999
1992
2000
2015
2027
2035
2038
2039
2040
2040
2041
2042
2043
2043
2043
2043
2042
2042
2042
2042
2042
2043
2044
2045
2046
2047
2047
2046
2045
2045
2046
2048
2049
2050
2050
2049
2048
2048
2049
2052
2054
2056
2059
2061
2062
2063
2063
2063
2062
2063
2063
2064
2064
2063
2062
2060
2059
2058
2056
2053
2050
2048
2046
2045
2044
2042
2040
2037
2036
2037
2039
2042
2043
2043
2041
2039
2037
2037
2037
2039
2041
2043
2043
2043
2043
2042
2041
2041
2042
2042
2043
2044
2044
2044
2044
2044
2043
2043
2043
2044
2046
2048
2048
2048
2045
2043
2042
2043
2045
2046
2046
2045
2044
2044
2045
2046
2047
2048
2048
2048
2046
2045
2046
2047
2049
2051
2051
2048
2045
2043
2043
2045
2046
2046
2047
2048
2048
2046
2042
2037
2034
2041
2064
2103
2145
2173
2174
2145
2096
2047
2012
2000
2006
2022
2036
2043
2044
2043
2043
2042
2043
2043
2042
2040
2039
2041
2044
2047
2049
2050
2049
2048
2047
2046
2047
2048
2047
2046
2044
2043
2044
2048
2050
2051
2051
2051
2051
2053
2056
2058
2059
2059
2058
2058
2061
2065
2069
2072
2071
2067
2064
2063
2065
2067
2069
2067
2063
2058
2054
2053
2053
2053
2053
2050
2048
2045
2042
2040
2039
2040
2040
2040
2040
2041
2042
2043
2044
2045
2045
2043
2042
2041
2041
2042
2042
2041
2041
2042
2043
2044
2046
2045
2044
2042
2041
2042
2044
2046
2046
2045
2043
2042
2043
2044
2046
2046
2044
2041
2038
2037
2037
2040
2043
2045
2047
2048
2047
2046
2045
2044
2044
2046
2047
2047
2045
2042
2039
2038
2038
2039
2040
2041
2043
2046
2048
2047
2042
2035
2029
2031
2047
2079
2122
2159
2174
2159
2117
2064
2020
1996
1992
2003
2017
2027
2032
2035
2037
2039
2040
2041
2040
2038
2037
2038
2039
2039
2041
2041
2042
2044
2045
2045
2045
2046
2046
2046
2046
2047
2047
2048
2049
2051
2052
2053
2053
2052
2052
2053
2056
2059
2061
2063
2064
2066
2067
2070
2072
2073
2072
2070
2068
2067
2066
2066
2066
2066
2065
2063
2060
2058
2056
2054
2052
2050
2049
2048
2048
2048
2049
2049
2049
2048
2049
2048
2048
2046
2045
2045
2047
2049
2051
2052
2052
2051
2050
2050
2049
2049
2048
2049
2052
2054
2054
2052
2048
2045
2044
2046
2048
2051
2053
2054
2053
2053
2052
2051
2051
2051
2052
2053
2053
2054
2054
2055
2056
2056
2054
2052
2051
2050
2051
2053
2054
2055
2055
2056
2055
2053
2052
2051
2052
2054
2056
2054
2050
2046
2047
2062
2094
2136
2171
2184
2167
2126
2076
2036
2015
2012
2021
2031
2040
2046
2050
2054
2055
2053
2050
2047
2045
2045
2045
2047
2048
2049
2051
2052
2052
2051
2049
2048
2048
2048
2051
2054
2056
2058
2058
2057
2056
2056
2056
2056
2057
2057
2058
2060
2062
2063
2065
2066
2067
2067
2068
2069
2070
2071
2072
2073
2073
2073
2072
2070
2068
2065
2062
2058
2054
2050
2048
2047
2047
2048
2048
2048
2048
2047
2047
2047
2048
2048
2047
2046
2045
2045
2046
2046
2045
2045
2044
2044
2045
2047
2048
2050
2050
2050
2050
2050
2050
2050
2050
2049
2049
2050
2051
2053
2053
2052
2050
2049
2048
2048
2050
2051
2051
2050
2049
2048
2048
2050
2052
2054
2055
2055
2056
2056
2056
2056
2055
2055
2054
2054
2053
2052
2052
2052
2054
2055
2055
2056
2057
2058
2058
2057
2054
2055
2065
2089
2125
2161
2180
2173
2141
2095
2052
2025
2017
2023
2034
2045
2051
2054
2056
2056
2055
2055
2055
2055
2055
2055
2056
2057
2057
2057
2057
2058
2058
2058
2058
2058
2058
2059
2060
2061
2062
2062
2062
2063
2063
2064
2065
2066
2067
2068
2070
2070
2071
2071
2072
2074
2075
2077
2079
2079
2078
2078
2078
2078
2078
2077
2076
2075
2073
2070
2068
2065
2063
2061
2059
2058
2056
2055
2055
2055
2055
2055
2055
2055
2054
2053
2053
2053
2053
2054
2055
2056
2056
2057
2057
2056
2056
2056
2056
2056
2056
2056
2055
2054
2054
2055
2056
2057
2058
2058
2057
2056
2055
2055
2055
2055
2054
2054
2054
2054
2054
2054
2053
2053
2053
2053
2054
2055
2057
2058
2059
2058
2056
2054
2052
2051
2051
2051
2052
2051
2051
2050
2049
2049
2050
2051
2051
2048
2043
2038
2041
2059
2095
2137
2168
2174
2149
2103
2054
2019
2004
2005
2015
2025
2032
2036
2039
2041
2041
2041
2041
2042
2042
2042
2042
2042
2042
2043
2044
2045
2045
2045
2044
2044
2045
2047
2048
2048
2048
2047
2047
2047
2047
2047
2047
2048
2048
2050
2052
2053
2054
2055
2056
2057
2057
2058
2059
2061
2062
2064
2064
2064
2062
2060
2057
2054
2052
2049
2047
2044
2041
2038
2035
2033
2031
2030
2029
2028
2029
2029
2029
2029
2029
2028
2027
2026
2025
2025
2026
2027
2028
2028
2028
2029
2029
2029
2030
2030
2031
2031
2031
2032
2032
2033
2033
2033
2033
2033
2033
2033
2034
2034
2034
2034
2033
2033
2033
2033
2034
2035
2036
2037
2037
2037
2036
2035
2035
2035
2035
2034
2034
2033
2033
2032
2033
2033
2035
2037
2037
2035
2029
2023
2026
2046
2082
2127
2160
2166
2142
2096
2048
2012
1997
1998
2008
2019
2026
2031
2035
2037
2038
2038
2037
2038
2038
2039
2040
2040
2041
2042
2042
2043
2043
2043
2044
2045
2045
2046
2046
2047
2047
2047
2048
2048
2049
2050
2050
2050
2051
2052
2054
2056
2058
2060
2061
2062
2063
2065
2066
2067
2068
2067
2067
2067
2066
2066
2064
2061
2058
2054
2050
2047
2044
2041
2040
2039
2039
2038
2038
2038
2038
2038
2038
2037
2036
2036
2036
2036
2037
2037
2037
2037
2038
2038
2039
2039
2039
2038
2038
2039
2040
2041
2042
2042
2042
2042
2042
2042
2042
2042
2042
2042
2042
2042
2042
2042
2041
2041
2042
2043
2044
2045
2045
2044
2043
2042
2043
2044
2044
2043
2042
2042
2042
2044
2046
2046
2045
2044
2042
2042
2044
2045
2046
2043
2037
2030
2030
2043
2072
2115
2156
2179
2172
2136
2085
2039
2011
2004
2012
2025
2035
2040
2041
2040
2040
2039
2039
2040
2041
2042
2043
2042
2042
2043
2044
2045
2045
2046
2046
2046
2047
2048
2048
2049
2048
2049
2049
2050
2051
2052
2053
2053
2054
2054
2055
2056
2057
2059
2061
2063
2066
2067
2068
2068
2068
2069
2070
2070
2071
2070
2068
2066
2063
2060
2057
2054
2052
2050
2048
2047
2044
2042
2040
2040
2040
2040
2041
2042
2043
2044
2045
2044
2044
2043
2042
2043
2043
2045
2046
2047
2047
2048
2047
2047
2046
2044
2043
2043
2045
2046
2048
2048
2047
2046
2044
2043
2043
2044
2045
2046
2047
2048
2047
2046
2045
2046
2046
2048
2048
2048
2048
2048
2048
2049
2050
2050
2049
2048
2047
2048
2048
2048
2048
2048
2047
2047
2047
2048
2048
2049
2048
2043
2036
2034
2043
2068
2109
2151
2180
2180
2150
2102
2053
2020
2007
2011
2023
2034
2042
2044
2044
2042
2041
2041
2041
2042
2043
2044
2044
2044
2045
2045
2045
2045
2045
2045
2045
2047
2048
2049
2050
2050
2051
2051
2051
2052
2052
2053
2055
2055
2056
2057
2059
2060
2061
2062
2063
2064
2065
2066
2067
2068
2069
2070
2070
2070
2070
2069
2067
2064
2061
2057
2053
2049
2048
2046
2045
2044
2044
2043
2042
2041
2041
2041
2040
2040
2040
2040
2040
2042
2043
2044
2044
2043
2042
2042
2042
2042
2043
2044
2045
2045
2045
2045
2044
2044
2044
2044
2044
2045
2045
2045
2044
2043
2042
2042
2042
2044
2045
2045
2046
2045
2045
2044
2044
2044
2044
2043
2043
2043
2044
2044
2044
2043
2042
2042
2042
2044
2045
2046
2047
2047
2046
2046
2045
2045
2045
2045
2046
2047
2047
2047
2047
2047
2047
2048
2048
2045
2040
2036
2039
2055
2087
2128
2162
2175
2161
2122
2075
2035
2012
2007
2015
2026
2034
2040
2041
2042
2041
2041
2041
2042
2043
2044
2044
2044
2044
2044
2043
2043
2043
2044
2044
2045
2046
2046
2047
2048
2048
2048
2048
2049
2049
2050
2051
2051
2051
2052
2053
2055
2057
2059
2060
2062
2063
2065
2066
2067
2068
2069
2070
2070
2070
2070
2068
2066
2063
2060
2057
2055
2053
2050
2048
2046
2044
2042
2042
2042
2043
2043
2043
2042
2041
2040
2041
2041
2042
2043
2043
2043
2043
2043
2043
2043
2043
2043
2043
2043
2043
2044
2044
2044
2044
2044
2044
2044
2044
2044
2045
2046
2046
2046
2046
2045
2045
2044
2044
2044
2045
2045
2044
2044
2044
2043
2044
2044
2044
2044
2044
2043
2043
2042
2042
2042
2042
2042
2042
2043
2043
2043
2043
2043
2043
2042
2042
2041
2041
2041
2041
2041
2042
2042
2042
2042
2041
2041
2042
2044
2044
2041
2035
2029
2030
2047
2080
2124
2160
2173
2156
2114
2064
2024
2002
1998
2006
2017
2025
2031
2035
2038
2039
2038
2037
2037
2037
2038
2039
2040
2041
2041
2042
2042
2042
2042
2041
2041
2041
2042
2043
2044
2044
2045
2045
2045
2046
2047
2048
2049
2050
2051
2052
2053
2054
2056
2057
2059
2061
2062
2064
2065
2067
2068
2069
2069
2068
2068
2066
2064
2061
2058
2055
2052
2048
2045
2042
2040
2039
2038
2038
2037
2036
2035
2034
2034
2035
2036
2036
2035
2034
2033
2034
2034
2035
2036
2037
2038
2038
2038
2038
2038
2038
2039
2039
2039
2038
2038
2039
2040
2041
2041
2041
2041
2041
2042
2042
2042
2042
2042
2042
2042
2041
2041
2041
2041
2042
2043
2043
2042
2042
2041
2042
2043
2044
2044
2044
2044
2044
2044
2044
2044
2043
2042
2042
2042
2043
2043
2043
2043
2044
2043
2039
2033
2028
2032
2051
2090
2136
2170
2179
2155
2108
2056
2017
1999
1999
2010
2023
2032
2037
2040
2042
2041
2040
2039
2039
2038
2038
2039
2039
2039
2040
2041
2042
2042
2042
2043
2043
2044
2045
2046
2047
2048
2048
2049
2049
2049
2049
2050
2052
2054
2056
2057
2058
2059
2060
2062
2064
2066
2067
2068
2069
2070
2070
2070
2070
2070
2069
2067
2065
2062
2058
2054
2051
2048
2046
2043
2041
2040
2040
2040
2040
2039
2038
2038
2037
2037
2037
2037
2038
2039
2040
2040
2040
2039
2039
2039
2039
2039
2039
2040
2040
2040
2040
2039
2039
2040
2040
2041
2042
2043
2044
2044
2044
2043
2043
2043
2043
2044
2045
2045
2046
2045
2043
2042
2042
2042
2042
2042
2041
2041
2041
2041
2042
2042
2042
2042
2041
2042
2042
2043
2043
2042
2041
2040
2039
2038
2038
2038
2038
2038
2039
2039
2039
2039
2040
2040
2038
2033
2027
2026
2037
2063
2104
2145
2169
2166
2135
2088
2043
2012
2001
2005
2015
2024
2030
2033
2035
2036
2037
2037
2038
2038
2038
2039
2039
2039
2040
2040
2041
2041
2042
2042
2042
2042
2042
2042
2042
2043
2045
2046
2047
2048
2048
2048
2049
2049
2050
2051
2052
2054
2056
2058
2060
2062
2063
2064
2065
2066
2068
2069
2070
2069
2068
2066
2064
2061
2058
2056
2053
2051
2048
2045
2042
2040
2039
2038
2038
2039
2039
2039
2039
2039
2039
2039
2039
2040
2040
2040
2040
2041
2041
2041
2041
2041
2040
2040
2040
2040
2040
2041
2041
2041
2041
2040
2040
2039
2040
2041
2042
2043
2044
2043
2043
2042
2041
2041
2041
2041
2042
2043
2043
2042
2041
2040
2040
2040
2041
2042
2042
2042
2042
2042
2041
2041
2040
2040
2040
2040
2040
2041
2041
2041
2042
2041
2041
2041
2041
2041
2043
2045
2046
2046
2045
2043
2042
2042
2041
2041
2042
2042
2043
2044
2044
2044
2045
2045
2045
2042
2037
2032
2034
2048
2077
2119
2158
2179
2171
2137
2089
2045
2016
2006
2011
2021
2031
2038
2040
2042
2042
2042
2041
2041
2040
2040
2041
2041
2042
2043
2044
2045
2045
2044
2043
2043
2043
2044
2045
2046
2047
2048
2048
2048
2048
2048
2048
2049
2050
2051
2052
2053
2055
2057
2058
2060
2061
2062
2063
2064
2065
2066
2068
2069
2069
2068
2067
2065
2063
2060
2058
2055
2052
2048
2047
2045
2043
2042
2041
2041
2040
2040
2040
2041
2040
2040
2040
2040
2041
2041
2042
2042
2042
2042
2042
2042
2042
2042
2042
2043
2043
2043
2043
2043
2043
2042
2042
2042
2042
2043
2043
2043
2044
2044
2044
2043
2043
2042
2042
2043
2045
2045
2046
2045
2044
2043
2042
2042
2043
2043
2044
2045
2045
2045
2045
2044
2044
2043
2043
2043
2043
2043
2043
2043
2043
2043
2043
2043
2043
2044
2044
2044
2044
2045
2046
2046
2046
2046
2046
2046
2045
2045
2045
2045
2045
2045
2045
2044
2044
2045
2046
2047
2048
2045
2039
2034
2035
2050
2081
2123
2160
2177
2166
2130
2081
2039
2014
2007
2014
2025
2034
2040
2042
2044
2043
2042
2041
2041
2041
2042
2043
2044
2045
2045
2044
2044
2044
2044
2045
2046
2047
2048
2048
2048
2049
2048
2048
2048
2049
2051
2052
2053
2053
2052
2052
2052
2054
2056
2059
2062
2064
2066
2067
2067
2067
2067
2067
2069
2069
2069
2069
2067
2065
2062
2060
2057
2054
2052
2050
2048
2045
2043
2041
2041
2042
2043
2043
2043
2043
2043
2044
2044
2043
2042
2040
2039
2040
2042
2044
2046
2046
2045
2044
2043
2043
2043
2043
2043
2043
2044
2045
2045
2045
2046
2045
2045
2044
2045
2045
2047
2047
2047
2046
2044
2044
2044
2045
2045
2046
2046
2046
2047
2048
2048
2048
2048
2046
2046
2046
2047
2048
2048
2048
2048
2047
2045
2045
2045
2045
2046
2047
2048
2048
2047
2047
2047
2046
2046
2046
2046
2046
2047
2048
2048
2048
2047
2047
2047
2047
2048
2048
2047
2046
2046
2045
2045
2045
2044
2044
2044
2044
2044
2044
2045
2047
2047
2044
2038
2032
2033
2047
2076
2117
2155
2174
2164
2129
2081
2039
2014
2007
2015
2027
2037
2042
2043
2044
2043
2043
2044
2044
2045
2045
2045
2045
2045
2045
2045
2046
2046
2047
2048
2048
2048
2047
2047
2047
2047
2047
2048
2049
2050
2051
2052
2053
2053
2053
2054
2054
2055
2057
2058
2060
2062
2063
2064
2065
2066
2067
2068
2069
2070
2070
2069
2067
2064
2060
2058
2055
2053
2051
2049
2047
2044
2042
2040
2039
2039
2038
2038
2037
2037
2037
2038
2038
2038
2038
2038
2037
2037
2037
2037
2038
2039
2039
2038
2038
2039
2039
2040
2041
2041
2041
2041
2041
2041
2040
2040
2040
2040
2040
2041
2042
2042
2042
2042
2041
2041
2041
2041
2041
2041
2042
2042
2041
2041
2041
2041
2041
2041
2042
2042
2043
2043
2043
2043
2042
2040
2040
2040
2041
2042
2044
2044
2044
2043
2041
2040
2040
2040
2041
2042
2043
2043
2043
2042
2041
2042
2043
2045
2046
2046
2046
2045
2044
2043
2042
2042
2043
2043
2043
2043
2043
2043
2044
2046
2046
2043
2038
2033
2035
2049
2080
2121
2156
2171
2158
2121
2074
2035
2011
2005
2012
2023
2032
2038
2040
2041
2041
2040
2040
2040
2041
2041
2042
2042
2043
2043
2042
2042
2043
2044
2045
2046
2047
2046
2046
2046
2046
2047
2048
2048
2048
2049
2049
2050
2051
2052
2053
2054
2055
2057
2060
2062
2063
2063
2063
2063
2064
2065
2066
2067
2068
2068
2067
2066
2064
2062
2059
2056
2053
2050
2048
2046
2044
2043
2042
2042
2041
2041
2040
2039
2039
2039
2040
2041
2041
2041
2041
2040
2040
2041
2041
2042
2042
2042
2041
2041
2041
2042
2043
2044
2043
2043
2042
2043
2043
2044
2044
2045
2045
2045
2046
2046
2045
2044
2044
2043
2044
2044
2045
2044
2044
2043
2043
2043
2043
2043
2044
2044
2045
2045
2045
2044
2043
2043
2043
2044
2043
2043
2043
2043
2045
2045
2045
2045
2044
2044
2045
2045
2046
2046
2045
2045
2044
2044
2044
2044
2044
2044
2045
2046
2047
2048
2048
2048
2048
2047
2046
2046
2046
2046
2046
2046
2046
2046
2046
2047
2048
2048
2047
2044
2038
2037
2044
2065
2102
2141
2168
2171
2147
2103
2057
2024
2009
2010
2020
2031
2038
2042
2043
2044
2043
2043
2043
2043
2043
2044
2043
2044
2044
2045
2046
2046
2046
2046
2046
2046
2046
2047
2048
2048
2049
2048
2048
2048
2048
2049
2050
2051
2052
2053
2055
2056
2058
2059
2060
2061
2061
2062
2062
2063
2064
2064
2065
2065
2065
2065
2065
2064
2063
2061
2058
2055
2052
2049
2047
2045
2044
2044
2043
2043
2043
2043
2043
2042
2042
2042
2042
2042
2043
2043
2044
2044
2044
2044
2044
2044
2045
2046
2046
2047
2046
2046
2046
2046
2045
2045
2044
2044
2044
2044
2045
2045
2045
2045
2045
2045
2045
2046
2047
2047
2047
2047
2046
2045
2044
2044
2044
2045
2046
2046
2046
2046
2045
2045
2044
2044
2044
2044
2045
2045
2046
2046
2046
2045
2045
2044
2044
2044
2044
2044
2045
2044
2044
2044
2044
2044
2045
2047
2048
2048
2048
2047
2046
2045
2044
2044
2044
2044
2045
2045
2045
2045
2046
2047
2048
2046
2042
2037
2037
2048
2076
2115
2152
2171
2162
2129
2082
2041
2015
2007
2013
2023
2033
2038
2041
2042
2043
2043
2043
2043
2044
2044
2045
2045
2045
2045
2045
2045
2045
2046
2046
2047
2046
2046
2046
2046
2046
2047
2048
2048
2049
2050
2050
2050
2051
2052
2053
2054
2055
2057
2058
2059
2060
2061
2062
2063
2064
2065
2066
2066
2066
2065
2064
2062
2061
2059
2057
2055
2052
2050
2048
2046
2044
2042
2040
2039
2038
2037
2037
2037
2038
2038
2038
2038
2038
2037
2037
2037
2037
2038
2038
2038
2038
2037
2036
2036
2036
2037
2038
2039
2039
2039
2039
2039
2039
2040
2040
2040
2040
2040
2040
2040
2041
2040
2040
2039
2039
2039
2040
2040
2041
2041
2041
2040
2040
2041
2041
2042
2042
2042
2042
2042
2041
2041
2040
2039
2039
2039
2040
2041
2042
2043
2043
2044
2043
2043
2043
2044
2044
2044
2043
2042
2040
2040
2040
2040
2040
2041
2042
2043
2042
2038
2033
2030
2039
2065
2105
2144
2166
2159
2125
2076
2033
2006
1999
2004
2015
2025
2032
2037
2041
2043
2043
2044
2043
2041
2039
2038
2037
2038
2040
2042
2042
2043
2042
2042
2043
2043
2044
2045
2046
2047
2047
2046
2046
2047
2048
2048
2049
2050
2050
2050
2050
2051
2053
2055
2058
2060
2062
2064
2064
2064
2065
2065
2065
2066
2066
2066
2065
2063
2061
2058
2056
2053
2050
2048
2046
2044
2042
2041
2040
2040
2039
2039
2039
2039
2040
2040
2041
2041
2042
2044
2045
2045
2044
2042
2041
2040
2042
2044
2045
2045
2044
2043
2042
2043
2044
2046
2047
2048
2047
2046
2044
2044
2044
2044
2045
2045
2046
2046
2046
2045
2045
2044
2044
2044
2044
2045
2046
2046
2046
2045
2044
2042
2041
2041
2041
2041
2042
2043
2043
2044
2044
2044
2045
2046
2046
2045
2044
2043
2042
2042
2042
2042
2041
2041
2041
2041
2042
2044
2044
2043
2039
2034
2030
2034
2051
2084
2124
2157
2168
2152
2112
2065
2028
2007
2004
2013
2024
2033
2038
2040
2042
2042
2042
2042
2043
2044
2045
2045
2046
2046
2046
2045
2045
2046
2047
2048
2048
2049
2050
2050
2050
2049
2049
2049
2050
2051
2052
2053
2054
2055
2056
2057
2057
2058
2060
2061
2063
2064
2066
2068
2069
2070
2070
2070
2070
2070
2070
2069
2068
2066
2064
2061
2058
2055
2052
2050
2049
2048
2048
2047
2046
2045
2045
2045
2045
2046
2046
2046
2045
2045
2045
2045
2045
2045
2046
2046
2046
2047
2048
2048
2048
2048
2048
2048
2048
2048
2048
2048
2048
2048
2049
2049
2048
2048
2048
2048
2048
2048
2048
2048
2048
2048
2048
2048
2048
2048
2048
2048
2048
2048
2047
2047
2047
2047
2048
2048
2047
2047
2046
2046
2046
2045
2044
2044
2045
2046
2048
2049
2049
2049
2049
2048
2047
2046
2045
2045
2046
2046
2047
2047
2047
2046
2046
2047
2048
2047
2043
2037
2036
2047
2072
2111
2148
2169
2165
2133
2088
2045
2017
2007
2012
2023
2033
2040
2042
2044
2044
2044
2045
2045
2044
2044
2044
2045
2046
2046
2047
2047
2047
2048
2048
2048
2048
2048
2048
2048
2049
2050
2051
2051
2052
2052
2052
2053
2054
2056
2057
2058
2059
2059
2060
2062
2063
2064
2065
2066
2067
2068
2068
2069
2069
2069
2068
2067
2066
2064
2062
2059
2056
2053
2051
2049
2048
2047
2046
2045
2044
2044
2044
2045
2045
2045
2044
2044
2044
2044
2045
2045
2046
2045
2045
2044
2044
2044
2044
2045
2046
2046
2047
2046
2046
2046
2046
2045
2045
2045
2046
2047
2047
2047
2047
2046
2045
2045
2045
2046
2046
2047
2047
2047
2046
2046
2045
2045
2045
2046
2046
2047
2047
2046
2046
2045
2045
2044
2044
2044
2044
2045
2045
2045
2046
2046
2046
2047
2047
2048
2047
2047
2046
2045
2044
2044
2043
2043
2044
2044
2045
2045
2046
2047
2046
2043
2038
2034
2038
2054
2087
2127
2159
2170
2151
2111
2063
2026
2006
2004
2013
2025
2034
2039
2041
2042
2042
2041
2041
2042
2042
2043
2044
2044
2044
2044
2044
2044
2045
2045
2045
2046
2046
2047
2047
2048
2048
2048
2048
2049
2049
2050
2051
2052
2053
2053
2054
2055
2056
2058
2059
2061
2062
2063
2064
2064
2064
2064
2065
2066
2067
2067
2066
2065
2063
2060
2057
2054
2051
2048
2047
2046
2044
2043
2041
2040
2040
2039
2039
2039
2040
2040
2040
2039
2039
2038
2038
2038
2038
2039
2040
2040
2041
2041
2040
2040
2040
2040
2040
2041
2042
2042
2042
2042
2041
2041
2041
2041
2042
2042
2043
2043
2043
2042
2041
2040
2040
2041
2042
2043
2043
2043
2043
2043
2042
2042
2042
2042
2042
2042
2042
2042
2043
2043
2044
2044
2043
2043
2042
2042
2042
2042
2041
2041
2041
2040
2040
2040
2041
2043
2044
2044
2040
2035
2032
2038
2060
2099
2141
2168
2168
2137
2088
2042
2010
1998
2001
2012
2022
2030
2035
2040
2043
2043
2043
2042
2042
2042
2042
2043
2043
2044
2045
2046
2046
2046
2046
2046
2046
2047
2047
2048
2048
2048
2048
2048
2049
2050
2051
2052
2053
2055
2057
2058
2059
2059
2059
2060
2062
2064
2066
2068
2069
2069
2069
2069
2069
2069
2068
2067
2066
2064
2061
2057
2053
2050
2047
2045
2043
2041
2040
2039
2039
2038
2038
2038
2037
2036
2036
2036
2036
2037
2038
2039
2038
2037
2037
2037
2037
2038
2040
2041
2042
2042
2041
2041
2040
2040
2040
2041
2042
2043
2043
2043
2043
2043
2043
2043
2043
2043
2044
2044
2044
2044
2044
2043
2043
2043
2043
2043
2043
2044
2044
2044
2045
2046
2046
2046
2045
2044
2044
2043
2042
2042
2042
2042
2042
2042
2042
2042
2044
2045
2045
2042
2036
2031
2034
2052
2088
2131
2165
2174
2152
2107
2057
2020
2002
2001
2010
2022
2030
2036
2039
2041
2041
2040
2040
2040
2041
2042
2043
2044
2044
2045
2045
2045
2045
2045
2045
2046
2047
2048
2048
2048
2049
2049
2049
2049
2050
2052
2053
2054
2055
2056
2057
2058
2059
2060
2062
2064
2065
2066
2068
2069
2069
2070
2070
2070
2070
2070
2069
2067
2065
2062
2058
2055
2052
2049
2047
2045
2044
2043
2042
2042
2041
2040
2039
2039
2040
2041
2042
2042
2042
2041
2040
2039
2039
2040
2041
2041
2042
2042
2042
2042
2042
2042
2042
2042
2042
2042
2043
2043
2043
2043
2042
2042
2042
2042
2043
2043
2044
2044
2043
2042
2041
2041
2041
2041
2042
2042
2042
2041
2041
2041
2040
2041
2041
2041
2042
2042
2044
2044
2045
2044
2043
2042
2041
2041
2041
2041
2042
2042
2041
2040
2040
2040
2041
2042
2042
2038
2033
2030
2037
2058
2094
2135
2164
2169
2146
2102
2055
2020
2004
2005
2015
2026
2033
2036
2038
2038
2038
2038
2038
2038
2039
2039
2039
2039
2040
2040
2041
2042
2042
2042
2042
2042
2043
2043
2044
2044
2044
2045
2045
2045
2046
2046
2048
2048
2049
2051
2052
2053
2054
2055
2056
2057
2057
2058
2059
2060
2061
2062
2063
2063
2062
2061
2060
2058
2056
2053
2050
2048
2046
2043
2041
2039
2038
2037
2036
2036
2037
2037
2037
2037
2036
2036
2035
2036
2036
2037
2037
2037
2037
2038
2038
2038
2038
2038
2038
2038
2039
2039
2040
2040
2040
2040
2039
2039
2040
2040
2041
2041
2042
2042
2042
2041
2041
2041
2041
2042
2042
2042
2042
2042
2043
2043
2042
2041
2041
2041
2041
2042
2042
2043
2044
2044
2044
2044
2043
2043
2042
2042
2041
2041
2040
2040
2040
2041
2041
2041
2041
2042
2043
2043
2040
2035
2030
2034
2051
2084
2126
2160
2172
2155
2115
2066
2026
2005
2002
2011
2023
2033
2038
2039
2040
2040
2039
2039
2039
2040
2040
2041
2042
2042
2042
2042
2043
2043
2044
2044
2045
2046
2047
2047
2047
2046
2046
2046
2047
2048
2049
2051
2051
2052
2053
2054
2055
2056
2058
2059
2061
2063
2065
2066
2067
2067
2067
2067
2068
2069
2069
2068
2066
2064
2061
2058
2054
2051
2049
2048
2046
2045
2044
2043
2043
2042
2041
2041
2041
2042
2042
2042
2042
2042
2042
2042
2042
2042
2042
2042
2043
2043
2043
2043
2044
2044
2044
2044
2044
2045
2045
2045
2045
2045
2045
2044
2044
2044
2044
2045
2045
2046
2046
2046
2045
2044
2043
2043
2044
2044
2044
2044
2044
2044
2043
2043
2044
2044
2044
2044
2044
2043
2043
2042
2042
2042
2042
2043
2045
2046
2046
2045
2044
2042
2041
2040
2039
2039
2039
2039
2039
2039
2039
2039
2039
2040
2039
2035
2029
2023
2024
2040
2071
2112
2147
2160
2145
2105
2058
2019
1998
1995
2003
2013
2021
2025
2026
2026
2026
2025
2025
2025
2026
2027
2027
2027
2027
2027
2027
2028
2028
2028
2028
2029
2029
2030
2030
2031
2032
2032
2033
2034
2035
2036
2038
2039
2040
2042
2044
2046
2048
2051
2053
2055
2057
2059
2060
2062
2063
2064
2066
2067
2068
2068
2067
2065
2062
2060
2057
2054
2052
2050
2048
2047
2046
2046
2045
2045
2044
2042
2042
2042
2043
2044
2045
2045
2044
2043
2043
2044
2045
2047
2047
2047
2046
2046
2046
2046
2047
2048
2048
2048
2048
2048
2048
2048
2047
2047
2047
2048
2048
2049
2049
2049
2048
2047
2047
2048
2048
2049
2049
2049
2048
2048
2048
2048
2048
2048
2048
2048
2048
2048
2049
2050
2051
2050
2049
2049
2049
2049
2048
2048
2047
2046
2046
2045
2045
2046
2046
2047
2048
2049
2050
2048
2042
2035
2034
2048
2082
2127
2166
2180
2162
2117
2063
2022
2001
1999
2010
2022
2031
2035
2038
2040
2041
2041
2041
2042
2042
2043
2044
2045
2045
2044
2044
2044
2044
2044
2045
2045
2046
2047
2047
2047
2047
2047
2048
2048
2050
2050
2051
2052
2053
2054
2056
2057
2058
2059
2060
2062
2064
2067
2068
2069
2070
2069
2069
2069
2069
2068
2067
2065
2063
2060
2057
2053
2049
2047
2044
2042
2040
2039
2038
2037
2037
2036
2036
2036
2036
2036
2036
2036
2037
2037
2037
2037
2037
2038
2038
2038
2039
2040
2041
2041
2041
2041
2041
2041
2041
2042
2042
2043
2043
2043
2043
2042
2042
2043
2043
2044
2045
2044
2044
2043
2043
2043
2044
2044
2043
2043
2043
2044
2044
2045
2045
2044
2043
2042
2042
2043
2044
2045
2046
2046
2046
2046
2046
2046
2046
2046
2045
2045
2044
2043
2042
2042
2042
2043
2044
2044
2046
2047
2046
2042
2037
2033
2039
2059
2096
2137
2168
2175
2152
2108
2059
2022
2005
2005
2016
2028
2037
2041
2043
2043
2043
2042
2042
2043
2043
2044
2044
2045
2045
2046
2046
2046
2046
2045
2045
2046
2047
2048
2049
2049
2050
2049
2050
2050
2052
2053
2055
2056
2057
2057
2057
2057
2059
2060
2062
2064
2066
2068
2068
2069
2070
2070
2070
2070
2070
2070
2069
2068
2066
2062
2059
2055
2052
2050
2049
2048
2047
2046
2045
2044
2043
2043
2043
2043
2044
2044
2045
2046
2046
2046
2046
2046
2046
2045
2045
2045
2046
2046
2047
2047
2047
2047
2047
2047
2047
2047
2048
2048
2048
2048
2047
2047
2047
2048
2048
2048
2048
2048
2048
2048
2048
2048
2048
2048
2048
2048
2048
2049
2049
2049
2048
2048
2048
2048
2048
2048
2048
2048
2048
2047
2046
2046
2046
2047
2048
2048
2049
2050
2051
2051
2050
2049
2048
2048
2048
2048
2049
2049
2049
2048
2048
2047
2047
2048
2049
2049
2048
2043
2040
2045
2064
2098
2138
2170
2180
2161
2120
2072
2035
2016
2014
2024
2035
2043
2047
2048
2049
2049
2049
2049
2049
2049
2049
2050
2050
2051
2051
2052
2052
2053
2053
2053
2053
2053
2053
2054
2054
2055
2056
2056
2056
2056
2056
2057
2058
2059
2061
2062
2064
2065
2066
2067
2067
2069
2070
2072
2074
2075
2075
2075
2074
2074
2074
2073
2072
2070
2068
2064
2061
2057
2055
2053
2051
2050
2049
2049
2048
2048
2048
2047
2047
2047
2047
2047
2047
2048
2048
2048
2049
2049
2049
2050
2050
2050
2050
2051
2052
2052
2053
2053
2052
2051
2051
2050
2051
2052
2053
2054
2054
2054
2054
2053
2053
2053
2053
2053
2053
2053
2053
2053
2053
2053
2053
2053
2053
2054
2053
2053
2052
2051
2051
2051
2051
2051
2051
2051
2052
2052
2052
2052
2052
2051
2051
2051
2052
2053
2054
2055
2054
2053
2052
2051
2050
2049
2049
2049
2049
2049
2049
2049
2048
2048
2049
2049
2047
2042
2036
2035
2046
2071
2111
2149
2170
2164
2130
2083
2039
2011
2001
2006
2016
2025
2031
2033
2035
2036
2036
2037
2038
2039
2039
2039
2040
2040
2041
2042
2043
2044
2045
2045
2045
2046
2047
2048
2048
2049
2051
2052
2053
2054
2055
2057
2058
2059
2060
2061
2063
2065
2067
2069
2070
2071
2072
2073
2074
2076
2077
2078
2078
2079
2079
2079
2077
2074
2071
2067
2064
2061
2058
2056
2054
2051
2049
2048
2047
2046
2045
2045
2047
2047
2048
2048
2048
2048
2048
2048
2048
2048
2048
2049
2050
2050
2050
2050
2050
2051
2053
2055
2058
2059
2060
2060
2059
2059
2059
2059
2058
2058
2058
2057
2055
2053
2050
2048
2049
2052
2056
2060
2063
2064
2063
2061
2060
2059
2058
2059
2059
2060
2060
2060
2061
2061
2062
2062
2061
2059
2058
2057
2058
2058
2058
2058
2057
2057
2056
2055
2054
2054
2054
2052
2048
2042
2038
2042
2062
2102
2148
2182
2187
2158
2106
2052
2015
2000
2003
2014
2024
2029
2032
2034
2035
2035
2036
2037
2038
2039
2039
2038
2038
2038
2038
2038
2038
2038
2038
2038
2037
2037
2036
2035
2035
2037
2039
2041
2041
2042
2042
2043
2044
2044
2044
2044
2045
2047
2049
2053
2056
2058
2059
2060
2061
2061
2062
2063
2063
2063
2062
2060
2057
2053
2049
2045
2040
2035
2031
2027
2025
2024
2025
2026
2026
2024
2021
2018
2017
2018
2020
2022
2024
2025
2025
2025
2025
2026
2026
2026
2026
2027
2028
2028
2029
2029
2029
2030
2032
2033
2034
2035
2034
2034
2033
2033
2032
2031
2030
2030
2031
2032
2034
2035
2035
2034
2033
2032
2032
2032
2032
2032
2031
2029
2028
2027
2026
2027
2028
2031
2033
2035
2036
2037
2037
2037
2037
2035
2033
2031
2032
2034
2037
2039
2039
2038
2037
2036
2036
2037
2038
2040
2041
2038
2032
2025
2024
2037
2066
2110
2151
2174
2168
2133
2084
2038
2008
1999
2006
2019
2029
2035
2035
2034
2033
2031
2031
2032
2034
2037
2039
2039
2038
2036
2035
2035
2037
2038
2039
2038
2038
2037
2037
2038
2039
2040
2041
2043
2045
2046
2047
2048
2048
2048
2048
2048
2050
2053
2055
2056
2057
2057
2058
2060
2061
2063
2064
2065
2065
2064
2062
2060
2058
2056
2054
2051
2048
2044
2041
2038
2038
2037
2038
2039
2039
2039
2038
2037
2038
2039
2040
2040
2039
2039
2039
2039
2040
2040
2041
2041
2042
2044
2044
2044
2043
2041
2041
2041
2042
2042
2041
2041
2041
2040
2040
2040
2040
2042
2045
2047
2047
2046
2043
2042
2042
2043
2043
2044
2043
2044
2044
2046
2047
2048
2047
2046
2044
2043
2042
2043
2044
2045
2045
2043
2041
2039
2039
2041
2045
2048
2049
2048
2047
2046
2045
2044
2043
2042
2041
2040
2041
2043
2044
2045
2044
2043
2043
2044
2043
2039
2034
2032
2039
2060
2097
2139
2170
2178
2156
2112
2064
2027
2009
2008
2017
2029
2037
2040
2041
2040
2038
2038
2038
2039
2040
2039
2039
2038
2039
2042
2044
2046
2046
2045
2044
2043
2042
2043
2044
2045
2046
2047
2047
2047
2047
2047
2048
2049
2051
2052
2052
2053
2054
2057
2059
2061
2061
2063
2064
2068
2072
2074
2075
2074
2072
2071
2069
2068
2066
2064
2062
2059
2056
2053
2050
2048
2047
2046
2045
2046
2046
2045
2045
2045
2046
2046
2046
2046
2046
2045
2045
2045
2046
2046
2047
2048
2048
2048
2048
2048
2048
2048
2048
2048
2048
2048
2048
2048
2048
2048
2049
2049
2049
2049
2049
2049
2048
2049
2049
2051
2051
2051
2051
2050
2050
2051
2052
2053
2054
2054
2054
2054
2054
2053
2053
2052
2052
2052
2052
2052
2053
2053
2052
2051
2050
2049
2049
2050
2052
2054
2057
2058
2058
2057
2056
2055
2053
2052
2052
2052
2052
2052
2053
2054
2054
2054
2054
2056
2057
2059
2057
2052
2048
2047
2057
2084
2123
2161
2182
2176
2145
2099
2057
2030
2021
2026
2036
2046
2051
2054
2055
2055
2054
2053
2052
2052
2052
2053
2054
2055
2056
2057
2057
2056
2055
2054
2054
2055
2056
2057
2058
2058
2059
2059
2058
2058
2057
2058
2059
2060
2062
2063
2063
2064
2064
2065
2066
2067
2068
2070
2073
2075
2075
2075
2073
2071
2071
2071
2071
2071
2070
2068
2064
2060
2056
2053
2051
2049
2048
2048
2048
2048
2048
2048
2047
2047
2046
2046
2046
2047
2047
2047
2048
2047
2046
2045
2044
2044
2044
2045
2046
2047
2047
2046
2046
2046
2046
2047
2047
2046
2046
2046
2045
2045
2045
2045
2045
2045
2044
2044
2044
2045
2045
2046
2045
2044
2043
2043
2043
2043
2044
2045
2045
2045
2044
2043
2042
2042
2042
2043
2044
2044
2044
2044
2044
2045
2045
2045
2045
2044
2044
2044
2044
2043
2043
2042
2042
2042
2042
2043
2043
2045
2046
2045
2041
2035
2031
2034
2053
2089
2131
2163
2170
2147
2102
2053
2017
2000
2000
2010
2022
2030
2035
2039
2040
2040
2039
2039
2039
2040
2041
2042
2043
2043
2043
2043
2043
2043
2044
2044
2045
2046
2046
2047
2047
2048
2048
2048
2049
2050
2051
2051
2052
2053
2054
2055
2056
2057
2059
2060
2062
2064
2065
2067
2068
2068
2068
2068
2069
2069
2069
2068
2066
2064
2061
2057
2054
2050
2048
2045
2043
2042
2041
2040
2038
2037
2037
2036
2036
2037
2037
2038
2038
2038
2037
2036
2036
2036
2037
2038
2039
2040
2040
2039
2039
2039
2039
2039
2039
2040
2040
2041
2041
2041
2042
2042
2041
2041
2041
2041
2041
2041
2042
2042
2042
2042
2042
2041
2041
2041
2041
2042
2042
2043
2042
2042
2041
2041
2041
2042
2044
2044
2045
2044
2044
2043
2042
2041
2041
2041
2041
2041
2041
2041
2041
2041
2042
2043
2043
2041
2036
2031
2032
2047
2079
2120
2156
2170
2155
2115
2066
2027
2005
2000
2008
2018
2027
2033
2036
2039
2040
2040
2040
2040
2040
2040
2040
2040
2041
2042
2043
2044
2044
2044
2044
2044
2045
2046
2046
2047
2048
2048
2049
2049
2050
2051
2051
2052
2053
2054
2055
2057
2058
2060
2061
2062
2063
2065
2066
2068
2069
2069
2070
2070
2070
2070
2068
2066
2064
2061
2058
2055
2052
2049
2047
2044
2042
2040
2039
2039
2039
2039
2040
2040
2040
2039
2039
2039
2039
2040
2040
2040
2041
2041
2041
2041
2041
2041
2041
2041
2042
2043
2043
2043
2043
2043
2043
2043
2043
2044
2045
2045
2046
2045
2044
2043
2042
2042
2042
2042
2042
2042
2042
2042
2042
2041
2041
2040
2040
2040
2041
2041
2041
2041
2041
2040
2040
2040
2041
2042
2043
2044
2044
2043
2042
2041
2040
2040
2039
2039
2040
2041
2041
2041
2042
2042
2043
2043
2039
2034
2030
2033
2050
2083
2125
2158
2170
2153
2113
2065
2027
2006
2003
2011
2022
2031
2035
2037
2038
2039
2039
2039
2039
2039
2039
2040
2040
2040
2041
2041
2042
2043
2043
2044
2043
2043
2043
2044
2045
2046
2047
2047
2048
2048
2048
2049
2050
2051
2052
2053
2054
2056
2057
2059
2060
2061
2063
2064
2065
2066
2067
2068
2069
2069
2068
2067
2066
2064
2061
2058
2055
2052
2049
2048
2046
2044
2043
2042
2041
2041
2041
2041
2041
2041
2041
2040
2041
2041
2041
2041
2042
2043
2043
2044
2044
2044
2044
2044
2044
2044
2045
2045
2045
2045
2045
2045
2044
2045
2045
2045
2046
2046
2046
2045
2044
2044
2044
2044
2044
2045
2045
2045
2045
2045
2045
2045
2044
2044
2044
2044
2045
2045
2045
2045
2044
2043
2043
2043
2043
2044
2044
2045
2044
2044
2045
2045
2046
2047
2047
2046
2046
2045
2045
2044
2044
2044
2043
2044
2044
2044
2045
2046
2048
2048
2045
2039
2034
2035
2048
2078
2120
2157
2176
2166
2130
2082
2040
2015
2008
2015
2027
2037
2043
2045
2045
2045
2044
2043
2044
2044
2045
2046
2047
2047
2047
2047
2046
2047
2047
2048
2048
2049
2050
2050
2050
2050
2050
2050
2050
2051
2052
2053
2054
2055
2056
2056
2057
2058
2060
2062
2064
2066
2067
2068
2069
2070
2071
2071
2072
2072
2072
2072
2071
2069
2066
2063
2060
2057
2054
2052
2050
2049
2048
2047
2046
2045
2045
2045
2045
2045
2045
2045
2046
2046
2046
2046
2045
2045
2045
2046
2046
2047
2047
2047
2047
2046
2046
2047
2047
2047
2047
2047
2047
2047
2047
2047
2047
2047
2046
2047
2047
2048
2048
2048
2047
2046
2046
2045
2045
2045
2046
2046
2046
2046
2046
2046
2045
2045
2045
2046
2046
2046
2045
2044
2043
2043
2043
2044
2044
2044
2045
2046
2047
2047
2047
2046
2045
2044
2044
2044
2044
2045
2045
2045
2045
2044
2044
2044
2045
2047
2047
2044
2039
2034
2037
2052
2084
2125
2159
2172
2156
2118
2070
2032
2011
2007
2015
2026
2035
2040
2043
2044
2044
2044
2044
2043
2043
2044
2044
2045
2046
2046
2047
2047
2048
2047
2047
2048
2048
2048
2049
2050
2050
2051
2051
2051
2052
2052
2053
2055
2056
2057
2058
2059
2060
2061
2062
2064
2065
2067
2068
2070
2070
2071
2071
2071
2071
2071
2070
2070
2068
2066
2063
2060
2057
2054
2051
2049
2048
2047
2047
2047
2047
2046
2046
2045
2045
2045
2045
2045
2046
2046
2046
2046
2046
2045
2045
2045
2045
2046
2047
2047
2048
2048
2047
2047
2047
2047
2047
2047
2048
2048
2048
2048
2048
2048
2048
2048
2047
2047
2048
2048
2048
2048
2048
2048
2047
2047
2047
2047
2048
2048
2048
2048
2047
2047
2047
2048
2048
2048
2048
2048
2049
2049
2049
2048
2048
2048
2047
2047
2046
2046
2046
2047
2047
2047
2047
2047
2048
2048
2048
2045
2040
2037
2045
2068
2106
2147
2172
2170
2140
2093
2047
2016
2004
2007
2017
2027
2035
2039
2043
2045
2045
2045
2044
2044
2044
2045
2045
2046
2047
2048
2048
2048
2048
2048
2048
2048
2048
2049
2050
2051
2051
2052
2051
2051
2052
2052
2053
2054
2056
2057
2058
2059
2060
2061
2062
2064
2065
2067
2068
2069
2070
2070
2070
2070
2070
2069
2068
2066
2064
2061
2058
2055
2051
2048
2046
2044
2043
2042
2041
2041
2041
2041
2041
2040
2040
2039
2039
2040
2040
2041
2041
2042
2042
2042
2042
2042
2042
2043
2044
2044
2044
2044
2044
2045
2045
2045
2046
2046
2046
2046
2046
2046
2046
2046
2046
2046
2046
2047
2047
2047
2048
2047
2047
2046
2046
2046
2046
2046
2047
2047
2047
2046
2046
2045
2045
2046
2046
2047
2048
2048
2049
2049
2048
2048
2047
2046
2046
2046
2046
2046
2046
2046
2046
2046
2046
2047
2048
2048
2045
2040
2036
2039
2056
2088
2128
2161
2173
2156
2117
2069
2031
2010
2007
2015
2026
2035
2040
2042
2044
2044
2044
2044
2044
2044
2044
2044
2045
2046
2046
2047
2048
2048
2048
2048
2048
2048
2049
2049
2050
2051
2052
2052
2053
2053
2053
2054
2054
2056
2057
2058
2060
2061
2062
2063
2064
2065
2067
2068
2070
2071
2072
2072
2072
2071
2071
2070
2069
2067
2064
2062
2059
2056
2053
2050
2048
2047
2046
2046
2046
2046
2046
2046
2045
2045
2045
2045
2045
2045
2046
2046
2046
2046
2046
2046
2046
2046
2046
2046
2046
2046
2047
2047
2047
2047
2047
2047
2047
2048
2048
2048
2048
2048
2048
2048
2048
2048
2048
2048
2048
2048
2048
2048
2048
2048
2047
2047
2047
2047
2048
2048
2048
2048
2048
2048
2048
2047
2047
2047
2047
2047
2047
2048
2048
2048
2048
2048
2048
2050
2050
2051
2050
2050
2048
2048
2047
2047
2046
2047
2047
2048
2048
2048
2049
2049
2048
2045
2040
2036
2042
2061
2096
2136
2167
2174
2153
2111
2064
2029
2012
2011
2021
2031
2039
2043
2044
2045
2045
2045
2045
2046
2047
2047
2047
2047
2047
2048
2048
2049
2049
2050
2050
2050
2050
2050
2050
2051
2051
2051
2052
2053
2054
2054
2055
2055
2056
2057
2058
2060
2061
2063
2064
2066
2067
2067
2068
2068
2069
2070
2071
2071
2070
2069
2068
2065
2063
2061
2058
2055
2052
2050
2048
2047
2045
2043
2041
2040
2040
2041
2041
2042
2043
2043
2043
2043
2042
2042
2043
2043
2044
2044
2044
2044
2044
2043
2043
2043
2044
2044
2045
2045
2045
2045
2045
2045
2044
2044
2044
2045
2045
2045
2046
2046
2045
2045
2045
2045
2045
2045
2045
2045
2045
2045
2045
2045
2044
2044
2045
2045
2045
2045
2045
2045
2044
2044
2044
2044
2044
2045
2046
2048
2048
2048
2048
2048
2046
2046
2045
2045
2045
2045
2045
2045
2045
2045
2045
2046
2047
2047
2044
2039
2036
2041
2059
2094
2134
2164
2171
2150
2109
2062
2027
2009
2009
2018
2028
2036
2040
2042
2043
2043
2043
2043
2043
2044
2044
2044
2045
2045
2046
2047
2047
2048
2048
2047
2048
2048
2048
2048
2049
2050
2050
2051
2051
2052
2052
2053
2054
2054
2056
2057
2058
2059
2060
2061
2062
2064
2065
2066
2067
2068
2069
2070
2070
2070
2069
2068
2066
2064
2062
2059
2056
2053
2050
2048
2047
2045
2044
2044
2044
2044
2044
2043
2042
2042
2041
2042
2042
2043
2043
2044
2043
2043
2043
2043
2043
2043
2043
2043
2043
2044
2044
2045
2045
2044
2044
2044
2044
2045
2046
2047
2047
2047
2046
2046
2046
2047
2047
2048
2048
2049
2049
2049
2048
2048
2048
2048
2048
2049
2049
2049
2049
2049
2049
2049
2049
2050
2050
2052
2053
2053
2053
2052
2051
2050
2049
2048
2048
2048
2049
2049
2050
2049
2049
2049
2049
2050
2048
2044
2040
2041
2056
2088
2130
2166
2179
2161
2119
2068
2029
2008
2005
2014
2025
2033
2039
2042
2045
2046
2046
2046
2047
2047
2048
2048
2048
2048
2048
2048
2049
2049
2049
2050
2050
2051
2051
2051
2052
2052
2053
2055
2056
2057
2057
2058
2058
2059
2060
2061
2063
2065
2067
2068
2070
2071
2071
2073
2074
2075
2076
2076
2076
2076
2075
2074
2072
2069
2066
2063
2060
2056
2054
2051
2049
2047
2045
2044
2042
2042
2042
2042
2042
2042
2041
2041
2040
2040
2040
2040
2040
2041
2041
2041
2041
2041
2041
2041
2041
2042
2043
2043
2044
2044
2044
2044
2044
2044
2044
2045
2045
2046
2046
2046
2046
2046
2045
2045
2045
2046
2046
2046
2046
2046
2046
2046
2046
2047
2048
2048
2048
2048
2048
2047
2047
2046
2045
2045
2045
2045
2046
2046
2047
2047
2047
2048
2048
2045
2040
2035
2037
2054
2091
2135
2171
2181
2158
2111
2060
2022
2004
2004
2014
2025
2032
2037
2041
2043
2044
2044
2045
2046
2047
2048
2048
2048
2048
2048
2048
2049
2049
2050
2050
2051
2051
2051
2051
2052
2052
2053
2054
2055
2056
2056
2057
2058
2059
2060
2061
2063
2065
2067
2069
2070
2072
2073
2074
2075
2076
2077
2077
2078
2078
2077
2075
2072
2069
2065
2061
2057
2054
2051
2049
2047
2045
2043
2042
2041
2041
2042
2042
2042
2042
2042
2042
2041
2041
2041
2041
2042
2042
2043
2043
2043
2043
2043
2043
2044
2044
2045
2045
2046
2047
2047
2046
2046
2046
2046
2046
2047
2048
2048
2048
2048
2048
2047
2047
2047
2047
2047
2048
2048
2048
2047
2046
2045
2045
2045
2045
2046
2047
2048
2048
2049
2049
2048
2048
2047
2046
2045
2045
2045
2045
2045
2044
2044
2044
2044
2045
2047
2048
2046
2041
2034
2034
2047
2076
2118
2158
2180
2173
2138
2089
2045
2016
2007
2013
2024
2033
2039
2041
2042
2043
2042
2042
2041
2042
2042
2043
2044
2045
2045
2046
2046
2046
2046
2046
2046
2047
2047
2048
2048
2049
2049
2049
2049
2050
2050
2051
2052
2053
2054
2056
2057
2058
2060
2061
2062
2064
2066
2067
2069
2070
2070
2070
2070
2069
2069
2068
2066
2064
2061
2058
2054
2051
2048
2047
2045
2043
2043
2042
2042
2041
2041
2041
2040
2040
2040
2040
2040
2041
2042
2042
2042
2041
2041
2041
2040
2040
2040
2040
2041
2041
2041
2041
2041
2041
2041
2041
2041
2042
2042
2042
2042
2042
2042
2041
2041
2041
2041
2042
2042
2043
2043
2043
2042
2042
2042
2042
2042
2042
2042
2042
2043
2043
2042
2042
2042
2042
2044
2045
2047
2047
2046
2045
2043
2042
2042
2042
2042
2043
2043
2043
2044
2044
2044
2046
2046
2045
2040
2034
2033
2041
2065
2105
2148
2177
2180
2153
2105
2056
2022
2008
2011
2023
2034
2040
2041
2042
2042
2042
2042
2043
2043
2044
2044
2044
2044
2044
2045
2045
2046
2047
2047
2047
2047
2047
2047
2047
2047
2048
2048
2049
2049
2049
2049
2049
2049
2050
2051
2052
2052
2053
2053
2055
2057
2059
2062
2064
2065
2066
2066
2066
2065
2064
2062
2061
2058
2056
2052
2049
2046
2043
2041
2039
2038
2037
2036
2035
2035
2035
2035
2035
2035
2035
2035
2035
2034
2034
2034
2034
2034
2035
2036
2037
2037
2036
2036
2036
2036
2036
2036
2036
2036
2036
2036
2036
2036
2037
2037
2037
2038
2039
2040
2040
2040
2039
2038
2037
2038
2039
2040
2040
2040
2039
2039
2038
2038
2038
2038
2039
2039
2040
2040
2040
2039
2039
2039
2038
2038
2039
2040
2041
2042
2043
2042
2041
2040
2039
2039
2039
2039
2039
2039
2038
2038
2037
2038
2039
2040
2040
2035
2028
2023
2028
2047
2084
2128
2163
2173
2151
2106
2054
2015
1996
1997
2007
2019
2026
2030
2031
2032
2032
2031
2031
2030
2030
2031
2032
2032
2033
2034
2035
2036
2037
2037
2036
2036
2036
2037
2037
2037
2037
2037
2036
2036
2036
2037
2039
2041
2045
2048
2049
2050
2050
2050
2049
2050
2052
2055
2057
2058
2058
2057
2058
2059
2060
2062
2061
2059
2056
2053
2050
2048
2045
2042
2039
2037
2035
2035
2035
2035
2035
2036
2036
2038
2040
2041
2043
2042
2041
2040
2039
2039
2039
2040
2042
2043
2045
2045
2046
2046
2046
2047
2047
2047
2047
2046
2046
2045
2045
2045
2046
2047
2048
2048
2048
2047
2047
2048
2048
2049
2049
2048
2048
2048
2048
2048
2048
2048
2049
2050
2050
2049
2048
2048
2046
2047
2047
2048
2049
2049
2048
2047
2045
2044
2042
2042
2042
2043
2044
2045
2044
2043
2043
2042
2042
2043
2043
2043
2042
2040
2039
2039
2039
2040
2041
2043
2045
2044
2040
2034
2028
2030
2047
2080
2124
2162
2178
2162
2120
2067
2025
2003
2000
2011
2024
2033
2038
2040
2041
2040
2039
2038
2038
2040
2043
2047
2048
2050
2050
2049
2048
2047
2047
2047
2048
2048
2048
2048
2048
2049
2051
2054
2055
2055
2054
2052
2052
2054
2057
2060
2063
2064
2065
2066
2066
2066
2066
2066
2067
2069
2070
2071
2071
2070
2068
2065
2063
2060
2057
2054
2053
2052
2051
2049
2048
2046
2044
2044
2044
2043
2041
2040
2041
2042
2044
2044
2043
2041
2040
2041
2043
2046
2046
2045
2043
2041
2042
2043
2045
2047
2048
2047
2046
2046
2045
2045
2046
2046
2046
2047
2047
2048
2048
2048
2048
2048
2048
2048
2048
2048
2048
2048
2049
2048
2048
2048
2047
2046
2046
2046
2047
2048
2049
2050
2050
2050
2048
2048
2049
2051
2052
2052
2051
2050
2049
2049
2050
2050
2049
2048
2046
2045
2045
2046
2048
2048
2048
2048
2048
2049
2051
2052
2050
2044
2036
2033
2043
2069
2113
2157
2184
2181
2146
2092
2042
2010
2000
2008
2023
2036
2043
2045
2047
2047
2046
2046
2044
2043
2042
2043
2045
2048
2049
2049
2049
2048
2047
2047
2048
2048
2049
2048
2047
2046
2046
2048
2051
2056
2058
2058
2057
2056
2055
2056
2057
2059
2061
2063
2065
2066
2067
2067
2068
2070
2073
2076
2077
2076
2075
2073
2073
2073
2072
2068
2063
2058
2053
2051
2050
2050
2050
2049
2048
2048
2048
2047
2045
2044
2044
2045
2048
2049
2049
2048
2048
2047
2046
2047
2047
2047
2048
2048
2048
2049
2049
2049
2048
2048
2047
2046
2046
2048
2048
2050
2051
2052
2052
2051
2051
2051
2051
2051
2051
2051
2051
2050
2050
2050
2050
2051
2051
2051
2051
2051
2050
2050
2050
2050
2051
2052
2052
2052
2052
2051
2051
2051
2050
2050
2049
2049
2050
2052
2054
2055
2055
2054
2053
2053
2053
2053
2052
2051
2050
2049
2048
2048
2048
2048
2049
2050
2049
2045
2039
2038
2049
2079
2122
2163
2183
2173
2135
2083
2038
2011
2004
2013
2026
2036
2043
2046
2048
2048
2046
2044
2043
2043
2045
2048
2050
2052
2052
2052
2051
2049
2048
2048
2049
2051
2053
2054
2055
2054
2053
2053
2052
2053
2054
2056
2057
2059
2061
2062
2063
2063
2064
2065
2067
2069
2070
2071
2071
2071
2070
2069
2068
2069
2071
2073
2074
2073
2070
2066
2062
2059
2055
2052
2050
2049
2049
2049
2049
2049
2048
2048
2048
2047
2047
2047
2048
2048
2048
2048
2048
2048
2048
2049
2049
2049
2049
2049
2049
2048
2048
2047
2046
2046
2047
2050
2055
2059
2062
2062
2061
2059
2057
2055
2055
2055
2056
2057
2057
2058
2058
2058
2059
2059
2060
2061
2061
2061
2060
2058
2057
2057
2057
2057
2057
2057
2057
2057
2059
2061
2063
2063
2062
2061
2059
2058
2057
2056
2056
2056
2056
2057
2056
2055
2054
2054
2055
2055
2053
2049
2049
2060
2085
2124
2162
2182
2173
2137
2088
2044
2016
2009
2016
2029
2041
2048
2051
2053
2053
2052
2052
2051
2051
2052
2053
2054
2055
2056
2056
2056
2056
2056
2056
2056
2056
2056
2057
2058
2058
2058
2057
2056
2056
2058
2060
2062
2065
2066
2066
2067
2067
2068
2070
2072
2074
2074
2074
2074
2074
2074
2075
2077
2079
2080
2079
2076
2073
2069
2066
2064
2061
2059
2056
2053
2051
2050
2049
2048
2048
2048
2048
2047
2047
2046
2045
2046
2048
2049
2050
2050
2049
2048
2047
2047
2046
2046
2046
2045
2045
2044
2043
2043
2044
2045
2047
2048
2047
2046
2044
2044
2045
2046
2047
2048
2047
2047
2047
2047
2047
2047
2046
2045
2044
2043
2044
2045
2047
2048
2048
2048
2047
2045
2043
2042
2043
2045
2048
2051
2052
2051
2049
2048
2047
2047
2047
2046
2046
2046
2047
2047
2047
2047
2046
2046
2044
2041
2039
2043
2060
2094
2135
2168
2178
2158
2113
2063
2024
2003
2002
2013
2027
2036
2042
2045
2046
2046
2045
2044
2044
2045
2046
2047
2048
2048
2047
2046
2045
2045
2045
2046
2047
2048
2048
2049
2049
2050
2050
2050
2051
2052
2052
2053
2054
2054
2055
2055
2056
2058
2060
2063
2065
2065
2065
2065
2066
2067
2070
2072
2073
2072
2070
2066
2062
2059
2057
2055
2053
2051
2048
2046
2043
2040
2038
2036
2035
2036
2037
2039
2041
2041
2040
2039
2038
2038
2038
2039
2039
2039
2038
2037
2037
2038
2040
2042
2044
2045
2045
2044
2043
2043
2043
2045
2046
2046
2046
2045
2045
2045
2046
2046
2046
2045
2044
2042
2042
2043
2046
2048
2050
2050
2049
2047
2045
2044
2044
2044
2044
2044
2045
2047
2050
2052
2052
2050
2048
2046
2045
2045
2046
2045
2045
2044
2043
2043
2044
2045
2046
2043
2038
2033
2034
2050
2084
2128
2165
2180
2162
2118
2065
2023
2001
1999
2009
2022
2030
2035
2036
2038
2038
2038
2039
2039
2040
2041
2042
2041
2039
2038
2038
2039
2040
2041
2040
2038
2036
2035
2036
2038
2040
2041
2041
2041
2041
2042
2045
2048
2049
2050
2050
2049
2049
2050
2051
2052
2052
2052
2053
2054
2056
2056
2056
2056
2057
2058
2058
2057
2055
2052
2048
2046
2044
2042
2040
2038
2035
2033
2031
2031
2031
2032
2034
2034
2034
2034
2034
2034
2033
2033
2034
2036
2037
2037
2036
2034
2032
2033
2033
2034
2035
2036
2038
2040
2040
2038
2035
2032
2032
2034
2036
2037
2037
2035
2035
2037
2038
2040
2038
2035
2031
2030
2032
2035
2038
2040
2040
2038
2037
2037
2038
2039
2038
2038
2036
2036
2036
2036
2037
2038
2039
2040
2042
2042
2040
2039
2039
2039
2039
2036
2032
2034
2048
2078
2119
2154
2168
2150
2107
2055
2015
1994
1994
2005
2016
2023
2027
2029
2033
2035
2035
2034
2032
2030
2029
2031
2033
2035
2036
2036
2036
2036
2035
2034
2034
2035
2036
2038
2039
2038
2037
2037
2039
2042
2043
2043
2041
2040
2041
2043
2044
2044
2044
2045
2047
2048
2049
2049
2049
2050
2053
2055
2057
2057
2056
2053
2050
2048
2046
2043
2041
2039
2037
2036
2036
2036
2036
2035
2033
2032
2031
2032
2034
2034
2033
2031
2029
2029
2032
2035
2037
2038
2037
2034
2032
2032
2032
2032
2033
2033
2032
2031
2029
2029
2029
2031
2032
2032
2033
2034
2036
2038
