1979
1972
1965
1959
1954
1949
1945
1942
1939
1936
1934
1933
1932
1932
1933
1933
1934
1935
1936
1936
1937
1937
1938
1938
1939
1941
1943
1945
1946
1948
1949
1951
1952
1953
1954
1955
1956
1956
1956
1957
1957
1957
1958
1958
1959
1960
1961
1962
1963
1963
1963
1963
1963
1964
1965
1966
1966
1967
1967
1968
1968
1968
1968
1968
1969
1969
1969
1970
1970
1971
1971
1971
1972
1972
1973
1974
1975
1976
1977
1977
1977
1978
1978
1978
1979
1980
1982
1982
1983
1983
1983
1982
1982
1982
1983
1983
1984
1984
1985
1985
1986
1986
1987
1987
1987
1987
1987
1988
1988
1988
1989
1988
1989
1989
1990
1991
1992
1993
1993
1993
1993
1992
1993
1993
1994
1996
1997
1997
1998
1998
1998
1998
1998
1998
1998
1998
1999
1999
1999
1998
1998
1998
1999
2000
2001
2001
2002
2002
2002
2002
2002
2002
2002
2002
2002
2003
2003
2004
2003
2003
2002
2002
2002
2003
2004
2006
2007
2009
2010
2010
2010
2008
2007
2006
2006
2005
2005
2006
2006
2007
2008
2008
2008
2007
2007
2007
2006
2007
2006
2006
2005
2005
2004
2004
2004
2005
2005
2006
2006
2007
2008
2009
2011
2013
2014
2015
2016
2017
2017
2018
2018
2018
2018
2017
2017
2017
2017
2017
2016
2016
2015
2014
2014
2014
2015
2015
2016
2016
2016
2016
2015
2015
2015
2015
2016
2017
2017
2019
2020
2021
2020
2017
2012
2007
2004
2005
2014
2039
2081
2138
2189
2213
2198
2148
2083
2033
2009
2012
2025
2036
2036
2029
2022
2018
2017
2016
2016
2017
2018
2020
2021
2021
2022
2022
2022
2023
2024
2025
2026
2026
2026
2027
2027
2028
2029
2031
2032
2032
2033
2034
2034
2035
2036
2037
2038
2040
2042
2043
2045
2046
2048
2049
2051
2054
2057
2060
2064
2068
2072
2075
2078
2081
2084
2087
2090
2092
2093
2094
2094
2092
2088
2083
2077
2070
2064
2057
2050
2044
2038
2032
2027
2023
2020
2018
2017
2016
2015
2015
2014
2013
2013
2012
2012
2013
2014
2014
2015
2015
2015
2015
2015
2015
2016
2017
2017
2018
2019
2019
2019
2020
2020
2020
2020
2021
2021
2022
2022
2023
2023
2022
2022
2022
2022
2022
2022
2023
2023
2023
2023
2023
2022
2021
2021
2021
2022
2023
2023
2023
2023
2022
2022
2022
2022
2022
2023
2023
2024
2024
2024
2024
2024
2024
2024
2024
2025
2025
2025
2026
2026
2026
2025
2025
2025
2025
2026
2027
2028
2028
2028
2028
2028
2027
2027
2027
2028
2028
2029
2029
2029
2029
2029
2029
2030
2030
2031
2032
2032
2032
2032
2032
2032
2031
2031
2031
2032
2033
2034
2035
2034
2034
2034
2034
2034
2034
2035
2035
2035
2036
2036
2036
2036
2036
2037
2038
2038
2039
2039
2039
2038
2038
2038
2038
2038
2038
2039
2039
2040
2040
2041
2042
2043
2043
2044
2044
2043
2043
2043
2044
2044
2045
2046
2045
2045
2043
2042
2042
2041
2041
2040
2040
2040
2040
2040
2040
2040
2039
2039
2039
2039
2039
2038
2037
2037
2036
2035
2036
2037
2039
2041
2043
2044
2044
2044
2044
2045
2046
2048
2048
2048
2048
2046
2045
2044
2045
2046
2046
2046
2046
2045
2044
2044
2043
2043
2043
2043
2044
2045
2045
2045
2043
2043
2042
2042
2043
2044
2045
2045
2043
2038
2033
2029
2028
2034
2052
2089
2142
2196
2229
2226
2185
2122
2064
2033
2029
2043
2055
2061
2057
2049
2045
2043
2041
2040
2041
2042
2042
2043
2043
2043
2043
2044
2044
2044
2044
2044
2044
2043
2043
2043
2043
2044
2045
2045
2046
2047
2048
2048
2050
2051
2053
2054
2055
2056
2058
2060
2062
2064
2067
2070
2072
2075
2078
2081
2084
2088
2091
2095
2099
2101
2104
2106
2108
2110
2111
2112
2111
2108
2104
2098
2090
2082
2074
2066
2059
2052
2048
2043
2040
2037
2034
2031
2029
2028
2027
2026
2026
2026
2026
2026
2026
2026
2025
2024
2024
2025
2026
2027
2028
2028
2029
2028
2028
2028
2029
2029
2029
2029
2029
2028
2028
2028
2028
2028
2027
2027
2027
2027
2028
2028
2029
2028
2027
2027
2026
2027
2028
2030
2031
2031
2031
2030
2030
2030
2030
2030
2030
2030
2030
2031
2031
2031
2031
2031
2031
2032
2033
2033
2033
2032
2032
2031
2031
2032
2032
2033
2033
2034
2034
2035
2035
2035
2034
2034
2034
2035
2036
2036
2037
2036
2036
2035
2035
2035
2036
2038
2039
2040
2040
2040
2040
2040
2039
2038
2037
2037
2037
2037
2038
2038
2038
2037
2037
2036
2035
2035
2034
2035
2036
2037
2039
2039
2040
2041
2041
2042
2042
2043
2043
2043
2044
2044
2044
2044
2043
2043
2043
2043
2042
2042
2041
2041
2041
2041
2042
2043
2045
2046
2047
2047
2047
2046
2045
2045
2044
2044
2044
2044
2044
2044
2044
2044
2043
2044
2044
2045
2045
2045
2045
2044
2044
2045
2046
2047
2047
2048
2047
2046
2044
2043
2042
2041
2041
2041
2041
2040
2040
2039
2039
2039
2040
2042
2043
2044
2045
2045
2044
2044
2044
2044
2045
2044
2043
2040
2036
2034
2034
2034
2035
2035
2034
2034
2033
2033
2033
2033
2033
2033
2033
2033
2033
2033
2033
2033
2032
2031
2029
2027
2025
2022
2019
2015
2009
2002
1999
2004
2024
2062
2120
2182
2225
2231
2194
2128
2060
2017
2004
2013
2028
2036
2036
2031
2028
2028
2026
2024
2022
2021
2021
2022
2022
2023
2023
2024
2026
2027
2028
2028
2028
2028
2027
2027
2027
2027
2028
2029
2030
2031
2032
2033
2034
2035
2035
2036
2037
2038
2040
2042
2045
2047
2049
2054
2061
2071
2079
2085
2088
2090
2093
2096
2101
2107
2113
2121
2131
2143
2153
2157
2154
2144
2130
2116
2104
2094
2086
2079
2071
2063
2055
2048
2042
2036
2032
2029
2028
2028
2028
2029
2030
2029
2029
2029
2029
2027
2023
2018
2013
2011
2012
2014
2016
2016
2015
2015
2017
2021
2025
2028
2028
2028
2028
2028
2028
2027
2024
2022
2020
2019
2018
2017
2016
2014
2012
2011
2010
2010
2010
2009
2009
2009
2009
2010
2009
2009
2008
2007
2006
2005
2004
2003
2003
2003
2004
2005
2006
2006
2007
2008
2009
2010
2010
2009
2008
2006
2004
2004
2004
2007
2010
2014
2018
2020
2021
2020
2020
2020
2020
2021
2022
2022
2022
2022
2021
2021
2021
2022
2024
2025
2026
2027
2027
2027
2026
2025
2024
2024
2024
2024
2025
2026
2027
2028
2028
2028
2029
2030
2031
2032
2033
2033
2033
2032
2032
2031
2031
2032
2033
2033
2034
2034
2035
2035
2035
2035
2035
2035
2034
2032
2030
2029
2029
2029
2029
2031
2032
2033
2033
2032
2029
2024
2019
2015
2013
2013
2016
2019
2020
2021
2019
2018
2018
2020
2022
2025
2027
2027
2027
2026
2026
2026
2027
2029
2032
2035
2039
2041
2042
2043
2045
2048
2053
2058
2063
2068
2070
2071
2071
2070
2070
2071
2072
2072
2071
2067
2061
2054
2051
2055
2072
2108
2164
2223
2260
2258
2212
2140
2074
2038
2036
2055
2076
2085
2081
2071
2064
2059
2056
2055
2054
2055
2057
2059
2060
2061
2063
2065
2069
2073
2077
2077
2075
2072
2068
2066
2066
2067
2070
2073
2076
2078
2081
2083
2085
2087
2089
2090
2092
2095
2098
2102
2105
2108
2110
2112
2115
2118
2122
2126
2131
2136
2142
2149
2158
2166
2171
2173
2173
2170
2168
2165
2162
2156
2148
2139
2130
2123
2117
2111
2106
2099
2094
2088
2084
2081
2079
2078
2077
2074
2070
2064
2059
2055
2053
2052
2052
2052
2052
2052
2053
2055
2058
2062
2065
2067
2067
2067
2065
2064
2064
2064
2063
2062
2058
2052
2046
2038
2030
2026
2026
2029
2034
2040
2044
2045
2043
2041
2040
2039
2040
2041
2041
2040
2039
2038
2038
2037
2036
2035
2032
2030
2029
2028
2029
2029
2029
2029
2029
2030
2031
2031
2031
2031
2032
2032
2033
2035
2036
2037
2037
2038
2040
2040
2041
2042
2042
2042
2042
2042
2042
2042
2042
2042
2042
2042
2041
2039
2039
2040
2043
2045
2048
2048
2048
2047
2047
2047
2047
2047
2046
2045
2045
2045
2046
2047
2048
2048
2048
2050
2052
2054
2056
2058
2059
2060
2059
2060
2061
2064
2068
2071
2071
2068
2062
2056
2051
2050
2053
2068
2038
2025
2029
2064
2131
2197
2247
2195
2083
1972
1968
2099
2315
2520
2545
2414
2206
2078
2133
2390
2796
3196
3529
3742
3877
3936
3944
3927
3918
3911
3909
3908
3901
3894
3894
3900
3909
3917
3920
3919
3917
3914
3916
3916
3916
3916
3916
3916
3916
3916
3916
3916
3916
3916
3916
3916
3917
3916
3915
3914
3913
3913
3914
3915
3916
3917
3916
3916
3916
3916
3916
3916
3916
3916
3916
3916
3916
3916
3916
3916
3915
3915
3917
3921
3922
3918
3903
3881
3860
3850
3856
3874
3897
3915
3922
3921
3918
3915
3914
3915
3916
3917
3916
3916
3914
3912
3911
3912
3913
3915
3916
3917
3917
3916
3916
3916
3916
3916
3916
3916
3916
3916
3915
3914
3916
3918
3920
3921
3916
3895
3859
3806
3748
3696
3661
3656
3676
3711
3759
3800
3831
3851
3862
3869
3879
3891
3903
3915
3920
3920
3913
3894
3866
3833
3802
3780
3771
3770
3773
3773
3766
3753
3741
3733
3733
3740
3747
3758
3772
3781
3785
3772
3740
3693
3645
3612
3597
3601
3611
3627
3644
3659
3671
3668
3647
3612
3574
3548
3537
3538
3545
3546
3540
3532
3525
3520
3517
3516
3515
3515
3517
3516
3516
3511
3504
3496
3486
3479
3473
3468
3465
3460
3458
3456
3456
3454
3447
3439
3429
3420
3408
3387
3355
3331
3317
3313
3307
3280
3226
3156
3093
3056
3046
3049
3060
3067
3064
3062
3049
3025
2995
2967
2948
2938
2933
2928
2919
2908
2902
2897
2898
2907
2929
2970
3018
3055
3061
3030
2973
2915
2880
2876
2895
2918
2930
2931
2927
2924
2920
2915
2910
2910
2920
2940
2968
2994
3012
3020
3021
3022
3027
3031
3031
3024
3012
2995
2975
2958
2948
2943
2947
2954
2958
2956
2947
2935
2925
2918
2916
2914
2912
2908
2906
2903
2897
2894
2892
2895
2902
2912
2924
2935
2945
2954
2961
2966
2968
2968
2966
2963
2959
2955
2952
2948
2945
2941
2935
2927
2918
2908
2899
2890
2885
2882
2880
2876
2869
2861
2852
2842
2836
2830
2827
2824
2822
2822
2820
2820
2819
2818
2819
2816
2813
2807
2802
2797
2794
2789
2783
2776
2769
2765
2762
2761
2760
2759
2758
2758
2757
2753
2749
2742
2738
2735
2733
2732
2730
2728
2725
2721
2718
2716
2715
2715
2716
2716
2715
2712
2705
2696
2687
2680
2678
2678
2679
2680
2678
2675
2670
2666
2663
2660
2660
2658
2655
2653
2650
2649
2649
2650
2649
2648
2647
2647
2647
2647
2647
2648
2647
2647
2646
2641
2636
2629
2623
2620
2616
2585
2547
2643
2771
2838
2692
2227
1510
753
201
4061
4085
118
227
253
179
179
179
179
179
179
179
179
179
179
179
179
179
179
179
179
179
179
179
179
179
179
179
179
179
179
179
179
179
179
179
179
179
179
179
179
179
179
179
179
179
179
179
179
179
179
179
179
179
179
179
179
179
179
179
179
179
179
179
179
179
179
179
179
179
179
179
179
179
179
179
179
179
179
179
179
179
179
179
179
179
179
179
179
179
179
179
179
179
179
179
179
179
179
179
179
179
179
179
179
179
180
180
178
176
175
178
188
204
223
240
251
259
271
297
288
249
202
211
341
571
987
1509
1990
2283
2265
1908
1325
755
351
224
274
346
363
328
427
714
1086
1393
1429
1174
776
464
411
667
1066
1590
2101
2487
2629
2418
1902
1327
962
994
1399
1954
2432
2737
2817
2881
2964
3073
3161
3241
3320
3395
3467
3532
3589
3640
3682
3718
3751
3786
3823
3859
3891
3912
3921
3922
3918
3915
3914
3915
3916
3916
3916
3916
3916
3916
3916
3916
3916
3916
3916
3916
3916
3916
3916
3916
3916
3916
3916
3916
3916
3916
3916
3916
3916
3916
3916
3916
3916
3916
3916
3916
3916
3916
3916
3916
3916
3916
3916
3916
3916
3916
3916
3916
3916
3916
3916
3916
3916
3916
3916
3916
3916
3916
3916
3916
3916
3916
3916
3916
3916
3916
3916
3916
3916
3916
3916
3916
3916
3916
3916
3916
3916
3916
3916
3916
3916
3916
3916
3916
3916
3916
3916
3916
3916
3916
3916
3916
3916
3916
3916
3916
3916
3916
3916
3916
3916
3916
3916
3916
3916
3916
3916
3916
3916
3916
3916
3916
3915
3915
3916
3917
3918
3918
3913
3904
3893
3880
3869
3859
3851
3845
3837
3828
3817
3805
3792
3779
3768
3757
3747
3738
3729
3722
3715
3708
3701
3693
3686
3680
3674
3667
3657
3647
3637
3629
3622
3616
3612
3607
3602
3597
3591
3586
3580
3576
3571
3566
3562
3557
3553
3547
3540
3533
3524
3515
3504
3491
3477
3461
3445
3429
3412
3397
3382
3369
3356
3345
3335
3325
3316
3308
3299
3291
3282
3273
3264
3255
3248
3240
3234
3227
3219
3213
3206
3201
3196
3190
3183
3174
3168
3161
3156
3151
3144
3138
3132
3125
3120
3114
3107
3101
3095
3090
3085
3080
3074
3068
3064
3060
3058
3055
3050
3045
3038
3032
3025
3019
3014
3009
3003
2997
2989
2982
2976
2971
2966
2960
2951
2939
2927
2916
2906
2901
2895
2888
2881
2873
2866
2860
2854
2848
2840
2833
2825
2819
2813
2808
2804
2798
2794
2791
2787
2786
2782
2780
2775
2772
2768
2764
2764
2761
2759
2756
2752
2750
2747
2745
2743
2741
2740
2739
2738
2736
2733
2729
2726
2721
2719
2715
2713
2711
2710
2709
2706
2703
2699
2695
2692
2689
2687
2685
2683
2681
2678
2676
2673
2670
2668
2664
2660
2656
2652
2648
2643
2639
2634
2629
2625
2620
2616
2611
2605
2600
2595
2591
2587
2583
2579
2573
2566
2559
2552
2546
2541
2537
2533
2528
2524
2519
2515
2510
2505
2501
2496
2492
2489
2485
2482
2478
2475
2472
2469
2466
2463
2460
2456
2452
2450
2447
2445
2441
2438
2435
2432
2429
2426
2422
2419
2416
2414
2413
2411
2410
2408
2406
2405
2404
2403
2401
2399
2398
2396
2395
2394
2393
2391
2389
2387
2385
2383
2382
2380
2379
2378
2377
2376
2374
2373
2371
2369
2369
2367
2367
2365
2364
2362
2360
2358
2356
2355
2354
2354
2356
2356
2357
2359
2360
2362
2362
2363
2363
2363
2363
2363
2363
2362
2360
2357
2355
2353
2352
2352
2352
2351
2350
2348
2346
2346
2344
2344
2344
2343
2343
2342
2341
2340
2339
2337
2335
2334
2334
2333
2333
2331
2327
2320
2312
2307
2310
2328
2366
2420
2473
2502
2496
2453
2395
2347
2322
2321
2332
2338
2336
2327
2316
2310
2304
2300
2298
2296
2295
2294
2294
2294
2294
2293
2292
2291
2289
2288
2287
2287
2286
2284
2283
2281
2278
2277
2275
2274
2273
2273
2275
2275
2276
2275
2274
2273
2272
2272
2271
2271
2272
2272
2274
2276
2279
2282
2285
2288
2289
2291
2293
2296
2301
2305
2309
2311
2313
2313
2314
2313
2311
2308
2303
2299
2293
2288
2283
2277
2272
2266
2261
2257
2254
2250
2246
2243
2239
2237
2236
2236
2236
2236
2236
2236
2235
2234
2233
2232
2232
2231
2233
2233
2235
2236
2237
2238
2238
2239
2239
2239
2240
2240
2240
2239
2239
2241
2244
2250
2255
2260
2263
2263
2263
2263
2262
2262
2262
2263
2263
2262
2261
2260
2260
2259
2258
2257
2256
2256
2256
2256
2256
2255
2254
2253
2251
2250
2248
2247
2246
2245
2245
2244
2243
2241
2240
2239
2238
2237
2236
2235
2230
2231
2241
2252
2244
2204
2124
2021
1923
1857
1834
1844
1867
1886
1892
1887
1883
1884
1894
1920
1960
2005
2048
2079
2101
2116
2127
2136
2144
2150
2158
2166
2177
2186
2188
2182
2168
2151
2140
2140
2154
2176
2203
2227
2245
2260
2270
2278
2282
2285
2282
2271
2258
2242
2229
2221
2218
2222
2228
2233
2238
2240
2241
2231
2179
2234
2327
2396
2325
2014
1471
836
318
41
6
95
194
242
187
179
179
179
179
179
179
179
179
179
179
179
179
179
179
179
179
179
179
179
179
179
179
179
179
179
179
179
179
179
179
179
179
179
179
179
179
179
179
179
179
179
179
179
179
179
179
179
179
179
179
179
179
179
179
181
184
183
176
166
164
181
228
304
401
504
599
682
749
809
864
916
967
1018
1072
1127
1182
1246
1316
1381
1433
1464
1474
1477
1488
1517
1566
1626
1686
1741
1787
1830
1873
1913
1951
1988
2023
2057
2088
2120
2150
2182
2216
2251
2287
2322
2352
2380
2403
2425
2447
2468
2488
2503
2517
2529
2543
2568
2611
2682
2765
2836
2872
2863
2825
2785
2770
2787
2822
2855
2873
2873
2864
2871
2894
2910
2904
2859
2771
2658
2550
2471
2431
2420
2429
2446
2458
2474
2482
2480
2475
2481
2507
2552
2611
2670
2716
2748
2765
2777
2787
2802
2814
2825
2836
2844
2849
2851
2852
2851
2849
2862
2884
2902
2902
2868
2801
2722
2647
2600
2581
2585
2611
2650
2697
2748
2790
2815
2824
2827
2828
2832
2836
2839
2844
2845
2840
2827
2806
2784
2765
2752
2746
2741
2735
2724
2709
2687
2660
2629
2597
2566
2542
2525
2514
2508
2503
2501
2497
2498
2502
2508
2515
2519
2522
2522
2523
2527
2533
2540
2546
2551
2555
2561
2567
2573
2577
2581
2584
2589
2594
2599
2604
2604
2607
2612
2618
2622
2614
2593
2560
2523
2492
2468
2453
2445
2448
2461
2486
2518
2545
2564
2576
2582
2586
2585
2576
2556
2529
2501
2478
2460
2447
2435
2424
2412
2400
2389
2378
2367
2357
2345
2329
2312
2303
2307
2327
2362
2402
2443
2481
2517
2550
2576
2596
2606
2604
2597
2585
2570
2552
2537
2528
2523
2524
2525
2525
2526
2526
2529
2532
2536
2539
2540
2541
2539
2537
2534
2530
2530
2530
2532
2535
2537
2540
2542
2544
2547
2549
2551
2557
2565
2572
2571
2560
2541
2519
2504
2499
2504
2516
2531
2543
2545
2541
2531
2523
2525
2533
2543
2543
2531
2510
2492
2483
2481
2481
2479
2468
2453
2445
2439
2441
2443
2440
2427
2402
2376
2355
2350
2361
2385
2411
2428
2443
2452
2461
2469
2468
2454
2427
2393
2361
2337
2323
2315
2309
2303
2295
2289
2283
2276
2270
2261
2252
2242
2231
2221
2209
2198
2190
2183
2174
2156
2129
2093
2056
2028
2010
2003
2000
1999
1996
1991
1990
1988
1983
1977
1971
1968
1967
1969
1970
1967
1963
1957
1952
1949
1947
1946
1946
1945
1945
1944
1942
1941
1938
1937
1933
1930
1926
1923
1919
1916
1913
1909
1903
1899
1896
1898
1900
1903
1900
1881
1860
1893
1963
2001
1919
1647
1201
701
296
82
51
116
190
219
196
183
186
183
172
154
156
177
254
405
584
733
787
713
537
333
183
118
126
160
194
199
181
179
177
175
175
183
199
223
252
280
308
334
358
380
400
414
425
436
449
469
494
521
547
568
587
604
621
639
656
671
684
696
710
726
745
764
781
795
808
822
839
856
873
884
891
897
909
931
962
999
1035
1068
1097
1121
1143
1165
1186
1205
1222
1238
1250
1259
1267
1273
1280
1290
1297
1304
1307
1314
1344
1396
1453
1499
1517
1506
1486
1478
1492
1529
1569
1608
1642
1669
1703
1738
1765
1790
1814
1837
1860
1882
1904
1924
1942
1960
1975
1990
2004
2020
2041
2069
2109
2159
2216
2273
2325
2368
2400
2426
2448
2467
2488
2504
2521
2535
2549
2561
2571
2582
2593
2606
2621
2637
2653
2668
2681
2693
2703
2712
2719
2725
2731
2736
2743
2749
2754
2758
2761
2764
2768
2772
2776
2780
2783
2784
2784
2783
2782
2783
2784
2786
2788
2788
2787
2784
2781
2777
2774
2775
2780
2787
2801
2814
2825
2829
2821
2804
2781
2762
2749
2747
2751
2756
2761
2760
2759
2756
2752
2751
2751
2751
2750
2746
2740
2734
2728
2720
2706
2687
2669
2657
2658
2669
2683
2694
2699
2701
2704
2715
2732
2746
2754
2749
2736
2716
2698
2686
2680
2680
2679
2679
2677
2675
2675
2675
2674
2674
2673
2672
2670
2669
2670
2669
2665
2659
2651
2647
2647
2653
2664
2674
2681
2684
2684
2681
2679
2678
2676
2673
2670
2666
2664
2667
2677
2689
2701
2706
2699
2683
2661
2642
2630
2626
2630
2636
2639
2641
2641
2643
2650
2662
2674
2680
2677
2665
2650
2638
2631
2629
2628
2626
2624
2624
2631
2643
2657
2669
2675
2677
2674
2670
2668
2668
2673
2680
2684
2681
2669
2648
2625
2604
2593
2589
2593
2598
2601
2601
2598
2595
2591
2587
2585
2581
2579
2576
2572
2569
2564
2559
2555
2551
2548
2545
2543
2540
2538
2536
2535
2534
2534
2532
2530
2527
2524
2521
2519
2517
2514
2511
2506
2502
2499
2497
2496
2494
2490
2483
2475
2467
2464
2469
2490
2531
2584
2632
2655
2641
2593
2532
2480
2451
2447
2452
2455
2451
2442
2433
2427
2422
2418
2415
2413
2411
2409
2407
2405
2404
2401
2399
2397
2394
2392
2390
2388
2385
2382
2380
2376
2374
2372
2370
2369
2366
2364
2361
2358
2355
2353
2352
2351
2350
2349
2348
2348
2348
2348
2349
2350
2350
2350
2351
2352
2353
2355
2356
2358
2361
2364
2367
2370
2371
2372
2371
2370
2367
2364
2361
2355
2349
2342
2334
2326
2318
2311
2304
2297
2291
2285
2281
2278
2275
2273
2270
2267
2265
2264
2264
2262
2261
2259
2257
2256
2255
2254
2253
2251
2249
2247
2246
2245
2244
2244
2242
2241
2239
2237
2236
2235
2235
2235
2235
2236
2235
2234
2234
2233
2232
2230
2229
2228
2227
2226
2225
2223
2220
2217
2214
2210
2206
2203
2200
2198
2196
2195
2192
2189
2187
2185
2185
2184
2182
2181
2178
2178
2181
2189
2199
2208
2219
2229
2236
2240
2236
2224
2205
2185
2172
2165
2165
2166
2167
2165
2163
2161
2158
2156
2153
2152
2151
2150
2148
2144
2137
2133
2132
2135
2141
2145
2146
2143
2136
2131
2127
2125
2127
2130
2135
2140
2147
2152
2155
2155
2149
2142
2134
2129
2127
2129
2133
2136
2139
2143
2147
2152
2158
2164
2172
2178
2184
2187
2191
2196
2201
2203
2200
2191
2182
2177
2179
2185
2189
2187
2178
2167
2157
2154
2154
2156
2161
2162
2162
2157
2146
2131
2116
2104
2096
2092
2091
2092
2093
2095
2096
2097
2098
2098
2099
2099
2100
2100
2100
2101
2102
2102
2102
2102
2102
2100
2099
2098
2097
2096
2095
2095
2095
2095
2095
2094
2093
2093
2093
2093
2095
2098
2101
2101
2096
2083
2068
2052
2041
2034
2029
2028
2027
2027
2031
2035
2040
2044
2046
2048
2048
2049
2049
2049
2049
2050
2051
2051
2050
2049
2048
2047
2046
2047
2048
2048
2047
2045
2041
2037
2033
2030
2027
2025
2024
2022
2021
2019
2018
2017
2016
2016
2016
2015
2016
2017
2017
2016
2013
2008
2003
2002
2009
2028
2063
2117
2174
2216
2225
2199
2146
2093
2056
2046
2052
2064
2071
2069
2063
2060
2057
2056
2054
2054
2055
2055
2056
2057
2057
2058
2057
2056
2054
2050
2048
2046
2044
2042
2040
2039
2037
2035
2031
2024
2016
2008
2002
1998
2000
2005
2010
2012
2007
1998
1988
1981
1981
1985
1989
1991
1989
1985
1983
1984
1988
1991
1994
1997
1999
2002
2003
2005
2006
2007
2008
2007
2007
2005
2002
1998
1992
1986
1979
1971
1965
1958
1954
1950
1946
1943
1940
1937
1936
1935
1936
1936
1937
1938
1938
1938
1938
1938
1938
1938
1941
1944
1947
1947
1944
1940
1936
1937
1941
1946
1951
1953
1954
1953
1953
1953
1951
1951
1950
1949
1950
1950
1952
1953
1954
1955
1956
1957
1958
1959
1960
1960
1961
1961
1961
1962
1962
1963
1962
1962
1962
1962
1963
1964
1965
1965
1965
1964
1963
1961
1960
1958
1957
1957
1958
1959
1961
1961
1962
1962
1964
1964
1966
1967
1967
1969
1970
1971
1972
1973
1974
1974
1975
1976
1976
1978
1978
1979
1980
1980
1981
1981
1983
1984
1986
1987
1988
1990
1990
1991
1992
1992
1994
1995
1995
1994
1990
1986
1982
1980
1982
1985
1988
1991
1993
1993
1993
1994
1994
1995
1997
1998
2000
2001
2003
2004
2004
2005
2005
2005
2006
2006
2006
2007
2008
2008
2007
2006
2004
2003
2004
2004
2007
2008
2009
2010
2010
2012
2012
2012
2012
2012
2013
2014
2015
2017
2018
2020
2021
2022
2023
2023
2023
2024
2024
2024
2023
2021
2020
2019
2021
2023
2027
2030
2031
2032
2031
2032
2032
2032
2032
2030
2028
2025
2024
2025
2025
2023
2018
2010
2002
1995
1991
1987
1980
1972
1963
1959
1960
1965
1971
1916
1934
2016
2117
2152
1999
1604
1038
488
124
4
55
156
232
218
179
179
179
179
179
179
179
179
179
179
179
179
179
179
179
179
179
179
179
179
179
179
179
179
179
179
179
179
179
179
179
179
179
179
179
179
179
179
179
179
179
179
179
179
179
179
179
179
179
179
179
179
179
179
179
179
179
179
179
179
179
179
179
179
179
179
179
179
179
179
179
179
179
179
179
179
179
179
179
179
179
179
179
179
179
179
179
179
179
179
179
179
179
179
179
179
179
179
179
179
179
179
179
179
179
179
179
179
179
179
179
179
179
179
179
179
179
179
179
179
179
179
179
179
179
179
179
179
179
179
179
179
179
179
179
179
179
179
179
179
179
179
179
179
179
179
179
179
179
179
179
179
179
179
179
179
179
180
180
178
177
176
180
188
202
219
238
255
271
286
300
315
329
344
359
374
390
405
420
435
450
464
478
491
504
518
531
545
558
571
584
596
608
620
632
644
655
666
677
688
699
710
722
733
744
755
766
777
788
799
809
819
829
838
848
858
868
878
888
898
907
917
926
935
945
953
962
972
981
990
999
1008
1017
1025
1033
1041
1050
1059
1068
1076
1085
1093
1101
1108
1121
1142
1141
1124
1099
1105
1185
1367
1633
1932
2205
2418
2569
2678
2770
2873
2963
3050
3130
3202
3267
3326
3381
3433
3484
3534
3582
3630
3674
3717
3757
3796
3834
3868
3895
3912
3920
3920
3918
3915
3915
3915
3916
3916
3916
3916
3916
3916
3916
3916
3916
3916
3916
3916
3916
3916
3916
3916
3916
3916
3916
3916
3916
3916
3916
3916
3916
3916
3916
3916
3916
3916
3916
3916
3916
3916
3916
3916
3916
3916
3916
3916
3916
3916
3916
3916
3916
3916
3916
3916
3916
3916
3916
3916
3916
3916
3916
3916
3916
3916
3916
3916
3916
3916
3916
3916
3916
3916
3916
3916
3916
3916
3916
3916
3916
3916
3916
3916
3916
3916
3916
3916
3916
3916
3916
3916
3916
3916
3916
3916
3916
3916
3916
3916
3916
3916
3916
3916
3916
3916
3916
3916
3916
3916
3916
3916
3916
3916
3916
3916
3916
3916
3916
3916
3916
3916
3916
3916
3916
3916
3917
3916
3915
3913
3911
3908
3904
3897
3889
3878
3865
3852
3838
3824
3809
3795
3780
3766
3752
3739
3726
3714
3703
3692
3681
3670
3657
3651
3649
3647
3635
3606
3559
3503
3452
3419
3405
3402
3405
3404
3398
3392
3386
3380
3373
3368
3362
3356
3350
3344
3339
3331
3324
3316
3310
3309
3312
3319
3326
3332
3335
3331
3343
3365
3385
3372
3297
3152
2964
2786
2665
2619
2632
2672
2708
2721
2728
2731
2735
2739
2744
2748
2752
2755
2757
2759
2761
2765
2769
2772
2774
2774
2775
2775
2775
2774
2773
2773
2772
2772
2772
2772
2771
2771
2770
2771
2771
2771
2770
2768
2766
2764
2763
2761
2760
2760
2759
2758
2756
2753
2752
2750
2748
2746
2744
2743
2743
2745
2748
2750
2752
2753
2754
2754
2755
2757
2756
2756
2754
2752
2751
2749
2749
2747
2746
2744
2742
2740
2738
2736
2732
2728
2725
2721
2717
2713
2708
2702
2697
2693
2690
2689
2687
2686
2683
2682
2681
2679
2678
2676
2675
2674
2674
2673
2673
2672
2671
2670
2667
2663
2660
2657
2656
2654
2653
2651
2648
2645
2641
2636
2631
2626
2624
2624
2625
2626
2627
2625
2623
2620
2617
2615
2613
2611
2609
2607
2604
2601
2596
2591
2587
2585
2583
2582
2578
2572
2564
2555
2548
2541
2536
2529
2519
2506
2492
2480
2471
2465
2462
2459
2456
2451
2446
2441
2436
2432
2428
2426
2423
2419
2416
2411
2407
2402
2396
2389
2381
2373
2369
2372
2387
2419
2466
2512
2539
2533
2493
2434
2380
2349
2344
2354
2364
2367
2360
2350
2339
2331
2322
2315
2312
2310
2310
2309
2308
2307
2305
2304
2301
2296
2291
2285
2279
2274
2269
2266
2264
2261
2259
2254
2250
2246
2245
2244
2243
2240
2236
2231
2228
2228
2228
2226
2225
2226
2233
2247
2265
2283
2294
2301
2303
2304
2306
2311
2317
2325
2333
2340
2345
2348
2352
2356
2358
2359
2355
2347
2333
2318
2302
2288
2280
2274
2271
2266
2260
2253
2242
2232
2222
2215
2208
2199
2188
2174
2160
2153
2153
2163
2177
2192
2201
2202
2198
2190
2182
2179
2181
2187
2194
2198
2201
2202
2205
2210
2217
2224
2230
2226
2189
2214
2306
2393
2372
2129
1641
1013
445
98
1
66
170
234
211
179
179
179
179
179
179
179
179
179
179
179
179
179
179
179
179
179
179
179
179
179
179
179
179
179
179
179
179
179
179
179
179
179
179
179
179
179
179
179
179
179
179
179
179
179
179
179
179
179
179
179
179
179
179
179
179
179
179
179
179
179
179
179
179
179
179
179
179
179
179
179
179
179
179
179
179
179
179
179
179
179
179
179
179
179
179
179
179
179
179
179
179
179
179
179
179
179
179
179
179
179
179
179
179
179
179
179
179
179
179
179
179
179
179
179
179
179
179
179
179
179
179
179
179
179
179
179
179
179
179
179
179
179
179
179
179
179
179
179
179
179
180
181
180
178
174
173
179
200
238
298
369
432
466
462
426
381
351
350
374
408
435
452
460
466
475
487
499
512
526
540
555
570
584
597
610
623
637
652
666
680
693
706
718
731
742
754
765
775
786
796
808
821
834
847
861
875
890
905
920
933
943
952
961
969
979
990
1003
1015
1029
1044
1057
1069
1080
1091
1102
1113
1124
1134
1143
1153
1161
1168
1173
1196
1196
1165
1119
1096
1154
1334
1627
1967
2272
2497
2646
2758
2870
3016
3162
3291
3400
3490
3565
3635
3705
3772
3831
3873
3899
3910
3926
3949
3957
3923
3812
3610
3352
3083
2842
2642
2472
2289
2077
1850
1658
1534
1496
1528
1578
1592
1547
1448
1320
1198
1109
1053
1023
1020
1039
1062
1081
1088
1075
1050
1024
1021
1030
1011
969
933
969
1145
1472
1887
2289
2601
2800
2914
2985
3046
3115
3156
3190
3231
3283
3341
3400
3454
3501
3542
3578
3611
3643
3676
3717
3766
3817
3863
3897
3916
3922
3921
3917
3915
3914
3915
3916
3916
3916
3916
3916
3916
3916
3916
3917
3916
3914
3913
3907
3899
3886
3866
3842
3813
3787
3765
3752
3739
3721
3699
3672
3643
3614
3587
3552
3510
3465
3423
3394
3384
3393
3408
3418
3415
3401
3375
3350
3332
3318
3303
3295
3277
3253
3205
3157
3109
3063
3040
3023
3011
2978
2911
2804
2670
2534
2421
2379
2399
2480
2565
2598
2619
2635
2670
2705
2689
2571
2360
2095
1840
1659
1551
1494
1451
1369
1272
1181
1132
1154
1205
1208
1097
858
549
283
129
96
135
182
200
193
179
179
179
180
180
179
178
176
177
183
193
209
226
243
260
276
292
308
324
339
355
372
388
402
413
422
429
438
450
471
506
558
627
695
741
750
721
670
626
607
618
644
671
687
695
699
707
717
728
740
753
765
778
791
804
818
831
844
857
869
881
892
904
915
930
951
953
942
932
955
1046
1215
1440
1669
1859
1992
2076
2138
2197
2267
2328
2382
2414
2439
2529
2650
2744
2718
2496
2092
1622
1236
1030
997
1058
1132
1164
1142
1145
1155
1166
1174
1180
1184
1186
1187
1186
1186
1186
1185
1186
1187
1188
1190
1192
1194
1198
1202
1208
1215
1224
1234
1243
1250
1255
1259
1262
1267
1272
1279
1286
1293
1300
1306
1312
1318
1324
1331
1352
1358
1344
1319
1309
1357
1489
1698
1941
2160
2322
2426
2494
2555
2616
2661
2696
2744
2824
2952
3105
3246
3441
3628
3742
3679
3356
2805
2148
1588
1257
1166
1214
1294
1338
1303
1292
1291
1294
1311
1315
1299
1260
1261
1332
1504
1733
1928
2001
1920
1734
1531
1387
1334
1343
1381
1385
1372
1346
1348
1413
1561
1779
2019
2231
2388
2494
2567
2627
2697
2760
2814
2864
2910
2951
2989
3025
3059
3091
3119
3143
3162
3179
3194
3211
3229
3247
3264
3280
3295
3309
3322
3334
3349
3363
3364
3355
3347
3365
3432
3549
3694
3825
3912
3945
3940
3921
3910
3911
3913
3916
3916
3916
3916
3916
3916
3916
3916
3916
3916
3916
3916
3916
3916
3916
3916
3916
3916
3916
3916
3916
3916
3916
3916
3916
3916
3916
3916
3916
3916
3916
3916
3916
3916
3916
3916
3916
3916
3916
3916
3916
3916
3916
3916
3916
3916
3916
3916
3916
3916
3916
3916
3916
3916
3916
3916
3916
3916
3916
3916
3916
3916
3916
3916
3916
3916
3916
3916
3916
3916
3916
3916
3916
3916
3916
3916
3916
3916
3916
3916
3916
3916
3916
3916
3916
3916
3916
3916
3916
3916
3916
3916
3916
3916
3916
3916
3916
3916
3916
3915
3915
3917
3918
3918
3916
3910
3903
3896
3889
3884
3879
3871
3859
3839
3811
3783
3757
3739
3728
3722
3717
3712
3702
3692
3683
3676
3673
3673
3673
3675
3672
3665
3652
3634
3610
3586
3563
3547
3538
3530
3516
3487
3440
3390
3339
3314
3269
3182
3035
2800
2494
2168
1836
1502
1169
843
549
322
176
135
144
166
191
195
183
179
179
179
179
179
179
179
179
179
179
179
179
179
179
179
179
179
179
179
179
179
179
179
179
179
179
179
179
179
179
179
179
179
179
179
179
179
179
179
179
179
179
179
182
198
193
166
129
116
177
344
605
910
1195
1421
1586
1710
1816
1935
2044
2143
2236
2323
2403
2479
2549
2616
2680
2739
2796
2850
2900
2949
2994
3037
3077
3116
3153
3188
3220
3249
3276
3303
3334
3370
3410
3451
3488
3519
3550
3584
3619
3655
3686
3710
3729
3749
3774
3804
3835
3861
3877
3885
3889
3893
3898
3905
3911
3915
3917
3917
3916
3916
3916
3916
3916
3916
3916
3916
3916
3916
3917
3917
3916
3914
3909
3903
3896
3890
3885
3881
3877
3873
3868
3862
3855
3845
3835
3825
3817
3808
3797
3780
3751
3714
3675
3640
3618
3608
3602
3591
3566
3533
3490
3443
3394
3340
3271
3187
3095
3005
2929
2884
2867
2868
2852
2801
2695
2544
2382
2248
2163
2128
2126
2137
2140
2140
2137
2143
2150
2162
2174
2184
2192
2200
2209
2217
2227
2235
2244
2252
2257
2263
2267
2273
2279
2286
2293
2300
2306
2312
2318
2323
2328
2334
2338
2343
2347
2352
2356
2358
2361
2371
2385
2380
2350
2300
2251
2237
2281
2375
2485
2575
2623
2636
2634
2644
2687
2750
2830
2905
2952
2959
2930
2885
2848
2833
2838
2854
2866
2873
2875
2879
2886
2894
2900
2904
2907
2908
2911
2915
2923
2933
2945
2957
2966
2972
2976
2979
2981
2984
2989
2996
3004
3012
3018
3019
3018
3015
3014
3014
3014
3011
3005
2997
2989
2981
2975
2971
2966
2959
2951
2944
2938
2934
2934
2934
2934
2933
2932
2931
2930
2929
2926
2926
2928
2930
2930
2922
2905
2884
2865
2854
2849
2848
2844
2837
2824
2812
2802
2794
2789
2789
2790
2795
2802
2809
2814
2813
2805
2793
2779
2768
2761
2759
2760
2761
2762
2759
2757
2754
2750
2747
2741
2734
2725
2717
2710
2706
2704
2703
2702
2703
2705
2709
2710
2709
2706
2701
2698
2697
2698
2702
2709
2717
2722
2721
2715
2707
2701
2702
2709
2717
2724
2728
2727
2724
2720
2716
2714
2712
2712
2713
2714
2713
2709
2703
2696
2689
2684
2680
2675
2670
2664
2656
2651
2647
2642
2637
2631
2627
2624
2625
2627
2630
2630
2628
2624
2615
2603
2589
2576
2570
2569
2574
2581
2585
2586
2584
2580
2576
2574
2574
2572
2570
2567
2563
2560
2558
2559
2560
2559
2557
2552
2545
2538
2530
2521
2512
2502
2492
2479
2461
2446
2436
2430
2418
2399
2364
2311
2256
2196
2138
2091
2089
2083
2008
1800
1437
974
523
209
77
80
147
199
208
187
179
179
179
179
179
179
179
179
179
179
179
179
179
179
179
179
181
184
183
177
166
162
178
226
313
429
555
680
792
893
993
1090
1224
1384
1502
1513
1360
1046
659
322
123
74
116
175
209
201
179
179
179
179
179
179
179
179
179
179
179
179
179
179
179
179
179
179
179
179
179
179
179
179
179
179
179
179
179
179
179
179
179
179
179
179
179
179
179
179
179
179
179
179
186
196
188
160
130
130
203
369
611
880
1122
1307
1441
1542
1627
1673
1849
2060
2241
2253
1979
1438
793
275
15
4094
101
204
254
179
179
182
205
195
158
110
99
189
410
741
1105
1424
1652
1799
1901
1989
2102
2201
2286
2361
2426
2486
2543
2597
2649
2696
2742
2784
2825
2866
2904
2939
2971
3000
3027
3052
3076
3099
3122
3145
3167
3187
3207
3226
3245
3263
3280
3296
3311
3325
3337
3349
3360
3370
3380
3389
3396
3402
3408
3413
3420
3427
3434
3441
3447
3452
3456
3461
3466
3471
3476
3481
3485
3488
3490
3490
3490
3489
3488
3487
3485
3483
3480
3477
3474
3471
3469
3468
3466
3465
3463
3461
3458
3454
3450
3447
3444
3440
3437
3434
3430
3427
3423
3419
3416
3413
3411
3410
3408
3406
3402
3399
3395
3391
3387
3384
3381
3378
3374
3371
3366
3362
3357
3352
3349
3345
3342
3339
3335
3331
3328
3325
3322
3319
3317
3315
3313
3309
3305
3299
3293
3288
3283
3279
3275
3271
3266
3263
3260
3258
3256
3253
3250
3245
3240
3235
3230
3225
3219
3214
3208
3202
3196
3190
3185
3181
3178
3175
3172
3169
3164
3161
3157
3152
3149
3144
3140
3135
3130
3125
3119
3114
3109
3104
3099
3094
3090
3086
3081
3077
3073
3068
3063
3058
3054
3049
3045
3040
3035
3031
3026
3022
3018
3014
3010
3007
3005
3003
3000
2997
2989
2979
2968
2959
2957
2967
2997
3046
3100
3137
3141
3105
3043
2980
2939
2925
2931
2940
2942
2936
2924
2915
2909
2904
2899
2895
2892
2889
2887
2884
2880
2876
2873
2869
2866
2863
2859
2856
2853
2851
2849
2846
2843
2840
2837
2835
2833
2833
2831
2830
2828
2827
2825
2823
2822
2821
2820
2818
2817
2815
2813
2813
2813
2811
2809
2805
2801
2799
2799
2801
2801
2800
2798
2796
2796
2798
2800
2801
2799
2796
2790
2783
2774
2764
2754
2744
2734
2725
2716
2708
2698
2685
2673
2660
2647
2605
2530
2423
2294
2162
2025
1900
1779
1640
1467
1266
1052
843
659
502
375
287
242
240
254
273
278
252
207
172
163
177
190
198
197
190
183
178
176
177
179
181
179
179
179
179
179
179
179
179
179
179
179
179
179
179
182
187
182
169
147
138
197
314
456
562
572
481
334
203
135
133
159
186
196
179
179
179
179
179
179
179
179
179
179
179
179
179
179
179
179
189
189
152
140
156
220
316
398
419
364
268
182
143
143
170
195
179
179
179
179
179
179
179
179
179
179
179
195
168
161
164
187
230
271
286
265
223
182
162
162
170
194
179
179
179
179
179
179
179
179
179
179
179
179
179
194
210
184
130
82
110
278
595
1000
1389
1684
1865
1965
2032
2104
2200
2275
2342
2404
2463
2518
2571
2619
2665
2709
2751
2792
2831
2868
2902
2929
2950
2966
2979
3004
3026
3013
3005
2969
2850
2594
2167
1600
996
496
198
104
135
207
254
243
231
237
246
257
268
280
291
303
314
327
341
355
369
382
396
410
423
434
443
450
457
467
483
510
553
615
685
740
764
747
701
651
621
619
639
664
682
692
695
702
712
722
732
743
754
765
776
788
799
811
823
835
846
857
868
879
888
897
909
922
934
940
938
929
917
911
912
919
929
944
964
989
1022
1054
1078
1093
1101
1108
1117
1130
1144
1157
1168
1179
1189
1200
1212
1224
1235
1245
1255
1264
1273
1281
1289
1295
1300
1303
1306
1307
1308
1307
1306
1306
1305
1305
1305
1305
1306
1307
1310
1316
1323
1330
1336
1341
1345
1349
1353
1357
1362
1367
1373
1380
1389
1412
1410
1389
1361
1362
1433
1595
1830
2083
2302
2465
2558
2603
2636
2703
2798
2936
3103
3266
3398
3493
3560
3617
3684
3754
3807
3835
3845
3848
3854
3870
3893
3913
3923
3924
3919
3912
3914
3916
3916
3916
3916
3916
3916
3916
3916
3916
3916
3916
3916
3916
3916
3916
3916
3916
3916
3916
3916
3916
3916
3916
3916
3916
3916
3916
3916
3916
3916
3916
3916
3916
3916
3916
3916
3916
3916
3916
3916
3916
3916
3916
3916
3916
3916
3916
3916
3916
3916
3916
3916
3916
3916
3916
3916
3916
3916
3916
3916
3916
3916
3916
3916
3916
3916
3916
3916
3916
3916
3916
3916
3916
3916
3916
3916
3916
3916
3916
3916
3916
3916
3916
3916
3916
3916
3916
3916
3916
3916
3916
3916
3916
3916
3916
3916
3916
3917
3917
3918
3916
3910
3902
3892
3883
3875
3868
3861
3852
3841
3828
3817
3807
3799
3791
3782
3771
3758
3744
3730
3715
3704
3701
3712
3743
3786
3824
3833
3803
3740
3670
3623
3611
3629
3658
3678
3687
3683
3671
3653
3624
3587
3552
3528
3519
3524
3533
3541
3541
3536
3529
3519
3506
3490
3472
3454
3439
3430
3425
3423
3423
3423
3422
3420
3417
3412
3405
3399
3395
3392
3389
3385
3378
3370
3362
3354
3349
3344
3339
3334
3330
3326
3324
3323
3322
3319
3322
3325
3327
3322
3306
3282
3256
3239
3236
3244
3253
3257
3253
3237
3221
3215
3209
3196
3171
3130
3078
3049
3045
3057
3065
3043
2986
2906
2827
2777
2751
2741
2735
2728
2713
2711
2724
2741
2767
2791
2809
2818
2822
2825
2830
2838
2843
2847
2850
2850
2849
2849
2849
2850
2851
2852
2852
2851
2851
2850
2849
2849
2849
2849
2848
2846
2844
2841
2840
2838
2839
2840
2838
2833
2826
2817
2807
2797
2788
2778
2770
2764
2763
2769
2778
2787
2786
2774
2754
2732
2718
2714
2718
2724
2729
2729
2727
2728
2729
2725
2715
2699
2680
2662
2650
2641
2646
2656
2663
2655
2625
2572
2511
2456
2437
2445
2464
2466
2434
2364
2286
2223
2190
2186
2200
2217
2229
2228
2233
2237
2241
2245
2247
2248
2247
2250
2259
2275
2295
2313
2325
2333
2340
2345
2345
2336
2317
2294
2276
2269
2276
2290
2304
2316
2324
2329
2340
2354
2364
2366
2354
2332
2310
2299
2307
2328
2348
2352
2355
2353
2354
2347
2315
2253
2175
2103
2063
2063
2089
2114
2122
2099
2063
2018
1988
1983
1994
2004
1991
1942
1867
1798
1758
1750
1770
1789
1808
1823
1857
1921
2001
2071
2106
2093
2039
1970
1917
1901
1927
1971
2015
2046
2057
2061
2068
2077
2081
2072
2051
2025
2003
1993
1996
2007
2018
2027
2029
2032
2035
2039
2043
2047
2050
2053
2055
2055
2055
2062
2072
2079
2075
2053
2017
1978
1949
1938
1943
1954
1965
1972
1976
1982
1988
1993
1998
2003
2007
2012
2018
2024
2029
2033
2037
2044
2054
2070
2089
2107
2123
2133
2138
2140
2140
2140
2139
2139
2138
2136
2131
2123
2113
2103
2093
2086
2080
2079
2081
2086
2092
2094
2095
2093
2090
2086
2083
2082
2082
2087
2097
2107
2115
2121
2122
2118
2108
2092
2073
2057
2048
2047
2051
2059
2070
2081
2093
2107
2119
2128
2133
2137
2141
2146
2151
2155
2157
2159
2160
2160
2160
2160
2159
2159
2159
2161
2162
2163
2163
2164
2165
2165
2166
2167
2168
2169
2170
2171
2172
2173
2173
2174
2175
2176
2177
2178
2178
2179
2179
2180
2181
2182
2183
2184
2184
2184
2184
2184
2184
2185
2185
2186
2187
2187
2184
2182
2187
2195
2197
2181
2143
2086
2028
1983
1961
1958
1962
1966
1964
1957
1954
1952
1954
1957
1962
1968
1973
1976
1979
1982
1986
1989
1992
1995
1998
2001
2004
2008
2011
2012
2012
2014
2019
2028
2041
2055
2066
2075
2080
2084
2088
2092
2095
2099
2102
2106
2109
2113
2116
2119
2122
2126
2130
2133
2135
2137
2138
2138
2138
2137
2137
2136
2136
2136
2135
2134
2132
2131
2131
2131
2132
2133
2134
2134
2134
2134
2134
2134
2134
2134
2133
2132
2132
2132
2131
2131
2130
2129
2128
2128
2129
2129
2128
2126
2122
2117
2113
2112
2120
2142
2183
2239
2292
2317
2302
2251
2184
2131
2107
2111
2128
2139
2141
2134
2125
2122
2121
2120
2119
2117
2117
2117
2118
2120
2121
2123
2122
2122
2120
2118
2117
2117
2117
2118
2119
2120
2121
2122
2122
2123
2123
2122
2121
2120
2119
2120
2121
2123
2125
2127
2130
2133
2138
2141
2146
2151
2156
2160
2160
2159
2155
2150
2147
2144
2141
2140
2141
2145
2152
2159
2164
2166
2164
2161
2154
2146
2137
2129
2121
2114
2107
2102
2099
2097
2093
2087
2076
2062
2048
2038
2033
2033
2035
2038
2038
2039
2039
2040
2042
2043
2044
2046
2047
2048
2050
2052
2053
2056
2058
2062
2065
2068
2070
2072
2074
2076
2078
2078
2074
2070
2069
2072
2078
2084
2086
2084
2078
2073
2071
2071
2073
2075
2078
2083
2089
2096
2100
2103
2104
2105
2107
2108
2110
2111
2112
2114
2116
2118
2119
2120
2122
2123
2125
2126
2127
2128
2128
2128
2127
2127
2127
2127
2127
2128
2128
2129
2129
2129
2129
2130
2130
2130
2130
2129
2129
2129
2128
2127
2126
2126
2126
2127
2127
2128
2128
2128
2128
2128
2128
2126
2125
2124
2125
2127
2128
2128
2124
2119
2114
2111
2110
2111
2113
2113
2111
2109
2107
2106
2106
2105
2105
2105
2104
2104
2104
2104
2104
2104
2103
2103
2103
2104
2104
2105
2104
2104
2103
2103
2103
2101
2096
2093
2094
2105
2127
2155
2183
2205
2219
2228
2234
2241
2249
2256
2261
2265
2268
2272
2276
2279
2281
2282
2282
2281
2280
2278
2277
2276
2276
2277
2278
2279
2281
2281
2281
2282
2282
2280
2279
2286
2296
2298
2280
2235
2167
2096
2044
2020
2021
2035
2048
2054
2052
2052
2050
2048
2045
2045
2051
2072
2113
2171
2232
2272
2274
2237
2176
2120
2088
2085
2099
2113
2119
2117
2110
2107
2105
2104
2104
2104
2106
2108
2112
2117
2121
2125
2127
2131
2134
2136
2138
2140
2141
2144
2146
2150
2152
2154
2155
2156
2158
2160
2162
2165
2167
2171
2174
2177
2180
2183
2186
2187
2188
2188
2188
2190
2196
2204
2212
2215
2213
2206
2201
2200
2206
2216
2226
2232
2233
2231
2231
2231
2231
2229
2221
2209
2194
2180
2170
2163
2159
2154
2150
2146
2143
2142
2141
2141
2141
2140
2139
2138
2137
2138
2135
2133
2130
2131
2137
2149
2161
2170
2175
2174
2171
2169
2168
2167
2165
2161
2158
2157
2157
2161
2168
2178
2189
2196
2193
2181
2164
2149
2139
2132
2122
2106
2085
2066
2056
2054
2061
2069
2076
2079
2082
2087
2094
2102
2110
2117
2123
2127
2135
2144
2157
2170
2181
2189
2196
2203
2212
2219
2222
2218
2211
2206
2206
2213
2223
2233
2241
2245
2248
2251
2255
2259
2261
2265
2267
2269
2271
2272
2275
2277
2279
2281
2282
2283
2284
2286
2288
2289
2290
2291
2292
2292
2298
2305
2313
2314
2304
2280
2248
2217
2195
2187
2188
2196
2206
2212
2217
2220
2223
2229
2238
2251
2264
2275
2281
2283
2284
2284
2286
2289
2292
2294
2295
2295
2295
2296
2298
2301
2303
2306
2307
2307
2308
2308
2309
2309
2309
2309
2310
2310
2311
2311
2311
2310
2309
2309
2309
2308
2309
2309
2310
2310
2310
2309
2308
2306
2305
2305
2306
2306
2303
2295
2281
2260
2236
2210
2188
2172
2167
2171
2183
2198
2209
2215
2217
2220
2227
2235
2247
2256
2263
2267
2268
2269
2269
2268
2269
2271
2276
2281
2285
2285
2283
2278
2275
2273
2273
2275
2276
2277
2276
2275
2275
2278
2282
2287
2291
2293
2297
2303
2311
2311
2297
2263
2213
2160
2119
2097
2094
2105
2126
2158
2205
2264
2320
2350
2343
2304
2252
2214
2205
2224
2252
2273
2282
2278
2271
2266
2263
2260
2255
2252
2252
2254
2259
2264
2268
2270
2273
2279
2288
2297
2305
2311
2315
2316
2318
2319
2321
2324
2326
2328
2329
2330
2331
2331
2332
2332
2334
2336
2338
2340
2341
2342
2343
2343
2343
2343
2341
2338
2333
2330
2330
2333
2339
2345
2350
2353
2356
2358
2361
2364
2365
2366
2364
2360
2355
2349
2342
2334
2326
2317
2309
2301
2294
2288
2283
2278
2275
2272
2270
2269
2268
2267
2266
2265
2265
2264
2265
2264
2262
2259
2253
2248
2242
2237
2234
2231
2227
2221
2212
2200
2188
2177
2168
2163
2161
2161
2163
2165
2167
2167
2167
2167
2167
2169
2171
2173
2176
2178
2179
2181
2182
2183
2183
2183
2183
2183
2183
2184
2185
2186
2187
2188
2188
2189
2189
2189
2189
2189
2190
2192
2193
2195
2196
2196
2197
2197
2197
2197
2196
2197
2197
2196
2196
2196
2196
2195
2196
2196
2196
2197
2197
2197
2197
2197
2196
2196
2196
2196
2196
2197
2197
2197
2197
2197
2197
2197
2197
2197
2197
2197
2197
2197
2197
2196
2196
2195
2196
2196
2195
2195
2195
2194
2194
2193
2193
2193
2193
2193
2192
2192
2191
2191
2191
2191
2191
2191
2191
2191
2191
2192
2192
2191
2191
2190
2190
2190
2190
2190
2189
2186
2180
2181
2185
2189
2186
2170
2138
2100
2067
2048
2044
2048
2054
2059
2060
2063
2068
2074
2082
2093
2104
2114
2121
2126
2129
2131
2133
2136
2138
2140
2142
2143
2144
2144
2145
2148
2152
2157
2161
2164
2164
2164
2164
2164
2165
2165
2166
2166
2165
2163
2158
2153
2148
2144
2144
2146
2150
2154
2157
2159
2160
2163
2165
2167
2169
2171
2172
2171
2171
2172
2172
2171
2169
2166
2162
2158
2156
2154
2149
2142
2131
2120
2112
2110
2120
2145
2189
2243
2286
2298
2272
2216
2152
2104
2080
2075
2075
2070
2058
2044
2031
2025
2018
2011
2007
2004
2006
2011
2019
2028
2036
2042
2047
2048
2050
2052
2053
2055
2058
2064
2070
2077
2083
2087
2091
2093
2096
2098
2101
2104
2105
2105
2104
2102
2101
2102
2104
2106
2108
2109
2110
2112
2116
2123
2132
2141
2151
2156
2162
2172
2183
2190
2186
2165
2128
2082
2069
2082
2101
2090
2017
1878
1709
1569
1489
1470
1487
1511
1525
1518
1521
1528
1532
1532
1527
1519
1513
1512
1516
1522
1526
1531
1536
1540
1538
1521
1487
1441
1395
1361
1343
1338
1340
1344
1346
1349
1355
1363
1371
1378
1385
1392
1397
1403
1409
1416
1423
1431
1437
1444
1450
1457
1465
1472
1480
1487
1495
1502
1508
1515
1522
1530
1536
1543
1549
1553
1559
1565
1572
1578
1585
1592
1598
1604
1609
1614
1620
1625
1629
1633
1637
1640
1645
1651
1658
1664
1670
1673
1676
1678
1680
1685
1690
1695
1701
1706
1711
1715
1720
1725
1731
1739
1745
1751
1756
1759
1763
1766
1770
1774
1777
1781
1785
1789
1793
1797
1801
1804
1808
1812
1815
1819
1822
1825
1830
1833
1837
1840
1842
1844
1846
1849
1852
1855
1857
1857
1858
1859
1861
1865
1869
1872
1874
1875
1875
1875
1877
1879
1883
1887
1891
1894
1896
1898
1901
1903
1907
1911
1915
1919
1921
1924
1927
1929
1933
1936
1939
1941
1944
1947
1950
1955
1961
1966
1972
1976
1980
1984
1987
1990
1994
1996
1998
1999
2000
2001
2003
2007
2012
2017
2022
2026
2029
2032
2035
2037
2040
2043
2045
2047
2047
2048
2047
2045
2042
2040
2039
2040
2042
2044
2046
2048
2049
2051
2053
2055
2056
2057
2058
2060
2062
2064
2065
2064
2061
2061
2063
2065
2065
2060
2048
2032
2016
2003
1995
1990
1991
2000
2024
2058
2086
2087
2055
1996
1931
1886
1872
1883
1902
1915
1917
1910
1904
1900
1899
1898
1899
1900
1901
1904
1906
1909
1912
1915
1918
1921
1924
1926
1928
1931
1932
1935
1937
1939
1942
1944
1946
1948
1951
1954
1957
1959
1959
1958
1957
1958
1961
1966
1972
1978
1983
1987
1992
1997
2002
2007
2013
2018
2024
2031
2036
2042
2048
2053
2059
2064
2068
2072
2075
2077
2077
2076
2072
2066
2059
2051
2044
2037
2031
2026
2021
2017
2014
2011
2010
2010
2011
2012
2013
2014
2014
2015
2015
2015
2016
2017
2018
2019
2021
2023
2025
2026
2028
2029
2031
2033
2035
2037
2038
2039
2038
2039
2038
2038
2037
2036
2035
2035
2035
2037
2038
2040
2041
2042
2043
2044
2046
2048
2049
2050
2048
2045
2040
2035
2033
2032
2033
2035
2036
2036
2037
2037
2038
2039
2039
2040
2041
2042
2043
2044
2044
2045
2045
2045
2046
2048
2049
2051
2052
2053
2053
2054
2054
2056
2057
2058
2060
2061
2062
2064
2066
2069
2070
2071
2072
2071
2072
2074
2076
2078
2078
2078
2075
2069
2064
2061
2066
2082
2107
2135
2160
2181
2196
2207
2217
2225
2230
2231
2232
2235
2240
2246
2250
2253
2254
2255
2258
2262
2266
2270
2273
2275
2278
2281
2285
2290
2296
2300
2304
2309
2316
2326
2338
2348
2356
2359
2361
2362
2363
2365
2368
2371
2374
2375
2370
2360
2345
2328
2313
2304
2302
2306
2315
2325
2335
2342
2346
2345
2344
2345
2345
2340
2326
2305
2280
2259
2248
2245
2248
2252
2253
2252
2251
2251
2253
2254
2255
2257
2258
2259
2260
2261
2261
2261
2262
2264
2266
2265
2261
2253
2242
2234
2230
2229
2229
2227
2222
2214
2207
2202
2207
2224
2258
2310
2362
2393
2389
2346
2283
2228
2198
2195
2211
2224
2227
2217
2199
2181
2164
2145
2124
2101
2075
2050
2029
2010
1998
1992
1988
1989
1991
1994
1996
1998
2000
2003
2008
2011
2014
2016
2015
2017
2022
2027
2031
2027
2015
2000
1987
1981
1984
1990
1995
1999
1999
2002
2006
2010
2012
2014
2016
2020
2027
2036
2044
2051
2058
2063
2067
2071
2077
2084
2094
2104
2114
2121
2124
2125
2123
2121
2118
2116
2112
2105
2096
2085
2075
2068
2066
2069
2073
2077
2078
2077
2079
2085
2100
2120
2144
2168
2189
2206
2219
2230
2241
2251
2261
2271
2281
2289
2296
2302
2306
2309
2308
2301
2293
2286
2282
2277
2265
2244
2215
2186
2165
2154
2147
2142
2133
2124
2118
2118
2120
2122
2123
2124
2126
2130
2133
2136
2136
2136
2136
2137
2139
2142
2145
2146
2145
2145
2144
2145
2147
2149
2151
2152
2154
2155
2156
2156
2156
2156
2157
2157
2157
2157
2157
2158
2159
2160
2160
2159
2159
2158
2158
2157
2157
2155
2154
2155
2157
2160
2164
2167
2170
2172
2172
2172
2172
2173
2175
2177
2178
2177
2177
2175
2175
2176
2178
2182
2184
2184
2180
2171
2160
2149
2144
2144
2147
2149
2144
2133
2118
2105
2098
2099
2106
2114
2115
2121
2129
2137
2130
2108
2065
2020
1984
1962
1946
1926
1898
1870
1847
1843
1852
1865
1871
1877
1878
1881
1883
1883
1883
1880
1878
1879
1881
1882
1878
1863
1836
1808
1790
1790
1809
1839
1870
1895
1913
1929
1940
1948
1954
1957
1958
1960
1963
1968
1974
1979
1987
1997
2005
2007
1997
1979
1961
1947
1938
1934
1936
1946
1967
1993
2017
2027
2025
2025
2041
2075
2123
2165
2187
2189
2184
2181
2189
2207
2228
2248
2260
2262
2254
2242
2233
2242
2280
2347
2434
2509
2540
2515
2445
2373
2330
2323
2335
2335
2303
2246
2194
2173
2195
2252
2334
2405
2441
2420
2337
2232
2147
2118
2149
2193
2215
2196
2157
2125
2131
2159
2198
2230
2255
2283
2301
2298
2271
2232
2203
2208
2239
2280
2310
2319
2318
2315
2323
2330
2338
2351
2369
2394
2415
2428
2433
2430
2428
2428
2432
2444
2456
2470
2478
2477
2464
2448
2440
2441
2454
2465
2469
2465
2458
2459
2462
2465
2466
2465
2463
2466
2471
2476
2479
2482
2487
2491
2502
2511
2515
2511
2494
2470
2442
2421
2413
2417
2431
2449
2470
2487
2504
2518
2526
2535
2538
2541
2537
2529
2519
2518
2539
2570
2603
2613
2604
2582
2562
2564
2573
2581
2565
2532
2491
2462
2461
2476
2508
2535
2551
2549
2531
2511
2494
2494
2503
2525
2553
2576
2583
2566
2533
2494
2464
2456
2468
2495
2529
2560
2571
2566
2543
2511
2490
2493
2523
2563
2596
2615
2621
2624
2635
2652
2664
2668
2665
2655
2654
2660
2666
2665
2646
2613
2576
2550
2546
2560
2584
2601
2613
2614
2613
2610
2606
2598
2585
2564
2538
2512
2487
2471
2459
2442
2422
2401
2383
2374
2377
2386
2392
2386
2369
2344
2320
2305
2301
2303
2302
2303
2320
2339
2353
2343
2287
2198
2120
2088
2107
2158
2194
2182
2129
2036
2006
2020
2007
2038
2026
1938
1754
1464
1078
666
330
134
95
124
187
226
177
153
156
196
284
411
554
686
788
862
916
968
1027
1090
1150
1202
1242
1270
1295
1314
1333
1352
1372
1391
1411
1432
1454
1474
1492
1508
1527
1550
1585
1633
1695
1771
1846
1905
1930
1915
1868
1814
1779
1779
1812
1860
1906
1939
1957
1973
1986
1999
1995
1996
1994
1988
1972
1934
1877
1814
1766
1753
1767
1794
1814
1820
1810
1804
1805
1809
1818
1834
1857
1886
1916
1942
1960
1966
1977
1993
2012
2016
1993
1943
1882
1832
1813
1821
1843
1865
1879
1883
1894
1912
1932
1952
1969
1982
1988
2011
2043
2068
2074
2056
2007
1941
1887
1854
1841
1840
1838
1834
1817
1805
1768
1765
1825
1902
1916
1769
1424
945
476
161
43
73
156
217
210
179
179
179
179
179
179
179
179
179
179
179
179
179
179
179
179
179
179
179
179
179
179
179
179
179
179
179
179
179
179
179
179
179
179
179
179
179
179
179
179
179
179
179
179
179
179
179
179
179
179
179
179
179
179
179
179
179
179
179
179
179
179
179
182
186
186
173
132
145
193
305
440
535
546
458
332
219
161
154
175
197
181
187
184
195
189
162
131
121
190
352
604
880
1130
1314
1435
1514
1577
1656
1735
1817
1905
1994
2081
2152
2221
2274
2324
2368
2409
2447
2486
2522
2558
2596
2633
2670
2707
2745
2783
2818
2844
2883
2922
2955
2966
2944
2892
2832
2792
2783
2803
2832
2855
2884
2897
2922
2947
2981
3021
3064
3104
3114
3082
3011
2925
2850
2802
2798
2819
2854
2894
2940
2975
3003
3024
3032
3029
3011
2984
2949
2922
2911
2918
2934
2953
2969
2974
2981
2990
2998
3005
3011
3017
3022
3025
3028
3032
3035
3040
3046
3052
3058
3062
3066
3067
3071
3074
3075
3073
3067
3059
3054
3057
3070
3090
3116
3143
3160
3174
3183
3187
3172
3131
3079
3024
2984
2972
2983
3005
3025
3041
3052
3068
3081
3094
3090
3053
2990
2895
2783
2682
2617
2599
2623
2665
2707
2740
2749
2755
2758
2762
2768
2773
2775
2775
2775
2777
2779
2781
2781
2780
2781
2784
2792
2802
2812
2822
2828
2830
2827
2821
2813
2806
2804
2805
2809
2814
2818
2822
2825
2829
2832
2833
2832
2835
2837
2838
2834
2822
2803
2782
2767
2759
2755
2751
2749
2748
2748
2754
2759
2758
2752
2742
2732
2726
2721
2720
2718
2716
2714
2712
2710
2708
2707
2706
2704
2699
2692
2683
2676
2672
2670
2669
2668
2669
2672
2678
2683
2687
2687
2686
2686
2686
2688
2689
2689
2689
2688
2688
2690
2691
2692
2692
2693
2692
2689
2683
2674
2684
2697
2702
2675
2600
2489
2373
2292
2256
2258
2275
2295
2316
2338
2386
2436
2476
2514
2544
2565
2559
2517
2441
2367
2323
2323
2368
2417
2446
2439
2411
2391
2388
2407
2435
2460
2471
2477
2477
2471
2474
2479
2483
2487
2490
2495
2500
2503
2502
2499
2495
2488
2476
2457
2429
2398
2371
2354
2348
2351
2358
2366
2375
2386
2397
2409
2417
2422
2425
2427
2430
2434
2437
2440
2442
2442
2442
2443
2447
2451
2457
2461
2464
2464
2462
2460
2457
2455
2457
2460
2469
2489
2525
2580
2640
2683
2692
2663
2604
2537
2481
2441
2421
2417
2422
2429
2430
2423
2406
2383
2368
2368
2379
2397
2413
2426
2436
2443
2449
2453
2458
2462
2465
2468
2468
2468
2467
2467
2468
2469
2472
2475
2478
2481
2484
2487
2490
2492
2494
2496
2499
2502
2505
2508
2511
2513
2516
2519
2522
2524
2526
2526
2527
2527
2529
2533
2537
2541
2545
2549
2554
2559
2565
2571
2578
2586
2595
2604
2610
2612
2609
2604
2600
2600
2605
2613
2620
2625
2628
2631
2635
2640
2642
2642
2637
2632
2629
2631
2636
2641
2645
2644
2640
2634
2628
2622
2617
2611
2605
2598
2592
2587
2585
2583
2581
2577
2571
2561
2551
2539
2527
2516
2506
2498
2490
2483
2477
2469
2462
2453
2445
2438
2431
2425
2419
2414
2412
2412
2414
2416
2416
2412
2407
2402
2396
2391
2386
2380
2376
2373
2371
2370
2369
2368
2366
2364
2362
2361
2363
2368
2379
2393
2413
2436
2459
2479
2493
2501
2505
2505
2505
2505
2505
2506
2505
2503
2501
2497
2493
2489
2487
2486
2486
2486
2485
2482
2478
2473
2469
2464
2459
2453
2447
2440
2435
2434
2435
2439
2444
2449
2452
2454
2456
2456
2456
2453
2446
2434
2420
2406
2392
2380
2370
2361
2352
2344
2337
2331
2329
2326
2325
2321
2317
2312
2308
2305
2302
2299
2296
2291
2289
2287
2286
2284
2282
2279
2275
2272
2269
2267
2265
2263
2263
2263
2263
2264
2263
2262
2261
2258
2254
2252
2252
2255
2263
2274
2285
2293
2295
2290
2282
2273
2266
2261
2257
2254
2250
2246
2242
2239
2236
2233
2229
2227
2224
2223
2222
2221
2219
2217
2215
2212
2209
2208
2207
2207
2207
2206
2204
2199
2193
2187
2181
2177
2175
2174
2175
2175
2176
2175
2174
2173
2172
2171
2171
2171
2170
2167
2164
2160
2157
2154
2153
2154
2155
2154
2152
2146
2140
2135
2134
2141
2162
2200
2251
2300
2327
2318
2276
2219
2172
2149
2150
2162
2172
2174
2169
2162
2159
2157
2156
2156
2156
2157
2158
2158
2158
2157
2158
2159
2161
2161
2161
2161
2161
2161
2161
2161
2161
2160
2160
2160
2161
2162
2162
2162
2162
2162
2164
2165
2167
2168
2169
2170
2172
2174
2176
2178
2181
2182
2185
2189
2192
2195
2198
2200
2202
2204
2207
2210
2212
2214
2215
2217
2217
2216
2214
2211
2206
2200
2194
2187
2180
2174
2168
2162
2158
2152
2147
2141
2135
2130
2127
2125
2124
2122
2121
2119
2118
2117
2117
2117
2117
2117
2116
2116
2116
2116
2116
2115
2113
2111
2109
2108
2108
2108
2108
2109
2109
2109
2110
2110
2110
2109
2108
2106
2105
2104
2104
2104
2103
2103
2104
2104
2103
2103
2102
2100
2100
2100
2100
2101
2103
2103
2103
2103
2103
2102
2102
2101
2102
2101
2101
2101
2100
2101
2100
2100
2100
2100
2101
2101
2102
2103
2103
2103
2103
2103
2103
2102
2101
2100
2099
2099
2099
2100
2099
2098
2096
2093
2091
2090
2090
2091
2092
2092
2092
2092
2093
2093
2094
2095
2097
2098
2099
2100
2100
2100
2101
2101
2102
2103
2104
2106
2106
2106
2106
2106
2106
2107
2108
2109
2110
2110
2110
2111
2111
2111
2112
2112
2113
2113
2112
2111
2110
2109
2108
2107
2106
2103
2099
2094
2088
2083
2080
2078
2076
2075
2075
2075
2075
2076
2078
2079
2079
2079
2078
2076
2076
2075
2075
2075
2075
2075
2075
2075
2076
2077
2080
2084
2090
2096
2099
2100
2097
2093
2088
2085
2085
2087
2089
2090
2089
2088
2086
2085
2084
2082
2082
2083
2085
2087
2088
2090
2091
2093
2093
2094
2095
2096
2097
2098
2099
2101
2102
2104
2103
2100
2096
2091
2089
2092
2098
2121
2174
2241
2288
2280
2196
2052
1901
1794
1756
1775
1816
1848
1858
1851
1850
1852
1856
1861
1867
1874
1878
1880
1883
1892
1910
1933
1958
1977
1989
1996
2000
2005
2011
2019
2025
2032
2039
2047
2051
2052
2048
2042
2035
2031
2033
2039
2048
2060
2073
2087
2099
2106
2105
2093
2073
2050
2029
2009
1995
1989
1991
2006
2032
2064
2097
2121
2135
2136
2133
2131
2133
2139
2150
2167
2183
2208
2245
2283
2304
2293
2244
2167
2088
2032
2005
2003
2012
2020
2020
2017
2020
2031
2047
2069
2093
2116
2132
2141
2144
2149
2155
2160
2164
2168
2181
2198
2221
2240
2251
2254
2254
2260
2274
2295
2315
2328
2336
2338
2342
2346
2348
2344
2345
2357
2375
2385
2371
2323
2251
2179
2132
2119
2131
2153
2171
2177
2179
2187
2196
2206
2215
2223
2229
2232
2236
2240
2244
2248
2251
2255
2258
2261
2265
2269
2272
2275
2279
2282
2287
2293
2300
2307
2314
2320
2325
2327
2329
2329
2328
2328
2329
2330
2333
2336
2340
2342
2344
2347
2349
2354
2361
2369
2376
2381
2383
2384
2385
2386
2387
2385
2379
2370
2361
2358
2360
2365
2370
2371
2368
2363
2356
2356
2362
2369
2373
2361
2332
2289
2244
2211
2193
2189
2191
2193
2192
2190
2190
2187
2181
2178
2181
2195
2216
2239
2257
2265
2265
2262
2255
2240
2244
2260
2278
2280
2236
2149
2048
1972
1949
1971
2008
2028
2023
1995
1980
1976
1982
1997
2005
2007
2003
1987
1963
1939
1925
1922
1929
1938
1946
1949
1951
1955
1960
1960
1959
1958
1962
1972
1988
2016
2053
2103
2154
2187
2186
2146
2086
2029
1998
2000
2021
2045
2054
2057
2052
2050
2052
2054
2055
2055
2055
2057
2060
2065
2073
2081
2087
2092
2093
2093
2091
2089
2090
2091
2109
2131
2147
2145
2119
2078
2040
2022
2029
2052
2079
2100
2115
2121
2124
2133
2146
2157
2149
2126
2085
2036
1994
1981
1988
2003
2018
2031
2038
2049
2071
2096
2113
2131
2147
2157
2157
2161
2164
2165
2164
2161
2155
2147
2138
2129
2119
2110
2102
2094
2089
2084
2080
2077
2075
2074
2073
2074
2074
2074
2074
2074
2074
2075
2077
2079
2079
2077
2073
2072
2081
2103
2140
2185
2228
2263
2286
2300
2307
2313
2319
2323
2328
2334
2340
2346
2351
2354
2354
2361
2372
2381
2378
2353
2310
2260
2221
2204
2206
2219
2232
2240
2241
2242
2244
2244
2245
2245
2245
2246
2246
2247
2249
2251
2253
2255
2256
2256
2258
2260
2264
2267
2272
2278
2285
2291
2293
2292
2286
2280
2276
2275
2277
2280
2282
2284
2284
2283
2282
2282
2283
2284
2286
2283
2275
2280
2354
2469
2524
2410
2048
1472
835
326
60
20
101
191
225
205
179
179
179
179
179
179
179
179
179
179
179
179
179
179
179
179
179
179
179
179
179
179
179
179
179
179
179
179
179
179
179
179
179
179
179
179
179
179
179
179
179
179
179
179
179
179
179
179
179
179
179
179
179
179
179
179
179
179
179
179
179
179
179
179
179
179
179
179
179
179
179
179
179
179
179
179
179
179
179
179
179
179
179
179
179
179
179
179
179
179
179
179
179
179
179
179
179
179
179
179
179
179
179
179
179
179
179
179
179
179
179
179
179
179
179
179
179
179
179
179
179
179
179
179
179
179
179
179
179
179
179
179
179
179
179
179
179
179
179
179
179
179
179
179
179
179
179
179
179
179
179
179
179
179
179
179
179
179
179
179
179
179
179
179
179
179
179
179
179
179
179
179
179
179
179
179
179
179
180
180
179
178
177
176
180
190
206
227
249
269
285
298
310
322
335
350
364
379
393
406
420
433
447
460
474
487
501
514
527
540
553
565
577
591
605
619
633
647
660
673
686
698
710
722
734
745
755
766
775
785
795
806
817
828
840
852
862
873
882
892
901
910
919
929
939
949
958
966
974
982
990
998
1006
1015
1024
1034
1045
1055
1065
1074
1082
1091
1100
1109
1118
1127
1134
1141
1147
1154
1161
1169
1179
1189
1199
1208
1216
1224
1231
1239
1248
1257
1264
1270
1276
1281
1286
1292
1297
1302
1307
1312
1318
1323
1329
1335
1342
1347
1350
1350
1350
1351
1356
1371
1403
1455
1522
1580
1608
1592
1540
1476
1429
1413
1426
1449
1466
1471
1468
1464
1465
1468
1472
1476
1482
1487
1492
1497
1503
1508
1513
1518
1521
1525
1529
1533
1538
1543
1547
1551
1555
1559
1564
1568
1573
1578
1582
1586
1590
1595
1599
1604
1609
1613
1630
1649
1627
1579
1537
1567
1732
2044
2443
2830
3127
3315
3427
3511
3604
3720
3807
3870
3907
3923
3924
3920
3915
3913
3914
3916
3916
3916
3916
3916
3916
3916
3916
3916
3916
3916
3916
3916
3916
3916
3916
3916
3916
3916
3916
3916
3916
3916
3916
3916
3916
3916
3916
3916
3916
3916
3916
3916
3916
3916
3916
3916
3916
3916
3916
3916
3916
3916
3916
3916
3916
3916
3916
3916
3916
3916
3916
3916
3916
3916
3916
3916
3916
3916
3916
3916
3916
3916
3916
3916
3916
3916
3916
3916
3916
3916
3916
3916
3916
3916
3916
3916
3916
3916
3916
3916
3916
3916
3916
3916
3916
3916
3916
3916
3916
3916
3916
3916
3916
3916
3916
3916
3916
3916
3916
3916
3916
3916
3916
3916
3916
3916
3916
3916
3916
3916
3916
3916
3916
3916
3916
3916
3916
3916
3916
3916
3916
3916
3916
3916
3916
3916
3916
3916
3916
3916
3916
3916
3916
3915
3914
3915
3918
3922
3923
3915
3894
3863
3828
3797
3776
3765
3759
3756
3751
3745
3739
3734
3728
3722
3715
3707
3699
3691
3683
3677
3671
3666
3660
3653
3647
3641
3633
3626
3620
3613
3607
3600
3592
3583
3574
3567
3561
3555
3548
3541
3533
3524
3515
3506
3496
3487
3479
3471
3463
3456
3450
3444
3440
3435
3430
3426
3421
3416
3412
3408
3403
3398
3392
3385
3377
3370
3364
3360
3355
3349
3339
3325
3308
3292
3277
3264
3253
3244
3235
3230
3226
3221
3214
3202
3188
3175
3162
3152
3141
3127
3109
3088
3067
3047
3026
3004
2979
2963
2966
3000
3053
3100
3115
3086
3023
2953
2903
2883
2886
2896
2899
2891
2881
2875
2870
2860
2840
2814
2787
2768
2761
2762
2767
2771
2771
2767
2763
2759
2758
2760
2766
2772
2776
2774
2769
2764
2761
2763
2766
2769
2771
2770
2770
2769
2769
2769
2769
2769
2769
2769
2770
2769
2769
2770
2770
2770
2770
2770
2772
2773
2775
2774
2773
2773
2774
2777
2782
2786
2788
2786
2783
2778
2773
2767
2761
2753
2743
2734
2724
2716
2709
2703
2699
2695
2690
2684
2676
2669
2663
2659
2656
2654
2652
2650
2647
2645
2642
2642
2643
2644
2643
2638
2629
2618
2607
2600
2596
2595
2594
2591
2589
2588
2588
2588
2588
2587
2585
2583
2581
2579
2578
2576
2575
2573
2572
2571
2570
2569
2567
2566
2565
2563
2561
2559
2557
2555
2552
2549
2546
2542
2540
2538
2537
2536
2535
2535
2535
2534
2533
2533
2532
2530
2528
2523
2517
2512
2509
2509
2511
2515
2518
2519
2518
2515
2510
2505
2499
2495
2492
2490
2488
2486
2485
2484
2482
2481
2480
2479
2478
2476
2475
2474
2474
2473
2472
2470
2468
2466
2463
2459
2457
2455
2452
2448
2443
2436
2428
2422
2417
2413
2409
2405
2400
2395
2390
2386
2382
2379
2377
2375
2374
2373
2373
2372
2371
2370
2369
2369
2368
2367
2366
2365
2365
2365
2364
2364
2363
2363
2362
2362
2362
2362
2362
2362
2362
2362
2361
2360
2358
2358
2357
2356
2355
2355
2354
2354
2353
2352
2351
2350
2349
2348
2347
2346
2346
2345
2344
2343
2342
2340
2339
2337
2337
2336
2336
2335
2333
2331
2329
2327
2327
2327
2328
2330
2331
2332
2331
2330
2329
2329
2329
2328
2327
2325
2324
2322
2320
2318
2316
2314
2313
2312
2311
2311
2310
2309
2307
2306
2305
2304
2304
2303
2302
2302
2301
2301
2301
2300
2300
2299
2300
2299
2297
2292
2286
2281
2278
2282
2297
2329
2380
2436
2476
2481
2447
2386
2324
2284
2273
2281
2294
2299
2295
2287
2281
2278
2275
2273
2271
2270
2270
2270
2270
2271
2271
2271
2271
2270
2269
2267
2267
2268
2272
2278
2284
2289
2292
2294
2295
2295
2297
2299
2302
2304
2306
2308
2310
2311
2313
2314
2315
2317
2319
2321
2323
2325
2327
2330
2333
2337
2340
2342
2343
2342
2341
2342
2344
2348
2351
2353
2353
2352
2351
2348
2345
2340
2334
2327
2319
2311
2304
2296
2290
2284
2279
2275
2271
2268
2265
2263
2261
2260
2260
2260
2260
2260
2260
2259
2259
2258
2258
2258
2258
2258
2258
2258
2257
2257
2256
2255
2255
2255
2255
2255
2255
2255
2254
2254
2253
2252
2252
2252
2252
2253
2253
2253
2253
2253
2252
2251
2251
2250
2250
2250
2250
2251
2250
2250
2249
2247
2246
2244
2242
2238
2232
2222
2208
2191
2173
2156
2142
2132
2128
2126
2126
2128
2129
2131
2132
2134
2135
2136
2138
2140
2141
2143
2144
2145
2145
2146
2148
2149
2151
2152
2153
2154
2155
2155
2156
2156
2157
2157
2158
2158
2159
2159
2160
2161
2161
2161
2162
2162
2163
2163
2164
2164
2165
2166
2166
2166
2166
2166
2166
2167
2167
2168
2168
2168
2168
2168
2168
2168
2168
2168
2168
2169
2169
2170
2170
2170
2170
2170
2171
2171
2172
2171
2170
2171
2171
2170
2168
2166
2167
2175
2188
2205
2220
2231
2237
2239
2242
2245
2250
2253
2256
2259
2261
2263
2265
2266
2268
2270
2271
2272
2271
2270
2268
2266
2265
2266
2268
2271
2274
2277
2278
2279
2278
2278
2277
2276
2275
2273
2271
2268
2266
2265
2263
2262
2261
2260
2260
2259
2257
2253
2249
2245
2242
2240
2239
2238
2239
2239
2238
2236
2234
2232
2228
2225
2218
2205
2187
2168
2155
2154
2166
2192
2229
2278
2338
2391
2420
2412
2368
2307
2254
2229
2230
2246
2260
2264
2259
2251
2248
2246
2245
2246
2248
2249
2251
2252
2253
2254
2255
2256
2257
2258
2260
2261
2262
2263
2265
2265
2266
2267
2268
2269
2270
2271
2272
2272
2273
2273
2274
2275
2276
2278
2279
2281
2281
2282
2284
2286
2290
2295
2299
2303
2306
2309
2312
2315
2319
2323
2326
2330
2332
2334
2335
2336
2336
2335
2332
2329
2324
2318
2311
2303
2294
2285
2277
2268
2261
2254
2249
2244
2240
2238
2235
2233
2231
2230
2229
2228
2227
2227
2226
2225
2224
2223
2221
2220
2219
2219
2219
2219
2219
2218
2218
2217
2217
2217
2217
2217
2217
2216
2216
2215
2215
2214
2214
2213
2214
2214
2213
2214
2214
2214
2214
2214
2213
2213
2213
2213
2213
2213
2213
2213
2212
2212
2212
2211
2211
2210
2209
2209
2208
2208
2208
2208
2207
2207
2206
2206
2206
2207
2208
2209
2210
2210
2210
2209
2208
2208
2207
2207
2207
2207
2207
2207
2208
2208
2208
2206
2206
2205
2205
2206
2205
2205
2203
2202
2201
2199
2199
2199
2199
2200
2199
2199
2199
2198
2199
2199
2199
2200
2200
2200
2200
2199
2198
2196
2194
2192
2189
2189
2191
2190
2176
2145
2099
2047
2000
1964
1940
1921
1903
1889
1881
1879
1885
1891
1895
1895
1896
1898
1900
1903
1905
1907
1909
1911
1913
1915
1917
1919
1922
1925
1927
1929
1931
1933
1935
1938
1940
1942
1943
1944
1945
1946
1948
1949
1951
1953
1955
1957
1959
1961
1962
1964
1965
1966
1968
1969
1970
1972
1973
1975
1976
1978
1980
1983
1986
1990
1992
1995
1996
1998
2000
2002
2003
2004
2004
2004
2004
2006
2009
2013
2015
2018
2020
2021
2023
2025
2027
2029
2031
2033
2034
2036
2037
2038
2039
2040
2042
2043
2045
2047
2048
2049
2050
2049
2047
2042
2039
2036
2038
2049
2080
2135
2206
2268
2299
2287
2242
2189
2155
2149
2166
2188
2202
2206
2204
2202
2205
2208
2211
2215
2219
2223
2226
2229
2233
2236
2239
2242
2245
2248
2250
2252
2254
2256
2258
2260
2262
2264
2265
2267
2269
2272
2274
2275
2277
2279
2281
2283
2285
2287
2289
2292
2294
2296
2298
2300
2302
2305
2308
2312
2315
2318
2319
2318
2316
2314
2312
2313
2315
2318
2321
2323
2323
2322
2320
2315
2311
2306
2301
2296
2289
2283
2276
2270
2265
2260
2257
2254
2253
2252
2250
2250
2248
2247
2247
2246
2247
2248
2248
2249
2248
2248
2247
2247
2247
2246
2246
2246
2246
2246
2246
2245
2244
2243
2243
2243
2243
2243
2243
2243
2242
2242
2241
2241
2240
2239
2239
2239
2239
2238
2237
2236
2235
2234
2234
2233
2233
2234
2234
2233
2233
2231
2230
2230
2229
2229
2228
2227
2227
2226
2226
2225
2224
2223
2222
2221
2220
2218
2217
2217
2216
2214
2210
2205
2199
2191
2185
2180
2178
2176
2176
2176
2175
2175
2175
2175
2175
2175
2175
2175
2175
2175
2175
2174
2174
2173
2173
2173
2173
2173
2173
2172
2172
2171
2170
2170
2170
2170
2170
2171
2171
2170
2170
2170
2170
2169
2170
2170
2169
2169
2168
2168
2168
2168
2168
2167
2167
2167
2167
2168
2168
2167
2167
2165
2165
2164
2165
2165
2165
2166
2166
2166
2165
2163
2162
2163
2167
2174
2183
2191
2197
2201
2203
2204
2205
2207
2209
2211
2212
2214
2215
2216
2216
2217
2217
2218
2219
2220
2221
2222
2222
2223
2223
2223
2223
2223
2224
2224
2225
2225
2225
2225
2225
2225
2226
2226
2226
2226
2225
2225
2223
2223
2222
2222
2223
2225
2227
2229
2230
2230
2230
2230
2230
2230
2230
2230
2229
2228
2227
2226
2224
2223
2226
2230
2230
2219
2195
2161
2125
2098
2085
2084
2089
2094
2097
2097
2098
2099
2100
2101
2102
2104
2106
2108
2110
2110
2108
2104
2100
2099
2103
2118
2149
2196
2250
2289
2296
2265
2207
2147
2108
2098
2109
2124
2132
2131
2124
2119
2117
2116
2115
2116
2116
2117
2118
2119
2120
2121
2122
2124
2125
2126
2126
2126
2126
2126
2126
2127
2127
2128
2129
2130
2131
2131
2131
2132
2133
2134
2135
2135
2135
2134
2133
2134
2135
2138
2141
2144
2147
2150
2154
2158
2162
2166
2169
2171
2174
2176
2179
2182
2185
2186
2187
2187
2187
2187
2186
2184
2180
2175
2169
2162
2155
2148
2142
2136
2132
2127
2123
2118
2114
2111
2108
2106
2105
2105
2105
2106
2106
2106
2107
2108
2108
2109
2110
2111
2111
2112
2111
2110
2108
2105
2102
2099
2097
2094
2092
2089
2087
2086
2087
2090
2094
2095
2095
2091
2088
2087
2088
2090
2091
2088
2081
2072
2062
2056
2053
2056
2062
2069
2074
2074
2068
2058
2049
2045
2044
2047
2050
2054
2054
2053
2050
2044
2036
2026
2019
2016
2018
2023
2029
2035
2038
2040
2042
2046
2050
2055
2059
2062
2063
2063
2064
2069
2075
2076
2064
2039
2004
1973
1954
1951
1958
1968
1974
1976
1977
1979
1982
1985
1986
1988
1989
1992
1995
1991
1992
1997
2000
1994
1970
1927
1873
1828
1807
1809
1831
1854
1855
1813
1727
1611
1489
1392
1342
1336
1356
1380
1394
1394
1389
1387
1387
1390
1396
1404
1413
1425
1440
1458
1478
1498
1515
1529
1542
1552
1559
1563
1563
1562
1566
1577
1595
1617
1636
1651
1661
1667
1673
1681
1688
1695
1703
1709
1714
1719
1723
1729
1734
1740
1746
1752
1759
1769
1780
1791
1800
1804
1805
1803
1804
1807
1814
1821
1826
1825
1818
1808
1796
1787
1782
1784
1790
1797
1809
1820
1828
1831
1824
1811
1799
1798
1805
1817
1824
1820
1808
1796
1792
1796
1806
1817
1826
1831
1835
1836
1835
1834
1834
1837
1846
1864
1896
1946
2003
2046
2053
2022
1960
1898
1859
1853
1869
1891
1909
1916
1914
1908
1899
1891
1888
1893
1904
1915
1924
1929
1935
1942
1953
1967
1981
1995
2008
2020
2030
2036
2043
2049
2058
2065
2074
2084
2095
2104
2108
2104
2095
2084
2077
2077
2082
2088
2093
2094
2095
2099
2108
2121
2133
2141
2142
2070
2122
2196
2250
2219
2047
1760
1479
1282
1412
1729
2053
2185
2003
1484
859
356
59
2
82
182
247
179
179
179
179
179
179
179
179
179
179
179
179
179
179
179
179
179
179
179
179
179
179
179
179
179
179
179
179
179
179
179
179
179
179
179
179
179
179
179
179
179
179
179
179
179
179
179
179
179
179
179
179
179
179
179
179
179
179
179
179
179
179
179
179
179
179
180
187
186
175
159
151
173
239
348
493
644
777
875
929
962
1027
1102
1169
1200
1182
1141
1131
1186
1310
1458
1580
1667
1727
1775
1840
1882
1892
1874
1851
1843
1860
1893
1931
1969
2002
2034
2076
2123
2167
2203
2228
2248
2266
2282
2295
2306
2312
2320
2332
2349
2368
2386
2403
2418
2433
2362
2414
2536
2674
2706
2480
1942
1203
511
75
4049
32
162
255
203
179
179
179
179
179
179
179
179
179
179
179
179
179
179
179
179
179
179
179
179
179
179
179
179
179
179
179
179
179
179
179
179
179
179
179
179
179
179
179
179
179
179
179
179
179
179
179
179
179
179
179
179
179
179
179
179
179
179
179
179
179
179
179
179
179
179
191
200
184
149
114
126
235
402
747
1157
1499
1676
1628
1409
1179
1119
1274
1585
1903
2130
2267
2298
2358
2455
2519
2557
2594
2642
2705
2768
2815
2840
2852
2864
2912
2970
3011
3021
2989
2934
2892
2884
2922
2982
3057
3138
3222
3292
3341
3386
3401
3402
3387
3338
3268
3202
3182
3228
3334
3459
3573
3655
3695
3735
3776
3807
3798
3732
3615
3483
3382
3354
3389
3508
3638
3727
3756
3711
3635
3573
3551
3604
3686
3761
3786
3746
3633
3524
3434
3385
3374
3370
3351
3304
3259
3267
3313
3386
3445
3465
3452
3428
3421
3434
3457
3467
3463
3444
3440
3456
3484
3513
3521
3497
3456
3409
3381
3377
3394
3413
3430
3442
3461
3490
3531
3576
3620
3660
3695
3725
3741
3737
3715
3675
3630
3591
3570
3564
3564
3560
3547
3529
3513
3506
3509
3520
3537
3549
3551
3537
3516
3498
3493
3509
3542
3575
3592
3588
3566
3540
3529
3532
3549
3569
3589
3603
3609
3604
3591
3572
3553
3544
3546
3554
3563
3567
3568
3568
3567
3569
3569
3569
3570
3569
3566
3560
3553
3549
3551
3561
3574
3583
3587
3586
3581
3579
3580
3580
3579
3577
3575
3572
3567
3561
3551
3540
3530
3523
3519
3515
3509
3500
3488
3473
3461
3451
3445
3443
3440
3438
3434
3429
3424
3420
3417
3415
3414
3410
3403
3393
3381
3368
3353
3342
3337
3333
3328
3321
3306
3286
3265
3247
3234
3226
3221
3216
3211
3206
3201
3196
3190
3186
3180
3174
3166
3156
3146
3138
3131
3127
3123
3118
3112
3105
3101
3098
3095
3091
3084
3074
3064
3060
3060
3062
3063
3061
3057
3051
3045
3043
3040
3034
3020
2997
2972
2948
2928
2913
2897
2874
2847
2817
2798
2800
2831
2888
2948
2985
2983
2942
2879
2829
2807
2809
2820
2820
2810
2793
2783
2784
2790
2791
2781
2757
2721
2680
2640
2610
2592
2588
2591
2597
2600
2602
2606
2610
2615
2615
2611
2605
2602
2605
2613
2621
2628
2633
2635
2638
2642
2645
2646
2647
2647
2647
2648
2651
2654
2658
2660
2661
2661
2661
2660
2658
2656
2653
2652
2654
2659
2664
2670
2675
2680
2684
2687
2689
2688
2685
2681
2676
2672
2667
2661
2652
2640
2624
2605
2587
2572
2563
2559
2559
2560
2560
2560
2559
2559
2561
2564
2568
2571
2573
2573
2571
2569
2566
2564
2563
2564
2568
2570
2571
2571
2569
2569
2570
2569
2565
2555
2542
2527
2517
2513
2512
2514
2516
2516
2514
2514
2514
2516
2517
2517
2514
2508
2501
2494
2489
2486
2487
2488
2490
2491
2490
2489
2488
2486
2484
2483
2483
2483
2485
2486
2487
2487
2485
2482
2476
2470
2464
2458
2456
2455
2455
2455
2456
2456
2455
2453
2452
2451
2449
2449
2447
2447
2447
2448
2449
2448
2446
2442
2439
2436
2434
2433
2431
2429
2427
2426
2427
2428
2431
2432
2433
2432
2430
2430
2430
2431
2432
2433
2433
2432
2429
2426
2423
2421
2419
2418
2418
2417
2417
2415
2413
2412
2411
2410
2409
2408
2407
2406
2405
2403
2400
2396
2389
2381
2372
2363
2355
2348
2343
2341
2339
2339
2340
2340
2340
2340
2339
2338
2336
2334
2332
2331
2330
2329
2327
2325
2324
2325
2326
2327
2327
2325
2322
2320
2319
2319
2319
2318
2315
2310
2306
2303
2301
2301
2301
2300
2299
2297
2297
2296
2295
2295
2294
2293
2293
2293
2292
2291
2290
2289
2286
2283
2280
2278
2278
2277
2274
2269
2261
2252
2244
2244
2256
2285
2336
2397
2445
2460
2432
2370
2299
2247
2227
2234
2251
2261
2261
2252
2244
2239
2235
2234
2233
2234
2234
2233
2231
2229
2228
2228
2229
2232
2232
2231
2229
2225
2223
2221
2220
2220
2220
2221
2222
2223
2224
2226
2230
2234
2238
2242
2247
2254
2260
2266
2266
2261
2254
2245
2241
2241
2245
2250
2253
2252
2248
2243
2240
2239
2241
2244
2247
2248
2247
2247
2248
2249
2249
2248
2245
2241
2235
2228
2219
2209
2199
2189
2181
2173
2167
2163
2159
2155
2150
2146
2143
2144
2145
2146
2146
2143
2139
2137
2136
2137
2138
2138
2138
2137
2136
2135
2136
2141
2148
2157
2167
2175
2179
2179
2177
2175
2175
2177
2178
2178
2176
2174
2173
2173
2175
2175
2172
2168
2166
2165
2167
2170
2173
2175
2177
2180
2182
2185
2186
2186
2185
2184
2184
2183
2184
2183
2182
2179
2175
2171
2167
2164
2162
2160
2160
2160
2161
2165
2168
2170
2172
2172
2171
2168
2164
2158
2152
2147
2143
2142
2142
2143
2144
2146
2149
2150
2152
2152
2151
2151
2150
2149
2150
2152
2159
2168
2179
2189
2198
2205
2211
2214
2215
2212
2207
2200
2195
2190
2185
2180
2174
2169
2165
2162
2158
2154
2148
2139
2130
2124
2122
2125
2132
2140
2146
2149
2150
2151
2153
2156
2159
2161
2162
2162
2161
2159
2155
2152
2152
2152
2149
2138
2118
2091
2064
2048
2042
2049
2064
2080
2090
2092
2090
2084
2076
2073
2077
2087
2096
2097
2081
2053
2022
2000
1996
2011
2035
2056
2069
2073
2074
2078
2086
2093
2096
2091
2078
2063
2051
2048
2052
2059
2066
2071
2076
2081
2087
2092
2096
2098
2099
2098
2097
2097
2101
2116
2148
2201
2266
2318
2335
2306
2248
2177
2119
2099
2107
2121
2116
2075
1999
1908
1833
1790
1785
1791
1802
1798
1778
1771
1787
1825
1879
1931
1968
1982
1973
1953
1936
1925
1925
1928
1932
1933
1935
1934
1933
1928
1918
1906
1896
1893
1897
1905
1915
1923
1931
1938
1945
1951
1957
1961
1965
1971
1978
1987
1994
2000
2005
2011
2020
2028
2032
2027
2017
2004
1995
1992
1993
1997
2000
2002
2006
2011
2018
2022
2024
2023
2020
2014
2007
2000
1996
1996
2001
2010
2019
2027
2033
2039
2046
2050
2054
2056
2057
2061
2067
2076
2084
2093
2100
2103
2105
2105
2106
2107
2109
2113
2115
2115
2116
2116
2118
2119
2122
2123
2123
2124
2124
2124
2123
2124
2125
2128
2131
2135
2139
2142
2145
2148
2150
2152
2153
2154
2156
2158
2159
2158
2154
2150
2148
2146
2145
2140
2132
2122
2115
2113
2114
2116
2116
2113
2108
2103
2102
2101
2103
2107
2113
2122
2133
2142
2149
2152
2154
2154
2156
2159
2162
2166
2171
2174
2176
2175
2171
2165
2159
2153
2146
2140
2131
2117
2103
2118
2146
2148
2076
1869
1519
1084
661
342
168
118
140
175
189
191
188
179
179
179
179
179
179
179
179
179
179
179
179
179
179
179
179
179
179
179
179
179
179
179
179
179
179
179
179
179
179
179
179
179
179
179
179
179
179
179
179
179
179
179
179
179
179
179
179
179
179
179
179
179
179
179
179
179
179
179
179
179
179
179
179
179
179
179
179
179
179
179
179
179
179
179
179
179
179
179
181
182
179
171
166
174
200
234
262
271
260
248
254
285
337
388
445
490
516
518
469
370
264
190
173
208
256
278
262
214
180
164
165
177
185
181
179
179
179
179
179
179
179
179
179
179
179
179
179
179
179
179
179
179
179
179
179
179
179
179
179
179
179
179
193
198
181
145
115
138
246
424
783
1187
1523
1658
1505
1102
618
234
44
59
140
193
186
105
161
336
619
954
1264
1503
1665
1739
1807
2013
2247
2414
2362
1990
1360
679
182
4071
4
126
229
249
179
179
179
179
179
179
179
179
179
179
179
179
179
179
179
179
179
179
179
179
179
179
179
179
179
179
179
179
179
179
179
179
179
179
179
179
208
213
172
102
57
124
372
796
1301
1765
2100
2301
2417
2502
2613
2732
2833
2923
3005
3080
3150
3215
3275
3331
3383
3431
3477
3519
3560
3599
3637
3672
3704
3731
3755
3778
3801
3826
3853
3878
3898
3911
3917
3918
3917
3916
3915
3915
3916
3916
3916
3916
3916
3916
3916
3916
3916
3916
3916
3916
3916
3916
3916
3916
3916
3916
3916
3916
3916
3916
3916
3916
3916
3916
3916
3916
3916
3916
3916
3916
3916
3916
3916
3916
3916
3916
3916
3916
3916
3916
3916
3916
3916
3916
3916
3916
3916
3916
3916
3916
3916
3916
3916
3916
3916
3916
3916
3916
3916
3916
3916
3916
3916
3916
3916
3916
3916
3916
3916
3916
3916
3917
3917
3916
3912
3907
3900
3894
3889
3884
3879
3874
3866
3856
3842
3829
3821
3824
3838
3862
3894
3923
3938
3929
3896
3845
3793
3756
3741
3742
3748
3751
3744
3729
3716
3706
3695
3686
3680
3674
3669
3663
3657
3651
3644
3639
3633
3626
3618
3607
3597
3587
3580
3575
3571
3568
3563
3558
3551
3545
3539
3534
3530
3525
3520
3514
3508
3504
3500
3496
3493
3491
3489
3486
3484
3481
3479
3476
3474
3472
3470
3469
3468
3467
3465
3464
3464
3463
3461
3457
3452
3445
3436
3426
3416
3404
3391
3377
3363
3348
3334
3321
3308
3296
3284
3274
3265
3255
3244
3230
3213
3196
3181
3171
3165
3162
3160
3157
3152
3146
3140
3134
3129
3123
3117
3110
3103
3098
3095
3094
3094
3092
3088
3083
3078
3073
3069
3063
3057
3051
3046
3041
3036
3030
3022
3015
3008
3004
3001
2997
2995
2992
2989
2986
2982
2976
2969
2962
2955
2948
2942
2935
2928
2920
2911
2903
2895
2887
2880
2873
2866
2859
2854
2850
2845
2840
2835
2830
2824
2820
2816
2811
2807
2802
2796
2791
2785
2781
2777
2773
2770
2766
2762
2759
2755
2753
2750
2747
2744
2739
2735
2730
2726
2722
2719
2716
2713
2711
2709
2706
2702
2696
2691
2687
2684
2682
2679
2676
2670
2665
2661
2657
2655
2653
2650
2647
2644
2642
2640
2637
2635
2633
2631
2628
2625
2622
2618
2615
2613
2611
2610
2607
2603
2599
2596
2595
2594
2595
2595
2595
2593
2591
2588
2584
2581
2579
2576
2573
2570
2566
2563
2560
2557
2555
2553
2551
2548
2545
2542
2538
2535
2532
2530
2528
2525
2522
2519
2516
2512
2510
2507
2505
2505
2505
2503
2498
2491
2484
2478
2477
2487
2512
2558
2616
2662
2677
2649
2585
2514
2462
2443
2451
2467
2475
2472
2461
2451
2447
2445
2444
2444
2442
2440
2438
2436
2435
2435
2435
2435
2435
2435
2434
2433
2432
2431
2431
2430
2429
2429
2429
2429
2428
2427
2426
2424
2423
2422
2422
2423
2425
2426
2426
2426
2426
2426
2428
2430
2432
2434
2435
2436
2437
2439
2442
2444
2446
2448
2450
2452
2454
2455
2456
2456
2455
2453
2449
2443
2434
2425
2415
2406
2397
2389
2381
2373
2366
2359
2354
2350
2345
2342
2339
2337
2336
2336
2336
2336
2335
2333
2330
2328
2327
2326
2326
2325
2324
2323
2322
2322
2323
2323
2322
2321
2318
2316
2314
2314
2314
2314
2313
2311
2309
2309
2309
2309
2311
2312
2313
2313
2312
2309
2306
2304
2303
2301
2298
2290
2280
2269
2260
2255
2252
2249
2246
2242
2238
2235
2233
2232
2230
2228
2226
2224
2222
2220
2218
2215
2214
2213
2212
2212
2211
2209
2206
2202
2199
2197
2196
2196
2196
2196
2194
2192
2190
2189
2189
2188
2188
2187
2186
2185
2184
2183
2182
2182
2182
2183
2183
2183
2182
2180
2178
2177
2176
2175
2175
2174
2173
2172
2171
2171
2171
2172
2173
2175
2175
2174
2171
2169
2167
2166
2166
2167
2167
2167
2167
2166
2165
2165
2165
2165
2165
2166
2165
2165
2165
2168
2172
2176
2180
2182
2181
2180
2178
2176
2172
2166
2157
2147
2138
2131
2129
2129
2128
2128
2129
2131
2138
2147
2155
2162
2164
2164
2162
2162
2166
2172
2179
2186
2190
2193
2193
2194
2197
2201
2206
2209
2211
2210
2209
2208
2216
2240
2286
2351
2415
2452
2447
2401
2337
2286
2266
2277
2300
2317
2321
2314
2304
2301
2300
2301
2302
2304
2305
2308
2310
2311
2311
2310
2310
2311
2312
2313
2314
2315
2316
2316
2316
2316
2316
2317
2319
2320
2320
2320
2320
2320
2321
2323
2324
2324
2323
2322
2322
2324
2327
2331
2334
2337
2338
2339
2340
2342
2348
2356
2364
2364
2350
2321
2278
2231
2189
2158
2141
2132
2130
2129
2128
2123
2117
2113
2111
2114
2116
2113
2102
2084
2067
2058
2056
2061
2068
2075
2083
2097
2115
2133
2149
2160
2167
2172
2177
2183
2186
2187
2189
2193
2199
2204
2209
2211
2210
2208
2207
2208
2210
2212
2214
2217
2219
2221
2222
2222
2222
2222
2222
2222
2224
2224
2224
2224
2224
2224
2225
2227
2229
2231
2231
2229
2226
2224
2223
2223
2224
2225
2226
2225
2225
2225
2225
2224
2223
2223
2223
2223
2222
2221
2221
2220
2221
2221
2221
2222
2223
2223
2223
2221
2220
2219
2217
2216
2216
2215
2216
2216
2216
2215
2215
2215
2214
2212
2209
2206
2203
2201
2201
2200
2201
2200
2200
2199
2198
2198
2197
2197
2197
2197
2196
2195
2193
2191
2189
2188
2188
2187
2186
2186
2186
2186
2186
2187
2185
2183
2181
2180
2181
2183
2186
2188
2189
2189
2189
2190
2191
2190
2189
2186
2182
2179
2177
2177
2178
2179
2180
2179
2178
2177
2177
2176
2176
2177
2178
2179
2178
2175
2172
2167
2165
2163
2161
2157
2165
2180
2190
2178
2131
2048
1955
1881
1847
1857
1898
1958
2025
2075
2103
2093
2045
1977
1918
1888
1890
1909
1928
1939
1938
1932
1928
1924
1921
1920
1921
1923
1925
1926
1928
1929
1929
1929
1929
1930
1934
1939
1944
1947
1947
1945
1944
1945
1949
1954
1958
1961
1964
1969
1975
1978
1976
1968
1958
1952
1954
1964
1979
1993
2005
2012
2018
2025
2031
2037
2044
2049
2054
2057
2060
2062
2063
2063
2061
2060
2061
2063
2067
2071
2073
2072
2067
2061
2054
2047
2039
2033
2026
2020
2014
2008
2003
2000
1999
2000
2001
2003
2004
2003
2002
2002
2003
2004
2004
2004
2004
2005
2006
2008
2009
2007
2005
2002
2000
1998
1997
1996
1994
1992
1990
1989
1989
1990
1991
1994
1997
2001
2001
1999
1994
1989
1985
1985
1987
1991
1995
1997
1998
1998
1998
1997
1997
1999
2002
2007
2012
2018
2022
2025
2026
2024
2022
2021
2020
2021
2022
2024
2023
2021
2018
2017
2018
2020
2021
2020
2019
2021
2021
2017
2002
1972
1931
1889
1857
1843
1847
1865
1886
1903
1913
1919
1921
1919
1919
1920
1919
1915
1907
1895
1883
1873
1869
1871
1873
1878
1882
1885
1890
1896
1899
1900
1900
1902
1907
1913
1920
1924
1925
1923
1922
1921
1923
1926
1930
1932
1934
1936
1939
1944
1950
1957
1965
1974
1982
1991
1999
2006
2014
2020
2028
2034
2041
2047
2051
2054
2058
2061
2064
2066
2069
2073
2078
2086
2093
2099
2102
2103
2102
2102
2104
2105
2106
2105
2103
2100
2093
2082
2066
2049
2037
2031
2034
2041
2048
2054
2057
2059
2062
2064
2062
2052
2038
2022
2012
2012
2027
2059
2109
2166
2213
2229
2208
2155
2093
2048
2033
2044
2063
2074
2071
2050
2021
1994
1973
1966
1974
1993
2012
2025
2030
2028
2020
2012
2007
2008
2010
2016
2017
2010
1997
1980
1965
1957
1959
1966
1975
1983
1985
1985
1985
1986
1989
1993
1996
1998
1998
2007
2018
2029
2030
2017
1993
1969
1955
1956
1967
1981
1992
1997
1999
2004
2009
2018
2025
2031
2032
2026
2017
2009
2010
2021
2035
2043
2038
2021
1996
1977
1963
1956
1953
1952
1955
1958
1964
1971
1975
1977
1978
1979
1981
1985
1989
1990
1988
1982
1978
1977
1979
1980
1976
1966
1951
1937
1926
1915
1906
1897
1891
1886
1887
1887
1885
1883
1882
1885
1890
1898
1904
1906
1905
1900
1893
1887
1882
1881
1882
1888
1897
1906
1915
1923
1929
1932
1933
1931
1927
1922
1918
1918
1925
1940
1959
1980
1996
2008
2014
2019
2022
2027
2031
2034
2034
2033
2031
2030
2030
2033
2036
2039
2040
2040
2041
2041
2042
2041
2041
2040
2040
2040
2039
2036
2031
2024
2018
2015
2013
2013
2014
2015
2017
2018
2021
2022
2024
2024
2022
2022
2023
2022
2028
2038
2046
2046
2032
2005
1975
1955
1954
1969
1992
2013
2028
2035
2043
2051
2058
2064
2069
2074
2078
2081
2085
2088
2092
2095
2096
2098
2099
2100
2104
2106
2105
2099
2091
2082
2073
2007
2066
2156
2218
2139
1822
1294
702
243
22
19
115
206
249
179
179
179
179
179
179
179
179
179
183
187
184
170
154
155
190
273
400
552
709
842
935
981
990
985
987
1015
1070
1141
1206
1257
1294
1325
1358
1393
1427
1461
1493
1524
1554
1582
1609
1635
1661
1689
1715
1739
1760
1779
1798
1820
1845
1871
1897
1850
1931
2049
2160
2144
1889
1396
797
300
36
6
97
194
251
179
179
179
179
179
179
179
179
179
179
179
179
179
179
179
179
179
179
179
179
179
179
179
179
179
179
179
179
179
179
179
179
179
179
179
179
179
179
179
179
179
184
187
190
171
145
138
183
305
497
720
917
1035
1182
1328
1457
1492
1359
1037
627
278
87
59
119
188
222
179
179
179
179
179
179
179
179
179
179
179
179
179
179
179
179
179
179
179
179
179
179
179
179
179
179
179
179
179
179
179
179
179
179
179
179
179
179
179
179
179
179
179
179
179
179
179
179
179
179
179
179
179
179
179
187
200
188
155
118
121
214
418
686
965
1312
1623
1835
1851
1604
1151
622
213
26
34
127
211
237
179
179
179
179
179
179
179
179
179
179
179
179
179
179
179
180
209
212
166
93
58
147
413
831
1295
1686
1939
2084
2184
2284
2419
2541
2618
2665
2705
2752
2810
2872
2934
2991
3041
3088
3134
3178
3217
3253
3287
3322
3359
3401
3445
3482
3512
3530
3536
3544
3505
3524
3584
3617
3501
3115
2433
1576
774
225
1
20
128
225
219
194
182
179
179
179
179
179
179
179
179
179
180
181
179
177
175
177
184
197
211
223
232
240
249
259
270
281
284
284
284
285
290
296
305
314
323
334
348
361
376
391
405
418
431
444
456
469
481
494
507
521
535
549
563
576
589
602
615
629
644
659
674
686
698
708
719
729
739
750
761
774
791
811
829
842
848
847
843
841
845
853
864
875
885
894
903
913
922
931
939
947
955
964
975
985
996
1007
1017
1027
1036
1045
1052
1058
1066
1074
1082
1090
1095
1100
1104
1110
1118
1127
1137
1146
1155
1164
1173
1181
1188
1195
1201
1206
1212
1217
1223
1228
1233
1239
1244
1250
1255
1262
1268
1275
1282
1289
1295
1301
1306
1311
1316
1322
1329
1338
1346
1355
1364
1372
1381
1389
1394
1396
1395
1395
1398
1409
1434
1477
1538
1599
1635
1629
1580
1509
1448
1420
1429
1458
1486
1501
1501
1495
1493
1494
1497
1501
1505
1509
1513
1518
1522
1528
1534
1540
1546
1552
1556
1561
1565
1569
1574
1578
1583
1587
1592
1597
1602
1608
1614
1619
1624
1629
1633
1638
1643
1648
1653
1658
1663
1668
1673
1679
1685
1691
1698
1705
1712
1720
1728
1737
1746
1754
1761
1768
1774
1779
1783
1785
1787
1787
1785
1781
1774
1765
1755
1745
1736
1729
1724
1721
1719
1717
1717
1717
1717
1717
1718
1719
1721
1723
1726
1729
1731
1732
1733
1733
1734
1737
1740
1745
1749
1751
1753
1754
1755
1756
1758
1760
1763
1766
1770
1774
1777
1779
1781
1782
1783
1785
1788
1790
1792
1794
1797
1800
1804
1806
1807
1806
1806
1807
1809
1812
1816
1818
1819
1821
1822
1824
1826
1827
1829
1830
1831
1832
1834
1836
1839
1841
1843
1845
1845
1846
1847
1848
1849
1852
1854
1856
1858
1859
1860
1862
1864
1866
1868
1870
1872
1872
1872
1871
1870
1870
1870
1870
1872
1874
1877
1880
1884
1886
1889
1890
1891
1892
1894
1896
1898
1899
1900
1901
1902
1901
1902
1902
1902
1903
1903
1903
1903
1904
1905
1907
1909
1911
1913
1914
1915
1916
1917
1917
1917
1917
1918
1920
1921
1924
1927
1930
1931
1929
1926
1921
1917
1916
1926
1952
2000
2061
2113
2132
2107
2048
1980
1932
1917
1927
1946
1958
1959
1952
1943
1938
1937
1939
1945
1953
1959
1959
1955
1951
1948
1948
1951
1953
1955
1955
1955
1956
1958
1963
1971
1981
1989
1994
1995
1994
1995
1996
2000
2000
1999
1993
1985
1978
1974
1976
1983
1993
2003
2011
2016
2019
2020
2022
2026
2031
2036
2040
2045
2049
2055
2059
2059
2056
2050
2046
2043
2041
2040
2039
2035
2031
2023
2011
1997
1986
1983
1991
2008
2025
2037
2039
2035
2030
2026
2026
2030
2032
2012
2004
2012
2045
2098
2174
2177
2068
1948
1939
2133
2440
2706
2736
2613
2487
2519
2721
2907
2926
2672
2288
1962
1816
1842
1950
2122
2326
2673
3074
3438
3686
3811
3890
3978
4056
4092
3871
3370
2703
2067
1797
2047
2670
3353
3731
3595
3068
2414
1899
1679
1686
1716
1758
1735
1722
1817
1946
2050
2066
1996
1870
1769
1733
1746
1806
1814
1807
1769
1731
1704
1716
1709
1737
1734
1685
1667
1818
2127
2525
2846
2917
2689
2276
1882
1667
1603
1698
1802
1811
1716
1658
1667
1810
2110
2515
2921
3239
3435
3538
3591
3634
3709
3701
3779
3934
4056
4043
3766
3368
2962
2720
2664
2659
2538
2195
1777
1403
1313
1565
2004
2531
2964
3322
3531
3622
3659
3694
3776
3836
3883
3912
3924
3924
3918
3914
3913
3915
3916
3916
3916
3916
3916
3916
3916
3916
3916
3916
3916
3916
3916
3916
3916
3916
3916
3916
3916
3916
3916
3916
3916
3916
3916
3916
3916
3916
3916
3916
3916
3916
3916
3916
3916
3916
3916
3916
3916
3916
3916
3916
3916
3916
3916
3916
3915
3884
3823
3908
4073
104
0
3586
2683
1613
708
191
69
175
325
397
337
324
330
339
350
361
373
385
398
412
426
440
455
469
484
498
513
529
545
561
578
594
611
627
643
659
674
689
704
719
734
748
761
772
781
788
794
799
803
807
811
815
820
825
830
836
843
851
860
870
880
889
899
908
918
928
938
948
957
966
975
985
995
1004
1013
1022
1031
1040
1049
1058
1067
1076
1084
1092
1101
1109
1118
1127
1137
1146
1156
1165
1174
1182
1190
1197
1204
1211
1218
1225
1232
1239
1247
1255
1262
1270
1276
1303
1321
1297
1247
1210
1259
1455
1799
2218
2608
2891
3057
3145
3201
3271
3354
3419
3479
3534
3586
3634
3675
3712
3756
3814
3850
3850
3804
3731
3674
3672
3733
3824
3903
3943
3944
3925
3906
3912
3914
3916
3916
3916
3916
3916
3916
3916
3916
3916
3916
3916
3916
3916
3916
3916
3916
3916
3916
3916
3916
3916
3916
3916
3916
3916
3916
3916
3916
3916
3916
3812
3866
4019
90
92
3817
3022
1974
1005
389
194
274
428
540
468
439
437
441
469
493
465
404
358
415
604
1027
1632
2232
2631
2671
2322
1706
1070
629
430
437
534
626
631
604
611
620
628
635
642
681
678
608
561
659
948
1324
1635
1673
1577
1487
1524
1729
1891
1865
1584
1182
857
766
787
769
737
740
898
1204
1514
1773
1940
2055
2196
2387
2593
2794
2920
2986
3008
3089
3150
3204
3253
3298
3340
3380
3418
3453
3485
3515
3542
3568
3593
3616
3639
3662
3683
3704
3724
3742
3759
3774
3788
3802
3816
3828
3840
3852
3863
3875
3887
3899
3908
3914
3917
3917
3916
3915
3915
3916
3916
3913
3908
3898
3891
3885
3879
3867
3847
3819
3789
3767
3758
3760
3768
3776
3780
3777
3774
3772
3771
3772
3773
3773
3768
3760
3750
3739
3729
3720
3715
3711
3709
3708
3704
3659
3611
3742
3813
3899
3774
3321
2564
1661
857
336
117
59
71
74
78
373
734
1269
1779
2156
2375
2481
2537
2602
2694
2762
2822
2877
2932
2986
3038
3082
3116
3143
3165
3187
3211
3235
3258
3280
3299
3316
3333
3348
3362
3375
3386
3396
3405
3413
3421
3428
3434
3438
3441
3442
3443
3445
3448
3453
3458
3463
3467
3470
3473
3475
3477
3478
3478
3478
3479
3480
3486
3495
3503
3503
3488
3460
3425
3394
3374
3368
3372
3379
3383
3377
3361
3317
3191
3246
3365
3467
3368
2899
2077
1121
349
4047
4011
60
210
285
182
179
179
179
179
179
179
179
179
179
179
179
179
179
179
179
179
179
179
179
179
179
179
179
179
179
179
179
179
179
179
179
179
179
179
179
179
179
179
179
179
179
179
179
179
179
180
180
178
176
176
180
190
206
226
246
265
281
299
319
351
395
405
389
369
396
529
783
1124
1485
1790
1991
2056
2014
1900
1761
1595
1426
1252
1071
904
779
710
702
724
750
754
743
740
737
734
731
729
729
730
732
734
737
743
751
759
767
771
773
773
775
781
789
800
810
821
831
842
853
863
874
883
893
902
911
921
932
943
954
965
975
984
994
1003
1013
1022
1031
1041
1051
1060
1070
1079
1088
1096
1104
1113
1121
1130
1139
1147
1156
1165
1172
1179
1186
1193
1200
1208
1216
1224
1231
1239
1246
1253
1259
1265
1271
1277
1285
1292
1298
1305
1311
1317
1323
1330
1336
1343
1349
1354
1360
1365
1371
1377
1382
1387
1393
1398
1405
1412
1419
1426
1433
1439
1445
1451
1457
1463
1468
1472
1476
1480
1484
1488
1492
1496
1501
1505
1510
1515
1520
1525
1530
1534
1539
1543
1547
1551
1556
1560
1565
1570
1574
1577
1581
1585
1589
1595
1600
1603
1604
1602
1601
1601
1609
1629
1666
1724
1785
1827
1830
1790
1723
1659
1625
1626
1650
1676
1690
1690
1684
1680
1680
1682
1683
1685
1688
1692
1696
1701
1705
1708
1711
1714
1717
1720
1723
1727
1730
1734
1737
1740
1742
1744
1746
1747
1750
1753
1757
1761
1764
1767
1770
1774
1778
1782
1786
1791
1797
1803
1809
1816
1822
1827
1831
1835
1840
1846
1853
1859
1865
1871
1875
1879
1883
1886
1887
1888
1886
1882
1876
1869
1859
1847
1835
1826
1821
1822
1826
1830
1832
1831
1828
1826
1824
1824
1825
1826
1827
1828
1829
1830
1831
1833
1834
1836
1838
1840
1842
1843
1846
1847
1849
1849
1850
1852
1855
1859
1863
1867
1870
1873
1875
1877
1879
1883
1887
1890
1892
1894
1894
1895
1896
1897
1899
1900
1900
1901
1902
1903
1904
1905
1905
1906
1907
1907
1907
1905
1902
1900
1899
1901
1904
1908
1911
1914
1917
1919
1921
1923
1925
1926
1927
1928
1928
1929
1930
1931
1932
1934
1935
1936
1937
1937
1938
1938
1938
1939
1940
1942
1944
1945
1946
1946
1943
1938
1932
1928
1925
1925
1925
1926
1925
1924
1923
1922
1923
1924
1925
1927
1927
1928
1929
1929
1929
1930
1929
1929
1930
1930
1931
1932
1934
1935
1936
1936
1938
1939
1939
1939
1939
1942
1948
1955
1963
1969
1972
1973
1973
1974
1975
1977
1978
1979
1980
1981
1982
1983
1983
1982
1982
1981
1980
1980
1980
1980
1981
1981
1982
1983
1985
1985
1986
1986
1986
1986
1986
1986
1987
1987
1988
1988
1988
1988
1988
1989
1990
1992
1993
1992
1988
1982
1977
1973
1975
1990
2025
2082
2149
2199
2210
2176
2110
2043
2000
1988
1999
2013
2019
2015
2006
2000
1997
1995
1994
1995
1997
1998
2000
2001
2001
2001
2002
2003
2004
2005
2006
2007
2008
2010
2011
2012
2012
2012
2013
2014
2014
2015
2017
2018
2019
2020
2021
2022
2023
2025
2026
2028
2031
2033
2036
2038
2041
2044
2047
2050
2054
2058
2062
2066
2070
2074
2076
2079
2081
2083
2084
2085
2084
2082
2078
2072
2065
2058
2049
2043
2036
2029
2024
2019
2016
2013
2011
2008
2004
1999
1993
1988
1984
1981
1981
1981
1981
1981
1981
1980
1980
1981
1982
1983
1983
1983
1983
1983
1983
1983
1983
1984
1985
1986
1987
1987
1988
1988
1987
1988
1988
1989
1990
1991
1992
1992
1992
1993
1993
1993
1993
1993
1993
1993
1993
1994
1994
1994
1994
1994
1994
1995
1995
1996
1998
1999
2000
2000
2000
2000
1999
2000
2001
2002
2003
2003
2003
2003
2003
2005
2007
2009
2011
2011
2011
2012
2011
2011
2010
2010
2013
2018
2024
2031
2036
2039
2041
2042
2042
2043
2042
2042
2040
2040
2039
2038
2037
2037
2037
2038
2038
2039
2040
2040
2040
2040
2040
2040
2039
2040
2040
2041
2042
2043
2043
2043
2043
2042
2042
2041
2040
2040
2039
2040
2042
2043
2044
2043
2043
2042
2042
2042
2042
2043
2043
2044
2044
2044
2044
2044
2044
2044
2044
2044
2043
2041
2040
2039
2039
2039
2038
2037
2035
2032
2029
2028
2029
2032
2035
2038
2039
2038
2037
2036
2035
2034
2034
2032
2031
2031
2031
2033
2037
2040
2043
2045
2045
2044
2042
2039
2037
2035
2033
2032
2032
2033
2034
2035
2036
2037
2038
2039
2040
2041
2041
2041
2040
2039
2038
2038
2037
2037
2036
2036
2036
2038
2039
2039
2039
2038
2037
2035
2034
2030
2025
2019
2013
2012
2022
2052
2106
2164
2204
2206
2166
2101
2041
2004
1995
2003
2013
2015
2010
2002
1998
1996
1994
1993
1993
1994
1996
1998
2000
2002
2003
2003
2003
2002
2003
2004
2006
2007
2009
2010
2010
2011
2011
2012
2012
2013
2014
2015
2016
2018
2020
2021
2022
2023
2024
2026
2028
2030
2032
2035
2038
2040
2043
2045
2048
2049
2052
2056
2060
2064
2068
2071
2073
2074
2075
2076
2076
2074
2072
2068
2064
2058
2051
2044
2036
2029
2022
2017
2013
2010
2007
2004
2002
2000
1998
1998
1997
1997
1998
1998
1998
1998
1999
1998
1998
1998
1999
1999
2000
2001
2001
2001
2001
2001
2000
2001
2001
2002
2003
2004
2004
2004
2004
2005
2005
2005
2005
2006
2006
2007
2010
2013
2016
2019
2020
2021
2022
2022
2022
2023
2024
2025
2025
2025
2025
2025
2024
2025
2025
2025
2026
2026
2025
2024
2022
2020
2019
2018
2018
2018
2018
2018
2018
2017
2017
2017
2017
2017
2017
2018
2018
2017
2017
2016
2016
2016
2016
2016
2017
2017
2018
2019
2021
2022
2023
2023
2024
2024
2024
2024
2024
2024
2023
2022
2022
2021
2021
2020
2019
2018
2018
2017
2017
2017
2017
2017
2018
2018
2018
2019
2019
2020
2020
2020
2020
2021
2022
2024
2027
2030
2033
2034
2035
2036
2037
2038
2038
2038
2038
2038
2038
2039
2039
2039
2039
2039
2039
2039
2040
2040
2040
2040
2040
2040
2039
2039
2039
2039
2039
2039
2038
2037
2037
2037
2038
2040
2042
2044
2045
2045
2045
2045
2045
2045
2044
2044
2043
2042
2042
2042
2042
2042
2042
2041
2040
2040
2040
2040
2040
2040
2040
2039
2039
2039
2039
2039
2040
2041
2042
2042
2043
2044
2045
2044
2043
2039
2034
2029
2027
2030
2044
2072
2123
2181
2224
2235
2204
2143
2078
2035
2022
2031
2046
2053
2051
2045
2040
2038
2035
2033
2032
2031
2031
2031
2032
2032
2033
2034
2035
2035
2036
2036
2036
2036
2035
2035
2035
2036
2037
2038
2039
2040
2041
2042
2045
2048
2052
2056
2059
2061
2063
2065
2067
2069
2071
2073
2076
2079
2082
2086
2090
2094
2098
2102
2105
2108
2112
2116
2119
2122
2124
2125
2125
2124
2122
2120
2116
2109
2101
2091
2081
2074
2069
2066
2064
2061
2058
2054
2050
2048
2048
2046
2045
2044
2044
2043
2043
2043
2044
2044
2044
2043
2043
2043
2042
2042
2042
2043
2043
2044
2044
2044
2044
2045
2045
2046
2046
2046
2045
2045
2045
2045
2044
2044
2043
2042
2042
2040
2037
2034
2032
2031
2032
2033
2034
2035
2035
2035
2035
2035
2035
2034
2033
2031
2028
2025
2022
2020
2019
2018
2019
2019
2019
2019
2019
2019
2019
2019
2020
2020
2021
2021
2021
2021
2021
2021
2021
2021
2021
2022
2023
2023
2024
2023
2023
2023
2023
2023
2024
2024
2024
2023
2023
2023
2023
2024
2025
2027
2028
2029
2030
2030
2030
2030
2031
2032
2031
2030
2029
2029
2030
2032
2035
2037
2037
2037
2037
2037
2038
2039
2039
2039
2039
2039
2039
2039
2040
2040
2040
2041
2041
2041
2042
2042
2042
2041
2040
2040
2040
2039
2039
2039
2039
2040
2041
2044
2046
2047
2048
2048
2050
2050
2050
2048
2044
2038
2033
2029
2028
2027
2027
2025
2024
2023
2023
2023
2023
2023
2023
2023
2023
2024
2024
2025
2026
2026
2027
2028
2030
2031
2034
2035
2035
2034
2029
2024
2020
2021
2032
2056
2101
2159
2210
2231
2209
2152
2083
2031
2010
2017
2036
2048
2050
2043
2034
2029
2027
2025
2025
2026
2027
2029
2030
2030
2030
2031
2031
2032
2033
2034
2036
2036
2037
2038
2039
2040
2041
2042
2043
2044
2045
2046
2048
2048
2048
2049
2050
2052
2054
2056
2059
2061
2063
2066
2069
2072
2076
2079
2084
2088
2093
2097
2100
2103
2106
2109
2112
2115
2118
2121
2122
2123
2121
2118
2112
2105
2096
2088
2078
2069
2060
2052
2045
2039
2034
2030
2027
2024
2023
2022
2021
2021
2020
2020
2020
2019
2019
2019
2018
2018
2019
2019
2019
2019
2019
2020
2020
2021
2021
2021
2022
2022
2023
2023
2023
2023
2023
2024
2024
2025
2025
2025
2025
2025
2024
2025
2025
2026
2026
2027
2027
2027
2027
2027
2027
2027
2027
2027
2028
2028
2028
2028
2028
2027
2027
2027
2028
2028
2028
2028
2028
2028
2028
2028
2028
2027
2027
2028
2028
2029
2029
2029
2029
2029
2028
2028
2028
2028
2028
2029
2029
2029
2029
2028
2028
2029
2029
2030
2030
2030
2030
2029
2029
2029
2029
2029
2030
2031
2031
2032
2032
2031
2031
2031
2031
2031
2030
2030
2031
2032
2033
2034
2035
2036
2036
2035
2035
2035
2035
2035
2034
2034
2034
2034
2035
2037
2039
2042
2044
2045
2046
2046
2046
2046
2046
2046
2045
2044
2042
2041
2040
2040
2039
2038
2038
2037
2036
2037
2037
2037
2038
2038
2038
2037
2037
2037
2036
2037
2037
2038
2038
2039
2040
2040
2040
2038
2034
2028
2025
2026
2039
2067
2116
2176
2227
2246
2223
2166
2099
2050
2034
2044
2063
2075
2076
2068
2060
2056
2055
2054
2053
2053
2053
2053
2054
2055
2056
2057
2058
2059
2059
2060
2060
2060
2061
2064
2070
2076
2082
2087
2089
2090
2090
2090
2091
2092
2093
2094
2096
2097
2099
2100
2101
2102
2104
2106
2109
2111
2114
2118
2121
2124
2127
2129
2132
2134
2136
2139
2142
2145
2146
2145
2141
2134
2124
2115
2105
2096
2088
2080
2072
2063
2055
2048
2042
2035
2028
2021
2016
2012
2011
2010
2010
2009
2008
2008
2008
2008
2008
2009
2009
2009
2010
2010
2010
2010
2011
2011
2012
2012
2013
2013
2014
2015
2015
2016
2016
2017
2017
2018
2018
2019
2019
2019
2019
2019
2019
2020
2021
2022
2022
2023
2023
2023
2023
2023
2023
2023
2024
2024
2024
2024
2024
2024
2024
2024
2024
2025
2025
2025
2025
2025
2025
2025
2025
2025
2025
2025
2026
2027
2027
2027
2027
2026
2026
2026
2026
2026
2027
2028
2028
2028
2028
2028
2027
2027
2026
2027
2027
2028
2028
2028
2028
2028
2027
2027
2027
2027
2028
2028
2028
2028
2028
2029
2029
2029
2029
2029
2030
2030
2030
2030
2030
2029
2029
2028
2028
2028
2028
2029
2029
2029
2029
2029
2029
2029
2029
2029
2030
2030
2031
2031
2031
2030
2029
2029
2030
2033
2037
2041
2044
2045
2045
2044
2043
2043
2042
2042
2042
2043
2043
2043
2042
2042
2041
2040
2038
2036
2034
2033
2033
2033
2034
2035
2034
2034
2034
2035
2036
2036
2037
2036
2035
2033
2032
2032
2032
2032
2032
2032
2033
2033
2033
2032
2032
2032
2032
2032
2033
2033
2033
2033
2034
2034
2034
2035
2036
2037
2036
2032
2026
2021
2018
2022
2038
2071
2126
2186
2228
2234
2197
2133
2069
2031
2022
2035
2049
2055
2052
2044
2038
2036
2034
2033
2033
2034
2035
2036
2037
2039
2039
2040
2040
2040
2040
2041
2042
2043
2044
2045
2046
2047
2048
2048
2048
2048
2049
2050
2051
2052
2054
2055
2057
2057
2058
2060
2061
2063
2065
2067
2069
2071
2074
2076
2079
2082
2085
2089
2093
2096
2099
2101
2103
2104
2105
2106
2107
2107
2105
2103
2099
2094
2088
2081
2074
2067
2061
2055
2050
2047
2043
2039
2036
2033
2031
2030
2029
2028
2028
2028
2027
2027
2027
2026
2026
2026
2026
2027
2027
2027
2027
2028
2028
2028
2028
2028
2028
2028
2028
2029
2029
2030
2030
2030
2029
2029
2029
2030
2031
2031
2032
2032
2031
2031
2031
2031
2031
2032
2032
2033
2033
2033
2032
2032
2031
2031
2031
2032
2032
2033
2033
2033
2033
2033
2032
2032
2032
2033
2033
2034
2035
2035
2035
2034
2034
2034
2034
2035
2035
2036
2036
2037
2037
2037
2037
2037
2037
2037
2038
2038
2038
2038
2038
2037
2037
2037
2037
2037
2037
2038
2038
2038
2037
2037
2037
2037
2037
2038
2038
2038
2038
2038
2038
2038
2038
2038
2037
2038
2038
2038
2039
2039
2039
2038
2038
2038
2038
2038
2039
2039
2040
2040
2040
2040
2039
2039
2039
2040
2040
2040
2040
2040
2040
2040
2039
2040
2040
2040
2040
2040
2041
2041
2041
2041
2041
2040
2040
2040
2040
2041
2042
2043
2043
2042
2041
2040
2040
2040
2041
2042
2044
2046
2048
2048
2048
2048
2048
2048
2050
2050
2051
2050
2048
2047
2046
2045
2045
2045
2046
2045
2045
2045
2044
2044
2043
2043
2043
2044
2044
2045
2045
2045
2045
2045
2044
2045
2046
2047
2048
2048
2044
2039
2033
2029
2031
2045
2073
2123
2181
2227
2239
2210
2150
2085
2042
2029
2038
2053
2062
2061
2052
2047
2044
2041
2040
2040
2041
2042
2043
2044
2045
2046
2046
2046
2046
2047
2047
2048
2048
2049
2049
2050
2050
2050
2051
2051
2052
2052
2053
2054
2055
2056
2057
2058
2058
2060
2061
2063
2066
2068
2070
2072
2074
2076
2078
2080
2083
2086
2090
2093
2096
2099
2102
2104
2105
2107
2108
2109
2109
2108
2106
2102
2097
2091
2084
2077
2070
2063
2057
2051
2047
2043
2039
2036
2033
2032
2031
2030
2030
2030
2030
2030
2030
2030
2030
2030
2030
2030
2031
2031
2032
2032
2032
2032
2032
2032
2032
2032
2033
2033
2033
2034
2034
2034
2034
2034
2034
