1995
1994
1994
1994
1995
1996
1996
1997
1997
1996
1997
1997
1998
1999
1999
1999
1999
1997
1996
1996
1996
1998
2000
2001
2003
2004
2005
2005
2005
2003
2002
2000
1998
1997
1997
1998
1998
1997
1997
1996
1996
1996
1996
1996
1997
1997
1996
1995
1993
1991
1990
1993
2005
2028
2053
2073
2073
2051
2014
1975
1951
1947
1959
1974
1986
1991
1992
1993
1993
1993
1993
1992
1993
1993
1994
1995
1995
1995
1995
1994
1994
1995
1995
1996
1997
1998
1998
1998
1998
1999
1999
2000
2001
2002
2004
2005
2007
2008
2010
2011
2013
2014
2015
2017
2018
2019
2019
2018
2016
2014
2011
2009
2006
2004
2001
1998
1994
1991
1988
1985
1983
1981
1980
1980
1980
1980
1979
1978
1977
1976
1975
1975
1975
1976
1977
1978
1978
1978
1977
1975
1975
1975
1975
1976
1976
1975
1974
1974
1974
1974
1973
1973
1972
1972
1972
1973
1973
1972
1972
1971
1970
1970
1970
1970
1970
1971
1971
1971
1970
1969
1968
1967
1967
1967
1968
1969
1970
1970
1968
1967
1965
1965
1966
1967
1967
1967
1966
1965
1964
1965
1966
1968
1969
1970
1971
1971
1970
1969
1967
1965
1964
1964
1964
1964
1964
1964
1964
1963
1963
1962
1962
1962
1962
1963
1963
1963
1963
1961
1959
1958
1961
1974
1997
2024
2045
2045
2021
1980
1939
1914
1911
1924
1942
1956
1963
1965
1965
1966
1965
1965
1966
1966
1967
1968
1969
1970
1970
1971
1971
1971
1972
1972
1973
1974
1975
1976
1976
1977
1978
1979
1980
1981
1983
1985
1987
1990
1993
1995
1996
1997
1998
1998
1998
1999
2001
2002
2002
2001
1999
1997
1994
1990
1987
1985
1982
1979
1977
1975
1973
1971
1969
1969
1968
1968
1968
1968
1968
1967
1967
1967
1967
1966
1966
1966
1967
1968
1969
1969
1969
1968
1967
1967
1967
1968
1969
1970
1970
1970
1970
1969
1968
1969
1969
1971
1972
1973
1974
1974
1974
1973
1972
1973
1973
1975
1976
1977
1977
1976
1976
1975
1975
1975
1975
1976
1977
1978
1978
1978
1978
1977
1976
1975
1975
1976
1977
1978
1980
1982
1983
1984
1984
1984
1984
1983
1983
1982
1981
1981
1981
1981
1980
1979
1979
1978
1978
1979
1979
1978
1978
1979
1979
1980
1980
1979
1978
1978
1984
2000
2025
2050
2064
2055
2026
1986
1952
1937
1941
1957
1973
1982
1985
1985
1986
1986
1988
1989
1989
1990
1990
1990
1990
1990
1991
1992
1993
1994
1995
1996
1996
1996
1996
1996
1997
1998
1999
2001
2002
2004
2005
2005
2007
2009
2011
2015
2018
2020
2021
2022
2022
2022
2021
2021
2020
2019
2018
2016
2013
2010
2006
2003
2000
1997
1994
1993
1992
1991
1990
1989
1988
1986
1985
1985
1985
1985
1986
1986
1987
1987
1988
1988
1988
1988
1989
1988
1988
1988
1988
1988
1988
1988
1988
1989
1990
1991
1992
1992
1992
1991
1990
1990
1990
1991
1991
1992
1992
1993
1993
1993
1993
1993
1993
1993
1993
1994
1994
1995
1995
1995
1994
1993
1992
1992
1992
1993
1995
1995
1995
1994
1992
1991
1991
1993
1995
1998
2000
2001
2002
2002
2001
2000
1998
1996
1995
1994
1994
1994
1994
1994
1993
1993
1993
1994
1994
1995
1995
1996
1995
1995
1994
1992
1991
1995
2006
2028
2052
2071
2071
2048
2012
1976
1954
1951
1963
1979
1991
1997
1998
1999
1999
2000
2000
2000
2000
2000
2000
2001
2001
2002
2002
2002
2003
2003
2003
2004
2004
2005
2006
2007
2008
2008
2009
2009
2010
2011
2013
2015
2018
2019
2021
2022
2023
2024
2025
2027
2028
2029
2028
2027
2025
2023
2020
2018
2016
2014
2011
2008
2006
2003
2000
1998
1996
1995
1994
1993
1993
1992
1992
1992
1991
1991
1991
1990
1990
1990
1991
1991
1992
1992
1992
1992
1991
1991
1991
1991
1991
1991
1991
1991
1991
1991
1991
1991
1990
1991
1991
1992
1992
1992
1991
1991
1991
1991
1991
1991
1991
1992
1992
1992
1991
1990
1990
1990
1990
1991
1991
1991
1991
1991
1990
1990
1989
1989
1989
1989
1989
1989
1989
1988
1988
1987
1988
1989
1991
1992
1993
1994
1994
1993
1992
1991
1990
1989
1987
1987
1986
1986
1986
1986
1985
1984
1983
1983
1983
1984
1985
1986
1986
1985
1983
1980
1982
1991
2012
2039
2060
2066
2048
2012
1971
1941
1932
1941
1957
1972
1980
1984
1985
1986
1987
1986
1986
1985
1986
1987
1988
1990
1990
1990
1989
1989
1989
1989
1990
1991
1992
1993
1994
1995
1995
1995
1996
1997
1998
1999
2001
2003
2004
2006
2008
2010
2011
2011
2012
2013
2014
2014
2015
2014
2012
2009
2005
2002
1999
1996
1993
1990
1986
1983
1981
1979
1977
1976
1975
1974
1974
1975
1975
1974
1973
1971
1970
1969
1970
1971
1971
1972
1972
1972
1971
1971
1971
1970
1970
1969
1969
1970
1970
1971
1971
1971
1970
1970
1970
1970
1971
1972
1973
1973
1973
1972
1972
1973
1973
1973
1973
1973
1973
1974
1974
1974
1974
1973
1972
1972
1971
1972
1973
1973
1973
1973
1972
1973
1974
1976
1978
1979
1979
1979
1979
1979
1978
1977
1976
1975
1975
1975
1975
1975
1974
1973
1972
1972
1972
1972
1973
1973
1974
1973
1972
1971
1969
1968
1970
1980
2001
2028
2050
2056
2039
2002
1959
1930
1921
1932
1949
1964
1972
1974
1975
1976
1977
1977
1978
1979
1980
1980
1981
1981
1981
1981
1981
1982
1984
1985
1986
1987
1987
1987
1987
1988
1990
1991
1992
1994
1995
1996
1998
2000
2003
2005
2007
2008
2010
2011
2012
2013
2013
2012
2011
2009
2008
2007
2006
2003
2000
1997
1993
1989
1987
1984
1983
1981
1980
1979
1978
1978
1978
1978
1977
1977
1976
1975
1974
1974
1975
1976
1977
1978
1978
1978
1978
1978
1978
1977
1977
1977
1976
1976
1976
1976
1976
1977
1978
1978
1979
1979
1979
1979
1979
1979
1979
1979
1979
1979
1979
1980
1981
1981
1981
1981
1980
1979
1979
1980
1981
1982
1983
1982
1981
1980
1980
1979
1980
1980
1980
1980
1980
1980
1980
1981
1982
1983
1985
1986
1987
1987
1987
1986
1984
1982
1981
1980
1980
1981
1981
1980
1980
1979
1979
1979
1979
1979
1979
1979
1980
1980
1980
1979
1977
1978
1984
1999
2023
2048
2060
2051
2023
1983
1950
1935
1938
1952
1967
1977
1981
1982
1984
1984
1984
1983
1982
1982
1982
1984
1985
1986
1986
1986
1986
1987
1987
1988
1989
1989
1988
1988
1989
1990
1992
1994
1995
1996
1997
1999
2001
2003
2005
2007
2008
2009
2009
2010
2011
2013
2013
2013
2012
2011
2009
2007
2004
2001
1997
1993
1990
1988
1987
1985
1983
1981
1979
1977
1977
1977
1977
1977
1977
1977
1977
1976
1976
1976
1976
1976
1976
1976
1977
1977
1977
1977
1977
1977
1978
1978
1978
1978
1978
1978
1978
1978
1978
1978
1978
1978
1979
1979
1979
1979
1979
1978
1978
1978
1979
1980
1981
1982
1981
1981
1979
1978
1978
1978
1979
1979
1979
1979
1979
1979
1979
1979
1978
1977
1977
1977
1979
1981
1983
1984
1985
1985
1985
1985
1984
1983
1981
1980
1979
1979
1979
1978
1977
1977
1977
1978
1978
1979
1978
1977
1976
1977
1977
1978
1977
1976
1974
1975
1983
2000
2026
2048
2058
2045
2011
1970
1939
1927
1934
1951
1966
1974
1976
1976
1977
1978
1979
1980
1981
1982
1982
1981
1981
1981
1981
1982
1983
1984
1985
1985
1985
1985
1985
1985
1986
1987
1989
1990
1991
1992
1993
1994
1996
1998
2000
2002
2004
2006
2008
2008
2009
2008
2008
2008
2007
2006
2004
2002
1999
1996
1992
1988
1984
1982
1980
1978
1977
1976
1974
1973
1971
1970
1969
1969
1969
1970
1970
1970
1970
1970
1969
1968
1968
1968
1968
1969
1969
1970
1971
1971
1971
1970
1970
1969
1970
1970
1971
1972
1973
1973
1973
1972
1972
1971
1971
1972
1973
1973
1973
1973
1973
1973
1974
1974
1974
1974
1973
1973
1973
1974
1974
1974
1974
1973
1973
1972
1972
1973
1973
1973
1974
1974
1975
1976
1977
1978
1979
1978
1977
1976
1975
1974
1973
1973
1972
1972
1972
1972
1972
1972
1972
1971
1971
1970
1971
1971
1972
1972
1970
1969
1969
1975
1993
2020
2047
2058
2048
2013
1968
1932
1916
1921
1937
1955
1966
1970
1972
1974
1975
1975
1975
1975
1975
1975
1976
1977
1978
1979
1980
1980
1980
1980
1980
1981
1982
1983
1985
1986
1988
1989
1989
1989
1990
1991
1992
1995
1998
2001
2004
2006
2007
2007
2008
2008
2008
2009
2009
2008
2007
2005
2002
1999
1995
1991
1988
1985
1983
1981
1979
1977
1974
1973
1971
1971
1970
1971
1971
1971
1972
1972
1972
1972
1971
1971
1972
1972
1973
1973
1974
1974
1973
1972
1972
1971
1971
1972
1973
1974
1975
1975
1974
1975
1975
1975
1976
1976
1977
1977
1978
1978
1979
1978
1978
1978
1978
1978
1979
1980
1980
1980
1979
1978
1977
1977
1978
1979
1980
1981
1980
1979
1979
1978
1977
1977
1977
1977
1977
1978
1979
1980
1982
1984
1984
1984
1984
1984
1984
1983
1981
1980
1978
1978
1977
1977
1978
1978
1978
1978
1978
1977
1977
1976
1976
1977
1978
1978
1977
1976
1975
1978
1991
2014
2041
2059
2057
2034
1995
1957
1935
1934
1946
1963
1974
1979
1980
1980
1981
1981
1982
1982
1982
1982
1983
1983
1984
1985
1985
1986
1987
1987
1988
1988
1988
1988
1989
1989
1990
1990
1991
1992
1994
1995
1996
1998
2000
2002
2004
2006
2007
2008
2009
2010
2010
2010
2010
2009
2009
2008
2006
2003
2000
1997
1993
1989
1986
1984
1983
1981
1980
1978
1977
1976
1975
1974
1974
1975
1975
1975
1975
1975
1975
1975
1975
1975
1975
1976
1976
1977
1977
1977
1977
1977
1976
1976
1977
1977
1978
1978
1978
1977
1977
1977
1978
1978
1979
1979
1980
1980
1980
1980
1980
1979
1979
1979
1980
1980
1981
1982
1982
1982
1982
1981
1980
1980
1980
1980
1981
1982
1982
1982
1982
1981
1980
1979
1979
1978
1978
1979
1981
1982
1984
1985
1985
1984
1984
1984
1984
1983
1982
1981
1980
1979
1978
1978
1977
1977
1978
1978
1978
1977
1976
1976
1976
1976
1977
1977
1977
1976
1975
1979
1990
2011
2037
2054
2054
2033
1995
1959
1936
1934
1945
1961
1972
1977
1979
1980
1981
1982
1982
1982
1981
1981
1981
1981
1982
1983
1984
1986
1987
1987
1987
1986
1985
1985
1985
1987
1989
1990
1991
1992
1992
1993
1994
1996
1998
2000
2002
2004
2006
2007
2008
2008
2008
2007
2007
2007
2006
2005
2004
2002
1998
1994
1990
1987
1984
1982
1981
1979
1978
1976
1974
1973
1972
1971
1971
1972
1972
1973
1972
1971
1970
1970
1969
1970
1970
1971
1972
1972
1972
1972
1971
1970
1970
1969
1970
1970
1971
1972
1972
1972
1972
1971
1971
1970
1971
1972
1972
1973
1972
1972
1971
1970
1970
1970
1971
1971
1971
1971
1972
1971
1971
1971
1970
1970
1970
1970
1970
1971
1971
1971
1971
1970
1970
1969
1968
1968
1969
1970
1971
1972
1973
1974
1975
1976
1977
1977
1977
1975
1974
1972
1972
1971
1971
1970
1970
1970
1969
1970
1970
1971
1971
1971
1971
1971
1971
1971
1971
1970
1968
1970
1978
1997
2025
2048
2056
2040
2001
1956
1923
1913
1922
1940
1956
1965
1967
1968
1969
1971
1971
1972
1972
1972
1972
1973
1974
1975
1976
1977
1977
1977
1976
1975
1976
1977
1978
1980
1982
1983
1983
1983
1983
1983
1985
1986
1989
1991
1994
1996
1998
2000
2001
2001
2001
2002
2001
2001
2001
2000
1998
1995
1991
1987
1983
1980
1977
1975
1973
1971
1970
1968
1966
1964
1963
1962
1962
1963
1963
1964
1964
1964
1963
1962
1962
1962
1962
1963
1963
1964
1964
1964
1964
1964
1964
1964
1964
1965
1966
1966
1966
1966
1965
1965
1965
1965
1966
1967
1968
1969
1970
1970
1970
1970
1970
1969
1970
1970
1971
1971
1972
1971
1971
1971
1971
1971
1972
1972
1972
1973
1974
1974
1973
1971
1970
1969
1970
1972
1975
1978
1980
1981
1982
1982
1981
1980
1979
1979
1978
1978
1979
1979
1978
1977
1976
1976
1975
1976
1977
1978
1978
1978
1978
1978
1977
1976
1974
1975
1982
2001
2028
2054
2066
2054
2021
1978
1944
1931
1937
1954
1971
1980
1982
1982
1982
1983
1983
1985
1987
1988
1989
1989
1989
1989
1989
1990
1990
1991
1991
1992
1993
1994
1995
1995
1995
1995
1996
1999
2001
2004
2005
2006
2007
2008
2010
2012
2014
2017
2018
2020
2021
2021
2021
2020
2019
2017
2015
2013
2011
2009
2006
2003
2000
1997
1993
1990
1989
1988
1989
1989
1990
1990
1989
1988
1987
1986
1987
1988
1988
1989
1989
1989
1989
1988
1987
1987
1987
1988
1989
1990
1991
1990
1989
1988
1987
1987
1988
1989
1989
1989
1989
1990
1990
1989
1989
1989
1989
1990
1991
1991
1991
1991
1990
1989
1989
1989
1989
1990
1990
1991
1991
1990
1990
1990
1989
1988
1987
1987
1988
1989
1990
1990
1989
1988
1988
1988
1988
1988
1988
1988
1988
1987
1986
1985
1986
1987
1989
1991
1992
1993
1993
1993
1992
1990
1988
1986
1985
1985
1985
1986
1986
1986
1985
1985
1984
1984
1983
1984
1984
1985
1986
1986
1986
1984
1983
1987
1999
2022
2048
2067
2067
2045
2006
1967
1943
1940
1952
1969
1982
1988
1990
1990
1990
1990
1990
1991
1991
1992
1994
1995
1996
1997
1997
1997
1998
1998
1999
2000
2001
2002
2003
2004
2004
2005
2006
2007
2008
2010
2011
2013
2016
2018
2020
2023
2025
2026
2027
2029
2030
2031
2032
2032
2031
2030
2028
2027
2025
2023
2020
2017
2014
2012
2010
2009
2007
2005
2004
2004
2004
2005
2006
2006
2006
2005
2004
2004
2005
2006
2008
2008
2009
2008
2008
2008
2008
2009
2010
2011
2012
2012
2012
2013
2013
2013
2013
2013
2014
2015
2015
2016
2016
2016
2016
2016
2017
2017
2018
2020
2021
2021
2021
2021
2020
2020
2020
2020
2021
2021
2022
2022
2022
2022
2022
2022
2023
2025
2026
2027
2027
2028
2027
2027
2027
2026
2026
2025
2025
2027
2029
2031
2033
2034
2034
2034
2033
2033
2033
2033
2033
2032
2031
2030
2030
2029
2029
2029
2029
2029
2030
2029
2029
2028
2028
2029
2029
2030
2029
2028
2026
2029
2039
2059
2087
2109
2113
2092
2052
2010
1981
1973
1984
2003
2017
2025
2026
2026
2027
2028
2029
2030
2030
2031
2031
2030
2030
2030
2031
2032
2033
2034
2034
2034
2034
2034
2034
2034
2035
2036
2038
2039
2040
2041
2042
2043
2044
2045
2047
2048
2050
2052
2054
2054
2054
2054
2053
2052
2050
2049
2048
2046
2043
2040
2036
2032
2028
2025
2022
2020
2019
2017
2016
2014
2013
2012
2011
2010
2010
2010
2010
2010
2010
2010
2010
2009
2008
2008
2008
2008
2009
2009
2009
2009
2008
2008
2007
2007
2007
2007
2008
2009
2009
2010
2010
2009
2009
2009
2008
2008
2009
2009
2010
2010
2010
2009
2008
2007
2007
2008
2009
2010
2010
2010
2010
2009
2008
2008
2008
2009
2009
2009
2008
2008
2007
2006
2005
2004
2004
2004
2005
2007
2009
2010
2011
2011
2011
2010
2010
2009
2009
2008
2007
2006
2005
2004
2003
2002
2002
2003
2003
2003
2003
2002
2001
2000
2000
2000
1999
1998
1997
1997
2003
2019
2045
2071
2086
2078
2048
2004
1965
1945
1947
1963
1980
1991
1995
1996
1998
1999
2000
2000
2000
1999
1999
1999
1999
1999
2000
2000
2001
2002
2002
2003
2003
2003
2003
2004
2004
2005
2006
2006
2007
2008
2009
2010
2011
2012
2014
2017
2019
2021
2023
2023
2023
2023
2023
2023
2023
2022
2021
2018
2015
2011
2007
2004
2000
1997
1994
1992
1991
1989
1987
1985
1983
1982
1981
1982
1982
1983
1983
1984
1984
1984
1983
1982
1981
1981
1980
1980
1981
1981
1982
1982
1981
1980
1980
1979
1979
1980
1981
1981
1982
1982
1981
1980
1980
1979
1979
1980
1981
1982
1982
1982
1982
1981
1980
1980
1980
1980
1981
1981
1980
1980
1979
1979
1978
1978
1978
1979
1979
1979
1979
1978
1977
1976
1976
1975
1976
1976
1977
1978
1978
1978
1977
1976
1974
1973
1972
1971
1972
1974
1977
1979
1980
1980
1979
1978
1977
1977
1977
1977
1976
1974
1973
1972
1971
1971
1970
1971
1971
1971
1971
1970
1970
1970
1970
1969
1968
1967
1966
1967
1974
1989
2013
2039
2051
2045
2015
1975
1939
1921
1923
1938
1953
1963
1967
1967
1968
1968
1969
1970
1970
1971
1971
1971
1971
1971
1971
1972
1972
1973
1973
1973
1973
1973
1974
1974
1975
1976
1977
1978
1979
1980
1981
1981
1982
1983
1985
1986
1988
1990
1992
1993
1994
1994
1993
1993
1992
1991
1990
1989
1986
1984
1981
1977
1974
1970
1967
1965
1964
1963
1962
1961
1959
1958
1957
1956
1956
1957
1957
1957
1957
1956
1956
1956
1956
1956
1956
1956
1956
1956
1956
1956
1956
1956
1956
1955
1955
1955
1956
1957
1958
1959
1958
1957
1957
1957
1957
1958
1958
1959
1959
1959
1959
1959
1959
1959
1960
1960
1960
1960
1960
1959
1959
1958
1957
1958
1958
1960
1960
1960
1960
1959
1958
1958
1958
1958
1958
1958
1958
1957
1957
1956
1956
1957
1959
1961
1962
1963
1964
1964
1964
1963
1962
1961
1959
1958
1958
1958
1959
1959
1959
1958
1956
1955
1955
1955
1955
1956
1957
1957
1957
1956
1954
1952
1954
1964
1984
2012
2035
2040
2022
1984
1942
1912
1903
1912
1930
1945
1953
1956
1957
1958
1958
1958
1959
1959
1960
1961
1961
1963
1963
1964
1964
1964
1963
1963
1964
1965
1967
1968
1969
1970
1970
1971
1971
1971
1972
1973
1975
1978
1980
1982
1983
1984
1985
1986
1987
1989
1990
1991
1991
1990
1988
1985
1981
1978
1975
1972
1969
1967
1965
1962
1960
1958
1955
1953
1952
1952
1952
1952
1953
1952
1951
1950
1949
1950
1950
1951
1952
1953
1953
1952
1951
1950
1950
1950
1950
1950
1950
1951
1951
1951
1951
1952
1952
1953
1953
1953
1953
1953
1953
1953
1953
1954
1954
1954
1954
1954
1955
1955
1955
1955
1954
1954
1954
1953
1953
1953
1953
1953
1954
1954
1954
1954
1953
1953
1953
1953
1954
1954
1954
1953
1952
1951
1952
1953
1955
1957
1959
1961
1961
1960
1959
1957
1957
1956
1956
1956
1955
1954
1953
1953
1953
1953
1953
1953
1953
1954
1954
1955
1955
1954
1953
1952
1950
1954
1966
1990
2021
2044
2045
2020
1976
1930
1901
1896
1910
1930
1946
1954
1956
1957
1958
1958
1959
1959
1960
1962
1963
1964
1965
1965
1965
1965
1965
1966
1966
1967
1969
1970
1972
1972
1973
1973
1974
1975
1977
1979
1981
1983
1985
1987
1989
1991
1993
1995
1997
1998
2000
2000
2000
1999
1998
1995
1993
1991
1988
1985
1982
1979
1976
1974
1971
1969
1967
1966
1964
1964
1963
1963
1964
1964
1964
1964
1964
1964
1964
1965
1965
1965
1965
1965
1965
1965
1966
1966
1966
1966
1967
1968
1968
1968
1969
1969
1969
1969
1970
1970
1972
1973
1974
1974
1974
1974
1974
1974
1974
1975
1976
1977
1977
1976
1976
1975
1975
1975
1976
1977
1977
1978
1978
1978
1978
1978
1978
1978
1978
1978
1979
1979
1980
1980
1980
1979
1978
1978
1978
1979
1982
1984
1986
1988
1988
1988
1988
1988
1988
1987
1987
1987
1987
1986
1986
1985
1985
1985
1985
1985
1986
1986
1986
1987
1987
1987
1987
1986
1985
1983
1984
1991
2006
2031
2058
2074
2069
2042
2001
1964
1944
1945
1959
1976
1987
1991
1992
1992
1993
1994
1995
1996
1996
1997
1997
1997
1997
1997
1997
1998
1999
2001
2002
2003
2003
2003
2003
2004
2005
2007
2009
2010
2012
2013
2013
2014
2016
2017
2020
2022
2024
2027
2028
2029
2029
2029
2028
2027
2026
2025
2023
2020
2018
2015
2012
2009
2005
2003
2001
2000
1999
1999
1998
1996
1995
1994
1994
1993
1994
1994
1995
1995
1995
1995
1995
1994
1994
1994
1995
1995
1996
1996
1997
1997
1996
1995
1995
1995
1995
1995
1996
1996
1996
1996
1995
1995
1994
1994
1995
1996
1996
1997
1998
1998
1998
1997
1996
1996
1996
1997
1998
1998
1998
1998
1997
1996
1995
1995
1995
1996
1996
1997
1997
1997
1996
1995
1994
1995
1995
1996
1997
1997
1996
1995
1993
1993
1993
1995
1997
2000
2001
2002
2001
2000
1998
1996
1995
1994
1993
1994
1994
1994
1993
1993
1992
1991
1991
1991
1991
1991
1991
1992
1992
1992
1990
1988
1986
1989
2000
2021
2048
2070
2074
2054
2017
1975
1947
1940
1950
1967
1981
1989
1991
1991
1991
1990
1990
1990
1990
1991
1992
1992
1993
1993
1993
1993
1994
1994
1995
1995
1996
1997
1997
1998
1998
1998
1999
1999
2001
2003
2005
2007
2008
2009
2011
2012
2014
2016
2017
2019
2019
2020
2020
2019
2017
2015
2012
2009
2006
2004
2002
1999
1996
1993
1991
1988
1986
1985
1984
1983
1983
1983
1983
1982
1981
1980
1980
1980
1981
1981
1981
1982
1982
1982
1983
1983
1982
1981
1980
1980
1981
1982
1983
1983
1982
1982
1982
1983
1984
1984
1985
1985
1985
1985
1984
1984
1984
1984
1984
1985
1987
1988
1988
1986
1985
1983
1983
1983
1984
1985
1985
1986
1986
1985
1984
1983
1982
1981
1981
1982
1982
1983
1983
1983
1982
1982
1982
1982
1982
1982
1982
1982
1981
1981
1980
1981
1982
1984
1986
1988
1989
1990
1990
1990
1988
1986
1984
1983
1983
1984
1984
1984
1984
1983
1982
1981
1981
1980
1981
1981
1982
1983
1984
1983
1981
1979
1980
1986
2004
2031
2056
2068
2057
2025
1981
1946
1930
1934
1951
1968
1979
1984
1985
1985
1985
1985
1985
1985
1985
1986
1987
1988
1989
1990
1991
1992
1993
1993
1994
1994
1995
1996
1997
1997
1998
1998
1999
1999
2000
2002
2005
2009
2012
2013
2014
2013
2013
2015
2017
2019
2021
2022
2022
2021
2020
2018
2015
2011
2008
2005
2003
2000
1997
1994
1991
1989
1987
1985
1984
1984
1983
1983
1983
1982
1982
1982
1982
1982
1983
1984
1985
1985
1984
1983
1981
1980
1980
1981
1982
1983
1984
1985
1984
1983
1981
1980
1980
1980
1981
1982
1982
1982
1982
1982
1982
1982
1982
1982
1982
1982
1983
1983
1984
1984
1984
1982
1981
1980
1981
1981
1982
1983
1983
1983
1983
1982
1981
1981
1980
1979
1979
1979
1981
1982
1984
1985
1985
1984
1984
1984
1983
1983
1981
1979
1978
1976
1976
1976
1976
1977
1978
1978
1978
1977
1977
1976
1976
1976
1976
1975
1975
1974
1978
1988
2010
2039
2062
2068
2048
2007
1960
1926
1917
1928
1948
1966
1976
1979
1981
1981
1982
1983
1984
1984
1984
1984
1984
1985
1986
1987
1989
1990
1990
1989
1989
1989
1990
1991
1991
1993
1994
1996
1998
1999
2000
2001
2002
2004
2007
2010
2013
2015
2017
2018
2018
2019
2019
2019
2019
2018
2017
2015
2012
2008
2004
2000
1996
1993
1991
1989
1987
1985
1984
1983
1982
1981
1980
1978
1978
1979
1981
1983
1984
1983
1982
1981
1981
1982
1982
1982
1982
1982
1982
1982
1982
1982
1981
1981
1981
1982
1983
1985
1985
1985
1984
1983
1983
1983
1984
1986
1987
1988
1988
1988
1988
1988
1988
1988
1988
1988
1989
1990
1991
1991
1991
1990
1989
1988
1988
1988
1988
1988
1988
1988
1988
1988
1987
1987
1987
1987
1987
1987
1987
1987
1987
1988
1989
1991
1992
1994
1994
1994
1993
1992
1991
1990
1988
1988
1987
1987
1987
1988
1987
1987
1986
1985
1984
1983
1983
1984
1985
1985
1985
1983
1982
1986
1998
2022
2049
2068
2066
2041
1999
1959
1935
1933
1946
1963
1975
1980
1981
1981
1981
1982
1981
1981
1981
1981
1981
1982
1983
1983
1983
1982
1982
1981
1980
1980
1981
1982
1984
1984
1984
1984
1983
1983
1984
1986
1987
1988
1989
1991
1993
1994
1996
1996
1995
1995
1996
1997
1998
1998
1997
1995
1991
1987
1983
1978
1975
1972
1969
1967
1964
1961
1958
1956
1954
1953
1952
1952
1952
1951
1950
1949
1948
1947
1947
1946
1946
1945
1945
1945
1946
1945
1945
1944
1943
1942
1942
1942
1942
1941
1941
1940
1939
1938
1937
1937
1937
1936
1936
1937
1937
1937
1936
1935
1935
1935
1935
1935
1935
1935
1935
1935
1935
1934
1933
1932
1932
1931
1932
1932
1933
1933
1932
1931
1931
1930
1930
1930
1930
1930
1930
1929
1929
1928
1928
1929
1931
1933
1934
1935
1935
1934
1933
1931
1930
1929
1928
1928
1928
1928
1928
1928
1927
1927
1927
1927
1928
1929
1930
1930
1931
1931
1930
1929
1927
1928
1934
1951
1978
2005
2019
2011
1980
1938
1902
1885
1888
1904
1922
1933
1937
1937
1937
1937
1937
1938
1940
1941
1942
1942
1942
1943
1943
1943
1944
1944
1945
1946
1948
1949
1950
1951
1951
1950
1951
1952
1954
1956
1959
1961
1963
1965
1967
1969
1971
1973
1974
1976
1978
1979
1980
1980
1979
1978
1977
1976
1974
1972
1969
1966
1962
1959
1956
1954
1953
1952
1952
1951
1951
1951
1952
1952
1952
1952
1952
1951
1952
1953
1954
1955
1956
1956
1956
1956
1956
1956
1957
1958
1959
1960
1961
1961
1961
1961
1961
1962
1963
1964
1964
1965
1964
1965
1965
1966
1967
1968
1969
1969
1970
1971
1971
1972
1972
1973
1973
1973
1974
1974
1975
1975
1976
1976
1976
1975
1975
1976
1976
1978
1979
1981
1981
1981
1980
1979
1978
1978
1979
1981
1982
1983
1983
1982
1982
1982
1982
1981
1981
1982
1984
1986
1988
1990
1991
1991
1992
1993
1993
1992
1991
1989
1987
1987
1987
1987
1988
1988
1989
1989
1989
1989
1989
1989
1989
1989
1989
1990
1990
1990
1990
1991
1997
2012
2038
2065
2080
2073
2042
1997
1958
1938
1941
1958
1977
1989
1994
1995
1995
1997
1998
1999
1999
1999
2000
2000
2001
2002
2002
2002
2003
2004
2005
2006
2006
2006
2006
2007
2009
2012
2015
2016
2016
2015
2015
2016
2019
2021
2024
2026
2028
2030
2032
2034
2035
2036
2036
2036
2036
2036
2035
2033
2030
2026
2023
2019
2015
2011
2008
2006
2004
2003
2002
2001
2000
1999
1998
1998
1998
1998
1999
1999
2000
2000
2000
1999
1998
1997
1997
1997
1998
2000
2001
2001
2001
2000
2000
2000
2001
2002
2003
2003
2003
2003
2003
2003
2004
2005
2006
2006
2006
2006
2007
2007
2007
2007
2007
2007
2008
2009
2009
2010
2010
2010
2009
2008
2008
2007
2007
2008
2009
2009
2009
2009
2009
2008
2008
2008
2008
2008
2008
2008
2008
2007
2007
2007
2008
2010
2012
2014
2016
2017
2017
2017
2015
2013
2010
2008
2008
2008
2010
2011
2012
2011
2010
2008
2007
2007
2008
2008
2009
2010
2010
2010
2008
2006
2006
2011
2027
2053
2082
2100
2094
2062
2017
1976
1954
1956
1973
1992
2004
2009
2010
2010
2011
2012
2013
2013
2013
2012
2012
2013
2013
2014
2014
2015
2015
2014
2014
2015
2015
2017
2018
2020
2021
2021
2021
2021
2021
2023
2026
2029
2031
2033
2033
2034
2035
2037
2039
2040
2041
2042
2042
2041
2039
2036
2032
2028
2025
2023
2020
2017
2014
2011
2009
2006
2003
2001
2000
2001
2002
2003
2003
2001
2000
1999
1999
2000
2000
2001
2001
2001
2001
2001
2001
2001
2001
2000
2000
2001
2001
2002
2001
2000
1999
1998
1998
1999
2000
2001
2002
2002
2003
2003
2002
2002
2002
2002
2002
2002
2002
2002
2002
2003
2004
2004
2003
2003
2002
2002
2003
2004
2004
2004
2003
2003
2002
2002
2003
2004
2004
2005
2005
2004
2003
2003
2003
2003
2004
2004
2005
2005
2005
2005
2005
2005
2005
2004
2004
2004
2003
2003
2004
2005
2006
2008
2010
2011
2012
2012
2013
2012
2011
2010
2008
2007
2006
2006
2007
2007
2008
2007
2007
2006
2005
2004
2004
2004
2005
2006
2006
2005
2003
2002
2004
2014
2035
2060
2083
2089
2071
2037
1997
1968
1958
1966
1980
1993
2000
2003
2004
2006
2007
2007
2007
2005
2004
2003
2004
2005
2007
2009
2010
2009
2008
2008
2008
2009
2011
2013
2014
2014
2013
2013
2013
2014
2016
2019
2021
2023
2025
2027
2029
2032
2034
2035
2035
2034
2033
2033
2034
2034
2033
2032
2030
2026
2023
2019
2016
2013
2010
2008
2005
2003
2002
2000
1998
1997
1997
1996
1996
1996
1996
1997
1997
1996
1995
1994
1994
1995
1996
1997
1997
1996
1996
1996
1997
1998
1998
1999
1999
1999
2000
2000
2000
1999
1999
1999
2000
2002
2004
2005
2005
2005
2006
2006
2007
2008
2008
2008
2009
2010
2011
2012
2013
2013
2013
2013
2013
2013
2013
2013
2012
2012
2011
2010
2009
2008
2008
2009
2010
2011
2010
2009
2007
2006
2006
2006
2006
2006
2005
2005
2005
2005
2005
2005
2005
2005
2004
2003
2002
2001
2001
2002
2003
2005
2007
2007
2007
2006
2005
2003
2002
2001
2000
1999
1997
1996
1995
1994
1992
1991
1990
1990
1990
1991
1991
1991
1991
1990
1989
1987
1985
1984
1986
1997
2019
2047
2069
2073
2052
2011
1967
1937
1929
1939
1956
1969
1976
1977
1977
1978
1979
1979
1980
1980
1979
1978
1977
1976
1976
1977
1979
1980
1980
1980
1980
1980
1981
1982
1984
1986
1988
1990
1990
1991
1991
1993
1995
1998
2000
2002
2003
2003
2004
2004
2006
2007
2009
2010
2011
2009
2007
2004
2000
1995
1991
1986
1982
1979
1977
1974
1972
1970
1968
1966
1964
1963
1962
1962
1962
1962
1962
1962
1961
1961
1962
1963
1964
1965
1966
1966
1966
1966
1966
1966
1965
1964
1962
1962
1962
1962
1962
1962
1962
1962
1962
1962
1962
1963
1964
1965
1965
1965
1965
1964
1965
1966
1967
1968
1968
1969
1969
1970
1971
1972
1973
1973
1974
1974
1974
1975
1975
1976
1977
1977
1978
1978
1978
1978
1978
1979
1979
1979
1978
1978
1977
1976
1975
1974
1975
1976
1978
1980
1980
1980
1979
1979
1978
1978
1977
1976
1975
1974
1972
1971
1970
1969
1970
1970
1971
1971
1971
1971
1970
1970
1970
1970
1969
1968
1968
1972
1984
2007
2036
2058
2061
2038
1994
1948
1917
1910
1923
1943
1958
1966
1968
1969
1971
1972
1974
1975
1976
1976
1975
1975
1975
1976
1977
1977
1978
1978
1979
1980
1980
1981
1982
1984
1985
1986
1987
1988
1989
1990
1991
1993
1995
1997
1999
2002
2004
2007
2009
2010
2011
2011
2011
2011
2010
2009
2008
2005
2002
1998
1994
1990
1986
1983
1980
1977
1976
1975
1974
1973
1972
1970
1969
1969
1970
1972
1975
1977
1978
1978
1978
1977
1976
1977
1977
1979
1980
1981
1981
1980
1979
1979
1978
1979
1979
1979
1980
1980
1980
1980
1981
1981
1981
1982
1982
1983
1983
1984
1984
1984
1984
1984
1984
1984
1983
1984
1984
1984
1984
1983
1982
1981
1980
1979
1979
1979
1979
1980
1980
1979
1978
1977
1976
1975
1975
1976
1976
1977
1977
1978
1978
1979
1979
1979
1979
1979
1978
1977
1975
1972
1971
1969
1969
1969
1969
1969
1969
1968
1968
1967
1967
1966
1965
1964
1964
1964
1964
1967
1975
1995
2023
2050
2061
2046
2004
1953
1913
1897
1905
1925
1945
1957
1962
1963
1964
1965
1966
1966
1967
1967
1968
1967
1968
1968
1969
1970
1972
1972
1973
1973
1973
1973
1974
1975
1976
1978
1980
1982
1983
1984
1984
1984
1985
1987
1989
1993
1996
1998
1999
2000
2000
2000
2000
2000
1999
1998
1995
1992
1988
1984
1979
1975
1970
1966
1963
1960
1959
1957
1956
1954
1953
1951
1950
1949
1950
1950
1951
1951
1950
1950
1949
1949
1949
1949
1950
1951
1952
1952
1950
1949
1947
1945
1945
1946
1947
1948
1949
1950
1951
1951
1951
1951
1950
1951
1951
1952
1953
1954
1955
1955
1955
1954
1954
1953
1954
1956
1957
1958
1957
1955
1952
1951
1950
1951
1951
1951
1950
1950
1949
1949
1949
1949
1949
1948
1949
1952
1954
1957
1960
1961
1961
1959
1957
1955
1953
1952
1952
1954
1955
1956
1956
1954
1952
1951
1951
1953
1954
1955
1955
1955
1953
1952
1952
1957
1971
1998
2030
2052
2050
2020
1968
1917
1886
1884
1902
1927
1945
1953
1955
1957
1958
1960
1961
1961
1962
1962
1963
1964
1965
1966
1966
1965
1965
1965
1966
1968
1969
1971
1971
1971
1972
1972
1972
1974
1976
1978
1981
1983
1985
1987
1989
1991
1993
1996
1998
1999
2000
2001
2001
2000
1999
1997
1993
1990
1986
1982
1979
1975
1971
1968
1964
1961
1959
1958
1957
1957
1957
1958
1958
1958
1957
1957
1956
1956
1957
1958
1959
1960
1960
1960
1960
1960
1959
1959
1959
1960
1961
1962
1962
1962
1962
1962
1962
1962
1963
1964
1965
1966
1967
1967
1968
1969
1969
1970
1970
1971
1971
1972
1972
1973
1973
1973
1973
1973
1973
1973
1974
1974
1974
1975
1975
1975
1975
1974
1975
1975
1976
1977
1977
1977
1976
1976
1976
1977
1977
1977
1977
1976
1975
1975
1976
1978
1980
1981
1982
1982
1982
1981
1980
1979
1977
1975
1974
1973
1973
1973
1974
1974
1975
1975
1975
1975
1975
1975
1976
1976
1976
1975
1973
1972
1972
1978
1994
2022
2052
2071
2066
2033
1983
1937
1912
1913
1931
1952
1967
1972
1973
1974
1975
1977
1979
1980
1981
1982
1983
1984
1985
1986
1987
1988
1988
1988
1988
1988
1989
1990
1992
1993
1994
1995
1996
1997
1999
2001
2003
2005
2007
2008
2010
2013
2015
2018
2019
2021
2021
2022
2022
2022
2021
2019
2016
2013
2009
2005
2002
1999
1997
1994
1992
1989
1987
1984
1982
1981
1981
1981
1981
1981
1980
1980
1979
1979
1979
1979
1979
1979
1979
1979
1979
1979
1979
1978
1977
1977
1977
1978
1978
1979
1979
1980
1980
1979
1979
1979
1979
1980
1982
1983
1983
1983
1983
1982
1982
1982
1983
1984
1985
1985
1985
1985
1984
1984
1984
1983
1983
1983
1982
1982
1981
1982
1982
1982
1982
1983
1983
1984
1984
1984
1983
1982
1980
1979
1979
1979
1979
1979
1979
1979
1979
1979
1979
1979
1978
1977
1976
1976
1976
1977
1979
1982
1984
1986
1986
1986
1986
1986
1986
1985
1985
1984
1983
1982
1981
1981
1981
1981
1982
1982
1981
1981
1980
1979
1979
1980
1980
1980
1979
1978
1979
1985
2000
2027
2057
2077
2075
2048
2004
1963
1940
1939
1952
1968
1978
1982
1981
1981
1982
1982
1983
1983
1982
1982
1982
1982
1983
1983
1984
1985
1986
1987
1987
1987
1987
1987
1988
1989
1990
1991
1992
1993
1993
1994
1994
1995
1996
1998
2001
2003
2006
2008
2009
2010
2010
2010
2010
2009
2009
2008
2006
2003
1999
1995
1991
1987
1984
1982
1980
1979
1977
1975
1974
1973
1972
1972
1972
1973
1973
1974
1974
1973
1973
1973
1972
1972
1972
1973
1974
1974
1975
1975
1974
1974
1974
1974
1974
1975
1975
1975
1976
1976
1975
1975
1974
1974
1975
1976
1976
1976
1976
1976
1975
1975
1975
1975
1975
1976
1977
1978
1978
1978
1978
1977
1976
1976
1976
1977
1977
1978
1978
1978
1978
1978
1978
1978
1978
1979
1979
1979
1979
1978
1978
1977
1977
1977
1978
1979
1980
1981
1982
1982
1982
1982
1981
1981
1982
1982
1982
1983
1983
1983
1982
1981
1979
1978
1978
1980
1983
1986
1988
1988
1987
1987
1986
1986
1985
1985
1984
1984
1983
1983
1982
1982
1981
1981
1980
1981
1981
1981
1982
1982
1982
1981
1980
1979
1978
1979
1984
1999
2024
2052
2072
2072
2048
2007
1967
1944
1941
1953
1969
1979
1982
1981
1980
1980
1980
1980
1981
1982
1982
1983
1983
1984
1984
1984
1984
1984
1984
1985
1985
1986
1986
1986
1987
1987
1989
1990
1992
1994
1995
1996
1996
1997
1999
2001
2004
2007
2009
2010
2011
2011
2011
2010
2010
2010
2011
2010
2008
2004
2000
1996
1993
1990
1987
1986
1985
1984
1984
1983
1981
1980
1978
1977
1976
1975
1975
1975
1977
1979
1980
1980
1979
1978
1978
1978
1979
1980
1980
1981
1982
1981
1981
1979
1978
1977
1977
1977
1978
1979
1979
1979
1979
1979
1980
1980
1980
1981
1981
1981
1982
1981
1981
1980
1980
1980
1980
1981
1982
1984
1984
1984
1983
1981
1981
1980
1980
1979
1979
1980
1980
1981
1982
1982
1982
1983
1984
1984
1983
1982
1981
1981
1982
1982
1983
1983
1983
1984
1985
1986
1987
1986
1985
1982
1981
1980
1982
1985
1988
1989
1990
1990
1990
1989
1988
1986
1985
1984
1984
1985
1986
1985
1985
1984
1983
1983
1982
1982
1983
1984
1984
1985
1984
1982
1981
1983
1992
2011
2037
2060
2071
2058
2026
1985
1952
1938
1944
1960
1975
1984
1986
1986
1986
1986
1986
1986
1986
1987
1989
1990
1990
1989
1988
1987
1988
1989
1991
1992
1994
1995
1996
1997
1996
1995
1994
1994
1996
1998
2000
2003
2005
2007
2009
2010
2011
2012
2013
2015
2016
2017
2018
2017
2017
2016
2016
2015
2013
2009
2004
1999
1996
1993
1991
1990
1988
1987
1985
1983
1982
1981
1981
1981
1980
1979
1978
1978
1978
1979
1981
1982
1983
1983
1981
1980
1979
1979
1979
1981
1982
1982
1983
1983
1982
1982
1981
1981
1982
1983
1984
1984
1985
1985
1985
1985
1984
1982
1981
1982
1983
1985
1987
1988
1987
1985
1983
1982
1982
1982
1983
1984
1984
1984
1983
1983
1983
1983
1983
1983
1983
1982
1982
1982
1982
1983
1983
1982
1981
1982
1982
1983
1982
1981
1980
1979
1979
1980
1983
1985
1986
1987
1987
1986
1985
1984
1982
1981
1980
1979
1980
1980
1981
1980
1979
1978
1977
1977
1977
1977
1977
1977
1978
1977
1976
1975
1974
1977
1987
2009
2037
2060
2067
2048
2010
1966
1935
1925
1935
1953
1969
1977
1978
1979
1979
1979
1979
1979
1980
1981
1981
1982
1982
1983
1983
1984
1984
1984
1984
1985
1986
1987
1988
1989
1988
1988
1989
1990
1992
1994
1996
1998
2000
2002
2005
2007
2009
2011
2013
2015
2017
2018
2019
2019
2017
2015
2013
2010
2007
2005
2003
2000
1997
1994
1991
1988
1986
1985
1984
1983
1983
1983
1983
1983
1982
1981
1981
1980
1981
1981
1982
1982
1982
1981
1980
1980
1979
1979
1979
1979
1979
1979
1979
1978
1978
1978
1977
1977
1977
1977
1978
1978
1979
1979
1979
1978
1978
1977
1977
1978
1978
1978
1979
1978
1978
1978
1977
1977
1977
1977
1978
1978
1978
1977
1977
1976
1975
1975
1975
1975
1976
1976
1976
1976
1976
1975
1974
1972
1971
1971
1972
1975
1977
1979
1980
1979
1979
1978
1978
1977
1976
1975
1974
1974
1974
1974
1973
1972
1971
1971
1971
1972
1973
1973
1973
1972
1971
1970
1968
1969
1974
1987
2011
2041
2063
2064
2038
1993
1947
1917
1912
1926
1946
1961
1969
1970
1970
1971
1972
1973
1974
1975
1976
1977
1976
1976
1976
1976
1976
1977
1979
1980
1980
1980
1980
1981
1981
1982
1983
1984
1986
1988
1989
1991
1992
1993
1994
1996
1999
2002
2004
2006
2008
2008
2008
2008
2007
2006
2004
2002
2000
1997
1994
1990
1986
1982
1979
1976
1973
1971
1970
1969
1968
1967
1966
1965
1964
1964
1964
1965
1966
1966
1966
1966
1965
1965
1965
1965
1965
1965
1966
1967
1967
1967
1967
1967
1966
1966
1967
1968
1969
1970
1971
1971
1970
1970
1970
1970
1971
1971
1972
1973
1973
1974
1974
1973
1973
1973
1974
1974
1975
1974
1974
1973
1973
1973
1974
1974
1975
1975
1974
1974
1973
1973
1973
1974
1975
1976
1977
1979
1980
1980
1980
1979
1978
1976
1975
1975
1974
1975
1975
1975
1974
1974
1974
1974
1973
1974
1974
1975
1976
1976
1975
1974
1974
1981
1998
2027
2056
2072
2063
2028
1980
1938
1917
1921
1939
1959
1972
1978
1980
1982
1983
1983
1983
1983
1983
1984
1985
1985
1986
1987
1987
1987
1988
1987
1987
1988
1989
1990
1991
1992
1993
1994
1995
1995
1997
1998
1999
2001
2004
2006
2009
2012
2014
2015
2016
2016
2017
2017
2018
2018
2017
2015
2012
2008
2004
2000
1996
1993
1990
1988
1985
1983
1981
1978
1977
1976
1976
1976
1976
1976
1976
1975
1975
1975
1975
1975
1975
1976
1976
1976
1976
1975
1975
1974
1974
1974
1975
1976
1976
1977
1977
1977
1976
1976
1976
1976
1977
1977
1978
1979
1979
1979
1979
1979
1978
1978
1979
1980
1981
1981
1981
1981
1980
1979
1979
1979
1980
1980
1981
1981
1981
1981
1981
1980
1980
1980
1979
1979
1979
1979
1980
1981
1983
1984
1984
1985
1985
1985
1986
1986
1985
1983
1981
1979
1978
1977
1977
1978
1978
1978
1978
1978
1978
1978
1978
1979
1979
1979
1977
1975
1976
1982
1998
2025
2054
2072
2066
2035
1989
1947
1925
1927
1943
1961
1973
1977
1978
1979
1980
1981
1981
1980
1980
1980
1981
1981
1982
1983
1984
1984
1984
1985
1985
1985
1985
1985
1986
1987
1989
1990
1992
1993
1994
1994
1994
1996
1998
2001
2004
2007
2009
2010
2010
2010
2010
2010
2010
2010
2009
2008
2006
2004
2000
1995
1991
1987
1985
1983
1981
1980
1979
1978
1976
1975
1974
1973
1973
1973
1973
1974
1974
1974
1974
1973
1973
1973
1973
1973
1973
1974
1974
1975
1974
1974
1973
1973
1973
1974
1975
1976
1976
1976
1977
1977
1977
1977
1977
1977
1977
1977
1978
1978
1978
1979
1978
1978
1978
1979
1980
1980
1981
1981
1980
1979
1978
1978
1978
1979
1980
1980
1980
1980
1980
1980
1980
1980
1980
1980
1980
1980
1980
1978
1977
1976
1976
1978
1981
1984
1985
1985
1984
1982
1981
1980
1979
1978
1977
1977
1977
1976
1976
1976
1976
1976
1976
1976
1976
1976
1976
1976
1975
1974
1973
1971
1972
1979
1995
2021
2048
2064
2059
2030
1988
1951
1931
1932
1947
1964
1975
1980
1980
1980
1980
1980
1980
1981
1981
1982
1982
1982
1983
1983
1983
1983
1983
1983
1984
1984
1985
1986
1987
1987
1988
1988
1989
1990
1991
1992
1994
1996
1998
2000
2001
2002
2004
2006
2007
2009
2010
2010
2010
2009
2008
2006
2004
2001
1999
1996
1993
1990
1988
1985
1982
1980
1978
1976
1976
1975
1975
1975
1975
1974
1974
1973
1973
1973
1973
1974
1974
1975
1976
1976
1976
1975
1974
1973
1973
1974
1974
1975
1975
1975
1975
1975
1975
1975
1975
1976
1977
1978
1978
1978
1977
1976
1975
1975
1975
1975
1976
1976
1976
1977
1976
1976
1975
1975
1976
1976
1977
1977
1977
1976
1975
1975
1974
1974
1975
1975
1976
1977
1977
1976
1976
1975
1975
1975
1976
1976
1976
1976
1976
1977
1979
1981
1982
1982
1982
1982
1982
1983
1982
1981
1980
1979
1978
1978
1978
1978
1978
1978
1978
1978
1978
1977
1977
1977
1978
1978
1977
1976
1975
1978
1989
2010
2038
2058
2061
2041
2002
1962
1934
1928
1938
1955
1969
1976
1977
1978
1979
1980
1981
1981
1981
1980
1980
1981
1981
1982
1983
1984
1984
1984
1985
1985
1986
1986
1987
1988
1989
1990
1991
1992
1992
1993
1994
1995
1997
1999
2001
2003
2005
2007
2008
2008
2008
2009
2009
2008
2008
2007
2006
2004
2001
1998
1994
1992
1989
1987
1985
1983
1981
1979
1978
1977
1976
1975
1975
1975
1975
1975
1975
1975
1975
1974
1973
1973
1973
1974
1974
1974
1975
1974
1974
1974
1974
1974
1975
1976
1976
1977
1977
1976
1976
1975
1975
1975
1975
1976
1976
1976
1976
1976
1975
1975
1974
1974
1975
1975
1976
1977
1977
1977
1976
1976
1976
1976
1976
1977
1978
1978
1978
1978
1978
1977
1976
1976
1977
1977
1978
1978
1978
1977
1975
1974
1974
1975
1977
1979
1982
1983
1983
1983
1982
1981
1980
1978
1977
1977
1978
1978
1978
1977
1976
1975
1975
1974
1975
1975
1975
1976
1977
1977
1976
1974
1973
1976
1987
2009
2038
2061
2065
2045
2005
1960
1930
1922
1934
1953
1969
1978
1981
1982
1982
1982
1982
1981
1982
1983
1984
1985
1985
1985
1984
1983
1983
1983
1983
1983
1984
1984
1985
1985
1985
1985
1985
1985
1986
1988
1990
1992
1993
1994
1995
1997
1998
2000
2002
2003
2005
2005
2005
2004
2003
2001
1999
1997
1994
1992
1989
1985
1982
1978
1975
1972
1969
1967
1966
1966
1965
1965
1965
1965
1965
1965
1964
1964
1964
1964
1964
1964
1964
1964
1964
1964
1963
1963
1963
1963
1963
1963
1963
1963
1964
1963
1963
1963
1963
1964
1964
1965
1965
1966
1966
1967
1967
1967
1967
1967
1967
1968
1968
1968
1967
1966
1965
1964
1964
1964
1964
1964
1965
1965
1964
1964
1963
1963
1962
1962
1963
1965
1967
1968
1970
1971
1971
1972
1973
1973
1972
1971
1970
1968
1967
1966
1966
1966
1966
1966
1967
1967
1967
1967
1967
1966
1966
1966
1965
1964
1964
1969
1983
2008
2036
2056
2054
2029
1985
1943
1917
1915
1929
1948
1961
1967
1968
1969
1970
1972
1973
1973
1973
1973
1974
1974
1974
1975
1975
1976
1977
1978
1979
1979
1979
1979
1980
1981
1982
1984
1986
1988
1989
1990
1991
1992
1993
1995
1997
2000
2003
2005
2007
2008
2008
2008
2008
2007
2006
2005
2003
2000
1997
1994
1990
1986
1982
1979
1976
1974
1973
1972
1971
1971
1970
1968
1967
1966
1967
1967
1968
1969
1969
1968
1967
1967
1967
1967
1967
1968
1968
1969
1969
1969
1968
1968
1967
1967
1967
1968
1969
1970
1971
1972
1972
1971
1970
1969
1970
1970
1971
1972
1973
1973
1972
1972
1972
1972
1972
1973
1974
1974
1973
1973
1972
1971
1971
1970
1970
1969
1969
1969
1969
1970
1971
1972
1972
1973
1974
1975
1975
1975
1975
1973
1971
1970
1969
1968
1969
1969
1969
1970
1970
1970
1970
1970
1970
1970
1970
1971
1970
1969
1968
1970
1979
1999
2027
2051
2059
2043
2005
1962
1930
1919
1928
1945
1960
1968
1970
1971
1972
1972
1972
1972
1972
1972
1972
1973
1974
1975
1976
1977
1978
1978
1979
1980
1980
1981
1981
1981
1982
1983
1984
1985
1986
1987
1988
1989
1991
1993
1995
1996
1998
1999
2001
2001
2001
2001
2000
2000
2001
2000
1999
1997
1994
1990
1987
1984
1982
1979
1976
1974
1972
1971
1969
1968
1967
1966
1966
1967
1967
1967
1966
1965
1964
1963
1963
1964
1965
1966
1967
1967
1968
1968
1967
1967
1965
1965
1964
1964
1965
1966
1967
1967
1967
1967
1967
1968
1968
1968
1968
1968
1968
1968
1967
1967
1967
1967
1967
1968
1968
1968
1968
1968
1968
1967
1966
1966
1966
1967
1968
1968
1968
1967
1966
1966
1965
1966
1969
1972
1974
1976
1977
1977
1976
1975
1974
1973
1972
1971
1972
1972
1972
1972
1972
1971
1970
1969
1970
1970
1971
1972
1972
1972
1971
1969
1966
1967
1974
1991
2018
2045
2058
2048
2016
1973
1937
1920
1925
1941
1958
1969
1973
1973
1973
1973
1972
1972
1973
1974
1975
1976
1977
1977
1978
1978
1977
1977
1977
1977
1978
1978
1979
1979
1979
1980
1980
1981
1982
1983
1985
1987
1989
1991
1993
1994
1995
1997
1998
2000
2001
2002
2002
2002
2002
2000
1998
1995
1992
1989
1986
1983
1981
1978
1975
1972
1969
1968
1967
1966
1967
1967
1966
1966
1965
1964
1964
1964
1964
1965
1965
1966
1966
1966
1966
1966
1966
1966
1966
1967
1967
1967
1968
1968
1968
1968
1968
1968
1968
1968
1968
1969
1969
1969
1969
1969
1968
1968
1968
1969
1969
1969
1969
1970
1970
1970
1971
1971
1971
1971
1971
1971
1971
1971
1970
1970
1970
1970
1970
1970
1971
1971
1971
1970
1969
1968
1967
1969
1970
1973
1975
1976
1977
1976
1975
1974
1973
1972
1972
1972
1973
1973
1972
1971
1970
1969
1969
1969
1969
1969
1970
1971
1971
1971
1969
1967
1965
1968
1979
2001
2029
2050
2054
2034
1995
1954
1927
1922
1934
1952
1966
1974
1975
1975
1974
1973
1972
1973
1973
1974
1975
1975
1975
1976
1976
1976
1976
1976
1977
1979
1980
1982
1983
1983
1983
1983
1983
1984
1985
1986
1989
1991
1992
1993
1994
1995
1997
1999
2001
2002
2002
2002
2002
2001
2000
1999
1997
1994
1992
1988
1985
1981
1978
1975
1973
1972
1971
1969
1968
1966
1966
1965
1966
1966
1965
1965
1964
1964
1964
1964
1965
1966
1966
1965
1964
1964
1964
1964
1966
1967
1967
1968
1968
1969
1969
1968
1968
1968
1968
1968
1969
1971
1972
1973
1972
1970
1969
1969
1970
1971
1972
1972
1972
1972
1974
1975
1975
1975
1974
1974
1974
1975
1975
1974
1972
1972
1972
1973
1974
1975
1976
1976
1977
1979
1982
1984
1985
1985
1984
1982
1982
1983
1983
1983
1982
1981
1980
1979
1977
1976
1974
1973
1974
1975
1976
1977
1977
1976
1976
1975
1974
1973
1974
1979
1992
2012
2036
2052
2051
2029
1992
1954
1930
1926
1937
1955
1969
1977
1980
1980
1980
1980
1980
1981
1981
1981
1981
1981
1983
1984
1985
1986
1986
1985
1986
1987
1989
1990
1990
1989
1989
1991
1994
1998
2000
2001
2000
2000
2000
2001
2004
2006
2009
2011
2012
2013
2012
2012
2011
2010
2010
2008
2006
2004
2001
1997
1994
1991
1988
1986
1984
1984
1983
1982
1981
1978
1976
1974
1972
1971
1970
1971
1973
1975
1977
1976
1974
1972
1971
1972
1974
1977
1977
1976
1974
1971
1970
1972
1974
1977
1977
1977
1976
1975
1975
1976
1977
1976
1974
1972
1972
1974
1977
1979
1981
1979
1977
1974
1972
1973
1974
1976
1977
1978
1978
1977
1977
1976
1975
1974
1974
1975
1976
1976
1974
1972
1971
1972
1974
1978
1981
1983
1984
1983
1982
1980
1978
1976
1975
1974
1974
1974
1974
1974
1974
1973
1973
1972
1971
1971
1972
1973
1974
1975
1974
1972
1970
1972
1985
2008
2035
2053
2049
2022
1978
1938
1916
1917
1934
1955
1971
1979
1981
1980
1979
1976
1974
1974
1975
1977
1979
1980
1982
1983
1984
1983
1981
1980
1980
1982
1985
1987
1989
1989
1989
1990
1991
1992
1993
1994
1995
1997
1999
2001
2002
2003
2005
2007
2009
2011
2011
2010
2009
2009
2008
2008
2006
2004
2002
1999
1997
1996
1993
1991
1988
1985
1983
1981
1980
1980
1981
1983
1985
1985
1983
1980
1978
1978
1980
1982
1983
1984
1984
1983
1983
1983
1983
1983
1983
1984
1985
1988
1989
1990
1990
1988
1986
1985
1985
1988
1990
1991
1990
1988
1987
1986
1987
1989
1989
1989
1987
1986
1986
1986
1986
1985
1985
1985
1984
1982
1981
1979
1977
1977
1977
1978
1978
1978
1977
1975
1974
1974
1974
1976
1978
1978
1976
1974
1973
1972
1971
1971
1970
1968
1966
1963
1960
1959
1958
1958
1957
1956
1954
1952
1951
1951
1952
1952
1950
1947
1944
1944
1952
1971
1997
2019
2025
2008
1971
1929
1896
1884
1891
1907
1923
1933
1936
1936
1936
1935
1936
1938
1939
1939
1938
1936
1935
1934
1935
1937
1938
1938
1937
1936
1938
1940
1944
1946
1946
1945
1944
1945
1948
1951
1954
1957
1960
1963
1966
1968
1970
1971
1972
1973
1974
1976
1978
1980
1980
1979
1978
1978
1977
1978
1977
1975
1972
1969
1967
1967
1968
1970
1970
1970
1969
1969
1969
1969
1972
1975
1979
1982
1984
1983
1982
1980
1981
1984
1987
1991
1993
1995
1997
1998
2000
2000
1999
1999
2000
2003
2006
2009
2010
2011
2012
2012
2014
2016
2018
2019
2020
2021
2022
2024
2025
2026
2026
2027
2028
2030
2031
2031
2032
2033
2034
2035
2036
2035
2035
2035
2037
2040
2042
2043
2043
2042
2042
2043
2044
2046
2048
2049
2051
2052
2052
2050
2048
2048
2049
2051
2051
2049
2048
2046
2045
2046
2047
2048
2050
2052
2055
2057
2057
2054
2052
2052
2060
2080
2108
2135
2146
2132
2097
2053
2020
2007
2013
2031
2048
2060
2065
2067
2069
2070
2071
2072
2072
2072
2071
2072
2072
2073
2074
2076
2077
2078
2077
2077
2076
2077
2078
2079
2080
2080
2080
2081
2083
2085
2087
2089
2091
2093
2095
2096
2098
2099
2100
2101
2102
2103
2103
2103
2102
2101
2099
2096
2093
2090
2088
2085
2083
2080
2078
2076
2074
2072
2070
2069
2068
2068
2068
2068
2068
2067
2066
2065
2063
2063
2062
2063
2063
2064
2064
2064
2064
2063
2062
2062
2062
2062
2063
2063
2062
2061
2060
2060
2059
2059
2059
2059
2060
2060
2060
2060
2061
2060
2060
2060
2060
2059
2059
2060
2060
2060
2059
2058
2057
2057
2056
2057
2057
2056
2056
2055
2054
2054
2055
2056
2058
2060
2061
2061
2061
2060
2059
2057
2055
2053
2052
2052
2051
2051
2050
2049
2048
2048
2047
2046
2046
2046
2046
2047
2046
2044
2042
2042
2046
2060
2086
2114
2131
2125
2093
2048
2007
1986
1987
2004
2023
2037
2043
2045
2046
2046
2046
2046
2046
2046
2046
2047
2047
2048
2048
2048
2048
2048
2048
2048
2048
2048
2049
2050
2050
2051
2051
2052
2052
2053
2055
2057
2059
2061
2062
2062
2063
2063
2064
2065
2065
2066
2066
2066
2065
2064
2061
2058
2055
2051
2048
2045
2043
2040
2036
2033
2030
2028
2026
2025
2025
2025
2025
2025
2024
2024
2023
2023
2023
2023
2023
2023
2023
2022
2022
2021
2021
2020
2020
2020
2020
2020
2020
2020
2020
2020
2019
2019
2019
2020
2020
2020
2021
2021
2021
2022
2022
2022
2022
2021
2021
2021
2022
2022
2022
2022
2021
2020
2019
2018
2018
2018
2018
2019
2020
2021
2022
2023
2023
2023
2022
2022
2022
2021
2019
2018
2016
2015
2014
2013
2012
2012
2012
2012
2011
2010
2009
2008
2008
2008
2008
2007
2006
2007
2015
2034
2060
2087
2097
2083
2046
1999
1962
1947
1953
1971
1989
2000
2004
2005
2007
2008
2009
2010
2010
2011
2011
2011
2011
2011
2011
2011
2012
2012
2011
2012
2012
2013
2013
2014
2014
2015
2016
2018
2019
2019
2020
2021
2022
2024
2026
2028
2030
2032
2033
2034
2034
2033
2032
2030
2029
2027
2025
2022
2019
2015
2011
2006
2002
1998
1995
1993
1992
1990
1989
1987
1986
1984
1983
1982
1982
1982
1982
1982
1983
1982
1982
1981
1981
1980
1980
1980
1980
1980
1979
1979
1978
1978
1977
1977
1977
1977
1977
1978
1979
1979
1978
1978
1977
1977
1977
1977
1978
1979
1979
1979
1978
1978
1977
1976
1976
1976
1976
1976
1975
1974
1973
1971
1971
1971
1973
1975
1977
1978
1978
1977
1976
1976
1974
1973
1972
1971
1971
1970
1970
1969
1968
1967
1966
1966
1966
1966
1966
1966
1966
1966
1965
1963
1961
1964
1975
1997
2025
2047
2049
2027
1987
1945
1917
1911
1923
1942
1956
1964
1965
1966
1966
1965
1965
1965
1966
1967
1967
1968
1969
1969
1969
1969
1969
1969
1969
1970
1971
1972
1973
1974
1974
1974
1975
1975
1976
1978
1980
1982
1984
1986
1987
1987
1988
1990
1991
1992
1992
1992
1991
1990
1989
1987
1985
1982
1979
1976
1973
1971
1968
1965
1962
1959
1957
1956
1955
1955
1955
1955
1954
1953
1953
1952
1951
1951
1951
1951
1951
1952
1952
1951
1951
1950
1950
1950
1950
1951
1951
1952
1952
1952
1951
1951
1950
1949
1949
1950
1951
1951
1951
1951
1951
1951
1950
1950
1951
1951
1951
1952
1952
1952
1952
1951
1951
1950
1950
1949
1949
1948
1948
1948
1949
1950
1951
1952
1953
1954
1954
1954
1954
1953
1951
1950
1948
1948
1947
1947
1947
1947
1947
1947
1947
1947
1946
1946
1947
1948
1948
1948
1946
1944
1945
1953
1972
1999
2023
2031
2015
1979
1937
1906
1896
1904
1921
1937
1945
1948
1949
1951
1952
1952
1952
1951
1951
1952
1952
1953
1954
1955
1956
1956
1956
1956
1956
1957
1957
1958
1959
1960
1960
1961
1962
1962
1964
1965
1967
1969
1971
1973
1975
1977
1978
1979
1979
1979
1979
1980
1980
1980
1978
1975
1972
1968
1964
1961
1959
1957
1955
1953
1951
1949
1948
1946
1944
1944
1944
1944
1945
1945
1945
1944
1944
1943
1944
1944
1945
1945
1946
1946
1946
1946
1946
1946
1945
1946
1946
1947
1948
1949
1949
1949
1949
1949
1949
1949
1950
1950
1951
1952
1952
1951
1951
1950
1950
1950
1950
1951
1952
1952
1953
1953
1953
1953
1953
1953
1953
1954
1954
1955
1956
1957
1958
1959
1960
1960
1961
1961
1961
1961
1960
1958
1957
1956
1956
1955
1955
1955
1955
1955
1955
1955
1954
1954
1954
1954
1954
1954
1953
1952
1952
1956
1968
1991
2018
2037
2035
2009
1967
1927
1904
1901
1915
1933
1946
1953
1955
1957
1958
1958
1958
1958
1958
1959
1959
1960
1961
1962
1963
1965
1966
1966
1967
1967
1967
1968
1969
1970
1972
1974
1976
1977
1978
1979
1980
1981
1984
1986
1989
1992
1994
1996
1996
1996
1996
1996
1996
1996
1996
1995
1994
1991
1987
1983
1980
1977
1974
1972
1970
1968
1966
1965
1963
1963
1962
1961
1960
1960
1960
1961
1961
1961
1961
1960
1959
1959
1958
1959
1959
1959
1960
1960
1961
1961
1960
1960
1960
1960
1961
1961
1962
1962
1962
1961
1960
1960
1961
1962
1963
1963
1963
1962
1962
1961
1961
1961
1962
1962
1963
1963
1963
1963
1962
1961
1960
1960
1961
1963
1964
1966
1967
1967
1967
1966
1965
1964
1963
1962
1962
1962
1962
1961
1961
1960
1960
1960
1960
1961
1961
1962
1962
1963
1962
1962
1960
1959
1960
1969
1989
2018
2046
2056
2042
2001
1952
1913
1898
1906
1926
1946
1958
1962
1963
1964
1965
1966
1966
1967
1968
1968
1969
1969
1970
1970
1971
1971
1971
1972
1972
1974
1975
1976
1976
1977
1977
1979
1980
1982
1983
1985
1987
1989
1990
1992
1994
1996
1997
1999
2001
2002
2002
2002
2001
1999
1997
1995
1993
1990
1987
1984
1980
1977
1973
1970
1967
1964
1963
1962
1962
1962
1961
1961
1960
1959
1958
1958
1958
1958
1958
1959
1960
1960
1960
1959
1959
1959
1959
1959
1960
1960
1960
1961
1961
1961
1960
1960
1961
1961
1962
1962
1963
1963
1963
1963
1963
1963
1964
1965
1965
1966
1966
1966
1965
1965
1964
1964
1964
1963
1963
1963
1964
1965
1966
1967
1968
1969
1970
1970
1971
1971
1970
1969
1967
1966
1965
1965
1965
1964
1964
1964
1964
1964
1964
1965
1965
1965
1965
1965
1964
1963
1963
1963
1969
1984
2011
2040
2057
2051
2018
1970
1927
1904
1906
1924
1944
1958
1964
1966
1967
1969
1971
1972
1973
1973
1972
1971
1971
1972
1975
1977
1979
1979
1978
1977
1976
1976
1977
1980
1982
1984
1985
1986
1986
1987
1989
1991
1993
1995
1998
2000
2002
2003
2004
2005
2005
2005
2005
2005
2005
2003
2000
1996
1993
1990
1987
1985
1981
1977
1973
1969
1966
1966
1966
1966
1966
1966
1965
1964
1965
1965
1965
1965
1964
1964
1964
1964
1966
1967
1967
1966
1965
1964
1964
1963
1963
1964
1965
1966
1967
1967
1966
1965
1965
1965
1966
1967
1968
1968
1968
1968
1968
1968
1968
1967
1966
1965
1965
1966
1967
1969
1969
1969
1968
1967
1966
1965
1964
1964
1964
1965
1966
1968
1969
1970
1971
1972
1973
1974
1974
1973
1971
1968
1967
1965
1964
1964
1963
1962
1963
1964
1965
1965
1965
1964
1964
1964
1965
1965
1965
1963
1964
1972
1991
2020
2046
2053
2037
1998
1954
1922
1913
1923
1941
1955
1962
1963
1962
1962
1963
1963
1964
1964
1964
1964
1964
1965
1966
1967
1968
1969
1969
1968
1968
1968
1968
1969
1970
1971
1972
1973
1974
1974
1975
1976
1977
1978
1979
1981
1982
1983
1984
1984
1985
1985
1985
1985
1985
1985
1984
1982
1979
1976
1971
1966
1962
1958
1956
1954
1953
1951
1950
1949
1949
1949
1950
1950
1952
1953
1954
1955
1956
1956
1956
1956
1957
1958
1959
1961
1961
1961
1961
1960
1960
1960
1960
1960
1960
1960
1961
1961
1961
1960
1960
1959
1959
1959
1959
1959
1960
1961
1961
1960
1960
1959
1958
1958
1959
1960
1961
1961
1961
1961
1960
1959
1958
1957
1956
1956
1957
1959
1962
1964
1964
1964
1963
1962
1961
1961
1960
1960
1959
1959
1958
1958
1957
1957
1957
1958
1959
1959
1959
1959
1959
1959
1959
1958
1956
1956
1959
1970
1990
2017
2040
2046
2027
1990
1949
1920
1911
1921
1938
1953
1961
1963
1963
1964
1964
1965
1966
1966
1967
1967
1967
1967
1968
1969
1970
1971
1972
1973
1974
1974
1974
1975
1975
1976
1977
1979
1981
1983
1985
1986
1988
1989
1991
1992
1995
1997
1999
2001
2003
2003
2003
2003
2002
2001
2000
1999
1997
1994
1991
1987
1984
1980
1977
1975
1974
1973
1973
1972
1971
1970
1970
1969
1969
1969
1969
1969
1970
1970
1971
1971
1970
1969
1969
1968
1968
1969
1970
1971
1971
1971
1970
1970
1970
1970
1970
1971
1971
1972
1972
1971
1971
1971
1970
1970
1971
1972
1973
1973
1973
1973
1973
1972
1972
1972
1972
1973
1973
1974
1974
1973
1972
1970
1970
1970
1971
1973
1975
1977
1978
1979
1979
1978
1977
1976
1975
1975
1974
1974
1973
1973
1972
1972
1971
1971
1971
1971
1972
1972
1972
1972
1971
1970
1968
1967
1966
1968
1977
1997
2024
2048
2058
2044
2007
1962
1927
1914
1922
1941
1959
1970
1974
1975
1976
1977
1977
1978
1979
1980
1981
1982
1982
1982
1982
1983
1983
1984
1985
1985
1985
1986
1986
1987
1987
1988
1989
1990
1992
1993
1995
1997
1999
2001
2002
2004
2006
2008
2010
2012
2012
2013
2012
2011
2009
2007
2005
2003
2000
1996
1993
1989
1986
1982
1980
1978
1976
1974
1973
1972
1971
1971
1970
1969
1968
1968
1968
1968
1969
1969
1969
1969
1968
1968
1967
1967
1967
1967
1967
1967
1967
1967
1967
1967
1967
1967
1967
1967
1968
1969
1970
1970
1970
1970
1969
1969
1970
1970
1971
1971
1971
1972
1972
1972
1971
1971
1971
1971
1971
1971
1971
1971
1971
1971
1970
1970
1969
1969
1970
1971
1973
1975
1976
1976
1976
1976
1976
1977
1976
1976
1974
1973
1973
1972
1972
1972
1972
1972
1971
1970
1969
1967
1965
1963
1963
1962
1963
1962
1961
1961
1966
1982
2007
2034
2049
2043
2012
1970
1932
1914
1917
1933
1951
1961
1966
1966
1967
1968
1969
1970
1970
1970
1970
1970
1971
1972
1974
1975
1975
1975
1974
1975
1976
1977
1980
1982
1984
1986
1988
1990
1992
1993
1995
1996
1998
2000
2002
2005
2008
2010
2011
2011
2009
2006
2004
2003
2002
2001
2000
1997
1994
1991
1987
1983
1980
1976
1974
1972
1971
1970
1969
1968
1967
1966
1966
1965
1965
1966
1966
1967
1967
1967
1966
1966
1965
1965
1966
1968
1968
1969
1968
1968
1967
1967
1967
1968
1968
1969
1970
1971
1971
1970
1970
1969
1970
1970
1971
1972
1973
1973
1973
1973
1972
1972
1972
1971
1971
1971
1972
1972
1973
1972
1971
1970
1969
1969
1970
1971
1972
1972
1971
1971
1970
1969
1969
1968
1967
1968
1970
1973
1976
1977
1977
1976
1973
1972
1971
1970
1970
1970
1970
1969
1968
1967
1967
1967
1968
1969
1970
1970
1969
1969
1969
1969
1969
1967
1966
1966
1970
1982
2005
2033
2053
2055
2034
1995
1954
1928
1923
1935
1952
1965
1971
1971
1971
1972
1972
1974
1975
1976
1977
1977
1977
1977
1976
1976
1975
1976
1976
1978
1980
1981
1981
1980
1979
1979
1981
1984
1987
1988
1988
1987
1988
1990
1994
1998
2001
2003
2005
2006
2006
2007
2007
2006
2004
2002
2000
1998
1995
1992
1988
1984
1980
1977
1974
1973
1971
1968
1966
1964
1963
1962
1963
1964
1965
1966
1967
1967
1967
1968
1969
1970
1970
1970
1969
1967
1967
1967
1969
1971
1973
1973
1973
1972
1970
1969
1969
1969
1971
1972
1973
1973
1973
1972
1971
1972
1972
1973
1973
1974
1974
1974
1974
1974
1974
1974
1973
1973
1973
1973
1973
1973
1973
1974
1974
1975
1975
1974
1974
1974
1975
1977
1977
1976
1973
1971
1969
1969
1971
1973
1975
1976
1975
1974
1972
1971
1970
1969
1968
1967
1967
1967
1968
1968
1968
1967
1967
1966
1966
1966
1965
1964
1963
1962
1962
1961
1959
1957
1955
1957
1965
1983
2009
2033
2043
2031
1998
1958
1926
1914
1921
1937
1951
1959
1961
1961
1961
1960
1960
1961
1962
1964
1965
1966
1965
1964
1963
1963
1963
1964
1965
1965
1966
1968
1969
1971
1972
1974
1975
1977
1978
1979
1979
1979
1980
1982
1985
1989
1992
1995
1997
1998
2000
2000
2001
1999
1998
1996
1995
1994
1992
1989
1986
1981
1977
1974
1972
1970
1969
1968
1967
1967
1966
1965
1964
1964
1964
1965
1966
1968
1968
1968
1968
1966
1966
1966
1967
1968
1970
1971
1971
1971
1970
1970
1970
1971
1971
1972
1972
1973
1973
1974
1975
1975
1975
1975
1976
1977
1977
1977
1977
1976
1975
1974
1975
1975
1977
1978
1979
1980
1980
1979
1979
1978
1978
1977
1977
1978
1978
1979
1980
1980
1979
1978
1976
1976
1975
1976
1976
1977
1978
1979
1981
1982
1983
1984
1983
1981
1980
1978
1978
1977
1977
1976
1975
1974
1973
1973
1974
1975
1976
1977
1977
1976
1976
1975
1974
1973
1972
1974
1980
1996
2020
2044
2056
2048
2020
1981
1949
1934
1938
1953
1967
1975
1977
1977
1978
1979
1981
1982
1982
1981
1981
1982
1983
1984
1985
1985
1986
1987
1988
1989
1990
1990
1989
1989
1988
1989
1991
1994
1997
1998
1999
1998
1998
2000
2004
2008
2012
2014
2015
2014
2014
2014
2014
2014
2013
2012
2011
2010
2008
2007
2004
1999
1995
1991
1988
1986
1985
1984
1983
1981
1980
1978
1976
1975
1975
1976
1978
1980
1981
1981
1980
1978
1976
1975
1976
1977
1979
1981
1980
1980
1978
1978
1978
1978
1979
1979
1979
1980
1980
1980
1981
1980
1980
1979
1979
1980
1981
1983
1983
1983
1981
1980
1979
1979
1979
1980
1980
1981
1981
1980
1980
1979
1979
1979
1979
1980
1980
1980
1980
1980
1980
1979
1978
1977
1977
1978
1979
1982
1985
1987
1988
1987
1986
1985
1983
1981
1979
1979
1979
1980
1980
1981
1981
1981
1981
1981
1980
1980
1980
1980
1980
1980
1980
1979
1977
1977
1983
1998
2023
2048
2059
2051
2021
1981
1947
1931
1935
1950
1966
1976
1979
1978
1978
1978
1979
1981
1982
1983
1983
1982
1982
1982
1982
1982
1983
1984
1984
1984
1985
1986
1987
1987
1987
1987
1988
1989
1991
1993
1995
1997
1998
1999
2000
2001
2003
2005
2007
2010
2011
2012
2012
2010
2008
2007
2006
2005
2004
2002
1998
1993
1989
1985
1982
1981
1980
1980
1979
1978
1977
1975
1974
1972
1971
1971
1972
1973
1974
1975
1976
1975
1974
1973
1972
1973
1974
1975
1976
1976
1975
1974
1973
1973
1973
1974
1975
1976
1976
1977
1977
1976
1976
1976
1976
1976
1976
1977
1977
1978
1977
1976
1976
1975
1975
1976
1976
1976
1976
1975
1974
1973
1973
1973
1973
1973
1973
1973
1974
1974
1974
1974
1974
1975
1976
1978
1979
1979
1979
1978
1978
1977
1976
1974
1973
1971
1971
1971
1971
1971
1972
1971
1970
1970
1970
1970
1971
1972
1971
1969
1967
1966
1970
1981
2003
2028
2045
2045
2022
1985
1948
1926
1923
1935
1952
1965
1972
1974
1975
1975
1975
1974
1973
1972
1972
1972
1974
1975
1977
1978
1979
1979
1978
1977
1976
1977
1978
1979
1981
1982
1983
1984
1986
1987
1987
1988
1988
1990
1992
1995
1999
2001
2003
2004
2004
2003
2002
2001
2000
2000
2000
1999
1997
1995
1991
1988
1985
1982
1979
1977
1975
1974
1973
1972
1970
1970
1970
1971
1973
1974
1974
1973
1973
1972
1971
1971
1971
1972
1973
1975
1976
1977
1977
1976
1975
1974
1974
1975
1977
1978
1980
1980
1980
1979
1978
1978
1978
1979
1980
1981
1981
1981
1981
1980
1980
1980
1981
1982
1983
1982
1980
1979
1978
1979
1980
1980
1980
1980
1979
1979
1979
1980
1981
1981
1982
1982
1982
1982
1983
1985
1988
1989
1990
1989
1988
1987
1986
1986
1986
1986
1986
1986
1986
1986
1985
1985
1985
1986
1987
1987
1987
1986
1985
1985
1985
1985
1984
1984
1989
2004
2029
2052
2064
2054
2023
1983
1951
1937
1943
1958
1973
1982
1985
1985
1985
1986
1986
1988
1990
1992
1993
1994
1994
1992
1991
1991
1991
1991
1992
1992
1992
1994
1996
1997
1999
1999
1999
1999
2001
2003
2004
2004
2004
2004
2004
2006
2009
2012
2016
2017
2017
2015
2013
2012
2012
2011
2010
2008
2005
2002
1998
1995
1991
1988
1985
1981
1978
1976
1975
1976
1977
1977
1975
1973
1970
1966
1963
1961
1961
1962
1964
1966
1966
1966
1964
1963
1962
1961
1961
1961
1961
1963
1965
1965
1965
1964
1964
1965
1967
1968
1967
1966
1964
1962
1961
1962
1964
1965
1966
1966
1965
1964
1963
1962
1961
1961
1961
1962
1964
1966
1966
1964
1961
1960
1960
1962
1963
1964
1963
1962
1961
1960
1961
1960
1960
1960
1962
1964
1966
1968
1969
1969
1968
1967
1965
1964
1962
1961
1960
1960
1959
1958
1958
1959
1960
1961
1961
1960
1960
1959
1958
1957
1955
1954
1958
1970
1992
2019
2038
2037
2013
1973
1933
1909
1907
1920
1938
1952
1959
1961
1961
1960
1960
1960
1960
1961
1962
1963
1964
1965
1965
1964
1963
1962
1961
1962
1964
1966
1969
1971
1972
1972
1972
1972
1972
1973
1974
1976
1978
1980
1982
1984
1986
1988
1990
1992
1993
1993
1993
1992
1991
1990
1988
1987
1985
1983
1980
1976
1973
1970
1967
1965
1963
1961
1960
1960
1960
1960
1960
1960
1959
1959
1959
1959
1958
1957
1956
1956
1958
1959
1961
1961
1960
1960
1959
1960
1961
1963
1964
1965
1965
1963
1962
1961
1961
1962
1964
1965
1965
1965
1965
1965
1965
1966
1967
1967
1968
1969
1969
1969
1969
1968
1968
1968
1968
1968
1968
1969
1970
1971
1971
1970
1969
1969
1969
1969
1970
1970
1971
1971
1973
1975
1978
1979
1980
1980
1978
1976
1975
1974
1974
1975
1975
1974
1974
1974
1974
1973
1973
1972
1971
1972
1973
1975
1975
1975
1973
1971
1970
1974
1986
2007
2032
2049
2048
2027
1990
1954
1932
1930
1943
1960
1972
1977
1977
1976
1976
1976
1978
1979
1981
1981
1980
1979
1979
1979
1981
1982
1983
1984
1983
1983
1983
1984
1985
1986
1986
1987
1988
1990
1992
1994
1995
1994
1993
1994
1997
2000
2004
2007
2007
2006
2005
2004
2004
2004
2005
2005
2004
2001
1997
1993
1988
1984
1982
1980
1979
1978
1977
1976
1975
1974
1973
1972
1972
1974
1975
1975
1974
1973
1972
1971
1972
1972
1973
1974
1974
1974
1973
1973
1973
1974
1974
1975
1975
1976
1977
1977
1977
1976
1975
1974
1974
1974
1975
1976
1977
1978
1979
1979
1978
1978
1977
1977
1977
1978
1978
1979
1979
1979
1978
1978
1977
1977
1976
1977
1978
1979
1980
1980
1980
1980
1980
1979
1978
1978
1978
1979
1981
1984
1986
1988
1988
1987
1986
1985
1984
1983
1982
1982
1981
1981
1981
1980
1980
1979
1979
1979
1980
1981
1982
1983
1983
1982
1981
1980
1978
1977
1981
1994
2017
2043
2058
2054
2028
1989
1954
1935
1936
1951
1967
1978
1983
1984
1984
1983
1983
1983
1983
1984
1985
1986
1986
1987
1987
1988
1989
1990
1990
1991
1992
1993
1993
1994
1994
1994
1995
1996
1998
2000
2001
2002
2003
2003
2004
2006
2009
2012
2015
2016
2017
2016
2016
2015
2014
2012
2011
2009
2006
2003
2000
1997
1994
1991
1988
1986
1983
1981
1980
1980
1981
1982
1982
1980
1978
1976
1974
1973
1974
1974
1975
1975
1975
1975
1975
1975
1975
1976
1976
1976
1976
1975
1974
1972
1970
1968
1967
1967
1967
1968
1969
1970
1970
1970
1968
1966
1965
1964
1965
1966
1966
1966
1964
1962
1960
1960
1960
1960
1961
1962
1961
1961
1959
1957
1954
1953
1953
1955
1958
1959
1958
1954
1950
1947
1945
1945
1946
1947
1949
1950
1950
1951
1951
1951
1951
1950
1949
1947
1945
1944
1944
1944
1943
1941
1938
1935
1933
1932
1932
1931
1931
1932
1933
1934
1934
1932
1929
1929
1937
1955
1979
1999
2002
1982
1947
1909
1885
1880
1891
1906
1918
1923
1923
1921
1919
1919
1920
1920
1920
1918
1916
1915
1917
1919
1921
1920
1918
1915
1915
1918
1921
1922
1920
1918
1918
1921
1925
1930
1932
1932
1931
1930
1932
1935
1939
1941
1943
1944
1945
1946
1948
1950
1951
1950
1948
1945
1943
1941
1941
1940
1939
1936
1934
1931
1930
1929
1927
1926
1924
1923
1923
1923
1923
1924
1925
1926
1927
1928
1928
1928
1929
1931
1933
1935
1935
1934
1933
1934
1937
1941
1943
1943
1941
1940
1940
1942
1944
1947
1950
1952
1952
1953
1953
1953
1954
1955
1956
1956
1956
1958
1960
1962
1964
1964
1964
1964
1965
1966
1967
1967
1967
1968
1968
1969
1971
1972
1974
1974
1974
1973
1973
1974
1976
1978
1980
1982
1984
1985
1985
1985
1984
1983
1982
1982
1982
1982
1982
1983
1983
1984
1984
1984
1984
1983
1983
1983
1983
1984
1984
1984
1986
1992
2008
2033
2058
2071
2061
2029
1987
1952
1937
1943
1959
1976
1987
1991
1992
1993
1994
1995
1997
1998
1999
1999
2000
2000
2000
2001
2002
2003
2004
2005
2006
2006
2006
2006
2007
2009
2011
2013
2014
2015
2016
2018
2020
2021
2022
2023
2025
2028
2030
2031
2031
2031
2031
2031
2030
2029
2027
2024
2021
2017
2014
2010
2006
2003
2000
1998
1995
1993
1991
1990
1988
1986
1984
1983
1982
1982
1982
1981
1980
1979
1977
1976
1975
1974
1974
1974
1973
1973
1972
1971
1971
1970
1970
1970
1970
1971
1971
1971
1971
1970
1970
1969
1968
1968
1968
1968
1969
1969
1968
1967
1966
1965
1965
1966
1967
1968
1969
1970
1971
1971
1970
1969
1968
1969
1970
1973
1974
1975
1975
1975
1975
1975
1975
1975
1976
1977
1978
1978
1978
1978
1977
1977
1978
1979
1982
1985
1988
1990
1991
1991
1989
1987
1986
1986
1987
1989
1991
1991
1990
1989
1987
1987
1988
1989
1991
1993
1995
1995
1994
1993
1992
1993
1999
2013
2036
2061
2078
2075
2051
2016
1984
1967
1969
1982
1995
2003
2005
2003
2002
2001
2000
2001
2002
2004
2005
2006
2007
2007
2008
2008
2009
2009
2009
2009
2009
2009
2010
2012
2014
2014
2014
2014
2014
2015
2017
2019
2021
2023
2025
2026
2028
2029
2030
2030
2030
2031
2031
2032
2031
2031
2029
2027
2025
2022
2019
2016
2014
2012
2009
2007
2005
2002
2000
1999
1999
1999
2000
2001
2002
2002
2001
1999
1997
1997
1998
2000
2001
2002
2001
2000
2000
2000
2000
1999
1999
1999
2000
2001
2001
2001
2000
2000
2001
2001
2001
2001
2001
2001
2002
2003
2003
2001
2000
2000
2001
2002
2002
2002
2001
2000
1999
1999
1998
1998
1998
1999
2000
2000
2000
2000
1999
1998
1997
1997
1997
1997
1998
1998
1998
1996
1995
1994
1994
1996
1998
2000
2001
2002
2002
2001
2000
1998
1996
1995
1994
1993
1993
1992
1992
1992
1992
1991
1990
1989
1989
1989
1989
1990
1990
1989
1987
1985
1987
1997
2019
2047
2068
2073
2053
2014
1971
1942
1934
1945
1962
1977
1984
1986
1987
1987
1987
1987
1987
1987
1988
1988
1988
1988
1988
1989
1989
1990
1990
1990
1990
1991
1991
1992
1992
1993
1994
1994
1995
1995
1996
1998
2000
2002
2004
2006
2007
2008
2009
2010
2010
2011
2011
2011
2011
2010
2007
2005
2002
1999
1996
1993
1991
1988
1985
1982
1980
1978
1977
1976
1975
1974
1974
1973
1972
1972
1971
1971
1971
1971
1971
1972
1972
1973
1973
1972
1971
1970
1970
1970
1971
1971
1972
1972
1973
1973
1973
1973
1972
1972
1972
1974
1976
1978
1979
1980
1980
1979
1979
1979
1980
1980
1981
1981
1982
1982
1981
1980
1980
1980
1981
1982
1983
1983
1982
1981
1980
1980
1980
1979
1979
1979
1978
1978
1979
1979
1978
1978
1977
1977
1977
1978
1980
1982
1984
1984
1985
1984
1984
1984
1983
1983
1983
1983
1983
1982
1981
1981
1980
1980
1980
1981
1981
1981
1981
1981
1981
1981
1980
1979
1978
1978
1983
1996
2020
2046
2063
2061
2037
1998
1962
1942
1942
1956
1972
1983
1986
1985
1985
1985
1985
1986
1986
1986
1986
1987
1988
1988
1989
1989
1990
1990
1990
1990
1991
1991
1992
1992
1992
1992
1992
1993
1995
1997
1998
2000
2001
2001
2002
2003
2005
2007
2009
2010
2011
2010
2009
2008
2007
2007
2006
2005
2003
2000
1996
1993
1991
1988
1986
1983
1982
1980
1979
1979
1978
1978
1977
1976
1976
1976
1976
1977
1977
1978
1978
1977
1976
1975
1975
1975
1975
1976
1977
1977
1977
1978
1978
1978
1977
1977
1977
1977
1977
1978
1978
1979
1979
1979
1978
1978
1978
1979
1980
1981
1982
1981
1981
1980
1980
1980
1980
1981
1981
1982
1982
1982
1981
1979
1978
1977
1976
1977
1978
1979
1979
1979
1978
1978
1979
1979
1979
1979
1978
1977
1977
1978
1979
1981
1984
1986
1988
1989
1988
1987
1985
1983
1982
1980
1979
1978
1977
1977
1977
1978
1978
1979
1978
1978
1978
1978
1979
1979
1979
1978
1977
1979
1987
2006
2033
2057
2067
2053
2017
1972
1937
1923
1930
1948
1965
1974
1978
1980
1982
1984
1985
1986
1987
1988
1988
1988
1988
1989
1990
1992
1994
1995
1994
1994
1994
1994
1996
1998
2000
2001
2002
2002
2002
2003
2004
2006
2008
2011
2014
2016
2018
2020
2020
2021
2022
2023
2023
2024
2024
2024
2024
2022
2018
2015
2011
2007
2004
2001
1998
1996
1994
1992
1990
1989
1987
1987
1987
1987
1987
1987
1987
1987
1986
1986
1985
1984
1984
1985
1986
1988
1989
1988
1987
1986
1985
1985
1986
1987
1988
1988
1989
1988
1988
1988
1987
1987
1988
1989
1989
1989
1989
1987
1986
1985
1984
1984
1984
1984
1984
1984
1984
1984
1984
1983
1982
1982
1981
1982
1982
1981
1981
1980
1978
1977
1978
1979
1981
1983
1985
1985
1985
1984
1983
1981
1980
1979
1979
1979
1980
1981
1981
1980
1978
1977
1976
1976
1977
1978
1978
1979
1978
1978
1976
1976
1978
1987
2007
2037
2067
2081
2068
2030
1981
1941
1925
1933
1955
1976
1990
1995
1996
1997
1998
1998
1999
2000
2000
2001
2002
2002
2002
2002
2002
2002
2002
2001
2002
2002
2003
2004
2004
2005
2005
2004
2004
2004
2005
2006
2008
2009
2011
2012
2013
2014
2016
2018
2019
2020
2020
2020
2020
2019
2017
2014
2011
2007
2004
2002
1999
1996
1993
1990
1987
1985
1984
1983
1983
1983
1984
1984
1984
1984
1984
1984
1984
1984
1985
1985
1985
1985
1985
1984
1984
1983
1982
1982
1982
1982
1983
1984
1984
1984
1984
1983
1982
1982
1982
1982
1983
1983
1983
1983
1982
1982
1982
1982
1983
1984
1985
1986
1986
1986
1986
1986
1985
1986
1986
1986
1987
1987
1987
1987
1987
1987
1987
1987
1987
1988
1989
1989
1989
1988
1987
1985
1985
1986
1988
1990
1993
1994
1995
1994
1992
1991
1989
1988
1987
1986
1985
1985
1984
1983
1983
1983
1983
1983
1983
1983
1983
1983
1983
1982
1980
1979
1981
1989
2008
2036
2062
2076
2065
2032
1987
1950
1934
1939
1956
1973
1984
1987
1987
1988
1988
1988
1988
1988
1988
1989
1990
1991
1991
1991
1991
1991
1991
1991
1991
1991
1991
1992
1994
1995
1996
1997
1997
1998
1999
2001
2004
2006
2009
2011
2012
2013
2014
2016
2018
2019
2020
2021
2021
2020
2019
2017
2014
2011
2009
2006
2004
2001
1999
1996
1993
1990
1988
1987
1987
1986
1986
1986
1986
1986
1986
1986
1986
1986
1986
1987
1988
1989
1990
1990
1991
1991
1991
1992
1993
1994
1995
1995
1995
1994
1993
1993
1994
1995
1996
1997
1997
1997
1998
1998
1998
1998
1998
1998
1998
1999
1999
2000
2001
2001
2000
2000
2000
2000
2001
2001
2001
2001
2001
2000
2000
2000
2000
2000
2001
2002
2003
2004
2004
2004
2004
2003
2001
2001
2001
2004
2007
2009
2011
2011
2010
2009
2009
2009
2009
2008
2007
2007
2006
2006
2007
2006
2006
2006
2006
2007
2008
2008
2009
2010
2010
2010
2009
2008
2008
2010
2019
2038
2064
2090
2101
2090
2057
2016
1983
1969
1975
1992
2008
2017
2020
2020
2020
2021
2022
2023
2025
2027
2028
2028
2027
2027
2027
2028
2029
2031
2033
2033
2034
2034
2034
2034
2035
2037
2039
2041
2043
2044
2045
2046
2047
2048
2050
2052
2054
2056
2059
2061
2063
2063
2062
2060
2059
2058
2057
2056
2054
2052
2048
2046
2042
2038
2035
2033
2031
2030
2029
2029
2029
2028
2027
2026
2025
2023
2023
2022
2022
2022
2022
2022
2022
2021
2021
2020
2020
2020
2020
2021
2021
2021
2020
2019
2018
2017
2017
2018
2018
2018
2018
2017
2015
2014
2013
2012
2012
2012
2013
2013
2013
2012
2012
2011
2010
2010
2010
2009
2009
2008
2008
2007
2006
2005
2004
2003
2003
2004
2004
2004
2003
2002
2001
2001
2001
2001
2001
2000
2000
1999
1998
1998
1998
1999
2000
2001
2002
2002
2001
2001
2000
1999
1997
1995
1993
1991
1990
1990
1990
1989
1989
1989
1988
1987
1986
1985
1986
1986
1987
1987
1986
1984
1984
1990
2007
2034
2061
2076
2067
2034
1986
1945
1924
1927
1944
1963
1975
1980
1982
1983
1985
1986
1987
1987
1986
1986
1987
1988
1989
1989
1989
1989
1989
1989
1990
1991
1992
1993
1994
1996
1996
1997
1998
1999
1999
2000
2001
2003
2006
2008
2011
2013
2014
2016
2017
2018
2020
2021
2021
2021
2019
2017
2014
2011
2008
2006
2003
2001
1998
1995
1993
1990
1988
1986
1985
1984
1984
1984
1983
1983
1983
1983
1983
1983
1983
1983
1984
1984
1985
1985
1985
1985
1984
1984
1984
1984
1984
1985
1986
1986
1987
1986
1986
1987
1987
1987
1987
1988
1989
1990
1991
1991
1991
1990
1989
1989
1990
1992
1993
1994
1994
1994
1994
1993
1993
1993
1993
1994
1994
1995
1995
1995
1995
1995
1994
1994
1994
1995
1997
1999
2001
2002
2003
2003
2002
2002
2001
2000
2000
1999
1999
1998
1997
1996
1996
1995
1996
1996
1997
1998
1997
1997
1997
1998
1997
1997
1996
1997
2005
2024
2052
2080
2093
2079
2041
1992
1952
1936
1943
1962
1982
1994
1999
2000
2000
2001
2001
2001
2002
2003
2004
2005
2006
2006
2006
2006
2006
2007
2008
2009
2010
2011
2011
2010
2010
2011
2012
2013
2015
2017
2018
2019
2021
2022
2023
2025
2027
2029
2031
2032
2033
2033
2033
2032
2030
2029
2027
2025
2022
2019
2016
2012
2008
2005
2002
1999
1998
1997
1996
1994
1993
1992
1991
1991
1990
1990
1991
1991
1991
1991
1991
1991
1990
1990
1990
1989
1989
1989
1989
1989
1989
1989
1988
1988
1987
1987
1987
1987
1987
1987
1988
1988
1987
1987
1986
1987
1987
1988
1988
1988
1989
1989
1988
1988
1987
1987
1987
1987
1987
1988
1988
1988
1987
1987
1986
1985
1985
1984
1984
1984
1984
1984
1983
1983
1982
1982
1981
1982
1982
1982
1981
1981
1981
1981
1983
1984
1986
1987
1987
1986
1985
1984
1983
1981
1980
1979
1978
1978
1978
1978
1978
1977
1976
1975
1974
1974
1975
1976
1977
1976
1975
1973
1974
1980
1997
2023
2049
2062
2053
2021
1978
1942
1924
1928
1943
1959
1969
1972
1973
1973
1973
1973
1973
1973
1974
1974
1974
1975
1976
1977
1977
1977
1976
1976
1976
1976
1977
1978
1978
1979
1980
1982
1983
1984
1984
1984
1985
1986
1989
1992
1994
1996
1998
1998
1999
1999
1999
2000
2000
2000
1999
1998
1995
1991
1988
1984
1980
1977
1975
1973
1971
1969
1966
1964
1962
1961
1960
1960
1960
1961
1961
1961
1961
1961
1960
1960
1960
1960
1960
1961
1961
1961
1960
1960
1959
1959
1960
1960
1961
1961
1961
1961
1961
1960
1960
1960
1960
1960
1960
1961
1961
1960
1960
1959
1958
1958
1958
1959
1960
1960
1960
1959
1958
1957
1957
1957
1957
1958
1958
1958
1958
1957
1957
1957
1957
1957
1957
1957
1957
1958
1958
1958
1958
1957
1956
1955
1955
1955
1955
1955
1956
1957
1958
1959
1960
1961
1961
1962
1962
1961
1960
1959
1957
1956
1955
1955
1955
1955
1955
1955
1955
1955
1954
1954
1954
1954
1955
1955
1954
1953
1952
1955
1964
1984
2011
2035
2042
2025
1988
1946
1915
1904
1912
1929
1943
1951
1953
1955
1956
1957
1958
1958
1958
1957
1957
1957
1958
1959
1959
1960
1961
1961
1961
1962
1962
1963
1963
1964
1965
1966
1968
1969
1970
1971
1972
1973
1975
1978
1980
1983
1985
1986
1987
1987
1987
1987
1987
1987
1988
1988
1987
1985
1982
1978
1974
1971
1968
1966
1964
1962
1961
1959
1957
1955
1954
1953
1952
1952
1953
1953
1954
1953
1953
1952
1951
1951
1952
1953
1954
1954
1954
1953
1953
1953
1953
1954
1954
1954
1954
1954
1954
1954
1954
1955
1955
1954
1955
1955
1955
1956
1956
1955
1955
1955
1955
1955
1955
1956
1957
1957
1957
1957
1956
1956
1956
1956
1955
1955
1956
1956
1956
1956
1956
1955
1954
1952
1951
1950
1951
1953
1954
1956
1957
1958
1958
1958
1958
1958
1957
1957
1956
1955
1954
1953
1952
1951
1950
1950
1951
1951
1952
1952
1951
1951
1950
1950
1950
1949
1949
1949
1955
1969
1994
2024
2042
2038
2008
1961
1916
1890
1889
1905
1926
1940
1947
1948
1950
1951
1953
1953
1954
1954
1954
1955
1955
1955
1956
1956
1957
1958
1959
1960
1960
1960
1961
1961
1963
1964
1966
1967
1968
1969
1970
1971
1973
1975
1977
1980
1983
1985
1987
1989
1989
1989
1989
1989
1989
1989
1988
1986
1984
1981
1977
1973
1969
1966
1964
1962
1961
1959
1958
1956
1955
1954
1954
1953
1954
1955
1956
1956
1957
1957
1956
1956
1956
1956
1957
1957
1958
1959
1960
1960
1960
1960
1960
1960
1960
1960
1961
1962
1963
1963
1963
1963
1963
1963
1963
1964
1965
1965
1966
1966
1966
1965
1965
1965
1965
1966
1966
1967
1967
1967
1967
1966
1965
1965
1965
1966
1966
1967
1967
1967
1967
1967
1966
1965
1964
1964
1964
1966
1968
1971
1972
1972
1972
1973
1973
1973
1973
1973
1972
1970
1969
1968
1967
1967
1967
1967
1967
1968
1968
1967
1967
1967
1967
1966
1965
1964
1964
1966
1975
1994
2022
2047
2056
2042
2006
1963
1929
1917
1924
1941
1957
1965
1967
1968
1968
1970
1971
1971
1972
1972
1972
1972
1972
1972
1973
1974
1975
1976
1976
1976
1977
1977
1977
1978
1979
1980
1982
1983
1984
1985
1986
1987
1988
1990
1991
1994
1997
1999
2001
2002
2002
2002
2002
2001
2001
2000
1999
1997
1994
1991
1988
1984
1981
1978
1976
1974
1972
1971
1971
1970
1969
1968
1967
1967
1967
1967
1967
1968
1968
1968
1968
1968
1967
1967
1967
1968
1968
1969
1969
1969
1969
1969
1968
1968
1969
1969
1969
1970
1970
1970
1970
1970
1970
1970
1970
1971
1971
1971
1971
1971
1971
1971
1971
1971
1971
1971
1972
1973
1973
1973
1972
1971
1971
1971
1971
1972
1973
1973
1973
1973
1973
1973
1973
1973
1973
1972
1972
1972
1971
1971
1972
1973
1975
1977
1978
1979
1980
1980
1979
1978
1976
1975
1974
1973
1973
1974
1973
1973
1973
1972
1972
1971
1971
1972
1972
1973
1974
1973
1972
1970
1970
1975
1989
2013
2040
2057
2054
2028
1987
1949
1926
1925
1938
1955
1967
1973
1975
1975
1976
1976
1976
1976
1976
1977
1977
1978
1978
1979
1980
1980
1980
1980
1981
1981
1981
1982
1984
1985
1986
1987
1987
1987
1988
1989
1991
1993
1995
1997
1999
2002
2003
2004
2005
2006
2007
2007
2008
2007
2006
2004
2001
1998
1995
1992
1989
1986
1984
1982
1980
1978
1976
1972
1967
1963
1960
1958
1958
1958
1958
1957
1956
1955
1955
1955
1956
1958
1959
1959
1959
1960
1960
1960
1960
1961
1961
1963
1964
1965
1966
1967
1967
1967
1967
1967
1967
1967
1968
1970
1971
1972
1973
1973
1973
1973
1975
1977
1978
1979
1979
1979
1979
1980
1980
1981
1982
1983
1983
1984
1984
1984
1984
1984
1984
1985
1986
1986
1986
1986
1985
1985
1986
1987
1989
1990
1992
1993
1993
1994
1994
1993
1992
1991
1989
1988
1987
1987
1987
1989
1990
1990
1990
1989
1988
1988
1989
1989
1989
1989
1988
1986
1987
1994
2010
2037
2064
2078
2067
2033
1986
1946
1927
1931
1949
1967
1979
1984
1986
1987
1988
1988
1989
1988
1987
1987
1987
1987
1988
1988
1989
1989
1990
1989
1989
1988
1988
1988
1989
1991
1991
1991
1991
1991
1991
1992
1994
1996
1998
2000
2002
2003
2004
2005
2006
2007
2007
2008
2008
2007
2006
2004
2001
1998
1995
1991
1988
1985
1982
1980
1978
1975
1973
1971
1969
1968
1967
1967
1967
1967
1968
1968
1968
1967
1966
1966
1966
1966
1966
1967
1966
1966
1965
1965
1965
1965
1965
1965
1966
1967
1968
1968
1968
1968
1967
1967
1967
1968
1969
1970
1970
1970
1970
1969
1969
1969
1970
1971
1972
1972
1973
1973
1973
1972
1972
1971
1971
1972
1973
1974
1973
1973
1971
1970
1971
1972
1974
1976
1977
1978
1978
1978
1977
1976
1974
1973
1972
1971
1972
1972
1972
1972
1971
1970
1969
1968
1969
1970
1971
1972
1973
1972
1971
1968
1966
1966
1973
1991
2020
2048
2061
2051
2017
1970
1932
1914
1919
1936
1955
1967
1972
1972
1973
1973
1973
1973
1974
1975
1976
1977
1977
1977
1977
1977
1977
1978
1979
1980
1981
1982
1983
1984
1984
1985
1985
1986
1987
1988
1990
1992
1994
1996
1997
1999
2000
2002
2004
2005
2007
2007
2007
2007
2005
2004
2002
1999
1997
1994
1991
1988
1985
1982
1979
1977
1974
1972
1971
1970
1970
1970
1970
1970
1970
1969
1968
1968
1968
1969
1969
1970
1970
1970
1970
1969
1969
1968
1969
1969
1970
1970
1970
1971
1970
1970
1970
1969
1969
1970
1971
1971
1972
1972
1971
1971
1971
1971
1971
1972
1972
1972
1972
1972
1972
1972
1972
1972
1972
1972
1972
1972
1972
1973
1973
1972
1971
1971
1971
1972
1972
1973
1972
1971
1970
1970
1971
1973
1975
1977
1978
1979
1979
1978
1977
1976
1975
1974
1973
1973
1973
1973
1973
1973
1972
1971
1971
1971
1971
1972
1972
1972
1972
1971
1969
1968
1970
1980
2000
2028
2050
2057
2040
2002
1960
1930
1921
1930
1948
1963
1971
1973
1973
1974
1974
1973
1973
1973
1974
1974
1975
1976
1977
1977
1978
1978
1977
1977
1977
1978
1979
1981
1982
1983
1984
1984
1984
1985
1986
1988
1990
1992
1994
1996
1997
1998
1999
2000
2001
2002
2003
2003
2002
2001
1999
1997
1994
1990
1987
1985
1983
1981
1978
1976
1973
1971
1969
1968
1967
1967
1967
1967
1968
1967
1967
1966
1965
1965
1966
1966
1967
1967
1967
1968
1968
1967
1967
1966
1967
1968
1969
1970
1970
1970
1969
1969
1968
1969
1969
1970
1970
1971
1971
1970
1970
1969
1969
1969
1970
1970
1970
1970
1971
1970
1970
1970
1970
1970
1970
1970
1971
1971
1972
1972
1972
1971
1971
1971
1970
1970
1970
1970
1970
1970
1970
1972
1974
1975
1977
1977
1978
1978
1978
1977
1975
1973
1971
1971
1970
1971
1971
1971
1971
1971
1970
1969
1969
1969
1970
1971
1971
1971
1969
1967
1968
1974
1991
2017
2043
2054
2044
2011
1969
1935
1920
1926
1941
1957
1967
1971
1972
1973
1974
1974
1974
1974
1974
1974
1974
1976
1977
1978
1979
1978
1978
1978
1978
1978
1979
1980
1981
1982
1983
1984
1985
1986
1987
1987
1989
1990
1992
1994
1996
1998
2000
2001
2002
2002
2003
2003
2003
2002
2002
2000
1997
1995
1992
1989
1986
1984
1982
1979
1976
1974
1972
1970
1969
1968
1968
1968
1969
1969
1969
1969
1968
1968
1967
1968
1968
1968
1969
1970
1970
1970
1969
1969
1969
1969
1969
1970
1970
1970
1971
1971
1971
1970
1970
1971
1971
1971
1971
1972
1972
1972
1971
1971
1970
1970
1970
1971
1971
1972
1972
1972
1971
1971
1970
1970
1971
1972
1973
1973
1973
1972
1971
1970
1970
1970
1972
1973
1975
1977
1978
1978
1978
1977
1975
1974
1973
1972
1972
1972
1972
1971
1970
1969
1968
1968
1968
1969
1970
1971
1971
1971
1970
1967
1965
1966
1972
1989
2015
2042
2056
2048
2015
1969
1930
1910
1913
1931
1950
1963
1969
1970
1971
1971
1971
1971
1971
1972
1974
1974
1975
1975
1975
1975
1975
1976
1976
1977
1978
1979
1980
1981
1982
1982
1982
1982
1983
1985
1987
1989
1991
1993
1994
1995
1997
1998
2000
2001
2003
2004
2004
2004
2003
2001
1999
1996
1994
1991
1988
1985
1982
1978
1975
1973
1971
1969
1968
1967
1966
1966
1966
1965
1965
1966
1966
1966
1966
1967
1967
1967
1968
1968
1968
1967
1967
1967
1967
1967
1968
1969
1969
1969
1969
1968
1968
1968
1969
1970
1971
1971
1971
1970
1970
1969
1969
1970
1970
1971
1972
1972
1972
1972
1971
1971
1970
1970
1971
1971
1971
1971
1971
1971
1971
1971
1971
1971
1970
1970
1970
1970
1970
1971
1972
1974
1975
1976
1976
1976
1976
1976
1975
1974
1972
1971
1970
1969
1969
1969
1970
1970
1970
1970
1970
1969
1969
1969
1969
1969
1968
1967
1966
1969
1980
2001
2028
2048
2051
2031
1992
1952
1926
1921
1932
1949
1962
1968
1970
1971
1972
1973
1974
1974
1974
1974
1974
1974
1975
1976
1977
1978
1978
1978
1978
1978
1978
1979
1979
1980
1982
1983
1984
1986
1987
1987
1988
1989
1990
1993
1995
1998
2000
2002
2003
2003
2003
2003
2004
2004
2004
2003
2001
1999
1995
1991
1987
1984
1981
1979
1978
1976
1975
1973
1971
1970
1968
1968
1968
1968
1968
1969
1969
1969
1968
1968
1968
1968
1968
1969
1970
1970
1970
1970
1970
1970
1969
1969
1970
1970
1971
1972
1972
1972
1972
1972
1972
1972
1972
1972
1972
1973
1973
1973
1973
1973
1972
1972
1972
1973
1973
1974
1974
1974
1973
1973
1973
1972
1972
1972
1973
1974
1974
1974
1973
1972
1971
1971
1971
1972
1974
1976
1978
1979
1979
1979
1978
1978
1978
1977
1977
1976
1976
1975
1974
1973
1973
1972
1972
1973
1973
1974
1974
1974
1974
1973
1972
1971
1970
1970
1974
1987
2009
2036
2053
2052
2028
1988
1949
1926
1923
1937
1955
1968
1973
1974
1974
1974
1975
1975
1976
1977
1978
1978
1978
1978
1978
1978
1979
1980
1981
1982
1983
1983
1984
1984
1984
1985
1985
1987
1989
1990
1992
1992
1993
1994
1996
1998
2000
2002
2003
2005
2006
2006
2007
2006
2005
2004
2002
2001
1999
1997
1994
1990
1987
1983
1980
1978
1976
1974
1973
1972
1971
1971
1970
1969
1969
1969
1969
1969
1969
1970
1970
1970
1970
1969
1969
1969
1969
1970
1971
1972
1971
1971
1970
1970
1970
1970
1971
1971
1972
1972
1973
1973
1973
1973
1973
1972
1972
1972
1973
1974
1975
1975
1975
1974
1973
1972
1973
1973
1974
1975
1975
1975
1974
1973
1973
1972
1973
1973
1974
1974
1975
1974
1973
1972
1971
1971
1972
1975
1978
1980
1981
1981
1980
1979
1979
1978
1978
1978
1977
1976
1976
1975
1974
1973
1973
1973
1973
1974
1974
1975
1975
1975
1974
1974
1972
1971
1971
1977
1992
2017
2043
2057
2050
2020
1977
1939
1920
1923
1939
1957
1969
1975
1975
1976
1976
1976
1975
1975
1975
1975
1976
1977
1977
1978
1978
1978
1978
1979
1980
1981
1981
1982
1982
1983
1983
1983
1984
1985
1987
1990
1992
1993
1995
1996
1997
1998
2000
2001
2003
2004
2004
2005
2004
2003
2002
2000
1998
1996
1994
1991
1987
1984
1981
1979
1976
1974
1972
1970
1969
1969
1969
1969
1968
1967
1966
1966
1966
1967
1968
1968
1968
1968
1968
1967
1967
1967
1967
1967
1968
1968
1968
1968
1968
1968
1968
1969
1969
1969
1969
1970
1970
1970
1970
1970
1970
1970
1970
1970
1971
1971
1971
1971
1971
1971
1971
1971
1971
1972
1972
1972
1972
1972
1972
1972
1971
1970
1970
1970
1970
1971
1972
1974
1975
1976
1977
1978
1978
1978
1978
1977
1976
1975
1974
1973
1972
1971
1971
1971
1972
1972
1973
1973
1973
1973
1972
1972
1972
1972
1971
1970
1971
1979
1998
2025
2049
2056
2040
2003
1959
1928
1918
1927
1945
1961
1970
1973
1974
1975
1976
1977
1977
1978
1978
1978
1978
1978
1979
1980
1981
1981
1982
1982
1982
1982
1982
1983
1984
1985
1987
1988
1989
1990
1991
1992
1993
1995
1997
1999
2002
2004
2005
2006
2007
2007
2007
2007
2006
2005
2004
2002
2000
1997
1993
1989
1986
1983
1980
1978
1977
1976
1974
1973
1971
1970
1970
1970
1970
1970
1970
1970
1970
1970
1970
1970
1970
1969
1970
1971
1971
1972
1972
1971
1970
1970
1970
1970
1970
1971
1971
1972
1972
1973
1973
1972
1972
1971
1972
1972
1973
1974
1974
1974
1973
1972
1972
1972
1973
1974
1974
1975
1975
1975
1974
1974
1973
1973
1973
1974
1974
1974
1975
1975
1975
1975
1974
1974
1974
1974
1975
1975
1974
1973
1972
1972
1973
1975
1977
1979
1981
1981
1981
1980
1979
1977
1976
1975
1974
1973
1973
1974
1974
1974
1974
1973
1973
1973
1972
1973
1974
1974
1974
1974
1972
1970
1971
1978
1995
2021
2047
2059
2048
2015
1973
1938
1923
1928
1945
1961
1971
1975
1976
1977
1977
1976
1976
1976
1976
1977
1979
1979
1980
1980
1980
1979
1979
1979
1980
1981
1982
1983
1984
1984
1985
1986
1986
1987
1988
1990
1992
1994
1995
1997
1998
2000
2001
2002
2003
2004
2005
2006
2006
2005
2004
2002
1999
1996
1993
1991
1988
1986
1983
1980
1978
1975
1973
1972
1972
1971
1971
1971
1971
1971
1970
1969
1969
1969
1969
1970
1971
1972
1972
1972
1971
1970
1970
1969
1970
1971
1972
1973
1972
1972
1971
1971
1971
1971
1972
1972
1973
1973
1974
1974
1974
1973
1973
1973
1973
1974
1974
1975
1975
1975
1975
1974
1974
1973
1974
1975
1975
1976
1975
1975
1974
1974
1974
1974
1974
1975
1975
1976
1976
1976
1974
1973
1972
1972
1974
1976
1979
1980
1981
1981
1980
1979
1978
1978
1977
1977
1976
1976
1976
1975
1974
1973
1973
1972
1973
1973
1974
1974
1975
1975
1974
1973
1970
1969
1969
1976
1993
2019
2045
2057
2048
2017
1974
1939
1922
1926
1943
1960
1971
1976
1976
1976
1976
1976
1976
1977
1978
1979
1980
1981
1981
1980
1980
1979
1979
1980
1982
1983
1984
1984
1984
1985
1986
1987
1989
1990
1992
1993
1994
1995
1997
1998
2000
2002
2004
2006
2007
2007
2007
2007
2007
2006
2005
2003
2001
1999
1996
1993
1990
1987
1984
1981
1979
1977
1976
1975
1974
1973
1972
1971
1970
1970
1970
1970
1971
1972
1972
1972
1972
1972
1971
1970
1970
1970
1971
1972
1973
1973
1972
1972
1971
1971
1971
1971
1972
1972
1972
1972
1973
1973
1972
1971
1971
1971
1972
1973
1974
1974
1974
1973
1972
1972
1972
1972
1972
1972
1973
1973
1973
1973
1973
1972
1972
1972
1972
1973
1973
1972
1972
1971
1971
1972
1974
1975
1976
1977
1977
1977
1977
1976
1974
1972
1971
1971
1971
1972
1972
1972
1972
1972
1971
1970
1969
1969
1969
1969
1970
1971
1971
1970
1969
1973
1987
2011
2039
2057
2054
2025
1980
1937
1913
1911
1927
1947
1962
1969
1972
1973
1974
1974
1974
1974
1974
1974
1975
1976
1977
1978
1978
1979
1979
1979
1980
1980
1980
1981
1982
1983
1985
1986
1986
1987
1988
1989
1991
1993
1995
1997
2000
2001
2002
2003
2004
2004
2005
2005
2006
2006
2005
2003
2000
1997
1993
1990
1987
1984
1982
1980
1977
1975
1972
1970
1969
1969
1968
1968
1968
1968
1969
1969
1968
1968
1967
1967
1966
1967
1967
1968
1969
1969
1968
1968
1968
1968
1968
1968
1969
1969
1970
1970
1970
1969
1969
1969
1970
1971
1972
1973
1973
1973
1973
1972
1971
1971
1972
1972
1973
1974
1974
1974
1973
1972
1972
1972
1973
1973
1974
1974
1974
1974
1973
1973
1973
1973
1972
1972
1973
1973
1975
1976
1978
1979
1980
1980
1979
1978
1977
1976
1975
1974
1974
1973
1973
1972
1972
1973
1974
1974
1974
1974
1973
1974
1974
1974
1973
1971
1969
1969
1974
1988
2013
2041
2058
2053
2026
1984
1945
1924
1925
1940
1958
1970
1975
1975
1975
1976
1976
1977
1978
1978
1978
1978
1978
1978
1978
1979
1980
1981
1982
1983
1983
1982
1982
1982
1983
1984
1985
1986
1987
1988
1989
1990
1992
1994
1996
1998
2000
2002
2004
2004
2005
2005
2004
2004
2004
2003
2002
2000
1998
1995
1991
1987
1984
1981
1978
1977
1975
1974
1973
1971
1970
1969
1969
1969
1969
1969
1969
1969
1970
1970
1970
1970
1969
1969
1968
1968
1969
1970
1971
1971
1972
1971
1970
1970
1970
1970
1971
1972
1973
1973
1973
1972
1971
1971
1971
1972
1973
1973
1974
1974
1973
1973
1973
1973
1973
1974
1974
1974
1974
1974
1973
1973
1973
1973
1973
1974
1974
1975
1974
1974
1973
1973
1972
1972
1973
1974
1975
1975
1975
1974
1972
1971
1971
1972
1974
1976
1978
1979
1980
1980
1979
1978
1977
1976
1975
1974
1975
1975
1975
1974
1973
1972
1972
1971
1972
1972
1973
1974
1974
1974
1973
1972
1970
1969
1974
1989
2013
2040
2056
2052
2026
1985
1947
1926
1926
1940
1958
1970
1975
1976
1976
1976
1975
1975
1976
1977
1978
1978
1979
1979
1979
1979
1979
1980
1980
1981
1982
1983
1984
1985
1985
1985
1985
1986
1988
1989
1991
1992
1994
1995
1997
1999
2000
2002
2003
2004
2004
2005
2005
2005
2004
2003
2002
2000
1998
1995
1993
1990
1988
1985
1982
1979
1976
1975
1974
1973
1973
1972
1972
1971
1971
1970
1970
1970
1970
1970
1971
1971
1971
1971
1971
1970
1970
1970
1970
1971
1972
1973
1973
1973
1972
1971
1971
1971
1971
1972
1972
1973
1973
1974
1974
1973
1973
1972
1972
1973
1974
1975
1975
1975
1975
1974
1973
1973
1973
1974
1975
1975
1975
1975
1974
1974
1974
1974
1974
1974
1974
1975
1975
1975
1975
1974
1974
1974
1974
1974
1975
1976
1976
1975
1974
1973
1972
1972
1974
1976
1978
1980
1981
1981
1981
1980
1979
1978
1977
1977
1976
1976
1976
1975
1975
1974
1974
1974
1974
1974
1974
1974
1975
1975
1975
1974
1972
1971
1971
1977
1992
2016
2042
2056
2050
2023
1982
1946
1927
1929
1943
1960
1972
1976
1976
1976
1976
1977
1977
1978
1979
1979
1979
1980
1980
1981
1981
1981
1981
1981
1982
1983
1984
1985
1985
1985
1986
1987
1988
1989
1990
1992
1993
1994
1996
1997
1999
2000
2002
2003
2005
2006
2006
2006
2006
2004
2002
2000
1999
1997
1995
1993
1991
1988
1985
1981
1979
1976
1975
1974
1973
1973
1972
1971
1970
1970
1969
1969
1970
1970
1971
1971
1971
1971
1971
1970
1970
1970
1970
1971
1971
1972
1972
1972
1972
1971
1970
1970
1971
1972
1973
1974
1974
1974
1973
1972
1972
1972
1972
1973
1973
1974
1974
1974
1974
1974
1973
1973
1972
1972
1972
1973
1973
1973
1973
1973
1973
1973
1973
1973
1973
1973
1973
1973
1973
1973
1972
1971
1971
1971
1973
1975
1977
1978
1979
1978
1977
1977
1977
1977
1976
1975
1974
1973
1972
1972
1972
1971
1971
1971
1970
1971
1971
1972
1972
1972
1971
1971
1970
1969
1969
1975
1990
2015
2043
2057
2050
2019
1974
1935
1915
1918
1935
1954
1966
1971
1971
1972
1973
1974
1975
1976
1977
1978
1978
1978
1978
1978
1979
1980
1981
1981
1982
1982
1983
1983
1984
1985
1985
1986
1988
1989
1990
1992
1993
1995
1996
1998
2000
2002
2004
2006
2007
2007
2007
2006
2006
2006
2005
2004
2003
2000
1997
1994
1990
1987
1984
1982
1979
1978
1977
1976
1975
1974
1972
1971
1970
1970
1971
1971
1972
1973
1974
1974
1973
1973
1972
1972
1972
1972
1973
1973
1973
1973
1973
1973
1973
1973
1974
1975
1975
1976
1976
1975
1975
1975
1975
1975
1976
1976
1977
1977
1978
1978
1978
1978
1978
1978
1977
1977
1977
1978
1978
1979
1979
1978
1978
1977
1977
1978
1978
1979
1979
1979
1978
1977
1976
1976
1976
1977
1978
1979
1979
1979
1979
1978
1978
1978
1978
1977
1977
1977
1978
1979
1981
1983
1984
1985
1985
1984
1984
1983
1983
1982
1981
1979
1978
1977
1976
1977
1977
1978
1979
1979
1978
1978
1977
1978
1978
1978
1977
1976
1976
1981
1995
2019
2045
2061
2057
2031
1990
1953
1932
1933
1947
1963
1975
1979
1980
1980
1981
1981
1981
1982
1982
1982
1982
1982
1982
1983
1984
1986
1987
1987
1987
1986
1986
1986
1987
1989
1990
1991
1992
1993
1994
1995
1996
1998
1999
2001
2003
2004
2006
2008
2009
2010
2010
2010
2009
2009
2009
2008
2007
2004
2001
1998
1995
1992
1989
1987
1985
1983
1981
1980
1979
1978
1977
1976
1976
1976
1976
1976
1976
1977
1977
1976
1976
1976
1976
1976
1976
1977
1977
1977
1977
1977
1977
1977
1977
1977
1977
1978
1978
1978
1978
1977
1977
1977
1978
1978
1979
1979
1979
1979
1979
1978
1978
1979
1979
1979
1980
1980
1980
1980
1980
1980
1979
1978
1978
1979
1980
1980
1980
1980
1979
1979
1978
1979
1979
1979
1980
1980
1980
1980
1980
1979
1979
1979
1979
1980
1980
1980
1980
1979
1978
1977
1977
1978
1981
1983
1985
1986
1986
1985
1984
1982
1981
1980
1979
1978
1979
1979
1979
1979
1978
1977
1976
1976
1976
1977
1978
1978
1978
1978
1976
1975
1974
1978
1990
2013
2040
2058
2059
2036
1996
1955
1929
1925
1938
1956
1969
1977
1978
1979
1980
1980
1980
1979
1979
1979
1981
1982
1982
1983
1983
1982
1983
1983
1983
1984
1985
1986
1987
1987
1988
1988
1989
1989
1990
1991
1993
1995
1996
1998
2000
2001
2003
2004
2005
2006
2007
2008
2009
2009
2007
2005
2003
2001
1998
1996
1994
1991
1988
1986
1983
1980
1977
1976
1975
1975
1974
1974
1974
1973
1973
1973
1973
1972
1972
1971
1971
1971
1971
1972
1972
1973
1973
1972
1972
1972
1971
1971
1971
1971
1971
1970
1970
1970
1971
1972
1973
1973
1974
1974
1974
1974
1974
1974
1974
1974
1974
1974
1975
1975
1975
1975
1975
1975
1975
1975
1975
1976
1975
1975
1975
1974
1974
1974
1974
1975
1975
1975
1975
1973
1972
1971
1971
1973
1975
1978
1979
1980
1979
1979
1978
1977
1976
1975
1974
1974
1974
1974
1974
1973
1973
1972
1972
1972
1972
1972
1973
1973
1974
1973
1972
1970
1969
1973
1986
2011
2042
2062
2061
2033
1986
1940
1912
1909
1925
1947
1963
1971
1972
1973
1973
1974
1974
1975
1975
1976
1977
1978
1979
1979
1979
1979
1979
1979
1980
1982
1983
1984
1984
1985
1985
1986
1986
1988
1989
1991
1993
1995
1997
1999
2000
2002
2004
2005
2006
2008
2009
2010
2010
2009
2008
2006
2003
2001
1998
1995
1992
1989
1986
1983
1980
1977
1974
1973
1971
1971
1972
1972
1972
1971
1971
1970
1970
1970
1970
1971
1971
1972
1972
1972
1971
1971
1971
1972
1972
1972
1972
1972
1972
1972
1973
1973
1972
1972
1972
1973
1974
1976
1976
1976
1975
1974
1974
1974
1975
1975
1976
1976
1977
1977
1977
1977
1977
1976
1975
1975
1975
1976
1976
1976
1976
1975
1975
1974
1974
1974
1974
1975
1976
1975
1974
1973
1972
1973
1975
1977
1979
1980
1981
1981
1981
1980
1979
1978
1977
1976
1976
1975
1975
1975
1974
1974
1973
1973
1973
1973
1974
1974
1975
1975
1974
1972
1970
1970
1977
1996
2024
2050
2063
2051
2017
1973
1938
1923
1930
1947
1964
1974
1977
1977
1976
1976
1976
1976
1976
1977
1978
1979
1980
1980
1980
1979
1979
1979
1980
1982
1983
1984
1985
1985
1985
1985
1986
1986
1987
1988
1990
1992
1994
1996
1997
1999
2000
2002
2004
2005
2006
2006
2006
2006
2005
2003
2001
1999
1996
1994
1992
1989
1986
1983
1980
1977
1975
1974
1973
1973
1973
1972
1972
1971
1971
1971
1971
1971
1972
1972
1972
1972
1972
1972
1971
1971
1971
1971
1971
1972
1973
1974
1974
1975
1974
1974
1973
1973
1973
1973
1974
1975
1975
1975
1975
1975
1974
1974
1974
1974
1975
1976
1977
1977
1976
1975
1974
1974
1974
1975
1976
1976
1977
1977
1976
1975
1974
1974
1974
1975
1976
1976
1977
1976
1976
1975
1974
1974
1974
1974
1974
1975
1975
1975
1976
1978
1979
1981
1981
1982
1981
1981
1980
1980
1979
1977
1976
1976
1975
1975
1975
1976
1976
1976
1975
1975
1975
1975
1975
1976
1975
1974
1973
1973
1979
1994
2017
2043
2056
2049
2021
1982
1947
1930
1932
1946
1962
1972
1977
1977
1978
1979
1979
1978
1978
1978
1978
1979
1979
1980
1981
1982
1982
1983
1983
1983
1982
1982
1983
1983
1984
1986
1987
1989
1990
1991
1992
1993
1995
1997
2000
2002
2003
2004
2005
2006
2007
2007
2008
2008
2008
2007
2005
2003
2000
1997
1993
1990
1987
1984
1982
1981
1979
1978
1977
1975
1974
1973
1972
1972
1973
1973
1973
1973
1973
1973
1972
1972
1972
1973
1973
1974
1975
1975
1974
1973
1973
1973
1973
1974
1975
1976
1976
1975
1975
1975
1975
1975
1975
1975
1976
1976
1976
1976
1975
1975
1975
1976
1976
1977
1977
1978
1977
1977
1976
1976
1977
1977
1977
1977
1977
1977
1978
1977
1977
1977
1976
1976
1977
1977
1977
1978
1978
1978
1977
1976
1975
1975
1975
1976
1978
1980
1981
1982
1982
1982
1982
1981
1981
1980
1979
1978
1978
1977
1977
1976
1976
1975
1975
1975
1975
1976
1976
1977
1977
1977
1976
1974
1972
1973
1979
1995
2021
2048
2063
2054
2023
1978
1939
1920
1924
1941
1959
1971
1976
1977
1977
1977
1978
1979
1980
1981
1982
1982
1982
1981
1980
1980
1981
1982
1983
1984
1984
1985
1985
1986
1986
1987
1987
1988
1989
1991
1993
1994
1996
1997
1998
2000
2001
2003
2006
2007
2008
2009
2008
2008
2007
2006
2004
2003
2001
1998
1994
1991
1988
1985
1982
1980
1977
1976
1975
1974
1974
1973
1972
1971
1970
1970
1970
1970
1971
1971
1972
1972
1971
1971
1970
1970
1969
1970
1970
1971
1971
1971
1971
1971
1970
1970
1970
1971
1971
1972
1972
1972
1972
1972
1972
1972
1972
1972
1973
1974
1975
1975
1975
1974
1973
1972
1973
1974
1975
1975
1976
1975
1974
1973
1973
1972
1973
1973
1974
1974
1974
1974
1973
1972
1972
1972
1972
1974
1976
1978
1979
1979
1979
1979
1978
1977
1977
1976
1975
1974
1974
1973
1973
1973
1973
1973
1972
1972
1972
1972
1973
1974
1974
1974
1972
1970
1969
1974
1990
2016
2045
2062
2056
2025
1979
1937
1915
1917
1934
1954
1968
1974
1975
1975
1976
1977
1978
1978
1979
1980
1980
1980
1981
1981
1981
1982
1983
1983
1984
1985
1985
1985
1986
1986
1987
1988
1989
1991
1993
1994
1996
1998
1999
2000
2001
2003
2004
2006
2009
2011
2012
2012
2011
2010
2008
2006
2004
2002
2000
1996
1992
1988
1985
1982
1979
1978
1976
1976
1975
1975
1974
1974
1973
1972
1971
1971
1971
1972
1973
1974
1974
1974
1973
1972
1972
1972
1973
1974
1974
1974
1974
1974
1973
1973
1973
1973
1974
1974
1975
1976
1976
1976
1975
1975
1975
1975
1975
1976
1976
1976
1977
1977
1977
1976
1977
1977
1977
1977
1978
1978
1978
1978
1978
1977
1976
1976
1976
1977
1978
1978
1978
1978
1978
1977
1977
1977
1977
1977
1978
1978
1978
1978
1978
1977
1976
1975
1975
1976
1978
1980
1982
1983
1983
1982
1981
1981
1980
1980
1980
1980
1979
1978
1977
1976
1976
1976
1976
1977
1977
1977
1977
1977
1977
1976
1975
1974
1973
1974
1980
1995
2021
2048
2062
2056
2027
1985
1948
1929
1931
1946
1963
1974
1978
1977
1977
1977
1977
1978
1979
1980
1981
1981
1981
1981
1981
1981
1981
1982
1983
1984
1984
1985
1985
1986
1986
1986
1987
1988
1989
1990
1992
1993
1994
1996
1997
1998
2000
2002
2004
2006
2007
2007
2007
2007
2006
2005
2004
2002
2000
1998
1995
1992
1988
1985
1981
1979
1977
1976
1975
1974
1973
1973
1972
1972
1972
1972
1972
1971
1971
1971
1971
1972
1972
1972
1971
1971
1971
1972
1973
1974
1974
1973
1973
1972
1972
1972
1973
1973
1974
1975
1975
1975
1975
1975
1974
1974
1974
1974
1975
1976
1977
1976
1976
1975
1975
1975
1976
1976
1976
1976
1976
1976
1975
1975
1976
1976
1976
1976
1977
1977
1977
1976
1976
1976
1976
1976
1976
1976
1976
1977
1977
1977
1977
1977
1977
1976
1976
1975
1975
1975
1976
1977
1978
1979
1980
1981
1981
1982
1982
1982
1981
1980
1978
1977
1976
1976
1976
1976
1976
1976
1976
1976
1975
1975
1974
1975
1975
1976
1976
1976
1974
1975
1980
1994
2018
2044
2058
2052
2025
1984
1948
1930
1932
1946
1962
1972
1977
1978
1979
1979
1980
1980
1979
1979
1979
1980
1980
1981
1982
1983
1984
1985
1985
1984
1984
1983
1984
1985
1987
1988
1989
1990
1990
1990
1991
1993
1994
1997
1999
2001
2003
2005
2005
2006
2006
2007
2007
2007
2007
2006
2005
2003
2000
1997
1994
1991
1988
1985
1983
1982
1980
1978
1976
1974
1973
1972
1971
1971
1972
1972
1973
1973
1972
1972
1972
1972
1972
1972
1973
1973
1974
1974
1974
1973
1973
1972
1973
1973
1974
1974
1975
1974
1974
1974
1973
1973
1973
1974
1974
1975
1975
1975
1975
1975
1975
1974
1975
1975
1976
1977
1977
1976
1976
1975
1974
1974
1974
1975
1975
1976
1976
1976
1976
1975
1974
1974
1974
1974
1975
1975
1975
1975
1975
1974
1974
1974
1974
1974
1975
1975
1975
1974
1973
1973
1973
1974
1976
1978
1979
1980
1980
1980
1979
1978
1977
1975
1974
1974
1974
1974
1974
1974
1973
1973
1972
1972
1972
1972
1973
1974
1974
1974
1972
1970
1969
1974
1989
2014
2043
2060
2056
2028
1983
1942
1919
1918
1934
1952
1965
1971
1972
1973
1973
1973
1973
1973
1974
1975
1976
1977
1977
1977
1977
1977
1978
1978
1979
1979
1980
1981
1982
1982
1983
1984
1985
1985
1986
1988
1989
1991
1993
1994
1996
1997
1999
2000
2002
2003
2004
2004
2004
2004
2003
2001
1999
1996
1993
1990
1988
1985
1982
1979
1976
1974
1972
1970
1969
1969
1969
1968
1967
1967
1966
1966
1966
1966
1967
1967
1968
1968
1968
1968
1968
1967
1966
1966
1966
1967
1967
1968
1968
1968
1968
1968
1968
1968
1968
1969
1969
1970
1970
1971
1970
1970
1970
1970
1970
1971
1971
1972
1972
1972
1972
1971
1971
1971
1971
1971
1972
1972
1972
1972
1971
1971
1971
1971
1971
1972
1972
1973
1973
1972
1972
1970
1969
1969
1970
1972
1974
1976
1978
1979
1979
1978
1977
1976
1975
1974
1973
1973
1973
1973
1973
1972
1971
1971
1971
1971
1972
1972
1973
1973
1972
1971
1970
1968
1969
1978
1997
2025
2050
2061
2048
2011
1966
1930
1915
1923
1941
1959
1970
1974
1975
1975
1976
1976
1976
1977
1978
1979
1979
1980
1980
1980
1980
1981
1982
1982
1983
1983
1983
1984
1985
1985
1986
1987
1988
1989
1991
1993
1994
1996
1997
1998
2000
2001
2003
2005
2007
2008
2009
2009
2009
2008
2006
2004
2001
1998
1996
1993
1990
1987
1984
1981
1978
1976
1975
1974
1973
1973
1973
1972
1972
1972
1971
1971
1971
1972
1973
1973
1973
1973
1972
1971
1971
1971
1972
1973
1974
1974
1974
1974
1973
1972
1972
1972
1972
1974
1975
1976
1976
1976
1976
1975
1975
1975
1975
1975
1975
1976
1976
1977
1977
1976
1976
1975
1975
1975
1976
1976
1977
1977
1977
1976
1976
1976
1976
1977
1977
1977
1977
1977
1976
1976
1976
1976
1976
1976
1977
1977
1977
1977
1977
1976
1975
1974
1975
1976
1978
1981
1983
1984
1983
1983
1981
1980
1979
1979
1978
1978
1977
1977
1977
1976
1975
1975
1974
1975
1975
1976
1977
1977
1976
1975
1974
1972
1972
1977
1989
2012
2039
2058
2058
2035
1995
1955
1930
1927
1940
1957
1971
1977
1977
1977
1977
1977
1977
1978
1979
1979
1980
1980
1980
1980
1980
1980
1981
1982
1982
1983
1984
1985
1985
1985
1986
1986
1987
1988
1989
1991
1993
1994
1996
1997
1998
2000
2002
2004
2006
2007
2008
2008
2007
2006
2005
2004
2003
2001
1999
1996
1993
1990
1987
1984
1981
1979
1977
1976
1975
1974
1973
1973
1972
1971
1971
1971
1971
1972
1972
1973
1973
1973
1972
1972
1971
1971
1971
1972
1973
1974
1974
1974
1973
1973
1973
1973
1973
1974
1974
1974
1974
1974
1975
1975
1975
1974
1974
1975
1976
1976
1977
1976
1976
1976
1975
1975
1976
1976
1977
1977
1977
1977
1976
1976
1975
1975
1975
1975
1976
1976
1976
1976
1976
1975
1975
1975
1975
1976
1977
1977
1977
1976
1974
1973
1971
1971
1972
1974
1977
1979
1980
1980
1979
1978
1977
1976
1975
1975
1975
1975
1975
1974
1973
1972
1971
1971
1972
1972
1973
1974
1974
1975
1974
1973
1971
1970
1972
1981
2001
2029
2053
2061
2045
2007
1962
1928
1916
1924
1943
1960
1971
1974
1974
1974
1974
1974
1975
1976
1977
1978
1978
1978
1978
1978
1978
1979
1979
1980
1981
1982
1982
1983
1983
1983
1984
1985
1986
1988
1989
1991
1992
1994
1995
1996
1997
1999
2001
2003
2005
2006
2006
2005
2005
2004
2003
2002
2000
1997
1994
1991
1987
1984
1981
1978
1976
1974
1973
1971
1970
1970
1969
1968
1967
1966
1966
1966
1966
1967
1967
1968
1968
1967
1967
1967
1966
1967
1967
1967
1967
1968
1968
1968
1968
1967
1967
1967
1968
1969
1969
1969
1969
1969
1969
1969
1969
1969
1969
1970
1971
1972
1972
1972
1971
1971
1970
1970
1971
1972
1972
1973
1973
1972
1972
1971
1971
1971
1972
1972
1972
1972
1971
1970
1970
1970
1972
1974
1976
1977
1978
1978
1978
1978
1977
1976
1974
1972
1972
1972
1973
1973
1973
1972
1972
1971
1971
1971
1971
1972
1973
1974
1973
1971
1970
1969
1975
1991
2017
2045
2060
2053
2022
1976
1935
1914
1917
1934
1953
1967
1973
1975
1976
1976
1977
1977
1977
1977
1978
1978
1979
1980
1981
1982
1982
1982
1982
1982
1982
1984
1985
1986
1987
1988
1988
1989
1989
1991
1992
1994
1996
1999
2001
2003
2004
2006
2007
2008
2008
2009
2009
2010
2010
2010
2008
2005
2001
1997
1994
1991
1989
1986
1983
1980
1977
1976
1974
1974
1973
1973
1973
1972
1972
1971
1971
1971
1971
1971
1971
1972
1973
1973
1974
1974
1973
1973
1972
1972
1972
1973
1973
1974
1974
1974
1974
1974
1974
1974
1974
1974
1975
1976
1977
1977
1977
1976
1975
1975
1976
1976
1977
1977
1978
1977
1977
1977
1977
1977
1977
1978
1978
1978
1978
1978
1978
1977
1977
1977
1976
1977
1977
1978
1978
1979
1978
1978
1977
1977
1977
1977
1978
1978
1977
1976
1976
1977
1978
1980
1982
1983
1984
1984
1984
1984
1982
1980
1978
1977
1977
1977
1978
1978
1978
1978
1977
1977
