2031
2031
2032
2032
2032
2033
2033
2033
2034
2034
2033
2033
2033
2034
2035
2037
2039
2038
2035
2030
2026
2023
2027
2042
2072
2122
2179
2220
2225
2186
2118
2049
2007
1999
2017
2040
2051
2051
2043
2037
2035
2035
2035
2036
2036
2038
2040
2042
2043
2043
2044
2044
2045
2046
2047
2048
2050
2053
2055
2057
2057
2058
2058
2059
2061
2064
2067
2069
2069
2070
2071
2074
2080
2087
2094
2098
2101
2101
2102
2104
2108
2112
2115
2118
2120
2122
2123
2124
2123
2121
2117
2112
2106
2098
2090
2082
2073
2066
2059
2053
2048
2045
2041
2040
2039
2039
2039
2039
2039
2038
2037
2036
2035
2035
2036
2039
2044
2049
2055
2059
2062
2063
2064
2065
2066
2067
2069
2071
2072
2073
2074
2074
2074
2075
2076
2077
2078
2079
2078
2078
2077
2077
2077
2078
2079
2079
2080
2079
2077
2074
2069
2064
2061
2058
2056
2056
2056
2056
2056
2055
2054
2053
2052
2052
2053
2054
2056
2057
2057
2056
2055
2054
2055
2056
2058
2060
2062
2064
2065
2065
2064
2063
2063
2062
2063
2063
2063
2064
2064
2064
2063
2061
2059
2058
2061
2065
2069
2072
2074
2074
2073
2072
2072
2072
2072
2072
2073
2073
2074
2074
2073
2070
2067
2063
2061
2061
2063
2063
2060
2057
2053
2052
2054
2059
2062
2064
2064
2063
2060
2058
2055
2053
2052
2053
2054
2055
2054
2051
2048
2046
2046
2049
2053
2056
2057
2056
2055
2054
2054
2055
2055
2056
2058
2059
2061
2062
2064
2065
2066
2067
2067
2068
2069
2069
2067
2063
2058
2053
2050
2054
2068
2096
2143
2198
2238
2246
2214
2151
2086
2042
2027
2036
2050
2057
2054
2046
2040
2038
2037
2036
2036
2037
2037
2037
2037
2038
2039
2040
2041
2042
2043
2044
2046
2048
2050
2051
2053
2054
2054
2054
2053
2053
2052
2052
2053
2054
2055
2057
2059
2064
2068
2074
2079
2082
2087
2091
2097
2101
2105
2107
2107
2108
2109
2111
2113
2115
2115
2112
2108
2101
2093
2084
2075
2068
2062
2056
2050
2045
2039
2036
2035
2035
2035
2035
2034
2034
2034
2035
2037
2038
2038
2038
2038
2038
2038
2038
2038
2039
2040
2040
2040
2039
2038
2038
2039
2040
2040
2039
2038
2037
2036
2035
2035
2034
2035
2035
2037
2038
2039
2039
2039
2038
2037
2036
2036
2035
2035
2034
2034
2033
2032
2031
2031
2030
2030
2030
2030
2030
2030
2030
2030
2031
2031
2031
2032
2032
2032
2032
2032
2032
2031
2031
2032
2032
2032
2033
2033
2033
2033
2033
2033
2033
2033
2033
2034
2034
2034
2035
2035
2035
2035
2035
2035
2035
2036
2036
2037
2037
2037
2037
2036
2037
2037
2037
2037
2038
2039
2040
2041
2042
2042
2042
2042
2042
2043
2044
2045
2045
2046
2046
2046
2046
2046
2045
2045
2044
2044
2044
2043
2043
2044
2045
2046
2047
2048
2048
2048
2048
2048
2048
2047
2045
2044
2043
2043
2044
2046
2048
2053
2056
2059
2061
2062
2063
2063
2063
2062
2060
2059
2058
2057
2057
2057
2057
2058
2058
2058
2057
2056
2054
2052
2051
2052
2053
2055
2055
2055
2054
2053
2052
2052
2052
2053
2054
2055
2055
2052
2048
2043
2038
2036
2043
2062
2101
2160
2219
2254
2248
2201
2132
2071
2038
2035
2048
2059
2062
2056
2048
2045
2042
2041
2040
2041
2041
2043
2044
2045
2045
2046
2046
2046
2047
2047
2048
2048
2049
2050
2050
2051
2051
2051
2052
2052
2053
2054
2055
2057
2058
2060
2061
2062
2064
2066
2069
2073
2076
2080
2083
2086
2088
2091
2093
2095
2097
2099
2100
2101
2101
2100
2097
2094
2089
2084
2078
2072
2066
2060
2055
2050
2046
2042
2039
2036
2035
2034
2034
2034
2034
2034
2033
2033
2033
2033
2034
2035
2035
2036
2036
2036
2037
2038
2039
2040
2041
2042
2043
2043
2044
2044
2044
2044
2044
2044
2044
2045
2045
2046
2046
2046
2045
2045
2044
2044
2045
2045
2046
2046
2046
2046
2045
2045
2044
2045
2045
2045
2046
2046
2046
2046
2046
2046
2046
2045
2045
2045
2045
2046
2046
2046
2046
2046
2045
2045
2045
2046
2047
2047
2047
2047
2047
2047
2046
2046
2046
2047
2047
2047
2047
2047
2047
2047
2047
2047
2047
2047
2048
2048
2048
2048
2047
2046
2046
2045
2045
2045
2045
2045
2046
2046
2045
2045
2045
2045
2045
2045
2046
2046
2046
2046
2045
2045
2045
2046
2046
2046
2046
2046
2046
2046
2046
2045
2045
2044
2044
2044
2044
2045
2045
2045
2044
2044
2043
2043
2042
2042
2042
2042
2042
2041
2040
2040
2040
2042
2044
2046
2048
2048
2048
2048
2048
2048
2049
2049
2048
2047
2047
2047
2047
2048
2048
2047
2047
2046
2047
2048
2048
2048
2047
2046
2045
2044
2044
2045
2045
2046
2046
2047
2047
2048
2048
2048
2048
2047
2045
2042
2041
2044
2054
2078
2121
2177
2228
2252
2236
2184
2119
2066
2043
2044
2056
2064
2064
2055
2048
2045
2043
2042
2041
2041
2041
2042
2043
2044
2045
2047
2048
2048
2049
2050
2050
2050
2051
2051
2052
2053
2054
2055
2056
2057
2058
2059
2060
2061
2062
2064
2067
2070
2072
2075
2077
2079
2081
2085
2088
2093
2098
2104
2108
2112
2114
2116
2117
2118
2119
2118
2116
2112
2106
2099
2091
2083
2076
2069
2063
2058
2053
2048
2045
2042
2040
2039
2038
2037
2037
2036
2036
2036
2036
2036
2036
2036
2036
2037
2036
2036
2036
2036
2035
2033
2032
2031
2031
2031
2031
2031
2031
2032
2032
2033
2033
2033
2032
2031
2031
2031
2031
2033
2033
2033
2033
2032
2032
2032
2034
2036
2038
2039
2038
2037
2035
2034
2034
2034
2034
2035
2035
2035
2035
2034
2034
2033
2034
2035
2036
2036
2037
2037
2037
2037
2037
2037
2038
2039
2040
2040
2040
2039
2038
2038
2038
2039
2040
2040
2041
2040
2039
2039
2039
2039
2039
2039
2039
2040
2041
2043
2044
2045
2045
2044
2043
2042
2042
2041
2041
2040
2041
2043
2045
2047
2047
2046
2043
2041
2041
2042
2045
2048
2051
2052
2053
2052
2051
2051
2051
2051
2051
2051
2050
2050
2049
2048
2048
2047
2045
2042
2041
2041
2041
2043
2045
2046
2046
2046
2047
2048
2048
2048
2048
2049
2051
2053
2054
2055
2055
2055
2056
2058
2058
2056
2053
2052
2054
2057
2059
2060
2057
2053
2049
2047
2046
2045
2045
2044
2045
2045
2046
2046
2044
2039
2034
2030
2031
2041
2063
2105
2159
2208
2230
2212
2156
2086
2031
2007
2014
2036
2052
2058
2052
2045
2041
2040
2039
2040
2040
2041
2042
2044
2045
2046
2047
2047
2047
2048
2048
2049
2051
2052
2053
2054
2054
2054
2054
2055
2057
2059
2062
2064
2065
2066
2068
2069
2071
2074
2077
2080
2083
2087
2091
2095
2099
2102
2105
2108
2111
2113
2115
2117
2118
2118
2116
2114
2110
2104
2097
2089
2080
2071
2064
2056
2050
2046
2042
2039
2037
2036
2035
2035
2034
2034
2033
2033
2032
2033
2033
2034
2035
2036
2036
2036
2037
2039
2041
2045
2048
2050
2052
2052
2051
2051
2051
2051
2051
2051
2051
2051
2051
2050
2048
2047
2046
2044
2043
2043
2043
2043
2043
2044
2044
2044
2044
2044
2043
2043
2043
2043
2043
2043
2043
2042
2041
2041
2041
2041
2041
2042
2042
2042
2042
2041
2041
2040
2041
2042
2045
2048
2052
2055
2057
2058
2059
2059
2060
2060
2059
2058
2057
2055
2053
2051
2050
2048
2048
2048
2048
2048
2048
2048
2048
2048
2048
2047
2047
2047
2047
2047
2047
2047
2047
2046
2045
2044
2044
2044
2044
2045
2046
2046
2045
2044
2043
2043
2044
2045
2045
2043
2041
2044
2053
2069
2091
2109
2123
2132
2133
2134
2135
2140
2148
2154
2159
2162
2167
2179
2196
2220
2247
2281
2321
2370
2425
2475
2517
2537
2538
2528
2510
2495
2478
2457
2427
2379
2319
2246
2171
2102
2048
2011
1990
1983
1980
1978
1979
1979
1979
1978
1979
1982
1987
1995
1998
1999
1997
1994
1992
1989
1987
1982
1978
1978
1981
1997
2027
2076
2133
2175
2184
2152
2092
2030
1989
1977
1989
2006
2015
2014
2006
2001
2000
1999
1998
1998
1998
1999
2001
2002
2003
2004
2005
2006
2007
2008
2009
2010
2011
2012
2013
2014
2016
2017
2018
2018
2020
2021
2023
2024
2026
2027
2028
2030
2031
2033
2035
2038
2041
2044
2048
2051
2054
2056
2059
2060
2062
2064
2066
2068
2068
2068
2067
2064
2060
2054
2048
2042
2036
2030
2024
2019
2015
2011
2007
2004
2002
2001
2001
2003
2005
2008
2009
2009
2007
2006
2006
2006
2006
2007
2008
2008
2009
2009
2008
2008
2009
2010
2012
2015
2017
2018
2019
2020
2020
2020
2021
2021
2022
2022
2023
2023
2023
2023
2023
2023
2023
2023
2024
2024
2024
2025
2024
2023
2022
2022
2021
2021
2021
2021
2021
2022
2022
2023
2023
2024
2026
2027
2028
2028
2029
2029
2030
2030
2031
2030
2029
2028
2027
2027
2027
2027
2027
2027
2027
2027
2027
2027
2027
2027
2028
2029
2030
2030
2030
2030
2029
2030
2031
2032
2032
2032
2032
2031
2031
2030
2031
2032
2032
2033
2034
2034
2034
2034
2034
2034
2034
2034
2034
2034
2034
2034
2035
2035
2035
2034
2034
2035
2035
2036
2036
2037
2037
2037
2036
2036
2036
2036
2037
2038
2038
2038
2038
2038
2037
2036
2036
2036
2036
2036
2036
2036
2035
2035
2034
2034
2034
2036
2039
2041
2044
2045
2046
2046
2046
2046
2046
2047
2046
2046
2044
2043
2042
2042
2041
2041
2040
2039
2039
2039
2040
2040
2040
2040
2039
2039
2039
2039
2039
2039
2040
2041
2041
2042
2043
2043
2043
2040
2036
2031
2028
2029
2039
2061
2104
2161
2212
2235
2218
2165
2099
2048
2025
2029
2044
2054
2055
2048
2042
2040
2039
2038
2039
2040
2041
2041
2042
2043
2044
2045
2046
2047
2048
2048
2049
2049
2049
2050
2052
2053
2055
2056
2057
2058
2059
2059
2060
2061
2062
2064
2067
2069
2071
2074
2076
2078
2081
2084
2087
2091
2094
2097
2100
2103
2104
2104
2105
2105
2104
2104
2103
2100
2096
2090
2083
2075
2067
2060
2054
2050
2047
2044
2041
2039
2037
2035
2034
2033
2033
2033
2033
2033
2033
2033
2033
2033
2033
2034
2034
2034
2034
2035
2035
2035
2035
2035
2035
2035
2035
2035
2035
2036
2036
2036
2036
2036
2036
2036
2037
2037
2038
2038
2037
2037
2037
2038
2038
2038
2038
2038
2039
2039
2038
2038
2037
2037
2037
2037
2038
2038
2038
2039
2039
2039
2039
2038
2038
2038
2038
2038
2038
2039
2039
2039
2039
2039
2039
2039
2039
2039
2040
2040
2040
2040
2040
2040
2040
2040
2041
2041
2042
2042
2042
2042
2042
2042
2042
2042
2042
2043
2044
2044
2045
2045
2045
2045
2046
2046
2047
2047
2048
2048
2048
2048
2048
2048
2048
2048
2048
2048
2048
2048
2048
2048
2048
2047
2047
2047
2047
2047
2048
2048
2048
2048
2048
2048
2047
2047
2047
2048
2048
2048
2049
2049
2049
2049
2049
2049
2049
2049
2049
2048
2048
2048
2048
2048
2049
2051
2053
2054
2055
2055
2055
2055
2055
2054
2052
2050
2049
2048
2048
2048
2048
2048
2048
2048
2048
2048
2048
2048
2048
2048
2048
2048
2047
2047
2046
2046
2046
2046
2046
2047
2047
2048
2047
2045
2041
2038
2037
2040
2051
2074
2115
2169
2217
2238
2220
2167
2101
2049
2028
2033
2049
2061
2062
2054
2046
2043
2042
2042
2042
2042
2042
2042
2042
2043
2045
2046
2048
2048
2050
2051
2052
2053
2052
2052
2052
2053
2054
2056
2057
2057
2058
2058
2059
2060
2062
2064
2067
2069
2072
2074
2077
2080
2083
2086
2089
2091
2094
2097
2100
2103
2106
2108
2110
2110
2110
2109
2106
2103
2098
2092
2084
2076
2068
2060
2053
2048
2042
2038
2035
2033
2033
2033
2033
2032
2030
2029
2028
2027
2027
2027
2027
2026
2026
2026
2028
2029
2029
2030
2029
2029
2030
2030
2031
2032
2032
2033
2033
2034
2034
2035
2035
2034
2034
2034
2034
2035
2036
2037
2038
2039
2038
2038
2038
2038
2038
2038
2039
2039
2039
2039
2038
2038
2038
2037
2038
2038
2039
2040
2040
2040
2040
2039
2039
2038
2038
2038
2038
2038
2039
2040
2040
2040
2039
2038
2039
2040
2041
2043
2043
2043
2042
2041
2040
2040
2041
2041
2042
2042
2042
2043
2043
2043
2043
2042
2042
2042
2042
2043
2044
2045
2045
2045
2046
2046
2045
2045
2045
2045
2045
2046
2046
2047
2047
2047
2047
2047
2047
2047
2047
2047
2047
2047
2046
2045
2045
2045
2046
2048
2051
2054
2056
2056
2056
2057
2058
2059
2060
2059
2058
2057
2056
2055
2055
2054
2053
2053
2053
2054
2055
2055
2055
2054
2053
2053
2053
2053
2054
2054
2055
2055
2055
2054
2054
2054
2055
2055
2054
2051
2048
2045
2044
2051
2071
2109
2162
2214
2240
2225
2172
2100
2040
2011
2015
2037
2056
2064
2058
2049
2045
2044
2044
2044
2045
2045
2046
2048
2048
2050
2051
2051
2052
2052
2052
2053
2053
2053
2054
2055
2056
2058
2059
2060
2061
2061
2062
2063
2065
2067
2070
2072
2075
2077
2079
2081
2084
2088
2093
2098
2103
2108
2113
2118
2124
2129
2133
2135
2135
2134
2132
2128
2124
2117
2110
2100
2091
2081
2073
2067
2061
2057
2052
2048
2045
2042
2040
2038
2038
2038
2039
2040
2041
2041
2040
2040
2039
2039
2038
2039
2040
2041
2042
2044
2045
2046
2046
2046
2047
2047
2047
2048
2048
2048
2048
2048
2048
2048
2048
2050
2052
2053
2054
2054
2053
2052
2051
2051
2051
2051
2051
2051
2051
2051
2051
2050
2050
2050
2050
2050
2051
2051
2051
2050
2049
2048
2048
2048
2049
2049
2050
2050
2049
2048
2048
2047
2047
2048
2048
2048
2047
2047
2047
2047
2047
2047
2047
2047
2047
2048
2047
2046
2044
2042
2041
2040
2041
2041
2042
2041
2040
2039
2039
2038
2038
2037
2037
2037
2037
2038
2038
2039
2039
2040
2040
2040
2041
2041
2041
2041
2042
2042
2042
2041
2040
2038
2037
2036
2035
2036
2037
2040
2042
2045
2047
2048
2048
2049
2050
2052
2054
2054
2053
2052
2050
2048
2048
2047
2047
2047
2047
2047
2047
2047
2046
2046
2046
2046
2046
2046
2047
2047
2047
2047
2047
2047
2047
2047
2048
2048
2049
2048
2045
2039
2034
2031
2035
2050
2081
2132
2188
2229
2235
2200
2137
2072
2032
2022
2034
2051
2060
2059
2051
2046
2043
2041
2039
2039
2039
2040
2041
2042
2043
2044
2044
2045
2046
2047
2048
2048
2049
2050
2051
2051
2052
2051
2052
2052
2053
2054
2056
2057
2059
2060
2061
2062
2064
2066
2069
2072
2075
2078
2081
2085
2088
2091
2093
2095
2098
2101
2104
2107
2109
2109
2108
2104
2099
2093
2086
2079
2072
2065
2058
2053
2048
2043
2039
2036
2033
2031
2030
2029
2028
2027
2027
2026
2026
2026
2027
2027
2028
2029
2029
2030
2030
2031
2032
2034
2037
2040
2041
2041
2041
2040
2039
2039
2038
2037
2037
2038
2039
2040
2040
2040
2040
2040
2040
2039
2040
2040
2040
2040
2040
2040
2041
2042
2044
2045
2046
2048
2048
2048
2049
2049
2048
2048
2048
2048
2046
2044
2042
2040
2038
2036
2034
2033
2033
2032
2033
2033
2034
2034
2034
2034
2033
2033
2032
2032
2032
2033
2033
2033
2033
2034
2035
2036
2037
2038
2037
2037
2036
2041
2037
2034
2030
2031
2041
2057
2073
2080
2073
2057
2042
2033
2030
2035
2037
2048
2051
2041
2012
1980
1999
2105
2314
2584
2842
3022
3091
3078
3024
2983
2966
2961
2931
2938
2974
3013
3003
2882
2639
2327
2047
1881
1843
1882
1937
1971
1946
1935
1933
1933
1933
1934
1935
1935
1935
1936
1937
1937
1937
1937
1936
1935
1934
1934
1934
1935
1935
1936
1937
1938
1939
1940
1941
1941
1941
1941
1941
1941
1942
1943
1944
1944
1945
1946
1947
1949
1950
1951
1949
1946
1942
1939
1941
1952
1978
2022
2077
2124
2143
2122
2069
2007
1959
1939
1945
1960
1972
1974
1969
1964
1963
1962
1962
1963
1965
1967
1969
1972
1974
1977
1979
1980
1981
1981
1982
1984
1985
1987
1988
1990
1991
1992
1993
1994
1996
1999
2002
2005
2007
2008
2010
2011
2012
2014
2017
2019
2022
2026
2029
2033
2037
2040
2043
2046
2048
2050
2052
2054
2055
2055
2054
2052
2049
2045
2039
2032
2026
2020
2014
2009
2005
2001
1997
1995
1993
1992
1992
1991
1991
1992
1992
1992
1993
1993
1994
1995
1996
1997
1998
1999
2000
2001
2001
2002
2003
2003
2005
2005
2006
2007
2007
2007
2008
2008
2008
2008
2008
2008
2009
2010
2011
2011
2011
2010
2010
2011
2012
2014
2017
2018
2019
2018
2017
2015
2014
2014
2014
2014
2014
2014
2014
2014
2014
2014
2014
2014
2015
2015
2016
2017
2017
2017
2017
2018
2019
2020
2021
2022
2023
2024
2025
2027
2027
2026
2026
2026
2026
2028
2030
2030
2030
2029
2029
2028
2028
2028
2028
2028
2029
2029
2029
2029
2028
2028
2028
2028
2028
2029
2030
2030
2030
2030
2030
2029
2029
2029
2029
2029
2030
2030
2030
2031
2031
2030
2030
2030
2030
2031
2031
2032
2032
2032
2032
2032
2032
2032
2032
2032
2033
2033
2033
2032
2031
2031
2032
2034
2037
2039
2042
2043
2043
2043
2044
2044
2044
2043
2043
2042
2041
2041
2041
2040
2040
2039
2039
2039
2039
2039
2039
2039
2039
2039
2038
2038
2038
2038
2038
2038
2038
2038
2038
2038
2039
2040
2040
2038
2034
2029
2025
2025
2034
2054
2092
2145
2195
2220
2209
2162
2098
2046
2019
2019
2034
2047
2050
2046
2039
2036
2035
2034
2035
2036
2037
2038
2038
2038
2039
2040
2041
2042
2043
2043
2043
2044
2045
2046
2047
2048
2048
2049
2049
2050
2050
2052
2056
2061
2068
2073
2076
2076
2076
2077
2080
2083
2086
2090
2093
2097
2100
2104
2105
2105
2104
2103
2102
2102
2102
2101
2098
2095
2090
2083
2076
2068
2061
2054
2049
2045
2040
2037
2035
2034
2035
2036
2037
2038
2039
2039
2038
2037
2037
2037
2037
2038
2039
2039
2039
2039
2039
2038
2038
2037
2035
2034
2033
2032
2032
2032
2031
2031
2031
2032
2035
2039
2045
2049
2053
2056
2058
2059
2060
2061
2062
2063
2064
2064
2064
2063
2063
2062
2061
2062
2062
2061
2059
2055
2051
2049
2049
2051
2055
2058
2059
2056
2052
2048
2044
2042
2041
2040
2040
2039
2038
2037
2036
2036
2036
2037
2037
2038
2038
2038
2037
2036
2036
2036
2035
2035
2035
2035
2035
2035
2035
2035
2034
2034
2034
2035
2035
2035
2035
2035
2035
2035
2035
2035
2035
2036
2037
2038
2038
2037
2036
2035
2033
2033
2034
2038
2043
2048
2049
2048
2046
2042
2040
2039
2039
2040
2041
2041
2041
2041
2040
2039
2039
2039
2039
2040
2041
2043
2046
2047
2048
2048
2048
2050
2052
2055
2057
2056
2053
2050
2048
2047
2047
2047
2047
2047
2047
2047
2047
2047
2047
2046
2045
2045
2045
2044
2044
2044
2044
2045
2045
2046
2047
2048
2048
2048
2048
2045
2040
2037
2036
2042
2059
2092
2143
2195
2227
2224
2182
2117
2057
2023
2020
2037
2055
2063
2061
2053
2048
2046
2045
2045
2046
2047
2048
2049
2050
2051
2052
2055
2057
2059
2060
2060
2060
2060
2060
2061
2062
2062
2062
2063
2063
2064
2065
2067
2068
2070
2071
2073
2075
2076
2078
2081
2083
2087
2090
2094
2097
2101
2104
2107
2109
2112
2114
2116
2118
2119
2118
2116
2113
2108
2101
2094
2085
2077
2069
2062
2055
2049
2045
2041
2037
2035
2033
2033
2033
2033
2033
2032
2032
2032
2032
2033
2033
2033
2033
2034
2035
2038
2041
2044
2047
2048
2049
2050
2051
2053
2054
2055
2054
2051
2048
2046
2044
2043
2043
2042
2042
2043
2045
2048
2050
2054
2057
2058
2057
2056
2054
2051
2048
2045
2044
2044
2045
2046
2045
2044
2042
2042
2042
2043
2044
2043
2043
2042
2041
2041
2041
2040
2040
2039
2039
2039
2039
2039
2039
2041
2042
2043
2044
2043
2042
2040
2039
2040
2041
2042
2042
2042
2041
2040
2039
2038
2038
2038
2038
2039
2039
2039
2039
2039
2039
2038
2039
2039
2039
2040
2040
2039
2039
2039
2039
2039
2039
2039
2039
2039
2039
2039
2039
2038
2037
2036
2035
2035
2036
2038
2041
2043
2044
2046
2048
2049
2052
2055
2055
2055
2052
2050
2048
2048
2048
2048
2049
2049
2049
2048
2048
2046
2044
2042
2041
2041
2040
2040
2041
2041
2041
2041
2041
2041
2041
2041
2042
2043
2043
2040
2035
2030
2027
2029
2043
2070
2116
2170
2210
2218
2187
2129
2066
2026
2014
2026
2043
2053
2053
2047
2041
2039
2037
2036
2036
2037
2038
2039
2041
2042
2044
2045
2046
2046
2047
2048
2048
2049
2049
2050
2051
2052
2053
2055
2056
2056
2057
2058
2059
2061
2062
2064
2066
2068
2070
2072
2074
2076
2079
2084
2088
2093
2097
2099
2100
2101
2103
2105
2106
2108
2108
2107
2105
2100
2095
2088
2082
2076
2070
2064
2058
2053
2048
2044
2040
2038
2037
2037
2037
2036
2036
2036
2035
2035
2035
2035
2036
2036
2036
2036
2036
2036
2035
2035
2036
2037
2037
2038
2038
2039
2039
2039
2040
2040
2040
2040
2041
2041
2041
2041
2041
2041
2041
2041
2041
2041
2042
2042
2042
2042
2042
2042
2042
2042
2042
2042
2043
2043
2044
2044
2044
2043
2043
2043
2043
2043
2044
2044
2045
2045
2045
2045
2045
2044
2044
2044
2044
2045
2045
2046
2046
2046
2046
2046
2046
2047
2047
2048
2048
2047
2047
2047
2047
2047
2047
2048
2048
2048
2048
2048
2047
2047
2047
2047
2047
2047
2047
2047
2047
2047
2047
2047
2048
2048
2048
2049
2049
2050
2050
2051
2051
2051
2051
2050
2050
2050
2049
2048
2048
2048
2047
2047
2046
2046
2045
2045
2044
2044
2043
2043
2044
2046
2048
2050
2051
2052
2052
2052
2053
2055
2055
2054
2052
2050
2050
2052
2056
2059
2061
2061
2059
2059
2059
2061
2062
2062
2062
2062
2062
2063
2063
2063
2063
2062
2061
2061
2062
2063
2063
2061
2057
2051
2044
2039
2037
2043
2061
2096
2147
2200
2232
2227
2185
2121
2062
2030
2027
2041
2054
2059
2055
2048
2044
2042
2041
2040
2040
2041
2043
2045
2046
2048
2048
2048
2048
2049
2051
2052
2053
2054
2054
2054
2054
2054
2055
2056
2057
2058
2059
2061
2063
2064
2065
2067
2068
2070
2073
2076
2079
2082
2085
2088
2091
2094
2098
2101
2104
2107
2109
2110
2111
2111
2111
2109
2106
2102
2096
2089
2081
2074
2067
2060
2053
2048
2044
2040
2037
2036
2034
2034
2033
2032
2032
2031
2031
2031
2031
2031
2031
2032
2032
2032
2033
2033
2034
2035
2036
2036
2037
2037
2037
2038
2037
2037
2038
2038
2039
2039
2040
2041
2041
2041
2040
2040
2039
2039
2040
2041
2042
2043
2042
2042
2042
2041
2041
2041
2042
2042
2043
2043
2044
2043
2043
2042
2042
2042
2042
2042
2041
2042
2044
2046
2047
2047
2046
2045
2043
2042
2042
2041
2041
2040
2040
2041
2043
2045
2046
2045
2044
2042
2041
2040
2040
2040
2039
2039
2038
2039
2039
2040
2040
2040
2039
2039
2038
2038
2038
2039
2039
2040
2041
2041
2041
2041
2042
2042
2043
2044
2044
2044
2044
2043
2043
2042
2042
2041
2040
2040
2040
2040
2041
2041
2040
2039
2038
2037
2037
2039
2041
2044
2046
2047
2048
2048
2048
2048
2049
2050
2051
2050
2049
2048
2046
2045
2044
2044
2044
2045
2045
2045
2045
2045
2044
2044
2043
2043
2043
2043
2044
2044
2044
2044
2044
2044
2044
2045
2046
2047
2046
2042
2037
2033
2031
2038
2057
2093
2147
2199
2228
2221
2176
2112
2057
2030
2031
2047
2061
2066
2062
2054
2049
2048
2048
2047
2048
2048
2049
2050
2052
2053
2054
2054
2055
2056
2057
2058
2060
2063
2065
2066
2066
2066
2066
2066
2067
2068
2070
2072
2074
2076
2078
2080
2082
2084
2087
2089
2092
2095
2097
2100
2103
2105
2107
2108
2109
2110
2111
2111
2111
2110
2108
2106
2102
2097
2091
2083
2076
2069
2062
2056
2050
2045
2041
2038
2037
2037
2038
2038
2037
2036
2034
2034
2034
2034
2035
2036
2037
2038
2038
2039
2039
2039
2039
2039
2039
2039
2040
2040
2041
2042
2042
2042
2042
2041
2041
2041
2042
2042
2042
2043
2042
2042
2042
2042
2042
2041
2041
2041
2042
2042
2043
2043
2043
2042
2043
2043
2043
2043
2043
2043
2044
2044
2045
2044
2044
2044
2044
2045
2045
2046
2045
2045
2044
2044
2044
2044
2044
2045
2045
2045
2045
2044
2043
2042
2042
2042
2042
2042
2043
2043
2043
2043
2043
2042
2042
2042
2042
2042
2043
2044
2044
2044
2043
2043
2042
2041
2042
2043
2043
2044
2045
2044
2043
2042
2041
2041
2041
2042
2042
2043
2042
2042
2042
2041
2041
2041
2041
2041
2041
2041
2041
2041
2040
2040
2039
2039
2040
2041
2042
2044
2046
2048
2050
2050
2051
2051
2051
2051
2050
2050
2049
2048
2048
2047
2047
2047
2047
2047
2047
2047
2047
2047
2048
2049
2052
2053
2054
2054
2054
2054
2053
2053
2052
2052
2054
2057
2058
2057
2052
2046
2039
2037
2043
2061
2098
2151
2205
2238
2233
2189
2123
2063
2031
2029
2045
2058
2063
2059
2049
2045
2044
2042
2042
2041
2042
2043
2045
2047
2048
2048
2049
2051
2052
2053
2054
2055
2056
2056
2056
2057
2057
2057
2058
2060
2061
2063
2064
2066
2067
2069
2071
2073
2075
2077
2080
2083
2086
2089
2093
2097
2101
2105
2108
2111
2114
2116
2117
2119
2120
2119
2117
2114
2108
2100
2092
2083
2074
2067
2060
2054
2048
2044
2040
2037
2035
2034
2033
2032
2032
2031
2031
2031
2031
2031
2031
2031
2031
2031
2032
2033
2033
2033
2033
2032
2032
2032
2033
2034
2035
2035
2037
2039
2041
2043
2044
2044
2043
2042
2040
2040
2040
2041
2042
2044
2047
2048
2048
2048
2047
2046
2045
2044
2043
2042
2042
2040
2040
2040
2040
2040
2040
2040
2040
2039
2039
2038
2038
2038
2038
2039
2039
2039
2039
2038
2038
2038
2038
2039
2039
2039
2039
2039
2039
2038
2038
2038
2038
2039
2040
2040
2041
2040
2040
2040
2041
2041
2042
2042
2042
2043
2043
2043
2042
2042
2042
2042
2042
2043
2043
2042
2042
2042
2041
2041
2040
2039
2039
2038
2038
2038
2038
2039
2040
2042
2044
2046
2047
2048
2048
2049
2049
2050
2049
2048
2047
2046
2045
2045
2045
2045
2044
2043
2043
2042
2042
2043
2043
2044
2044
2044
2043
2043
2043
2043
2043
2042
2042
2043
2043
2045
2046
2047
2046
2043
2039
2035
2033
2038
2051
2078
2122
2175
2216
2227
2199
2142
2079
2035
2021
2032
2049
2061
2063
2057
2051
2048
2048
2048
2048
2048
2049
2050
2051
2051
2051
2051
2051
2052
2053
2053
2054
2055
2055
2056
2057
2058
2059
2060
2061
2062
2063
2064
2066
2068
2070
2072
2074
2077
2079
2082
2085
2087
2090
2091
2093
2095
2098
2102
2106
2110
2113
2115
2115
2115
2114
2113
2110
2106
2101
2094
2086
2079
2071
2063
2057
2051
2048
2045
2043
2041
2039
2038
2037
2036
2036
2035
2035
2036
2036
2036
2036
2037
2037
2037
2037
2038
2038
2039
2039
2040
2040
2040
2040
2040
2040
2041
2042
2042
2043
2043
2042
2042
2041
2041
2041
2041
2042
2043
2045
2045
2045
2044
2043
2043
2042
2043
2043
2043
2044
2044
2045
2045
2044
2044
2043
2042
2042
2043
2044
2044
2044
2044
2043
2044
2046
2047
2048
2049
2049
2050
2050
2050
2051
2050
2050
2050
2051
2051
2051
2052
2052
2052
2052
2052
2052
2052
2052
2052
2052
2053
2053
2053
2053
2052
2052
2052
2052
2053
2053
2054
2054
2053
2053
2052
2052
2052
2053
2054
2054
2054
2053
2051
2050
2049
2048
2048
2048
2049
2048
2048
2048
2048
2047
2046
2045
2045
2045
2046
2048
2050
2052
2054
2055
2055
2055
2055
2056
2056
2056
2056
2054
2053
2051
2050
2050
2049
2049
2049
2049
2049
2050
2050
2050
2050
2049
2049
2049
2049
2049
2050
2050
2051
2052
2052
2054
2055
2054
2052
2048
2042
2038
2038
2047
2067
2107
2161
2211
2236
2223
2174
2110
2057
2033
2035
2049
2062
2064
2059
2051
2049
2048
2047
2046
2045
2044
2044
2045
2047
2048
2050
2050
2051
2052
2052
2053
2055
2056
2057
2058
2059
2059
2060
2060
2061
2062
2063
2064
2066
2067
2069
2070
2072
2073
2075
2078
2080
2083
2087
2090
2094
2098
2102
2106
2110
2113
2114
2114
2114
2113
2111
2109
2105
2100
2093
2086
2079
2072
2066
2060
2055
2050
2047
2044
2041
2039
2037
2037
2037
2037
2037
2037
2036
2034
2033
2032
2032
2033
2034
2034
2035
2035
2035
2035
2035
2035
2035
2035
2036
2036
2037
2037
2037
2037
2037
2037
2038
2039
2039
2040
2040
2040
2039
2039
2039
2039
2040
2040
2040
2040
2040
2041
2041
2041
2040
2040
2041
2041
2041
2040
2040
2040
2040
2040
2039
2039
2040
2040
2041
2041
2042
2042
2042
2042
2042
2043
2043
2044
2044
2045
2045
2045
2045
2045
2044
2045
2044
2044
2044
2045
2047
2048
2050
2050
2050
2049
2048
2048
2048
2048
2048
2048
2048
2048
2048
2048
2048
2050
2051
2051
2051
2050
2050
2052
2055
2058
2059
2058
2054
2051
2049
2048
2049
2051
2052
2053
2054
2055
2055
2056
2056
2056
2055
2054
2053
2051
2051
2051
2051
2050
2049
2048
2048
2048
2048
2048
2048
2048
2048
2048
2048
2048
2048
2048
2048
2049
2049
2050
2051
2050
2048
2045
2041
2038
2041
2053
2081
2127
2182
2226
2238
2208
2146
2078
2031
2017
2030
2052
2066
2069
2061
2053
2049
2049
2049
2049
2050
2051
2052
2052
2054
2055
2056
2057
2057
2057
2058
2059
2060
2062
2063
2064
2065
2066
2066
2066
2066
2067
2069
2071
2073
2075
2076
2077
2079
2081
2083
2087
2090
2094
2098
2101
2105
2108
2111
2114
2117
2119
2121
2123
2124
2125
2123
2120
2115
2108
2100
2091
2082
2073
2065
2057
2051
2046
2041
2037
2035
2034
2034
2033
2033
2032
2032
2031
2031
2031
2031
2031
2031
2031
2031
2031
2032
2031
2031
2031
2031
2031
2032
2033
2033
2033
2033
2034
2034
2035
2036
2038
2038
2038
2038
2037
2037
2037
2037
2037
2037
2038
2040
2042
2045
2046
2047
2046
2045
2043
2042
2041
2040
2041
2041
2042
2042
2042
2042
2041
2041
2040
2041
2042
2044
2044
2044
2044
2044
2044
2044
2045
2046
2047
2048
2048
2048
2048
2047
2046
2045
2044
2045
2045
2045
2046
2046
2047
2046
2046
2045
2045
2045
2045
2045
2045
2044
2043
2041
2041
2042
2045
2048
2050
2052
2053
2053
2053
2053
2053
2053
2052
2051
2050
2049
2048
2048
2048
2047
2048
2048
2048
2048
2048
2048
2048
2048
2048
2047
2047
2046
2046
2047
2047
2047
2048
2048
2049
2049
2049
2047
2041
2036
2033
2036
2048
2076
2121
2173
2213
2223
2194
2136
2073
2031
2019
2030
2048
2059
2059
2052
2047
2045
2044
2044
2044
2045
2046
2046
2047
2048
2048
2049
2050
2051
2052
2053
2054
2054
2055
2055
2056
2057
2058
2059
2060
2061
2062
2063
2065
2067
2070
2074
2077
2080
2082
2084
2084
2084
2085
2088
2091
2095
2100
2104
2108
2111
2112
2113
2114
2114
2113
2110
2107
2102
2095
2087
2079
2071
2063
2057
2051
2048
2044
2042
2039
2037
2035
2034
2034
2033
2033
2033
2034
2034
2034
2034
2034
2034
2034
2034
2035
2035
2036
2037
2037
2037
2037
2037
2037
2037
2037
2038
2039
2039
2040
2040
2040
2039
2040
2040
2041
2041
2041
2041
2041
2041
2041
2041
2041
2041
2041
2041
2042
2042
2042
2041
2041
2040
2041
2042
2044
2045
2045
2045
2045
2045
2046
2048
2048
2048
2046
2043
2041
2041
2042
2044
2044
2044
2044
2044
2045
2046
2047
2047
2047
2047
2047
2048
2048
2048
2048
2048
2048
2048
2048
2048
2049
2050
2050
2051
2051
2052
2052
2052
2051
2051
2051
2050
2050
2049
2048
2047
2045
2044
2043
2045
2047
2048
2050
2050
2051
2051
2051
2052
2052
2052
2052
2050
2048
2047
2046
2045
2045
2046
2046
2045
2045
2045
2045
2044
2044
2043
2042
2041
2041
2041
2041
2041
2040
2040
2040
2041
2043
2045
2045
2042
2037
2032
2030
2032
2046
2073
2119
2175
2219
2232
2204
2145
2080
2035
2020
2030
2048
2058
2059
2051
2045
2042
2040
2039
2039
2041
2043
2044
2046
2048
2048
2049
2050
2051
2052
2052
2053
2054
2055
2057
2058
2059
2060
2060
2061
2063
2065
2066
2068
2068
2070
2071
2073
2075
2078
2082
2087
2091
2095
2098
2101
2104
2107
2110
2113
2116
2118
2120
2122
2123
2123
2122
2119
2114
2108
2101
2092
2083
2074
2066
2059
2053
2048
2044
2041
2039
2038
2037
2036
2035
2033
2033
2033
2034
2035
2036
2037
2037
2037
2037
2037
2036
2036
2037
2037
2038
2039
2039
2039
2039
2039
2039
2039
2040
2040
2041
2041
2042
2042
2042
2042
2041
2041
2041
2041
2041
2041
2040
2039
2038
2038
2038
2038
2038
2039
2039
2039
2039
2039
2039
2040
2040
2040
2041
2042
2042
2043
2045
2045
2045
2045
2044
2044
2045
2046
2047
2048
2048
2048
2048
2048
2048
2047
2047
2047
2046
2046
2046
2046
2045
2044
2043
2043
2042
2042
2042
2042
2043
2044
2046
2048
2049
2051
2052
2053
2053
2054
2055
2055
2055
2053
2051
2050
2048
2048
2048
2048
2049
2048
2048
2048
2048
2047
2047
2047
2047
2047
2047
2047
2047
2047
2046
2046
2045
2045
2046
2047
2048
2049
2048
2045
2039
2034
2031
2036
2051
2083
2135
2194
2235
2240
2203
2138
2072
2032
2024
2038
2055
2064
2062
2053
2048
2046
2045
2044
2045
2046
2047
2048
2049
2049
2050
2051
2052
2053
2054
2055
2056
2057
2058
2058
2058
2058
2059
2060
2061
2063
2064
2066
2067
2068
2069
2071
2073
2075
2077
2080
2083
2086
2090
2093
2096
2099
2102
2105
2108
2111
2113
2114
2115
2115
2113
2111
2107
2102
2096
2088
2079
2071
2063
2056
2049
2045
2042
2039
2037
2035
2034
2034
2033
2033
2032
2032
2032
2032
2033
2033
2034
2034
2034
2034
2034
2034
2034
2034
2035
2036
2036
2037
2037
2037
2036
2036
2036
2037
2037
2038
2038
2038
2038
2038
2037
2037
2036
2036
2037
2037
2037
2038
2037
2037
2037
2037
2037
2037
2037
2037
2037
2037
2037
2037
2037
2037
2037
2038
2038
2038
2039
2039
2039
2038
2037
2037
2037
2038
2039
2039
2040
2040
2039
2039
2039
2039
2039
2040
2040
2041
2041
2041
2041
2041
2041
2040
2040
2041
2041
2042
2043
2043
2043
2042
2041
2041
2041
2041
2042
2043
2043
2043
2043
2043
2043
2043
2043
2043
2043
2042
2042
2042
2041
2041
2040
2041
2042
2045
2047
2049
2051
2051
2052
2052
2051
2051
2051
2050
2050
2048
2048
2048
2047
2047
2046
2046
2046
2046
2046
2046
2046
2047
2046
2046
2045
2045
2045
2045
2046
2046
2046
2046
2046
2047
2047
2048
2048
2048
2046
2040
2035
2031
2033
2045
2073
2125
2188
2238
2255
2228
2167
2099
2051
2035
2043
2057
2065
2063
2054
2048
2046
2044
2043
2043
2044
2045
2045
2046
2047
2048
2049
2050
2050
2051
2051
2052
2053
2053
2054
2055
2056
2057
2058
2059
2059
2060
2061
2062
2064
2066
2068
2070
2072
2073
2075
2077
2079
2082
2085
2088
2090
2092
2095
2097
2099
2101
2103
2104
2105
2105
2103
2100
2096
2090
2083
2076
2069
2062
2056
2051
2047
2043
2040
2037
2035
2033
2032
2032
2031
2031
2030
2029
2029
2028
2028
2028
2029
2029
2029
2030
2030
2031
2031
2031
2031
2031
2031
2032
2033
2033
2034
2034
2034
2033
2033
2034
2035
2036
2037
2037
2037
2036
2035
2034
2034
2035
2035
2036
2036
2036
2036
2037
2037
2037
2037
2037
2037
2037
2038
2038
2038
2038
2037
2037
2036
2037
2037
2038
2040
2041
2042
2042
2042
2042
2042
2042
2042
2043
2044
2044
2044
2045
2045
2045
2045
2045
2045
2045
2045
2045
2046
2046
2046
2045
2045
2045
2045
2045
2046
2046
2046
2046
2046
2045
2045
2044
2045
2045
2045
2046
2046
2046
2047
2047
2048
2048
2048
2048
2048
2048
2047
2047
2047
2046
2046
2045
2045
2044
2044
2043
2043
2044
2046
2049
2053
2056
2057
2056
2055
2054
2055
2055
2054
2052
2050
2048
2048
2048
2048
2048
2048
2046
2045
2044
2044
2044
2044
2044
2045
2045
2045
2046
2046
2046
2046
2046
2046
2046
2047
2048
2049
2051
2050
2048
2043
2039
2035
2037
2048
2075
2122
2181
2231
2249
2226
2168
2102
2054
2036
2043
2058
2066
2065
2057
2049
2047
2046
2045
2046
2047
2048
2050
2051
2052
2052
2053
2053
2054
2055
2056
2056
2057
2058
2058
2059
2060
2060
2061
2062
2064
2065
2066
2068
2069
2070
2071
2073
2075
2077
2079
2081
2084
2086
2089
2092
2095
2098
2102
2105
2108
2110
2113
2114
2115
2115
2114
2111
2108
2103
2097
2090
2083
2076
2068
2061
2055
2051
2046
2043
2039
2037
2039
2047
2059
2070
2079
2087
2096
2113
2140
2181
2227
2269
2305
2329
2346
2358
2359
2365
2384
2407
2416
2389
2311
2197
2083
2002
1970
1975
1996
2014
2012
2006
2006
2006
2005
2005
2005
2006
2007
2007
2008
2008
2008
2009
2009
2008
2009
2011
2014
2018
2022
2022
2021
2018
2015
2013
2013
2014
2014
2015
2015
2015
2015
2015
2017
2018
2020
2021
2022
2022
2022
2023
2023
2023
2023
2022
2022
2022
2022
2023
2024
2024
2024
2023
2023
2023
2024
2025
2025
2026
2026
2025
2026
2024
2026
2030
2033
2039
2044
2050
2060
2069
2079
2087
2097
2105
2114
2121
2126
2132
2139
2147
2156
2163
2170
2176
2178
2182
2184
2190
2200
2217
2241
2267
2292
2307
2315
2309
2315
2362
2432
2499
2515
2446
2304
2137
2009
1951
1952
1979
2004
2007
1992
1990
1989
1988
1988
1988
1988
1988
1988
1988
1987
1986
1985
1985
1986
1987
1987
1988
1989
1989
1990
1992
1993
1993
1991
1987
1982
1980
1983
1997
2025
2071
2126
2168
2177
2148
2090
2029
1987
1976
1987
2004
2014
2014
2007
2002
2001
2000
2000
2001
2002
2003
2005
2007
2009
2011
2013
2014
2015
2016
2016
2017
2018
2019
2020
2023
2025
2027
2029
2029
2029
2029
2030
2031
2033
2035
2037
2039
2041
2043
2046
2048
2051
2054
2057
2060
2064
2067
2071
2074
2077
2079
2080
2080
2080
2080
2079
2077
2073
2067
2060
2052
2046
2039
2033
2027
2023
2019
2015
2013
2012
2010
2010
2009
2009
2009
2010
2011
2011
2011
2010
2010
2010
2011
2011
2012
2013
2013
2014
2015
2015
2015
2015
2016
2016
2017
2018
2019
2019
2019
2020
2019
2020
2021
2021
2022
2023
2023
2023
2023
2023
2023
2023
2024
2024
2025
2026
2026
2026
2026
2026
2026
2026
2027
2028
2028
2029
2029
2028
2028
2028
2028
2028
2028
2029
2029
2029
2030
2030
2030
2030
2029
2029
2030
2030
2031
2031
2032
2032
2032
2032
2031
2031
2032
2032
2032
2033
2034
2034
2034
2034
2034
2034
2035
2036
2037
2038
2039
2039
2040
2040
2041
2041
2042
2043
2044
2045
2046
2046
2046
2046
2047
2048
2050
2052
2053
2054
2055
2055
2055
2054
2054
2053
2052
2050
2049
2048
2047
2047
2047
2046
2046
2045
2044
2044
2043
2043
2042
2042
2041
2041
2041
2041
2041
2040
2041
2041
2041
2042
2043
2043
2043
2041
2037
2032
2028
2027
2035
2053
2089
2138
2186
2211
2201
2155
2092
2038
2011
2012
2031
2048
2054
2051
2045
2041
2040
2040
2040
2041
2042
2043
2044
2044
2045
2047
2048
2048
2049
2050
2050
2051
2051
2052
2052
2053
2054
2055
2057
2058
2059
2059
2060
2061
2062
2064
2066
2069
2072
2074
2076
2078
2080
2083
2086
2090
2093
2096
2099
2101
2103
2104
2105
2105
2105
2104
2103
2100
2095
2090
2083
2076
2068
2061
2054
2049
2046
2042
2040
2037
2036
2034
2033
2032
2032
2033
2033
2033
2033
2033
2033
2033
2033
2034
2034
2034
2034
2035
2035
2036
2036
2036
2036
2036
2037
2037
2038
2039
2039
2039
2039
2039
2039
2040
2041
2041
2042
2042
2042
2042
2043
2042
2042
2042
2042
2042
2043
2044
2044
2043
2043
2042
2042
2042
2042
2043
2043
2043
2043
2043
2043
2043
2043
2043
2043
2043
2044
2044
2044
2044
2043
2042
2041
2041
2041
2042
2043
2043
2044
2044
2044
2043
2043
2043
2043
2043
2044
2044
2044
2045
2045
2045
2044
2044
2044
2044
2045
2046
2047
2048
2048
2047
2046
2046
2046
2047
2047
2048
2048
2048
2048
2048
2047
2046
2046
2046
2046
2046
2045
2045
2044
2044
2045
2047
2048
2051
2053
2054
2054
2055
2056
2056
2055
2054
2052
2050
2049
2049
2050
2050
2049
2049
2048
2048
2048
2048
2048
2048
2048
2048
2048
2047
2047
2047
2047
2047
2048
2048
2049
2050
2050
2048
2042
2036
2032
2034
2045
2070
2114
2166
2207
2219
2192
2137
2074
2032
2019
2029
2047
2058
2059
2052
2047
2045
2044
2043
2044
2045
2046
2047
2048
2048
2048
2049
2049
2050
2051
2052
2053
2054
2054
2055
2055
2056
2057
2058
2059
2060
2061
2062
2063
2064
2065
2066
2068
2070
2072
2075
2077
2080
2082
2085
2087
2090
2092
2095
2097
2100
2102
2103
2104
2103
2102
2101
2098
2095
2090
2085
2079
2072
2066
2059
2053
2048
2045
2042
2040
2039
2038
2038
2039
2039
2039
2038
2038
2038
2038
2039
2040
2040
2040
2041
2041
2040
2040
2039
2038
2038
2037
2037
2037
2037
2038
2038
2038
2038
2039
2039
2039
2039
2039
2039
2038
2038
2038
2039
2040
2042
2044
2047
2048
2048
2048
2048
2049
2050
2050
2050
2049
2048
2048
2047
2047
2047
2047
2046
2045
2045
2044
2044
2043
2042
2041
2041
2041
2041
2042
2042
2042
2042
2041
2041
2040
2040
2040
2040
2041
2041
2042
2042
2041
2040
2039
2038
2038
2038
2039
2039
2039
2039
2039
2039
2038
2038
2038
2038
2038
2039
2039
2039
2039
2038
2037
2037
2036
2036
2037
2037
2038
2038
2038
2037
2037
2038
2038
2039
2039
2038
2037
2036
2035
2035
2034
2035
2038
2041
2044
2047
2048
2048
2047
2046
2044
2043
2041
2040
2039
2039
2039
2039
2039
2038
2038
2039
2040
2041
2041
2041
2040
2039
2038
2038
2038
2038
2038
2038
2039
2040
2042
2043
2042
2040
2035
2030
2027
2028
2041
2065
2107
2160
2203
2216
2190
2133
2067
2020
2004
2016
2039
2054
2059
2053
2046
2042
2042
2042
2043
2045
2047
2048
2048
2048
2048
2049
2049
2050
2051
2052
2052
2053
2054
2055
2056
2057
2057
2057
2057
2058
2059
2061
2062
2063
2064
2066
2067
2069
2071
2073
2075
2078
2081
2084
2087
2091
2094
2098
2102
2105
2108
2110
2112
2112
2112
2111
2109
2105
2100
2092
2084
2074
2065
2057
2050
2045
2039
2036
2033
2031
2029
2029
2028
2027
2026
2025
2024
2024
2024
2024
2025
2025
2025
2024
2025
2025
2025
2026
2026
2027
2028
2028
2028
2027
2025
2024
2024
2025
2027
2029
2029
2029
2028
2028
2029
2030
2031
2032
2031
2030
2031
2033
2036
2038
2038
2037
2034
2032
2033
2034
2036
2037
2037
2036
2035
2034
2034
2035
2036
2037
2038
2039
2040
2040
2040
2040
2040
2040
2040
2042
2045
2047
2048
2048
2048
2047
2047
2047
2047
2048
2048
2048
2048
2048
2048
2045
2043
2044
2048
2055
2066
2076
2084
2087
2087
2086
2085
2085
2085
2084
2081
2076
2070
2065
2063
2066
2070
2073
2075
2075
2073
2072
2071
2071
2070
2069
2068
2067
2066
2067
2068
2070
2071
2071
2071
2071
2072
2075
2076
2075
2071
2066
2064
2063
2070
2087
2119
2167
2212
2235
2220
2168
2100
2043
2016
2020
2040
2055
2059
2051
2042
2038
2036
2036
2037
2037
2037
2038
2038
2039
2040
2042
2043
2044
2045
2045
2045
2046
2047
2048
2050
2051
2052
2053
2053
2054
2055
2057
2059
2062
2066
2069
2073
2076
2079
2082
2086
2090
2093
2095
2097
2100
2103
2107
2111
2115
2118
2119
2120
2120
2120
2119
2115
2109
2100
2090
2080
2070
2062
2055
2048
2043
2037
2034
2031
2030
2031
2032
2034
2035
2036
2038
2039
2040
2042
2044
2045
2046
2047
2048
2048
2050
2050
2048
2045
2040
2034
2031
2030
2030
2030
2029
2028
2026
2025
2025
2026
2028
2031
2034
2037
2038
2038
2037
2035
2035
2034
2034
2034
2033
2033
2033
2034
2035
2036
2035
2034
2034
2033
2032
2032
2031
2032
2035
2032
2032
2030
2027
2037
2057
2084
2106
2113
2099
2072
2045
2027
2024
2026
2032
2036
2032
2030
2030
2032
2037
2043
2047
2048
2046
2042
2039
2038
2038
2039
2038
2037
2034
2032
2030
2030
2030
2031
2033
2034
2036
2037
2038
2039
2039
2040
2039
2039
2038
2038
2038
2038
2037
2037
2036
2036
2036
2037
2037
2037
2036
2035
2035
2034
2034
2034
2033
2033
2033
2033
2033
2034
2036
2036
2034
2031
2025
2022
2021
2028
2047
2081
2132
2182
2210
2203
2159
2096
2041
2011
2011
2029
2043
2048
2041
2034
2038
2048
2062
2082
2106
2128
2142
2139
2118
2088
2056
2038
2033
2035
2042
2044
2042
2041
2041
2042
2044
2046
2048
2048
2049
2050
2051
2052
2054
2056
2058
2060
2061
2062
2063
2064
2066
2069
2073
2076
2079
2081
2083
2084
2085
2088
2092
2095
2098
2100
2099
2096
2091
2084
2077
2070
2063
2057
2051
2047
2042
2038
2034
2031
2029
2028
2027
2026
2026
2026
2026
2026
2025
2025
2025
2025
2025
2026
2026
2026
2027
2028
2030
2031
2032
2032
2031
2031
2030
2029
2029
2028
2028
2028
2028
2028
2028
2028
2028
2029
2029
2028
2028
2028
2028
2029
2030
2032
2034
2035
2036
2037
2037
2037
2037
2037
2037
2037
2038
2039
2039
2039
2038
2038
2037
2037
2037
2037
2038
2039
2039
2040
2040
2040
2040
2041
2042
2044
2045
2047
2048
2048
2048
2048
2048
2048
2048
2049
2050
2051
2051
2052
2053
2054
2055
2056
2056
2057
2057
2057
2057
2057
2057
2056
2056
2055
2055
2055
2055
2054
2052
2050
2048
2048
2050
2053
2057
2060
2062
2063
2063
2062
2061
2061
2060
2059
2058
2058
2056
2056
2055
2054
2053
2052
2051
2050
2050
2050
2050
2051
2050
2050
2048
2048
2048
2048
2049
2050
2052
2053
2054
2056
2059
2060
2060
2057
2053
2050
2048
2054
2070
2102
2152
2205
2240
2241
2204
2142
2084
2050
2045
2056
2069
2074
2069
2061
2056
2055
2053
2051
2050
2050
2049
2050
2050
2050
2051
2051
2050
2051
2051
2051
2052
2052
2054
2056
2058
2061
2063
2064
2064
2064
2063
2063
2064
2066
2068
2070
2073
2075
2077
2078
2080
2081
2083
2086
2090
2094
2099
2103
2107
2109
2110
2109
2107
2105
2102
2099
2096
2091
2086
2080
2074
2067
2062
2058
2054
2052
2049
2048
2046
2044
2043
2042
2043
2044
2046
2048
2049
2050
2050
2049
2048
2048
2046
2044
2043
2043
2042
2041
2040
2039
2038
2036
2035
2035
2035
2036
2038
2039
2040
2039
2039
2037
2037
2037
2037
2038
2039
2040
2040
2041
2041
2041
2041
2041
2042
2042
2043
2043
2043
2043
2043
2043
2043
2044
2045
2046
2046
2046
2046
2046
2046
2046
2046
2046
2047
2047
2047
2047
2047
2048
2048
2048
2048
2048
2048
2047
2045
2044
2043
2043
2043
2044
2045
2046
2048
2049
2051
2053
2054
2054
2054
2053
2053
2053
2053
2053
2051
2050
2049
2048
2048
2048
2048
2048
2048
2048
2048
2048
2047
2046
2044
2043
2042
2042
2043
2045
2047
2048
2050
2051
2052
2052
2053
2054
2055
2055
2055
2054
2053
2051
2051
2050
2049
2049
2049
2049
2049
2048
2047
2044
2043
2042
2042
2042
2041
2039
2037
2035
2034
2034
2034
2035
2037
2037
2036
2033
2028
2025
2024
2030
2047
2077
2125
2177
2213
2214
2178
2116
2056
2021
2015
2031
2048
2059
2058
2051
2047
2045
2044
2044
2043
2043
2042
2042
2042
2043
2043
2043
2043
2043
2043
2044
2044
2044
2044
2045
2046
2047
2048
2048
2048
2049
2050
2052
2054
2056
2058
2060
2062
2064
2066
2067
2070
2074
2078
2082
2086
2090
2093
2096
2098
2100
2101
2102
2103
2104
2103
2101
2098
2093
2087
2080
2073
2065
2057
2050
2045
2041
2037
2033
2030
2027
2026
2025
2024
2024
2024
2024
2024
2024
2023
2023
2023
2023
2023
2024
2024
2024
2024
2025
2026
2027
2029
2030
2031
2033
2034
2036
2037
2038
2038
2038
2039
2040
2041
2044
2045
2046
2046
2046
2046
2045
2046
2046
2046
2046
2046
2046
2046
2046
2046
2045
2045
2045
2045
2045
2045
2044
2043
2043
2042
2041
2041
2040
2040
2039
2039
2039
2039
2039
2039
2039
2039
2039
2039
2039
2040
2040
2040
2040
2039
2039
2039
2040
2041
2042
2042
2042
2042
2042
2040
2039
2038
2037
2038
2040
2042
2046
2049
2053
2057
2060
2061
2062
2061
2061
2061
2060
2059
2057
2055
2052
2051
2050
2051
2053
2054
2054
2053
2051
2049
2048
2048
2048
2047
2047
2047
2048
2048
2049
2052
2054
2056
2056
2055
2050
2045
2039
2035
2038
2050
2080
2127
2178
2212
2212
2174
2112
2053
2020
2017
2033
2050
2059
2056
2048
2045
2043
2042
2041
2041
2042
2044
2048
2051
2054
2056
2058
2059
2061
2062
2062
2062
2061
2061
2061
2063
2065
2068
2070
2071
2071
2070
2069
2071
2075
2080
2084
2087
2088
2088
2088
2090
2093
2096
2100
2104
2108
2112
2116
2119
2122
2124
2126
2128
2128
2127
2125
2120
2114
2106
2097
2089
2081
2074
2067
2062
2057
2054
2051
2050
2048
2048
2047
2047
2047
2047
2047
2047
2047
2047
2046
2046
2045
2045
2045
2045
2046
2046
2047
2047
2047
2047
2048
2048
2048
2048
2048
2049
2049
2049
2048
2048
2048
2048
2048
2048
2048
2048
2048
2048
2048
2048
2048
2048
2049
2051
2052
2052
2052
2051
2051
2050
2050
2049
2049
2049
2048
2048
2048
2048
2048
2048
2048
2048
2048
2048
2048
2048
2048
2049
2049
2050
2050
2050
2050
2050
2050
2050
2050
2050
2050
2050
2049
2048
2046
2045
2046
2047
2049
2051
2052
2053
2053
2054
2054
2054
2054
2053
2053
2052
2051
2051
2051
2050
2050
2050
2049
2048
2048
2049
2050
2052
2054
2056
2058
2059
2060
2061
2061
2061
2060
2058
2057
2055
2054
2053
2053
2052
2052
2052
2051
2051
2050
2050
2050
2050
2050
2050
2049
2049
2049
2049
2049
2049
2050
2050
2051
2053
2052
2051
2047
2041
2037
2036
2044
2063
2101
2153
2202
2227
2215
2169
2106
2054
2030
2032
2048
2059
2062
2057
2048
2046
2045
2044
2045
2046
2048
2048
2049
2050
2050
2050
2050
2051
2052
2053
2054
2055
2055
2055
2055
2056
2057
2058
2059
2060
2062
2062
2063
2064
2065
2066
2068
2070
2072
2074
2077
2079
2081
2084
2086
2089
2092
2095
2097
2100
2102
2103
2104
2103
2101
2099
2097
2093
2089
2083
2075
2068
2061
2054
2048
2044
2040
2037
2035
2034
2033
2032
2031
2030
2029
2029
2029
2029
2030
2030
2031
2031
2031
2031
2030
2030
2031
2031
2032
2032
2033
2033
2034
2034
2034
2034
2034
2034
2034
2035
2035
2035
2034
2034
2034
2034
2034
2034
2035
2035
2035
2035
2035
2035
2035
2035
2035
2035
2035
2036
2037
2037
2038
2037
2036
2036
2036
2037
2037
2038
2039
2039
2039
2039
2039
2039
2039
2039
2040
2040
2041
2041
2041
2041
2040
2040
2040
2040
2041
2041
2041
2042
2042
2041
2041
2041
2041
2041
2042
2042
2043
2043
2043
2043
2043
2043
2043
2043
2043
2044
2044
2044
2045
2045
2044
2044
2044
2044
2044
2044
2044
2044
2043
2042
2042
2043
2044
2047
2049
2050
2052
2053
2053
2054
2054
2054
2053
2052
2051
2050
2049
2049
2048
2048
2048
2047
2047
2047
2047
2048
2047
2047
2047
2046
2046
2046
2046
2046
2047
2047
2048
2048
2048
2049
2049
2048
2046
2041
2036
2034
2036
2048
2076
2121
2175
2216
2225
2196
2139
2078
2038
2026
2036
2050
2059
2058
2050
2045
2044
2043
2043
2043
2044
2045
2045
2046
2047
2048
2049
2050
2052
2053
2054
2054
2053
2053
2054
2056
2059
2063
2066
2069
2070
2071
2071
2071
2071
2072
2072
2073
2075
2077
2079
2081
2083
2085
2088
2091
2095
2099
2102
2105
2107
2108
2107
2106
2105
2105
2104
2103
2100
2095
2089
2081
2073
2066
2060
2055
2051
2048
2045
2042
2039
2037
2034
2033
2031
2031
2030
2030
2030
2030
2030
2030
2029
2029
2029
2029
2030
2030
2031
2031
2031
2031
2031
2031
2031
2031
2032
2032
2033
2033
2033
2033
2033
2033
2033
2033
2034
2034
2034
2035
2035
2035
2035
2034
2034
2034
2035
2035
2036
2036
2037
2037
2037
2037
2037
2037
2038
2038
2038
2039
2040
2041
2044
2047
2048
2051
2052
2054
2055
2055
2056
2056
2056
2056
2056
2056
2057
2057
2057
2058
2057
2057
2057
2057
2057
2056
2057
2057
2057
2058
2058
2057
2057
2057
2057
2057
2058
2058
2058
2058
2058
2058
2057
2057
2057
2057
2057
2057
2057
2057
2057
2056
2055
2055
2054
2054
2055
2057
2059
2061
2063
2063
2063
2063
2063
2064
2065
2065
2064
2063
2061
2059
2058
2058
2057
2057
2057
2057
2058
2057
2057
2056
2056
2055
2055
2055
2055
2055
2055
2055
2055
2055
2055
2055
2056
2057
2057
2056
2052
2048
2043
2042
2049
2069
2107
2158
2203
2224
2207
2156
2091
2040
2016
2019
2036
2049
2053
2048
2041
2037
2036
2035
2035
2035
2036
2037
2039
2040
2041
2041
2042
2043
2043
2044
2045
2046
2047
2048
2048
2049
2049
2050
2051
2051
2052
2054
2055
2057
2058
2060
2061
2062
2064
2066
2069
2072
2075
2078
2082
2085
2088
2090
2092
2095
2097
2100
2103
2104
2105
2104
2102
2097
2091
2084
2076
2068
2060
2053
2048
2043
2038
2035
2031
2029
2027
2026
2026
2026
2026
2026
2025
2025
2024
2024
2025
2027
2029
2031
2032
2031
2030
2029
2028
2028
2028
2028
2029
2029
2030
2030
2030
2030
2030
2030
2030
2030
2031
2031
2032
2032
2033
2033
2032
2032
2032
2032
2033
2033
2034
2034
2034
2033
2033
2033
2034
2034
2035
2036
2036
2036
2036
2035
2035
2035
2035
2035
2035
2035
2036
2036
2037
2037
2037
2038
2038
2038
2039
2038
2038
2037
2036
2036
2035
2035
2035
2035
2036
2037
2037
2037
2037
2036
2035
2035
2035
2035
2035
2036
2036
2037
2037
2037
2038
2040
2043
2046
2048
2048
2050
2052
2054
2056
2056
2054
2050
2047
2043
2041
2039
2039
2040
2042
2043
2045
2047
2047
2047
2048
2048
2048
2048
2047
2046
2044
2044
2044
2044
2044
2044
2043
2042
2041
2041
2040
2040
2039
2040
2040
2039
2039
2039
2039
2038
2038
2038
2039
2040
2041
2042
2040
2036
2032
2028
2027
2036
2057
2095
2145
2190
2209
2190
2139
2074
2025
2004
2011
2032
2048
2054
2049
2043
2039
2038
2038
2038
2039
2040
2042
2043
2044
2045
2046
2047
2047
2048
2048
2049
2050
2051
2052
2053
2054
2055
2055
2056
2058
2059
2061
2063
2064
2066
2067
2068
2070
2072
2074
2077
2080
2083
2087
2090
2093
2096
2099
2103
2107
2112
2115
2117
2116
2114
2111
2107
2102
2097
2090
2082
2074
2066
2059
2053
2048
2043
2039
2036
2034
2032
2032
2031
2031
2031
2030
2030
2030
2030
2031
2031
2032
2034
2035
2037
2039
2040
2041
2042
2043
2044
2044
2044
2043
2042
2040
2038
2037
2037
2037
2037
2037
2037
2038
2038
2038
2037
2037
2037
2038
2038
2040
2041
2041
2041
2041
2041
2041
2041
2041
2042
2042
2042
2042
2042
2041
2041
2040
2040
2041
2041
2041
2041
2041
2041
2040
2040
2040
2039
2039
2040
2040
2040
2041
2041
2041
2041
2040
2040
2041
2041
2042
2042
2042
2042
2042
2042
2041
2041
2042
2042
2042
2042
2042
2043
2043
2044
2046
2048
2049
2051
2053
2054
2055
2056
2056
2056
2056
2056
2056
2057
2056
2055
2053
2050
2047
2045
2044
2045
2047
2048
2050
2052
2052
2052
2052
2052
2053
2052
2052
2051
2049
2048
2048
2047
2046
2046
2046
2045
2045
2045
2045
2045
2045
2045
2045
2045
2044
2044
2044
2044
2044
2045
2045
2046
2047
2046
2044
2039
2034
2030
2030
2040
2061
2101
2153
2197
2215
2197
2145
2083
2037
2018
2025
2041
2053
2055
2050
2044
2042
2041
2040
2041
2041
2042
2043
2044
2045
2045
2046
2047
2048
2048
2048
2049
2051
2053
2055
2056
2057
2057
2057
2058
2059
2060
2060
2061
2061
2062
2064
2066
2068
2070
2073
2075
2078
2080
2083
2086
2089
2092
2095
2098
2100
2101
2102
2103
2103
2102
2101
2099
2095
2090
2083
2076
2069
2062
2056
2051
2047
2044
2041
2038
2036
2035
2034
2034
2035
2035
2036
2037
2037
2038
2038
2038
2037
2037
2036
2037
2037
2038
2039
2039
2040
2040
2039
2039
2039
2040
2040
2040
2041
2041
2041
2041
2041
2041
2041
2040
2040
2040
2041
2042
2042
2043
2043
2043
2043
2043
2043
2043
2044
2044
2044
2044
2044
2044
2044
2044
2044
2044
2045
2045
2046
2046
2045
2045
2044
2044
2044
2045
2045
2046
2046
2046
2046
2046
2045
2045
2045
2045
2045
2046
2046
2046
2046
2045
2045
2045
2045
2046
2046
2047
2047
2047
2046
2046
2046
2046
2046
2046
2047
2047
2048
2048
2048
2047
2047
2047
2047
2047
2048
2048
2048
2048
2048
2048
2048
2048
2048
2048
2048
2048
2047
2047
2046
2045
2044
2044
2045
2046
2048
2051
2053
2054
2054
2054
2055
2056
2057
2057
2055
2054
2052
2051
2050
2049
2049
2048
2048
2048
2048
2049
2049
2049
2048
2048
2047
2046
2047
2047
2048
2048
2048
2048
2048
2048
2049
2050
2049
2047
2042
2037
2034
2037
2049
2079
2126
2177
2213
2216
2181
2122
2064
2029
2022
2035
2050
2058
2057
2049
2045
2044
2043
2043
2044
2044
2045
2046
2047
2048
2049
2050
2050
2051
2052
2053
2055
2057
2058
2060
2061
2063
2064
2066
2067
2067
2067
2066
2067
2067
2068
2070
2072
2073
2075
2076
2078
2081
2084
2087
2089
2092
2095
2097
2098
2100
2101
2103
2104
2105
2104
2103
2100
2095
2089
2082
2075
2068
2061
2056
2050
2046
2042
2039
2036
2033
2032
2031
2031
2031
2032
2032
2032
2031
2031
2030
2031
2031
2032
2033
2033
2034
2034
2034
2035
2036
2036
2036
2037
2037
2037
2038
2038
2037
2037
2036
2036
2036
2036
2037
2037
2037
2038
2038
2039
2040
2042
2043
2042
2042
2041
2041
2040
2040
2040
2040
2040
2040
2040
2040
2040
2040
2040
2042
2044
2046
2047
2047
2046
2045
2043
2043
2043
2043
2044
2044
2044
2044
2043
2043
2043
2043
2044
2045
2046
2046
2046
2046
2046
2046
2047
2048
2048
2049
2049
2049
2048
2048
2047
2046
2046
2047
2047
2047
2046
2046
2048
2049
2051
2052
2052
2050
2049
2048
2047
2046
2046
2046
2046
2046
2046
2047
2047
2048
2049
2051
2051
2053
2055
2058
2061
2061
2058
2054
2051
2051
2054
2058
2059
2058
2055
2052
2050
2049
2049
2049
2048
2048
2047
2046
2046
2046
2045
2045
2045
2045
2044
2045
2045
2046
2047
2045
2041
2036
2031
2030
2042
2067
2111
2165
2209
2222
2194
2132
2062
2013
1999
2019
2051
2079
2092
2088
2076
2065
2055
2049
2048
2048
2049
2051
2052
2052
2052
2052
2052
2051
2052
2053
2054
2056
2056
2056
2056
2056
2056
2057
2058
2060
2061
2063
2065
2066
2068
2069
2071
2074
2079
2085
2091
2097
2102
2107
2112
2115
2117
2118
2117
2116
2116
2118
2120
2123
2125
2125
2121
2113
2103
2093
2084
2075
2066
2058
2051
2045
2039
2034
2031
2029
2027
2027
2026
2025
2025
2024
2024
2025
2027
2028
2030
2030
2029
2029
2028
2028
2028
2027
2027
2027
2028
2029
2030
2030
2030
2030
2030
2031
2033
2034
2035
2036
2037
2038
2038
2039
2039
2038
2037
2037
2037
2037
2036
2036
2036
2037
2037
2036
2035
2035
2037
2041
2047
2053
2058
2063
2067
2070
2072
2074
2075
2077
2076
2073
2068
2061
2056
2052
2049
2048
2045
2043
2042
2041
2041
2041
2040
2040
2039
2039
2039
2038
2038
2038
2038
2038
2038
2039
2040
2041
2042
2042
2042
2043
2044
2046
2048
2049
2050
2049
2048
2048
2048
2050
2053
2054
2053
2050
2048
2047
2046
2047
2047
2048
2049
2050
2050
2048
2047
2046
2046
2048
2050
2051
2052
2052
2053
2054
2057
2059
2063
2067
2070
2070
2066
2057
2050
2045
2043
2053
2082
2133
2189
2237
2256
2236
2189
2134
2098
2085
2092
2105
2107
2100
2082
2066
2050
2044
2043
2044
2047
2046
2046
2047
2048
2049
2050
2049
2049
2051
2054
2061
2068
2073
2075
2075
2074
2073
2074
2074
2075
2075
2076
2079
2082
2086
2089
2091
2094
2099
2107
2113
2118
2119
2118
2116
2115
2116
2120
2123
2127
2129
2131
2133
2134
2134
2133
2130
2126
2119
2111
2101
2092
2083
2075
2068
2062
2058
2055
2052
2051
2050
2049
2050
2048
2046
2042
2038
2037
2038
2040
2041
2041
2042
2044
2048
2053
2059
2061
2062
2063
2063
2064
2064
2063
2059
2054
2048
2045
2043
2043
2044
2045
2046
2046
2047
2049
2053
2057
2059
2059
2058
2056
2055
2056
2058
2060
2063
2065
2067
2070
2072
2074
2075
2077
2079
2080
2081
2080
2078
2075
2071
2067
2063
2059
2057
2055
2055
2056
2057
2057
2056
2055
2054
2053
2051
2050
2048
2048
2050
2048
2048
2048
2049
2061
2085
2118
2149
2167
2163
2138
2104
2073
2056
2051
2056
2057
2054
2052
2052
2055
2059
2060
2057
2050
2045
2041
2038
2036
2037
2035
2035
2033
2034
2034
2034
2033
2032
2030
2030
2031
2034
2036
2038
2037
2036
2031
2026
2023
2025
2037
2065
2114
2167
2206
2210
2174
2111
2050
2015
2010
2026
2044
2050
2048
2039
2033
2030
2029
2028
2028
2030
2032
2034
2036
2037
2038
2039
2040
2041
2041
2042
2048
2057
2038
2016
2020
2086
2236
2446
2665
2797
2799
2709
2630
2656
2826
3200
3642
4001
29
3924
3433
2805
2261
1928
1820
1857
1944
2006
1988
1970
1967
1967
1968
1969
1974
1981
1987
1988
1982
1968
1950
1933
1920
1912
1906
1902
1898
1895
1892
1891
1891
1892
1895
1897
1899
1895
1889
1887
1893
1915
1947
1984
2008
2013
2008
2006
2028
2077
2146
2220
2280
2323
2350
2368
2380
2389
2393
2390
2387
2382
2376
2371
2365
2362
2364
2363
2361
2358
2351
2344
2337
2334
2334
2333
2331
2326
2323
2319
2316
2314
2307
2304
2300
2298
2296
2291
2289
2286
2283
2285
2285
2274
2236
2165
2064
1952
1856
1793
1771
1773
1788
1799
1801
1801
1800
1801
1803
1806
1808
1810
1812
1814
1818
1822
1825
1827
1828
1829
1832
1834
1838
1840
1842
1843
1846
1848
1852
1857
1861
1864
1867
1870
1871
1873
1873
1874
1876
1877
1879
1881
1882
1883
1884
1885
1885
1886
1887
1888
1891
1894
1898
1901
1905
1907
1908
1909
1910
1911
1912
1913
1915
1918
1920
1922
1922
1919
1915
1911
1909
1913
1928
1958
2008
2063
2103
2109
2073
2011
1949
1913
1910
1930
1951
1961
1958
1947
1940
1938
1938
1939
1940
1941
1944
1944
1944
1945
1947
1952
1956
1962
1963
1960
1957
1959
1969
1984
2004
2012
2007
1994
1977
1970
1980
2007
2048
2097
2148
2197
2235
2267
2292
2319
2348
2381
2416
2449
2483
2511
2532
2544
2545
2544
2543
2547
2555
2562
2568
2567
2562
2558
2550
2541
2534
2531
2539
2555
2579
2599
2605
2601
2588
2580
2577
2578
2581
2586
2614
2670
2766
2895
3029
3150
3236
3280
3284
3265
3245
3220
3203
3217
3278
3392
3550
3721
3860
3937
3956
3940
3917
3903
3909
3916
3916
3916
3916
3916
3916
3916
3916
3916
3916
3916
3916
3916
3916
3916
3916
3916
3916
3916
3916
3916
3916
3916
3916
3916
3916
3916
3916
3916
3916
3916
3916
3916
3916
3916
3916
3916
3916
3916
3916
3916
3916
3916
3916
3916
3916
3916
3916
3916
3916
3916
3916
3916
3916
3916
3916
3916
3916
3916
3916
3916
3916
3916
3916
3916
3916
3916
3916
3916
3916
3916
3916
3916
3916
3916
3916
3916
3916
3916
3916
3916
3916
3916
3916
3916
3916
3916
3916
3916
3916
3916
3916
3916
3916
3916
3916
3916
3916
3916
3916
3916
3916
3916
3916
3916
3916
3916
3916
3916
3916
3916
3916
3916
3916
3916
3916
3916
3916
3916
3916
3916
3916
3916
3916
3916
3916
3916
3916
3916
3916
3916
3916
3916
3916
3916
3916
3916
3916
3916
3916
3916
3916
3916
3916
3916
3916
3916
3916
3916
3916
3916
3916
3916
3916
3916
3916
3916
3916
3916
3916
3916
3916
3916
3916
3916
3916
3916
3916
3916
3916
3916
3916
3916
3916
3916
3916
3916
3916
3916
3916
3916
3916
3916
3916
3916
3916
3916
3916
3916
3916
3916
3916
3916
3916
3916
3916
3916
3916
3916
3916
3916
3916
3916
3916
3916
3916
3916
3916
3916
3916
3916
3916
3916
3916
3916
3916
3916
3916
3916
3916
3916
3916
3916
3916
3916
3916
3916
3916
3916
3916
3916
3916
3916
3916
3916
3916
3916
3916
3916
3916
3916
3916
3916
3916
3916
3916
3916
3916
3916
3916
3916
3916
3916
3916
3916
3916
3916
3916
3916
3916
3916
3916
3916
3916
3916
3916
3916
3916
3916
3916
3916
3916
3916
3916
3916
3916
3916
3916
3916
3916
3916
3916
3916
3916
3916
3916
3916
3916
3916
3916
3916
3916
3916
3916
3916
3916
3916
3916
3916
3916
3916
3916
3916
3916
3916
3916
3916
3916
3916
3916
3916
3916
3916
3916
3916
3916
3916
3916
3916
3916
3916
3916
3916
3916
3916
3916
3916
3916
3916
3916
3916
3916
3916
3916
3916
3916
3916
3916
3916
3916
3916
3916
3916
3916
3916
3916
3916
3916
3916
3916
3916
3916
3916
3916
3916
3916
3916
3916
3916
3916
3916
3916
3916
3916
3916
3916
3916
3916
3916
3916
3916
3916
3916
3916
3916
3916
3916
3916
3916
3916
3916
3916
3916
3916
3916
3916
3916
3916
3916
3916
3916
3916
3916
3916
3916
3916
3916
3916
3916
3916
3916
3916
3771
3869
4057
155
131
3748
2787
1578
530
4029
3919
4083
188
316
179
179
179
179
179
179
179
179
179
179
179
179
179
179
179
179
179
179
179
179
179
179
179
179
179
179
179
179
179
179
179
179
179
179
179
179
179
179
179
179
179
179
179
179
179
179
179
179
179
179
179
179
179
179
179
179
179
179
179
179
179
179
179
179
179
179
179
179
179
179
179
179
179
179
179
179
179
179
179
179
179
179
179
179
179
179
179
179
179
179
179
179
179
179
179
179
179
179
179
179
179
179
179
179
179
179
179
179
179
179
179
179
179
179
179
179
179
179
179
179
179
179
179
179
179
179
179
179
179
179
179
179
179
179
179
179
179
179
179
179
179
179
179
179
179
179
179
179
179
179
179
179
179
179
179
179
179
179
179
179
179
179
179
179
179
179
179
179
179
179
179
179
179
179
179
179
179
179
179
179
179
179
179
179
179
179
179
179
179
179
179
179
179
179
179
179
179
179
179
179
179
179
179
179
179
179
179
179
179
179
179
179
179
179
179
179
179
179
179
179
179
179
179
179
179
179
179
179
179
179
179
179
179
179
179
179
179
179
179
179
179
179
179
179
179
179
179
179
179
179
179
179
179
179
179
179
179
179
179
179
179
179
179
179
179
179
179
179
179
179
179
179
179
179
179
179
179
179
179
179
180
180
179
177
176
178
185
196
213
232
251
268
284
297
309
321
334
347
362
378
393
410
427
445
464
482
499
515
529
544
560
577
594
610
625
640
654
666
677
688
697
705
711
717
722
727
733
738
745
753
762
773
784
795
805
812
819
826
833
842
851
861
869
877
884
891
897
903
910
918
927
936
945
954
962
971
979
987
993
1001
1008
1018
1030
1043
1055
1065
1072
1076
1079
1084
1091
1102
1114
1127
1137
1143
1147
1150
1155
1162
1171
1179
1186
1192
1197
1203
1208
1214
1220
1226
1233
1240
1247
1254
1260
1266
1273
1278
1284
1290
1297
1304
1311
1318
1326
1333
1339
1344
1349
1354
1360
1366
1374
1381
1388
1395
1400
1404
1408
1411
1414
1418
1422
1426
1431
1435
1440
1445
1451
1458
1464
1469
1475
1481
1487
1494
1501
1507
1513
1518
1522
1526
1530
1536
1540
1544
1546
1547
1547
1548
1550
1553
1556
1559
1562
1564
1567
1570
1574
1576
1579
1582
1585
1590
1597
1605
1612
1619
1623
1627
1630
1633
1637
1641
1646
1650
1654
1657
1659
1661
1663
1666
1669
1673
1677
1681
1685
1689
1694
1698
1703
1707
1711
1715
1719
1722
1724
1727
1729
1731
1733
1734
1746
1755
1748
1703
1659
1710
1866
2103
2321
2403
2300
2071
1837
1691
1661
1701
1753
1779
1777
1815
1871
1923
1953
1945
1902
1841
1790
1765
1768
1784
1798
1803
1799
1792
1790
1790
1790
1792
1795
1798
1801
1804
1807
1811
1815
1818
1820
1822
1824
1825
1828
1830
1833
1836
1838
1839
1840
1841
1842
1843
1845
1847
1849
1851
1853
1855
1857
1860
1864
1868
1871
1875
1879
1884
1888
1893
1897
1901
1904
1908
1911
1914
1917
1920
1921
1921
1919
1916
1911
1906
1901
1896
1890
1886
1882
1879
1876
1875
1874
1874
1874
1875
1875
1875
1875
1875
1875
1877
1878
1878
1877
1875
1872
1869
1867
1866
1866
1866
1866
1866
1867
1868
1870
1871
1872
1874
1878
1883
1889
1894
1900
1904
1908
1910
1911
1911
1908
1906
1904
1903
1903
1904
1904
1905
1905
1905
1904
1904
1905
1905
1906
1908
1909
1911
1912
1913
1914
1915
1916
1916
1917
1919
1920
1922
1924
1925
1925
1925
1925
1925
1926
1927
1928
1929
1929
1929
1930
1930
1930
1931
1931
1931
1934
1937
1941
1945
1948
1950
1951
1951
1951
1952
1953
1953
1952
1951
1949
1947
1945
1945
1944
1945
1947
1950
1953
1956
1958
1960
1961
1962
1963
1964
1965
1964
1963
1963
1962
1961
1961
1961
1962
1963
1964
1965
1966
1966
1966
1965
1964
1964
1963
1963
1964
1967
1970
1973
1975
1976
1976
1977
1979
1980
1981
1981
1981
1979
1977
1977
1976
1977
1977
1977
1977
1977
1978
1977
1977
1976
1976
1974
1975
1974
1975
1979
1982
1986
1986
1987
1987
1987
1987
1986
1984
1977
1973
1968
1966
1976
1996
2034
2083
2130
2156
2147
2102
2040
1985
1956
1958
1976
1993
2001
1998
1989
1985
1986
1987
1986
1981
1975
1970
1970
1976
1986
1995
1999
2000
1999
2000
2002
2004
2005
2006
2008
2010
2011
2012
2013
2014
2015
2017
2020
2022
2024
2025
2027
2028
2031
2034
2036
2039
2043
2047
2050
2055
2058
2062
2065
2068
2071
2074
2075
2076
2076
2075
2073
2070
2065
2058
2050
2042
2034
2026
2019
2013
2008
2004
2000
1997
1996
1995
1995
1994
1994
1994
1993
1993
1993
1993
1994
1994
1994
1994
1995
1995
1996
1996
1997
1997
1997
1998
1998
1999
2000
2001
2001
2001
2001
2002
2002
2003
2003
2004
2004
2005
2005
2004
2005
2005
2006
2007
2007
2008
2008
2009
2009
2009
2009
2009
2010
2010
2011
2011
2011
2011
2011
2011
2011
2011
2012
2012
2013
2014
2014
2014
2014
2014
2014
2015
2015
2015
2015
2015
2015
2016
2016
2016
2017
2017
2018
2018
2019
2019
2019
2019
2019
2018
2018
2018
2019
2020
2021
2022
2022
2021
2021
2021
2021
2021
2021
2022
2022
2023
2024
2024
2024
2023
2023
2023
2023
2024
2024
2025
2024
2024
2023
2022
2022
2022
2024
2026
2029
2032
2034
2035
2035
2035
2036
2037
2037
2037
2036
2034
2033
2032
2032
2032
2031
2031
2031
2031
2031
2031
2031
2031
2030
2030
2029
2029
2028
2028
2028
2028
2028
2029
2030
2030
2031
2029
2026
2021
2017
2016
2022
2040
2072
2120
2168
2196
2190
2148
2086
2032
2003
2003
2021
2038
2045
2042
2033
2029
2028
2027
2028
2028
2029
2029
2030
2030
2031
2032
2033
2034
2034
2035
2036
2037
2038
2039
2041
2042
2044
2045
2047
2048
2051
2055
2059
2063
2066
2069
2071
2073
2073
2072
2071
2070
2070
2072
2075
2079
2081
2084
2085
2087
2088
2088
2089
2090
2091
2091
2089
2086
2081
2075
2068
2059
2051
2045
2039
2034
2030
2028
2025
2022
2019
2017
2015
2014
2014
2014
2014
2015
2015
2015
2015
2014
2014
2014
2014
2014
2014
2015
2015
2016
2016
2016
2016
2016
2017
2017
2018
2018
2019
2019
2019
2019
2019
2019
2020
2021
2021
2022
2023
2023
2023
2023
2023
2023
2024
2024
2025
2026
2027
2027
2028
2028
2028
2028
2028
2028
2029
2029
2029
2029
2028
2027
2026
2026
2027
2028
2029
2029
2029
2029
2029
2028
2028
2028
2029
2029
2030
2031
2031
2031
2030
2030
2030
2030
2031
2032
2032
2032
2032
2033
2033
2033
2034
2034
2035
2035
2036
2036
2036
2037
2037
2037
2037
2038
2038
2038
2039
2038
2038
2038
2038
2037
2036
2036
2036
2037
2037
2038
2038
2038
2038
2038
2037
2037
2038
2038
2038
2039
2039
2039
2039
2039
2038
2037
2037
2037
2038
2039
2042
2044
2045
2046
2047
2047
2048
2049
2050
2050
2049
2048
2048
2047
2047
2047
2047
2047
2047
2047
2046
2046
2046
2045
2045
2044
2044
2044
2044
2044
2044
2043
2043
2042
2042
2043
2044
2043
2040
2034
2029
2027
2031
2046
2078
2128
2182
2218
2218
2181
2120
2062
2028
2022
2035
2048
2054
2051
2043
2039
2037
2036
2036
2036
2037
2038
2039
2040
2041
2042
2043
2043
2044
2044
2045
2046
2046
2047
2048
2048
2048
2049
2050
2051
2053
2055
2056
2058
2060
2061
2063
2065
2067
2068
2070
2072
2074
2077
2080
2083
2085
2088
2089
2091
2092
2094
2095
2096
2096
2094
2092
2089
2085
2080
2074
2068
2063
2057
2052
2048
2043
2040
2036
2034
2032
2031
2030
2030
2030
2031
2031
2031
2030
2030
2029
2030
2030
2031
2031
2031
2031
2030
2030
2030
2030
2031
2032
2032
2033
2033
2033
2033
2033
2033
2033
2033
2034
2034
2035
2035
2035
2035
2035
2034
2034
2034
2034
2034
2035
2035
2035
2035
2035
2034
2034
2034
2035
2035
2035
2035
2036
2036
2035
2035
2035
2035
2035
2036
2037
2037
2037
2037
2036
2036
2036
2036
2037
2037
2038
2038
2038
2038
2038
2037
2037
2037
2037
2038
2039
2040
2041
2041
2040
2040
2040
2040
2040
2041
2041
2041
2041
2041
2041
2041
2041
2041
2042
2042
2042
2042
2042
2042
2042
2042
2042
2042
2042
2042
2042
2042
2043
2043
2043
2043
2043
2042
2042
2042
2043
2043
2044
2044
2044
2043
2043
2043
2042
2043
2043
2043
2043
2042
2042
2041
2040
2039
2038
2038
2038
2040
2043
2046
2048
2048
2049
2049
2050
2051
2051
2051
2049
2048
2046
2045
2044
2044
2044
2044
2044
2044
2044
2044
2043
2043
2043
2043
2043
2043
2043
2043
2043
2043
2042
2043
2044
2045
2045
2044
2040
2035
2030
2029
2035
2052
2088
2140
2191
2219
2211
2166
2103
2049
2023
2023
2038
2051
2055
2050
2043
2040
2038
2037
2037
2038
2038
2039
2040
2042
2043
2045
2046
2047
2047
2047
2047
2048
2048
2049
2050
2051
2051
2052
2053
2054
2055
2056
2057
2059
2060
2062
2063
2065
2067
2068
2070
2073
2075
2078
2081
2084
2086
2089
2091
2093
2095
2097
2098
2099
2099
2098
2097
2094
2089
2084
2077
2071
2065
2060
2055
2051
2048
2044
2041
2038
2037
2036
2035
2036
2037
2038
2039
2041
2042
2043
2044
2044
2045
2046
2047
2047
2048
2047
2045
2043
2041
2039
2038
2039
2039
2040
2042
2044
2045
2046
2045
2045
2044
2044
2044
2045
2045
2045
2045
2046
2046
2047
2048
2048
2048
2048
2048
2046
2044
2042
2040
2039
2038
2038
2038
2038
2038
2037
2037
2036
2035
2035
2035
2036
2036
2037
2037
2036
2035
2034
2034
2035
2035
2036
2036
2036
2036
2036
2036
2036
2036
2035
2036
2036
2036
2036
2036
2036
2036
2036
2036
2036
2036
2037
2037
2038
2038
2038
2037
2037
2037
2036
2036
2037
2037
2038
2038
2038
2038
2037
2037
2037
2037
2038
2038
2038
2038
2038
2038
2038
2038
2038
2039
2039
2039
2039
2040
2039
2039
2038
2038
2038
2038
2038
2038
2037
2037
2036
2037
2038
2040
2042
2044
2046
2047
2048
2048
2048
2049
2048
2047
2046
2044
2044
2044
2044
2044
2044
2043
2042
2042
2041
2041
2042
2042
2042
2042
2042
2042
2041
2041
2041
2041
2041
2042
2043
2045
2045
2044
2041
2035
2030
2027
2030
2043
2070
2115
2168
2206
2212
2182
2124
2064
2026
2017
2029
2046
2054
2053
2046
2040
2039
2038
2038
2039
2040
2041
2042
2043
2043
2044
2045
2046
2047
2048
2048
2049
2049
2050
2050
2051
2051
2053
2054
2055
2057
2058
2059
2060
2061
2062
2063
2066
2068
2070
2072
2074
2076
2078
2081
2084
2086
2089
2091
2093
2095
2097
2100
2102
2105
2107
2108
2108
2106
2102
2097
2091
2084
2077
2070
2064
2058
2053
2049
2046
2044
2041
2039
2038
2037
2037
2036
2036
2036
2036
2036
2036
2036
2035
2034
2034
2033
2033
2032
2032
2032
2031
2031
2031
2031
2031
2031
2031
2031
2031
2032
2032
2032
2032
2032
2031
2031
2032
2032
2032
2033
2033
2033
2033
2033
2033
2032
2032
2033
2034
2034
2035
2035
2034
2034
2034
2034
2034
2034
2035
2035
2035
2035
2035
2034
2034
2034
2034
2035
2035
2036
2037
2037
2037
2037
2037
2037
2037
2037
2038
2039
2039
2039
2039
2039
2039
2039
2039
2040
2040
2040
2039
2039
2039
2039
2039
2038
2038
2039
2039
2039
2039
2039
2039
2039
2039
2039
2039
2039
2040
2040
2040
2041
2041
2040
2040
2040
2041
2042
2043
2044
2045
2045
2044
2044
2043
2043
2043
2043
2043
2043
2043
2042
2042
2041
2041
2043
2045
2048
2049
2051
2052
2052
2053
2054
2055
2055
2054
2053
2052
2051
2051
2051
2051
2051
2050
2050
2050
2050
2049
2049
2049
2049
2048
2048
2047
2047
2046
2046
2046
2046
2046
2046
2046
2046
2045
2042
2037
2032
2030
2034
2047
2076
2121
2172
2207
2210
2176
2117
2059
2024
2017
2030
2047
2054
2053
2046
2041
2039
2038
2038
2038
2039
2039
2040
2041
2042
2043
2045
2046
2047
2047
2048
2048
2048
2048
2049
2049
2050
2052
2053
2054
2055
2056
2057
2058
2059
2060
2062
2064
2066
2068
2070
2073
2075
2077
2080
2082
2086
2089
2093
2096
2098
2099
2100
2101
2101
2101
2100
2099
2096
2092
2087
2082
2075
2069
2063
2058
2054
2050
2048
2047
2046
2044
2043
2042
2042
2043
2043
2044
2044
2045
2044
2044
2044
2044
2044
2044
2043
2042
2040
2039
2039
2039
2038
2038
2038
2038
2038
2038
2038
2038
2038
2038
2037
2037
2037
2037
2037
2038
2038
2038
2039
2039
2039
2040
2040
2041
2041
2041
2042
2042
2042
2042
2042
2042
2041
2041
2042
2042
2042
2041
2042
2041
2041
2041
2041
2040
2040
2040
2041
2042
2042
2043
2043
2043
2043
2044
2044
2045
2046
2046
2047
2047
2047
2047
2047
2048
2048
2048
2048
2048
2048
2048
2047
2047
2046
2046
2046
2046
2045
2045
2045
2045
2045
2045
2045
2045
2045
2045
2045
2045
2045
2044
2044
2044
2044
2044
2045
2045
2046
2046
2045
2045
2045
2045
2044
2044
2045
2045
2044
2044
2045
2045
2047
2049
2051
2053
2054
2055
2057
2058
2058
2058
2057
2056
2054
2053
2052
2052
2052
2052
2051
2051
2051
2051
2051
2051
2051
2051
2051
2051
2051
2051
2050
2050
2050
2050
2050
2052
2053
2055
2055
2053
2048
2042
2038
2038
2048
2071
2111
2162
2203
2217
2195
2142
2081
2037
2021
2030
2048
2061
2064
2058
2051
2048
2047
2046
2046
2047
2048
2048
2048
2048
2049
2049
2050
2051
2052
2053
2053
2054
2054
2055
2055
2056
2057
2058
2059
2061
2062
2063
2064
2065
2066
2068
2070
2072
2074
2076
2079
2081
2083
2086
2089
2092
2095
2097
2100
2102
2104
2105
2106
2107
2106
2106
2105
2103
2099
2094
2087
2081
2074
2068
2061
2056
2051
2048
2047
2045
2043
2042
2042
2041
2040
2039
2039
2038
2038
2038
2038
2038
2037
2037
2036
2036
2036
2037
2037
2037
2037
2037
2038
2038
2038
2038
2039
2039
2039
2040
2041
2042
2043
2043
2042
2042
2041
2041
2041
2042
2043
2044
2044
2044
2044
2044
2044
2043
2043
2043
2043
2042
2042
2041
2041
2040
2040
2040
2040
2040
2040
2040
2040
2040
2040
2040
2040
2040
2040
2040
2041
2041
2041
2041
2041
2041
2041
2042
2043
2044
2044
2044
2044
2043
2043
2043
2043
2043
2044
2044
2045
2045
2045
2044
2044
2044
2044
2044
2045
2045
2046
2046
2046
2045
2044
2044
2044
2044
2044
2044
2045
2045
2044
2044
2043
2043
2043
2043
2043
2043
2043
2042
2042
2041
2041
2043
2045
2048
2051
2053
2055
2056
2057
2059
2061
2062
2063
2062
2062
2061
2061
2061
2061
2060
2060
2060
2060
2060
2060
2060
2060
2060
2059
2058
2057
2057
2057
2057
2057
2058
2058
2059
2059
2059
2058
2055
2049
2044
2041
2044
2057
2085
2130
2179
2213
2215
2181
2123
2065
2031
2024
2039
2056
2066
2065
2058
2052
2050
2048
2047
2046
2045
2044
2044
2045
2045
2046
2047
2047
2048
2048
2048
2049
2049
2050
2050
2051
2052
2053
2053
2054
2055
2056
2057
2058
2059
2060
2061
2063
2065
2068
2070
2072
2074
2077
2079
2082
2085
2089
2091
2094
2096
2098
2099
2100
2100
2100
2098
2096
2092
2087
2080
2073
2065
2058
2051
2047
2043
2040
2037
2034
2033
2031
2030
2029
2029
2028
2028
2029
2029
2029
2029
2029
2029
2029
2029
2029
2029
2030
2031
2032
2033
2033
2032
2032
2031
2031
2031
2032
2033
2033
2034
2034
2033
2033
2033
2033
2033
2034
2034
2035
2036
2036
2036
2035
2035
2035
2035
2036
2037
2037
2038
2038
2037
2037
2037
2037
2037
2038
2038
2038
2039
2039
2038
2038
2038
2038
2038
2039
2039
2039
2039
2040
2040
2040
2040
2040
2040
2040
2041
2041
2041
2041
2041
2040
2040
2040
2041
2042
2042
2042
2042
2042
2042
2041
2042
2042
2042
2043
2043
2043
2043
2043
2043
2042
2043
2043
2043
2044
2044
2044
2044
2044
2044
2043
2043
2043
2042
2042
2042
2042
2042
2043
2044
2046
2048
2049
2050
2051
2052
2053
2054
2055
2054
2053
2051
2050
2049
2049
2049
2049
2048
2048
2047
2047
2046
2046
2046
2046
2046
2046
2046
2046
2046
2045
2045
2045
2045
2046
2047
2048
2048
2047
2042
2036
2031
2030
2037
2056
2092
2141
2187
2208
2194
2147
2085
2035
2012
2017
2036
2052
2058
2054
2048
2044
2043
2042
2043
2044
2046
2047
2048
2048
2048
2048
2049
2050
2051
2052
2053
2054
2055
2055
2056
2057
2057
2058
2059
2061
2062
2063
2065
2066
2067
2067
2069
2071
2073
2076
2078
2081
2084
2087
2089
2092
2095
2097
2100
2103
2105
2106
2107
2108
2107
2106
2103
2100
2096
2090
2083
2076
2069
2062
2056
2050
2047
2043
2041
2040
2039
2038
2038
2037
2036
2036
2036
2036
2037
2038
2039
2041
2043
2045
2046
2047
2047
2047
2047
2047
2047
2047
2047
2047
2046
2046
2045
2045
2046
2047
2048
2048
2048
2048
2048
2048
2047
2047
2047
2048
2048
2048
2049
2050
2050
2050
2050
2050
2050
2049
2050
2050
2050
2050
2050
2050
2050
2050
2051
2051
2051
2051
2051
2051
2050
2049
2049
2049
2049
2049
2050
2050
2050
2050
2050
2050
2050
2050
2050
2050
2050
2050
2050
2050
2050
2051
2051
2051
2051
2050
2050
2050
2050
2050
2051
2051
2050
2050
2050
2051
2052
2053
2053
2052
2051
2051
2050
2050
2050
2050
2050
2050
2050
2049
2048
2048
2048
2047
2048
2048
2050
2053
2055
2056
2057
2057
2058
2059
2060
2060
2060
2058
2056
2054
2052
2051
2051
2052
2052
2053
2053
2053
2053
2053
2053
2052
2051
2051
2050
2050
2051
2051
2051
2051
2051
2051
2052
2053
2054
2052
2048
2045
2041
2042
2052
2076
2117
2167
2206
2218
2192
2138
2076
2035
2021
2031
2050
2063
2066
2061
2055
2053
2052
2050
2050
2051
2052
2053
2054
2056
2057
2058
2058
2058
2059
2059
2060
2060
2061
2062
2063
2064
2064
2065
2065
2066
2067
2068
2069
2071
2072
2073
2075
2077
2078
2080
2083
2085
2088
2092
2095
2098
2101
2103
2105
2107
2108
2109
2110
2111
2111
2111
2109
2105
2099
2092
2084
2076
2069
2063
2057
2052
2048
2044
2040
2037
2035
2034
2033
2033
2033
2033
2033
2033
2032
2032
2032
2032
2033
2033
2034
2034
2035
2035
2035
2035
2035
2036
2037
2037
2038
2038
2039
2039
2039
2038
2038
2038
2038
2039
2039
2040
2040
2040
2039
2039
2039
2039
2040
2040
2041
2041
2042
2042
2042
2041
2041
2041
2042
2043
2043
2044
2044
2044
2044
2043
2044
2044
2044
2044
2044
2044
2044
2044
2043
2043
2043
2043
2043
2043
2043
2043
2043
2042
2042
2041
2041
2042
2042
2043
2043
2043
2043
2043
2044
2044
2044
2044
2044
2044
2044
2044
2045
2045
2045
2045
2045
2045
2045
2046
2046
2047
2047
2046
2046
2045
2045
2045
2045
2045
2045
2046
2048
2049
2051
2053
2054
2054
2054
2055
2055
2056
2056
2056
2055
2053
2052
2051
2050
2050
2049
2049
2049
2048
2048
2047
2046
2046
2046
2047
2047
2047
2047
2047
2046
2046
2046
2046
2047
2048
2050
2050
2048
2043
2039
2035
2039
2054
2085
2132
2182
2214
2212
2173
2112
2052
2019
2014
2031
2049
2060
2060
2053
2048
2047
2046
2046
2047
2047
2048
2049
2050
2052
2053
2054
2055
2055
2055
2056
2057
2059
2061
2063
2064
2065
2065
2065
2066
2067
2069
2071
2073
2074
2075
2076
2077
2079
2081
2084
2088
2091
2094
2097
2100
2103
2106
2109
2112
2115
2117
2119
2119
2118
2117
2116
2112
2108
2102
2094
2086
2077
2069
2061
2055
2050
2047
2044
2041
2038
2035
2034
2033
2033
2033
2033
2032
2031
2031
2032
2033
2035
2036
2037
2037
2036
2036
2036
2036
2037
2038
2038
2038
2038
2039
2040
2042
2044
2046
2047
2047
2047
2047
2046
2047
2048
2048
2050
2051
2051
2049
2048
2047
2047
2046
2045
2044
2043
2042
2042
2042
2042
2042
2042
2042
2042
2041
2041
2041
2041
2041
2040
2040
2040
2040
2039
2039
2038
2038
2037
2038
2038
2039
2040
2041
2041
2041
2040
2040
2039
2039
2039
2039
2039
2038
2037
2036
2035
2035
2035
2036
2036
2035
2034
2034
2033
2032
2032
2032
2033
2034
2036
2039
2042
2044
2045
2045
2044
2044
2044
2044
2043
2042
2041
2040
2039
2039
2038
2038
2037
2036
2036
2035
2035
2035
2035
2035
2035
2036
2036
2037
2037
2037
2037
2035
2034
2033
2033
2035
2036
2034
2031
2027
2025
2031
2049
2084
2135
2187
2218
2210
2161
2090
2026
1990
1991
2013
2038
2050
2050
2043
2038
2035
2035
2036
2037
2038
2039
2040
2041
2042
2044
2046
2047
2048
2048
2048
2048
2050
2052
2055
2056
2058
2059
2060
2061
2061
2061
2061
2062
2065
2067
2070
2073
2076
2079
2083
2087
2091
2095
2099
2102
2105
2108
2110
2112
2112
2113
2114
2115
2118
2120
2117
2114
2109
2103
2098
2092
2086
2073
2058
2048
2039
2021
1999
2004
2037
2102
2175
2217
2203
2141
2067
2014
1994
2002
2018
2025
2014
2015
2019
2022
2026
2027
2026
2024
2022
2021
2021
2021
2020
2020
2021
2023
2024
2025
2025
2025
2024
2025
2025
2025
2026
2026
2027
2026
2024
2022
2019
2020
2024
2029
2034
2036
2036
2034
2031
2030
2030
2031
2032
2033
2033
2032
2031
2031
2031
2032
2033
2034
2034
2034
2034
2034
2033
2033
2032
2032
2032
2032
2032
2032
2032
2031
2030
2028
2026
2025
2026
2028
2031
2034
2037
2039
2040
2040
2040
2040
2039
2039
2037
2036
2035
2035
2036
2036
2036
2036
2036
2035
2036
2035
2034
2034
2034
2034
2035
2036
2036
2036
2035
2035
2034
2034
2035
2036
2037
2038
2038
2035
2030
2026
2024
2028
2043
2072
2121
2175
2213
2214
2172
2103
2035
1994
1989
2010
2036
2049
2050
2043
2037
2035
2035
2036
2038
2040
2041
2042
2043
2045
2046
2048
2048
2050
2051
2052
2053
2054
2055
2056
2057
2059
2060
2061
2062
2063
2064
2066
2068
2070
2071
2073
2076
2078
2081
2085
2089
2093
2099
2104
2111
2117
2122
2128
2133
2137
2141
2144
2146
2148
2148
2145
2141
2134
2125
2115
2105
2096
2087
2080
2074
2070
2067
2064
2062
2059
2057
2056
2055
2055
2056
2056
2056
2056
2055
2055
2056
2057
2058
2058
2058
2059
2058
2058
2058
2058
2058
2059
2060
2059
2059
2058
2057
2056
2056
2057
2058
2059
2059
2059
2059
2058
2058
2058
2058
2058
2058
2058
2058
2058
2058
2058
2058
2058
2059
2059
2059
2059
2059
2059
2059
2060
2059
2059
2059
2059
2059
2059
2056
2052
2048
2044
2040
2039
2038
2037
2036
2035
2034
2033
2033
2034
2034
2034
2032
2031
2030
2031
2033
2036
2040
2043
2045
2047
2048
2048
2048
2049
2049
2048
2048
2047
2046
2045
2045
2045
2054
2053
2036
2009
1998
2037
2145
2322
2531
2731
2891
3012
3110
3194
3277
3340
3374
3383
3380
3357
3317
3278
3256
3315
3454
3592
3618
3441
3058
2582
2174
1938
1874
1891
1902
1874
1815
1777
1786
1809
1825
1829
1823
1815
1812
1812
1812
1814
1816
1819
1822
1825
1827
1830
1833
1836
1840
1843
1846
1848
1851
1853
1856
1859
1862
1865
1868
1871
1874
1877
1880
1883
1886
1892
1901
1912
1925
1937
1948
1957
1963
1965
1966
1967
1971
1978
1985
1991
1992
1989
1985
1982
1980
1980
1978
1975
1970
1963
1955
1946
1937
1929
1922
1917
1913
1910
1907
1907
1908
1910
1913
1917
1920
1923
1927
1931
1936
1941
1945
1949
1953
1956
1960
1963
1965
1968
1969
1971
1971
1971
1970
1969
1968
1968
1969
1969
1967
1963
1960
1957
1958
1960
1963
1965
1965
1963
1962
1959
1957
1955
1955
1956
1959
1960
1961
1961
1960
1958
1958
1958
1959
1960
1961
1963
1964
1963
1960
1960
1978
1997
2003
1992
1984
2011
2118
2346
2613
3044
3511
3893
4048
3860
3359
2703
2126
1794
1729
1813
1912
1973
1915
1898
1895
1896
1898
1899
1898
1896
1889
1886
1885
1888
1891
1891
1896
1910
1950
2021
2109
2207
2296
2376
2441
2497
2544
2574
2593
2598
2599
2597
2592
2592
2588
2585
2555
2567
2617
2679
2712
2649
2467
2205
1949
1780
1722
1750
1805
1850
1845
1837
1830
1820
1811
1808
1811
1816
1821
1821
1816
1813
1815
1826
1831
1833
1839
1859
1907
1977
2051
2106
2126
2121
2104
2088
2083
2087
2086
2087
2089
2092
2094
2095
2096
2097
2097
2096
2097
2099
2100
2103
2102
2101
2098
2102
2119
2139
2147
2124
2068
1988
1908
1855
1833
1835
1848
1859
1864
1868
1873
1875
1874
1873
1875
1883
1894
1903
1907
1908
1913
1925
1937
1949
1954
1951
1946
1946
1952
1963
1974
1981
1981
1983
1986
1990
1996
1999
2004
2010
2014
2019
2023
2029
2033
2033
2033
2031
2036
2051
2080
2120
2157
2190
2209
2215
2215
2208
2201
2203
2222
2268
2334
2413
2494
2574
2665
2745
2807
2833
2819
2779
2725
2666
2587
2475
2340
2207
2120
2100
2160
2263
2382
2504
2613
2712
2808
2898
2986
3059
3112
3146
3162
3178
3203
3243
3298
3362
3438
3524
3623
3724
3815
3883
3920
3931
3926
3917
3913
3912
3915
3916
3916
3916
3916
3916
3916
3916
3916
3916
3916
3916
3916
3916
3916
3916
3911
3908
3912
3925
3937
3931
3890
3796
3669
3515
3327
3054
2668
2189
1689
1292
1090
1103
1269
1491
1705
1879
2034
2187
2323
2390
2338
2159
1874
1548
1254
1045
938
905
912
927
936
943
951
963
974
985
995
1003
1011
1019
1028
1035
1042
1049
1055
1062
1071
1080
1090
1100
1110
1118
1126
1134
1143
1154
1166
1180
1193
1205
1215
1224
1232
1241
1249
1258
1265
1272
1278
1283
1286
1290
1292
1293
1294
1296
1301
1314
1339
1384
1445
1505
1542
1541
1503
1446
1397
1373
1378
1397
1415
1424
1424
1422
1425
1429
1434
1439
1445
1451
1457
1464
1470
1476
1483
1489
1495
1502
1507
1513
1518
1524
1529
1535
1541
1546
1553
1558
1564
1570
1575
1580
1586
1592
1598
1604
1611
1617
1624
1632
1639
1646
1652
1658
1664
1671
1678
1684
1691
1697
1702
1707
1711
1715
1718
1719
1720
1718
1715
1711
1707
1704
1701
1699
1698
1698
1698
1699
1700
1702
1704
1707
1710
1713
1716
1719
1722
1725
1728
1731
1734
1737
1740
1744
1747
1751
1754
1758
1761
1764
1766
1769
1772
1775
1778
1781
1784
1786
1789
1791
1793
1795
1797
1800
1803
1805
1808
1810
1812
1814
1816
1819
1821
1823
1826
1828
1831
1834
1836
1838
1839
1842
1844
1847
1850
1852
1855
1857
1859
1860
1862
1864
1865
1867
1869
1871
1873
1875
1876
1878
1879
1881
1883
1884
1887
1889
1891
1893
1895
1897
1899
1901
1903
1904
1906
1909
1911
1913
1915
1917
1918
1920
1922
1924
1926
1928
1929
1931
1932
1932
1933
1934
1936
1938
1940
1941
1943
1944
1945
1946
1947
1948
1948
1949
1949
1951
1952
1955
1958
1961
1963
1965
1967
1969
1970
1972
1973
1973
1973
1972
1971
1970
1970
1971
1972
1973
1974
1974
1974
1974
1974
1974
1975
1976
1977
1977
1976
1975
1974
1973
1972
1973
1973
1974
1976
1978
1980
1980
1980
1976
1972
1969
1971
1982
2006
2047
2102
2152
2175
2159
2108
2044
1992
1968
1971
1986
1998
2001
1995
1988
1986
1985
1984
1984
1986
1987
1988
1989
1991
1992
1992
1994
1995
1996
1997
1999
2000
2001
2002
2004
2006
2008
2010
2013
2014
2015
2015
2016
2017
2019
2020
2022
2024
2026
2029
2032
2035
2039
2042
2045
2048
2051
2055
2058
2062
2065
2067
2069
2070
2070
2068
2066
2062
2056
2049
2043
2037
2030
2025
2019
2015
2010
2007
2005
2003
2003
2003
2003
2004
2004
2004
2004
2003
2004
2004
2005
2006
2007
2007
2007
2007
2007
2008
2009
2009
2010
2011
2011
2013
2014
2015
2017
2018
2019
2019
2019
2018
2017
2017
2016
2016
2016
2017
2017
2017
2017
2018
2018
2018
2018
2019
2019
2019
2019
2019
2019
2020
2020
2020
2020
2019
2019
2019
2019
2020
2021
2021
2022
2022
2022
2022
2022
2022
2022
2023
2023
2024
2025
2026
2027
2028
2028
2028
2028
2028
2028
2028
2028
2028
2028
2028
2027
2027
2028
2028
2029
2029
2029
2029
2029
2029
2029
2029
2029
2029
2029
2029
2028
2028
2027
2026
2026
2027
2029
2032
2034
2036
2037
2038
2038
2038
2038
2039
2039
2038
2037
2036
2035
2035
2034
2034
2034
2034
2035
2036
2037
2038
2038
2038
2038
2037
2037
2037
2039
2040
2042
2044
2044
2045
2045
2045
2047
2048
2047
2045
2040
2035
2033
2038
2054
2086
2134
2185
2216
2214
2174
2112
2053
2021
2017
2032
2048
2056
2053
2047
2041
2040
2039
2039
2039
2039
2040
2040
2041
2042
2043
2044
2044
2045
2045
2045
2046
2046
2047
2048
2048
2049
2050
2051
2053
2055
2058
2061
2064
2066
2069
2071
2073
2075
2077
2078
2081
2084
2087
2091
2095
2098
2101
2103
2105
2105
2107
2108
2109
2109
2109
2107
2105
2101
2097
2091
2085
2078
2071
2065
2060
2056
2052
2049
2047
2044
2042
2040
2038
2036
2034
2032
2031
2031
2031
2030
2029
2028
2028
2028
2029
2029
2029
2029
2029
2029
2029
2028
2028
2029
2029
2030
2030
2030
2030
2030
2030
2031
2031
2032
2032
2032
2032
2031
2031
2030
2030
2030
2030
2031
2031
2032
2032
2032
2032
2032
2032
2032
2033
2033
2033
2034
2034
2034
2034
2034
2035
2035
2036
2037
2037
2037
2037
2037
2037
2037
2038
2038
2038
2038
2039
2039
2039
2039
2040
2039
2040
2040
2040
2040
2041
2041
2042
2042
2042
2042
2042
2042
2042
2043
2043
2044
2044
2044
2043
2043
2044
2044
2044
2045
2045
2045
2045
2045
2044
2044
2045
2045
2045
2045
2045
2045
2047
2048
2050
2052
2054
2055
2055
2056
2056
2057
2056
2055
2054
2051
2050
2049
2049
2050
2050
2050
2049
2049
2049
2048
2048
2048
2048
2048
2048
2048
2048
2048
2048
2048
2047
2048
2048
2050
2051
2050
2047
2041
2036
2033
2039
2055
2089
2141
2193
2225
2222
2181
2118
2061
2031
2028
2043
2056
2062
2058
2050
2046
2044
2043
2043
2044
2045
2046
2047
2048
2048
2049
2050
2050
2051
2051
2052
2053
2055
2056
2056
2057
2057
2058
2059
2059
2061
2062
2063
2065
2066
2068
2069
2071
2072
2074
2076
2079
2082
2085
2089
2092
2094
2097
2099
2101
2103
2104
2106
2107
2107
2106
2104
2100
2095
2088
2082
2075
2068
2061
2055
2050
2046
2042
2039
2037
2036
2035
2035
2035
2034
2035
2034
2034
2034
2033
2033
2034
2034
2035
2035
2036
2036
2036
2036
2036
2036
2036
2037
2037
2037
2037
2037
2037
2037
2038
2038
2038
2039
2039
2039
2039
2039
2039
2039
2039
2040
2040
2041
2041
2041
2041
2041
2041
2042
2042
2042
2043
2043
2044
2044
2044
2044
2044
2044
2044
2044
2045
2046
2046
2046
2046
2046
2045
2045
2046
2046
2046
2047
2047
2047
2047
2047
2046
2046
2047
2047
2047
2048
2048
2048
2048
2048
2048
2048
2048
2048
2048
2048
2048
2048
2048
2048
2048
2048
2048
2048
2048
2048
2049
2048
2048
2048
2048
2048
2048
2048
2049
2049
2049
2049
2049
2049
2048
2048
2048
2047
2047
2047
2047
2048
2049
2051
2053
2055
2056
2057
2058
2059
2060
2060
2059
2057
2055
2054
2053
2052
2052
2052
2052
2051
2051
2051
2051
2050
2050
2050
2050
2050
2050
2050
2050
2050
2049
2049
2049
2049
2051
2052
2053
2051
2047
2041
2036
2035
2044
2066
2108
2161
2208
2227
2208
2156
2092
2045
2025
2031
2048
2060
2063
2057
2050
2048
2047
2046
2047
2048
2048
2049
2050
2051
2052
2053
2053
2054
2055
2056
2057
2058
2059
2060
2060
2060
2061
2061
2062
2063
2064
2066
2067
2068
2070
2071
2072
2073
2075
2077
2080
2083
2085
2088
2091
2094
2096
2099
2101
2103
2105
2107
2108
2108
2108
2107
2104
2100
2095
2088
2082
2075
2069
2062
2056
2051
2047
2044
2042
2040
2039
2038
2038
2037
2036
2036
2036
2036
2036
2036
2036
2036
2037
2037
2038
2038
2038
2038
2038
2038
2039
2039
2040
2040
2041
2041
2041
2041
2041
2041
2042
2042
2042
2043
2042
2042
2041
2041
2042
2042
2043
2044
2044
2044
2044
2043
2043
2043
2043
2043
2044
2044
2044
2044
2044
2044
2043
2043
2043
2043
2044
2044
2044
2045
2045
2045
2044
2044
2044
2044
2045
2045
2046
2046
2046
2046
2046
2045
2045
2046
2046
2047
2047
2048
2048
2047
2047
2047
2047
2047
2048
2048
2048
2048
2048
2048
2048
2048
2048
2048
2048
2048
2049
2049
2049
2048
2048
2048
2047
2048
2048
2048
2048
2047
2046
2046
2046
2048
2049
2052
2054
2056
2056
2057
2057
2057
2058
2057
2056
2055
2053
2052
2051
2051
2050
2050
2049
2048
2048
2049
2049
2049
2049
2049
2048
2048
2048
2048
2048
2048
2048
2048
2049
2051
2052
2051
2048
2043
2038
2034
2036
2048
2074
2119
2170
2208
2216
2186
2129
2069
2031
2021
2034
2051
2061
2060
2053
2048
2047
2046
2046
2047
2048
2048
2049
2050
2051
2051
2052
2053
2054
2055
2056
2057
2057
2058
2058
2058
2059
2060
2061
2062
2063
2065
2066
2067
2068
2069
2070
2072
2074
2077
2080
2082
2085
2087
2089
2092
2095
2098
2101
2103
2105
2107
2108
2109
2109
2108
2106
2103
2098
2092
2085
2079
2072
2065
2059
2053
2048
2045
2042
2040
2039
2038
2037
2036
2035
2035
2035
2035
2035
2035
2036
2036
2036
2036
2036
2036
2036
2036
2037
2038
2038
2039
2039
2039
2039
2039
2039
2040
2041
2041
2042
2042
2042
2042
2042
2042
2042
2042
2042
2043
2043
2043
2043
2043
2043
2043
2043
2043
2043
2043
2044
2044
2044
2044
2043
2043
2043
2043
2044
2044
2044
2044
2044
2044
2044
2044
2044
2044
2045
2045
2045
2045
2045
2045
2045
2045
2045
2045
2045
2046
2046
2046
2047
2046
2046
2046
2046
2046
2046
2046
2047
2047
2047
2047
2047
2046
2046
2046
2047
2047
2047
2048
2048
2047
2047
2046
2046
2047
2047
2047
2047
2047
2046
2045
2044
2044
2045
2047
2049
2052
2054
2055
2055
2055
2055
2055
2056
2055
2054
2053
2051
2051
2050
2050
2049
2049
2048
2048
2048
2048
2048
2048
2048
2048
2047
2047
2047
2047
2048
2048
2048
2048
2048
2049
2048
2048
2044
2039
2034
2032
2039
2056
2091
2140
2187
2212
2202
2158
2096
2045
2020
2022
2040
2053
2059
2055
2048
2046
2046
2045
2045
2046
2047
2048
2048
2048
2049
2051
2052
2053
2054
2054
2055
2055
2055
2055
2056
2056
2057
2058
2059
2061
2061
2062
2062
2063
2064
2066
2069
2072
2074
2076
2078
2080
2081
2084
2087
2090
2094
2096
2099
2101
2103
2104
2105
2106
2105
2105
2102
2099
2094
2087
2080
2073
2065
2058
2053
2048
2045
2041
2039
2037
2036
2034
2033
2032
2032
2032
2032
2033
2033
2033
2033
2033
2033
2033
2033
2033
2034
2034
2035
2035
2035
2035
2036
2036
2036
2036
2036
2036
2037
2037
2038
2038
2038
2038
2038
2038
2038
2038
2038
2039
2039
2038
2038
2038
2038
2038
2039
2039
2039
2039
2040
2039
2039
2039
2039
2039
2040
2040
2040
2040
2040
2040
2040
2040
2040
2040
2041
2041
2041
2041
2041
2041
2041
2041
2041
2041
2042
2042
2043
2043
2043
2042
2042
2042
2042
2042
2043
2043
2044
2044
2044
2044
2043
2043
2043
2044
2045
2045
2045
2045
2045
2045
2045
2045
2045
2045
2045
2045
2045
2045
2044
2043
2042
2041
2042
2044
2047
2048
2051
2052
2053
2053
2053
2054
2054
2055
2054
2053
2052
2050
2050
2049
2048
2048
2048
2048
2048
2048
2048
2048
2048
2047
2047
2046
2046
2046
2047
2047
2048
2048
2048
2049
2049
2048
2046
2040
2036
2033
2038
2052
2083
2129
2177
2207
2204
2166
2107
2051
2022
2020
2036
2052
2060
2057
2050
2046
2046
2045
2045
2046
2047
2048
2048
2048
2049
2050
2051
2053
2054
2055
2055
2055
2056
2056
2057
2058
2060
2062
2064
2066
2068
2071
2072
2074
2075
2077
2078
2080
2083
2085
2087
2090
2092
2094
2096
2098
2100
2101
2103
2104
2105
2107
2107
2107
2107
2106
2103
2100
2095
2089
2082
2075
2067
2060
2054
2049
2046
2042
2039
2037
2035
2034
2033
2032
2032
2031
2031
2031
2031
2032
2032
2032
2032
2032
2032
2032
2033
2033
2034
2034
2034
2034
2034
2034
2034
2035
2035
2036
2036
2036
2036
2036
2036
2036
2036
2036
2037
2037
2037
2037
2037
2037
2037
2037
2037
2037
2038
2038
2038
2038
2038
2038
2037
2037
2037
2037
2038
2038
2039
2039
2039
2039
2039
2038
2038
2039
2039
2039
2039
2039
2039
2039
2039
2039
2039
2040
2040
2040
2041
2041
2041
2041
2041
2041
2041
2041
2042
2042
2042
2043
2043
2043
2042
2042
2042
2042
2042
2043
2043
2043
2044
2044
2044
2044
2044
2044
2044
2043
2043
2042
2042
2041
2041
2043
2045
2048
2049
2050
2051
2051
2051
2051
2051
2051
2050
2049
2049
2048
2048
2048
2047
2046
2045
2045
2044
2045
2046
2047
2047
2047
2046
2046
2045
2045
2045
2045
2046
2046
2048
2048
2049
2048
2044
2039
2035
2034
2042
2060
2094
2142
2187
2209
2196
2150
2087
2036
2012
2015
2034
2050
2058
2055
2049
2048
2047
2046
2045
2045
2046
2047
2048
2048
2048
2049
2049
2050
2052
2053
2055
2055
2055
2055
2055
2055
2056
2057
2059
2061
2062
2063
2063
2064
2065
2066
2068
2070
2072
2073
2075
2077
2079
2083
2086
2090
2093
2097
2100
2103
2105
2107
2108
2109
2108
2106
2103
2099
2095
2088
2081
2072
2063
2055
2048
2044
2040
2036
2033
2031
2029
2028
2027
2026
2026
2026
2026
2027
2028
2029
2029
2029
2029
2029
2028
2028
2028
2029
2030
2031
2033
2034
2035
2035
2035
2033
2032
2031
2031
2031
2032
2033
2032
2031
2030
2031
2033
2036
2039
2040
2040
2038
2036
2036
2036
2037
2038
2039
2038
2038
2037
2037
2037
2037
2037
2036
2036
2035
2034
2034
2035
2036
2036
2037
2036
2036
2037
2039
2043
2048
2051
2053
2054
2052
2050
2048
2048
2048
2048
2048
2047
2046
2044
2043
2041
2040
2040
2039
2039
2039
2040
2043
2045
2047
2048
2048
2048
2048
2048
2049
2049
2048
2046
2043
2039
2036
2035
2035
2036
2037
2038
2038
2038
2038
2037
2037
2036
2036
2037
2038
2039
2039
2037
2036
2037
2042
2048
2055
2058
2055
2048
2043
2041
2052
2080
2126
2177
2213
2213
2172
2104
2038
1998
1994
2015
2042
2057
2060
2053
2047
2044
2043
2043
2045
2046
2048
2049
2050
2051
2052
2053
2056
2059
2063
2068
2074
2078
2081
2082
2082
2082
2083
2085
2087
2091
2094
2097
2098
2097
2096
2096
2097
2101
2105
2110
2113
2117
2121
2126
2129
2131
2132
2133
2136
2141
2147
2152
2155
2157
2155
2146
2134
2119
2110
2109
2125
2154
2181
2193
2180
2145
2096
2054
2028
2016
2018
2023
2029
2028
2026
2026
2026
2026
2026
2025
2025
2025
2022
2020
2016
2013
2014
2013
2011
2006
2006
2004
2040
2123
2234
2340
2392
2360
2259
2131
2034
1997
2013
2058
2102
2112
2097
2071
2038
2002
1990
1994
2013
2039
2055
2062
2056
2045
2033
2026
2026
2028
2033
2028
2028
2028
2024
2021
2029
2025
2014
2015
2041
2101
2240
2417
2574
2644
2591
2431
2230
2061
1983
1973
1992
2020
2033
2018
2018
2024
2031
2042
2063
2062
2033
1977
1951
2042
2307
2735
3229
3657
3924
3970
3935
3951
4035
4082
3962
3575
2970
2342
1889
1696
1715
1795
1866
1877
1846
1843
1798
1821
1922
2113
2336
2473
2436
2232
1982
1784
1715
1762
1867
1957
1976
1996
1980
1928
1860
1806
1786
1797
1824
1845
1855
1853
1849
1850
1853
1866
1870
1857
1826
1800
1821
1887
2086
2466
2922
3317
3483
3315
2859
2311
1880
1677
1676
1767
1857
1873
1826
1825
1826
1828
1830
1832
1833
1836
1839
1842
1846
1848
1851
1853
1855
1858
1862
1870
1881
1896
1912
1934
1986
1903
1865
1869
1969
2186
2429
2569
2521
2317
2063
1876
1794
1799
1893
1884
1904
1956
1940
1887
1831
1834
1957
2224
2570
2869
3029
3026
2928
2811
2724
2721
2721
2715
2711
2706
2700
2688
2684
2681
2679
2650
2666
2713
2759
2758
2652
2431
2158
1927
1808
1808
1870
1936
1974
1954
1942
1942
1945
1950
1952
1954
1952
1951
1951
1956
1966
1976
2010
2006
1989
1953
1929
2003
2215
2566
2979
3347
3585
3666
3629
3544
3488
3449
3438
3438
3422
3407
3396
3383
3372
3361
3347
3334
3316
3298
3281
3263
3253
3248
3244
3245
3246
3225
3170
3230
3387
3571
3643
3452
2956
2230
1583
1207
1153
1310
1510
1616
1546
1460
1396
1360
1348
1348
1367
1346
1347
1357
1368
1371
1372
1374
1375
1380
1387
1399
1421
1454
1498
1546
1585
1612
1623
1624
1630
1632
1635
1643
1664
1702
1756
1817
1863
1890
1897
1895
1895
1896
1906
1911
1907
1900
1910
1933
1950
1939
1882
1777
1659
1566
1524
1532
1560
1592
1612
1614
1618
1619
1611
1596
1584
1579
1581
1590
1598
1604
1610
1614
1620
1629
1635
1643
1649
1654
1661
1666
1672
1678
1687
1697
1706
1715
1718
1723
1727
1732
1740
1747
1759
1773
1785
1795
1800
1805
1811
1820
1833
1842
1851
1855
1855
1857
1856
1858
1860
1863
1866
1868
1873
1878
1880
1884
1887
1896
1909
1924
1939
1948
1952
1952
1949
1950
1950
1954
1958
1963
1968
1970
1973
1973
1975
1977
1979
1983
1985
1988
1994
1994
1995
1994
1992
1994
2001
2015
2032
2047
2054
2058
2057
2054
2051
2052
2059
2079
2106
2135
2155
2161
2162
2160
2160
2165
2166
2166
2164
2163
2162
2159
2161
2160
2159
2158
2155
2156
2156
2156
2155
2152
2155
2161
2170
2179
2183
2186
2186
2189
2193
2195
2201
2203
2206
2210
2211
2219
2233
2257
2286
2311
2332
2347
2360
2375
2391
2409
2418
2420
2415
2407
2404
2402
2399
2395
2389
2386
2386
2390
2395
2399
2404
2407
2411
2416
2419
2423
2425
2427
2429
2430
2436
2442
2448
2456
2460
2465
2470
2475
2478
2477
2479
2480
2480
2480
2475
2474
2474
2478
2483
2487
2490
2490
2489
2490
2494
2507
2522
2540
2557
2568
2580
2594
2609
2627
2639
2646
2643
2635
2624
2619
2625
2637
2651
2660
2656
2651
2646
2647
2654
2663
2671
2675
2673
2668
2660
2654
2649
2644
2639
2632
2628
2622
2614
2608
2599
2593
2587
2584
2581
2576
2578
2582
2590
2600
2605
2609
2607
2603
2598
2590
2586
2582
2573
2564
2556
2553
2553
2560
2573
2585
2601
2616
2630
2636
2629
2618
2605
2605
2628
2672
2729
2780
2816
2835
2840
2848
2866
2891
2917
2939
2959
2979
2999
3018
3032
3043
3048
3051
3054
3057
3065
3076
3085
3091
3088
3081
3069
3055
3043
3029
3017
3007
3002
3009
3026
3056
3088
3116
3132
3132
3128
3122
3120
3124
3130
3135
3137
3136
3133
3128
3119
3102
3086
3077
3084
3111
3146
3180
3196
3193
3177
3156
3138
3126
3117
3106
3100
3095
3094
3091
3084
3075
3062
3051
3043
3041
3043
3044
3046
3043
3045
3049
3054
3061
3064
3061
3051
3041
3036
3035
3047
3060
3073
3079
3076
3076
3079
3092
3109
3122
3132
3137
3136
3133
3127
3125
3125
3128
3132
3135
3142
3145
3143
3134
3125
3122
3130
3153
3176
3196
3215
3233
3256
3279
3301
3316
3332
3354
3392
3447
3520
3598
3664
3714
3736
3733
3711
3679
3651
3627
3610
3594
3576
3564
3545
3523
3502
3496
3516
3561
3614
3640
3640
3629
3636
3683
3765
3856
3920
3942
3936
3921
3910
3909
3916
3916
3916
3916
3916
3916
3916
3916
3916
3916
3916
3916
3916
3916
3916
3916
3916
3916
3916
3916
3916
3916
3916
3916
3916
3916
3916
3916
3916
3916
3916
3916
3916
3916
3916
3916
3916
3916
3916
3916
3916
3916
3916
3916
3916
3916
3916
3916
3916
3916
3916
3916
3916
3916
3916
3916
3916
3916
3916
3882
3825
3884
4064
123
53
3656
2720
1572
573
4090
3956
4091
183
274
231
179
179
179
179
179
179
179
179
179
179
179
179
179
179
179
179
179
179
179
179
179
179
179
179
179
179
179
179
179
179
179
179
179
179
179
179
179
179
179
179
179
179
179
179
179
179
179
179
179
179
179
179
179
179
179
179
179
179
179
179
179
179
179
179
179
179
179
179
179
179
179
179
179
179
179
179
179
179
179
179
179
179
179
179
179
179
179
179
180
180
178
176
176
180
190
204
222
238
252
264
275
288
302
318
333
348
363
379
398
419
443
467
490
510
528
545
561
578
595
610
625
641
657
673
689
704
717
728
737
744
749
754
757
761
765
770
775
780
787
793
801
809
819
830
842
853
865
876
887
897
907
917
926
936
946
956
967
977
987
996
1005
1014
1024
1033
1043
1053
1063
1072
1081
1089
1097
1105
1114
1122
1132
1141
1151
1160
1168
1175
1183
1191
1199
1207
1214
1220
1227
1233
1240
1246
1252
1258
1264
1269
1274
1279
1284
1290
1295
1300
1304
1309
1314
1319
1325
1331
1337
1342
1347
1352
1356
1362
1369
1373
1378
1379
1386
1407
1442
1492
1534
1565
1585
1603
1639
1689
1751
1801
1833
1854
1882
1938
2020
2120
2221
2308
2388
2459
2532
2605
2673
2738
2790
2825
2844
2847
2846
2844
2848
2857
2867
2881
2892
2901
2907
2910
2915
2923
2936
2950
2965
2982
2999
3015
3031
3041
3047
3047
3044
3038
3028
3006
3021
3037
3003
3005
2974
2880
2692
2382
1979
1566
1245
1082
1072
1122
1210
1274
1258
1271
1275
1264
1243
1222
1209
1209
1221
1232
1242
1249
1258
1275
1300
1326
1349
1361
1363
1358
1351
1345
1345
1349
1355
1364
1370
1373
1375
1383
1398
1429
1470
1512
1541
1542
1524
1496
1478
1483
1502
1530
1552
1566
1569
1569
1564
1557
1551
1543
1540
1540
1538
1538
1533
1529
1526
1524
1523
1522
1522
1522
1525
1529
1535
1542
1551
1560
1569
1577
1582
1584
1584
1585
1589
1595
1604
1612
1619
1624
1629
1634
1640
1645
1653
1663
1673
1684
1691
1696
1698
1699
1700
1701
1702
1702
1703
1702
1702
1701
1700
1699
1699
1700
1701
1703
1704
1706
1709
1711
1714
1717
1720
1723
1726
1728
1732
1736
1740
1744
1747
1748
1749
1750
1752
1755
1758
1761
1763
1766
1768
1770
1772
1774
1778
1783
1787
1790
1792
1792
1792
1793
1794
1796
1798
1800
1803
1806
1810
1814
1819
1825
1832
1840
1846
1849
1849
1847
1846
1845
1846
1846
1846
1845
1845
1846
1847
1849
1850
1852
1855
1859
1862
1864
1865
1866
1867
1869
1870
1872
1872
1872
1873
1875
1878
1881
1883
1884
1882
1879
1875
1872
1874
1885
1912
1959
2017
2062
2078
2052
1997
1936
1894
1884
1897
1917
1929
1929
1921
1915
1914
1915
1917
1921
1923
1924
1924
1925
1928
1932
1933
1931
1930
1934
1946
1963
1980
1987
1982
1970
1960
1959
1966
1975
1969
1950
1942
1968
2041
2152
2269
2356
2393
2392
2373
2353
2336
2349
2378
2402
2403
2358
2254
2122
2009
1943
1935
1972
2036
2111
2177
2252
2308
2336
2337
2325
2313
2306
2313
2325
2332
2337
2338
2338
2333
2328
2326
2323
2323
2323
2324
2332
2346
2371
2407
2444
2478
2503
2520
2530
2540
2555
2576
2609
2640
2652
2703
2740
2770
2739
2612
2392
2129
1902
1757
1709
1722
1749
1772
1752
1766
1767
1776
1783
1783
1778
1773
1768
1770
1775
1783
1785
1788
1791
1793
1796
1799
1803
1808
1814
1818
1817
1811
1813
1818
1828
1840
1844
1841
1833
1824
1821
1821
1827
1833
1841
1841
1835
1830
1833
1849
1876
1910
1947
1971
1976
1965
1938
1909
1886
1876
1876
1883
1889
1889
1883
1877
1874
1876
1878
1880
1882
1884
1889
1895
1898
1901
1900
1901
1906
1912
1917
1917
1919
1920
1920
1921
1920
1922
1924
1927
1929
1930
1933
1935
1937
1939
1939
1938
1943
1953
1963
1969
1967
1957
1943
1933
1926
1926
1929
1937
1950
1961
1978
1991
1997
2000
1999
2002
2006
2011
2016
2016
2020
2023
2025
2028
2028
2029
2030
2033
2035
2036
2039
2040
2041
2044
2044
2047
2048
2051
2054
2054
2057
2059
2061
2063
2062
2064
2067
2072
2077
2080
2086
2091
2096
2100
2102
2108
2115
2125
2135
2143
2153
2159
2164
2171
2182
2203
2232
2266
2297
2319
2331
2332
2327
2320
2310
2301
2290
2279
2269
2258
2253
2250
2249
2249
2246
2245
2243
2243
2244
2243
2243
2242
2241
2240
2234
2223
2200
2167
2123
2074
2034
2002
1982
1975
1974
1980
1988
1998
2005
2008
2012
2013
2013
2013
2012
2013
2014
2017
2020
2024
2029
2029
2025
2012
1993
1976
1961
1958
1960
1965
1970
1972
1973
1973
1973
1970
1969
1967
1967
1969
1972
1977
1977
1977
1974
1973
1974
1976
1979
1978
1981
1982
1982
1984
1982
1983
1984
1985
1988
1986
1988
1989
1989
1990
1987
1989
1989
1992
1993
1993
1995
1996
1997
1998
1996
1997
1998
2001
2003
2003
2006
2009
2011
2011
2010
2010
2013
2023
2035
2046
2054
2057
2057
2052
2049
2049
2050
2050
2052
2052
2055
2056
2056
2056
2055
2055
2056
2057
2059
2060
2061
2059
2059
2060
2060
2061
2060
2060
2059
2058
2061
2062
2060
2059
2054
2052
2054
2057
2060
2061
2061
2062
2061
2062
2061
2061
2062
2063
2065
2066
2069
2070
2070
2071
2070
2070
2070
2071
2073
2073
2075
2076
2073
2075
2080
2085
2084
2072
2048
2013
1983
1962
1952
1952
1952
1956
1953
1958
1966
1972
1971
1961
1944
1924
1908
1900
1898
1900
1903
1905
1904
1906
1905
1905
1904
1906
1910
1914
1918
1919
1918
1917
1917
1919
1921
1924
1925
1925
1927
1928
1930
1932
1931
1929
1925
1923
1925
1930
1938
1941
1942
1942
1939
1936
1934
1936
1947
1964
1987
2010
2031
2048
2061
2073
2081
2087
2091
2089
2087
2083
2084
2085
2085
2087
2080
2071
2064
2071
2099
2144
2195
2235
2252
2248
2231
2217
2211
2219
2230
2239
2249
2252
2249
2245
2238
2234
2232
2231
2229
2227
2226
2224
2220
2218
2214
2210
2207
2206
2207
2206
2206
2203
2200
2197
2192
2190
2189
2188
2193
2193
2194
2192
2188
2185
2180
2176
2175
2175
2180
2196
2228
2269
2315
2354
2376
2386
2382
2375
2368
2361
2362
2360
2352
2348
2348
2366
2403
2461
2537
2624
2726
2832
2939
3040
3130
3218
3302
3393
3485
3579
3671
3757
3832
3886
3919
3930
3925
3918
3912
3912
3915
3916
3916
3916
3916
3915
3916
3915
3916
3917
3918
3917
3908
3896
3876
3858
3844
3832
3824
3812
3801
3789
3776
3765
3753
3744
3736
3729
3721
3710
3700
3689
3677
3665
3651
3642
3631
3623
3614
3601
3588
3573
3558
3544
3527
3512
3496
3482
3466
3450
3437
3422
3406
3391
3373
3357
3342
3328
3315
3299
3286
3271
3259
3249
3236
3223
3204
3182
3156
3134
3157
3225
3307
3340
3246
2990
2598
2155
1755
1449
1249
1119
1022
929
851
791
743
708
681
661
650
642
638
635
634
637
642
651
660
667
676
685
695
707
717
728
739
751
762
773
785
796
806
817
827
839
850
863
875
886
902
915
927
937
947
960
980
1003
1028
1045
1057
1064
1071
1080
1089
1098
1100
1100
1099
1096
1101
1107
1118
1132
1147
1169
1192
1217
1237
1251
1266
1277
1290
1302
1313
1325
1337
1352
1363
1373
1385
1399
1417
1436
1451
1461
1464
1465
1464
1467
1479
1488
1473
1460
1478
1538
1628
1708
1725
1660
1541
1422
1352
1338
1366
1401
1412
1412
1419
1425
1428
1425
1425
1437
1473
1541
1632
1736
1839
1936
2028
2114
2208
2299
2382
2456
2533
2619
2724
2848
2982
3116
3254
3398
3550
3698
3823
3905
3915
3929
3951
3970
3954
3872
3716
3541
3416
3379
3426
3507
3588
3652
3668
3694
3703
3694
3670
3646
3625
3607
3594
3582
3569
3552
3529
3504
3480
3459
3449
3448
3457
3472
3492
3513
3529
3539
3539
