1985
1984
1982
1981
1981
1982
1985
1988
1991
1992
1992
1989
1986
1983
1981
1981
1982
1984
1986
1989
1992
1994
1993
1990
1985
1981
1979
1981
1983
1982
1976
1968
1964
1973
2000
2049
2112
2167
2188
2163
2098
2021
1958
1931
1936
1958
1978
1989
1989
1987
1986
1986
1986
1987
1988
1989
1990
1990
1990
1989
1989
1988
1987
1988
1988
1988
1988
1989
1990
1991
1993
1994
1995
1995
1995
1994
1994
1995
1996
1996
1997
1997
1997
1997
1997
1998
2000
2003
2005
2006
2007
2005
2004
2002
2001
1999
1998
1997
1996
1996
1994
1991
1988
1985
1983
1983
1983
1984
1984
1984
1984
1984
1984
1983
1983
1982
1983
1983
1984
1984
1983
1982
1981
1980
1980
1980
1980
1981
1981
1981
1981
1981
1980
1978
1976
1975
1975
1975
1976
1977
1977
1977
1976
1974
1973
1973
1972
1973
1972
1972
1971
1969
1968
1966
1965
1964
1964
1965
1966
1967
1969
1971
1971
1970
1968
1966
1964
1962
1962
1961
1960
1958
1957
1956
1955
1955
1956
1957
1959
1961
1964
1964
1961
1953
1945
1942
1952
1980
2030
2090
2141
2159
2132
2067
1992
1931
1905
1910
1932
1952
1961
1960
1956
1953
1952
1951
1952
1953
1954
1955
1956
1956
1956
1956
1956
1956
1956
1957
1957
1958
1959
1960
1960
1960
1960
1961
1961
1962
1964
1965
1966
1966
1966
1966
1967
1968
1970
1971
1972
1973
1974
1974
1975
1975
1975
1975
1974
1974
1973
1971
1969
1966
1963
1961
1959
1958
1957
1956
1956
1955
1954
1954
1953
1953
1952
1951
1951
1951
1951
1952
1952
1952
1952
1952
1951
1951
1951
1951
1952
1953
1955
1956
1956
1956
1957
1957
1959
1960
1962
1963
1964
1965
1966
1966
1966
1966
1965
1966
1966
1966
1966
1965
1965
1965
1965
1966
1968
1970
1972
1974
1975
1977
1976
1975
1973
1971
1969
1969
1969
1970
1971
1972
1972
1973
1974
1975
1976
1978
1980
1979
1974
1966
1955
1948
1953
1977
2024
2085
2142
2170
2154
2095
2019
1952
1919
1919
1940
1963
1975
1976
1972
1969
1967
1966
1968
1970
1972
1974
1975
1975
1974
1974
1975
1976
1977
1978
1979
1979
1980
1981
1982
1982
1983
1983
1984
1985
1985
1986
1987
1988
1989
1989
1989
1989
1990
1991
1993
1995
1996
1997
1997
1997
1997
1997
1996
1995
1993
1991
1989
1988
1986
1984
1982
1980
1978
1976
1975
1975
1975
1975
1975
1974
1975
1975
1975
1976
1976
1976
1976
1976
1976
1976
1976
1976
1976
1976
1976
1977
1978
1979
1980
1980
1980
1979
1978
1978
1978
1979
1980
1981
1981
1981
1981
1980
1979
1979
1979
1979
1980
1981
1982
1983
1983
1982
1982
1981
1982
1983
1984
1985
1984
1983
1981
1980
1979
1979
1981
1984
1988
1991
1994
1996
1997
1998
1998
1998
1998
1997
1997
1997
1996
1996
1996
1996
1995
1995
1995
1996
1997
1998
2000
2002
2003
2000
1994
1986
1978
1980
1996
2034
2091
2156
2203
2209
2167
2091
2012
1958
1943
1956
1979
1997
2001
1998
1994
1992
1991
1991
1992
1994
1995
1995
1996
1995
1995
1995
1995
1996
1996
1996
1996
1996
1996
1996
1997
1997
1998
1999
2000
2001
2002
2003
2004
2004
2005
2005
2006
2006
2007
2008
2009
2010
2011
2011
2011
2010
2010
2009
2009
2007
2006
2004
2002
1999
1997
1995
1993
1991
1990
1989
1989
1988
1988
1987
1986
1985
1985
1985
1986
1986
1986
1986
1985
1985
1984
1985
1985
1986
1987
1988
1988
1988
1988
1988
1988
1988
1989
1990
1991
1991
1991
1991
1990
1990
1988
1987
1986
1986
1986
1987
1987
1987
1987
1986
1985
1984
1984
1983
1983
1983
1983
1983
1982
1981
1981
1981
1981
1981
1982
1982
1982
1982
1981
1979
1976
1975
1975
1977
1980
1983
1985
1987
1988
1989
1989
1989
1989
1988
1986
1985
1984
1982
1981
1980
1979
1978
1979
1979
1980
1981
1982
1982
1982
1981
1977
1970
1961
1957
1965
1989
2036
2097
2156
2185
2169
2109
2030
1960
1925
1925
1946
1968
1978
1978
1972
1969
1968
1967
1968
1969
1969
1969
1969
1969
1969
1969
1970
1970
1971
1972
1973
1973
1973
1973
1973
1973
1973
1974
1975
1976
1977
1977
1978
1978
1979
1979
1980
1981
1983
1984
1985
1986
1986
1986
1986
1986
1985
1985
1984
1984
1982
1981
1979
1977
1975
1974
1973
1973
1973
1973
1973
1972
1971
1970
1969
1969
1969
1970
1970
1970
1970
1970
1970
1969
1969
1969
1969
1970
1971
1972
1973
1973
1973
1973
1973
1973
1973
1974
1975
1975
1976
1976
1976
1976
1976
1976
1976
1977
1978
1978
1978
1978
1978
1978
1978
1978
1978
1978
1978
1979
1979
1979
1979
1978
1978
1978
1978
1979
1979
1980
1980
1979
1978
1976
1975
1974
1974
1975
1978
1981
1983
1985
1986
1987
1988
1988
1988
1987
1986
1985
1984
1983
1982
1981
1980
1980
1980
1981
1981
1982
1982
1983
1984
1983
1979
1973
1966
1963
1971
1994
2037
2094
2149
2179
2165
2110
2035
1968
1933
1933
1952
1972
1982
1981
1976
1974
1973
1973
1975
1975
1976
1976
1976
1976
1976
1977
1977
1978
1979
1980
1981
1982
1982
1982
1982
1982
1983
1984
1985
1986
1987
1987
1988
1988
1989
1989
1990
1991
1993
1994
1995
1996
1996
1996
1996
1995
1995
1995
1995
1994
1992
1990
1988
1985
1982
1980
1979
1978
1978
1978
1978
1978
1977
1976
1975
1975
1975
1975
1976
1977
1977
1976
1976
1976
1975
1976
1976
1977
1978
1978
1979
1979
1978
1977
1977
1977
1977
1978
1979
1979
1980
1980
1980
1979
1979
1979
1979
1979
1980
1980
1981
1981
1980
1980
1979
1979
1979
1979
1980
1980
1980
1980
1980
1979
1978
1978
1978
1978
1979
1979
1980
1980
1979
1978
1976
1974
1973
1973
1974
1977
1980
1982
1984
1985
1986
1987
1987
1987
1986
1984
1983
1981
1980
1978
1977
1977
1977
1977
1978
1979
1979
1979
1980
1981
1980
1977
1970
1963
1961
1969
1991
2034
2089
2141
2167
2150
2093
2019
1954
1923
1925
1947
1968
1979
1978
1974
1971
1970
1970
1970
1972
1973
1974
1975
1975
1975
1975
1976
1977
1978
1979
1979
1979
1978
1978
1978
1979
1980
1981
1982
1983
1983
1983
1983
1983
1984
1986
1987
1988
1990
1991
1992
1993
1993
1993
1994
1994
1994
1994
1994
1993
1991
1989
1986
1983
1981
1979
1978
1977
1976
1976
1975
1975
1974
1973
1972
1971
1971
1971
1971
1972
1971
1971
1970
1970
1970
1971
1972
1972
1972
1972
1972
1973
1973
1973
1974
1974
1974
1975
1975
1975
1975
1974
1974
1973
1973
1974
1975
1975
1975
1975
1974
1973
1973
1973
1973
1973
1974
1975
1976
1976
1975
1974
1972
1970
1968
1967
1966
1966
1967
1970
1972
1974
1975
1976
1977
1978
1980
1981
1981
1979
1976
1973
1971
1969
1969
1969
1969
1970
1970
1970
1969
1969
1970
1971
1972
1971
1966
1959
1952
1952
1967
2002
2056
2115
2155
2155
2108
2033
1957
1910
1900
1917
1943
1961
1968
1967
1966
1966
1965
1965
1966
1967
1968
1968
1968
1968
1969
1970
1971
1972
1972
1971
1971
1971
1971
1971
1972
1972
1974
1976
1978
1980
1981
1981
1981
1981
1982
1984
1986
1988
1991
1992
1993
1993
1993
1993
1994
1995
1996
1996
1996
1995
1992
1989
1985
1982
1979
1977
1976
1974
1971
1968
1966
1963
1962
1962
1962
1963
1964
1964
1964
1963
1962
1961
1960
1960
1960
1961
1962
1963
1964
1965
1964
1964
1963
1963
1963
1964
1966
1968
1969
1969
1969
1968
1968
1967
1968
1968
1968
1968
1967
1967
1967
1967
1967
1967
1967
1967
1966
1965
1964
1964
1965
1966
1967
1968
1970
1972
1974
1976
1978
1977
1974
1971
1968
1966
1965
1965
1965
1966
1967
1966
1965
1964
1963
1964
1966
1969
1969
1966
1958
1948
1945
1955
1985
2036
2097
2145
2156
2119
2048
1968
1910
1890
1903
1930
1953
1965
1967
1967
1967
1967
1966
1965
1964
1963
1963
1964
1966
1968
1969
1969
1968
1968
1968
1970
1972
1974
1975
1975
1975
1976
1976
1977
1977
1978
1978
1979
1982
1985
1988
1990
1992
1992
1993
1993
1994
1995
1997
1998
1999
2000
2000
1999
1996
1993
1989
1986
1984
1982
1981
1978
1975
1971
1968
1965
1964
1964
1964
1965
1966
1965
1964
1963
1962
1962
1962
1963
1963
1963
1963
1963
1963
1963
1964
1965
1966
1966
1966
1965
1964
1963
1963
1963
1964
1965
1966
1967
1968
1968
1968
1967
1967
1967
1967
1967
1966
1966
1965
1963
1963
1963
1963
1963
1964
1966
1968
1970
1972
1974
1974
1974
1972
1970
1968
1966
1965
1964
1964
1963
1963
1964
1964
1964
1963
1963
1964
1967
1968
1967
1961
1953
1947
1950
1969
2010
2069
2129
2164
2155
2100
2020
1944
1900
1895
1917
1944
1963
1969
1967
1965
1963
1961
1959
1959
1960
1961
1963
1964
1965
1965
1965
1966
1966
1967
1968
1969
1970
1971
1971
1972
1972
1973
1973
1974
1975
1975
1976
1978
1979
1980
1982
1983
1984
1985
1987
1988
1989
1990
1990
1990
1989
1987
1985
1983
1982
1982
1980
1978
1975
1972
1969
1967
1965
1964
1964
1963
1962
1962
1962
1961
1961
1960
1959
1958
1958
1958
1959
1959
1960
1960
1959
1959
1959
1959
1960
1961
1962
1963
1964
1964
1964
1964
1964
1964
1964
1964
1965
1965
1966
1967
1967
1966
1966
1965
1965
1965
1964
1964
1963
1963
1963
1963
1964
1965
1966
1968
1969
1971
1973
1974
1973
1971
1969
1967
1966
1965
1964
1964
1964
1964
1964
1964
1964
1964
1964
1965
1967
1968
1965
1959
1950
1945
1950
1972
2017
2078
2138
2172
2160
2103
2023
1950
1909
1906
1926
1950
1965
1968
1965
1962
1961
1959
1959
1959
1959
1961
1962
1963
1964
1965
1965
1965
1965
1965
1965
1966
1967
1969
1970
1971
1970
1970
1969
1969
1970
1972
1974
1976
1977
1977
1977
1978
1978
1980
1981
1982
1983
1983
1983
1983
1983
1982
1981
1980
1978
1976
1974
1972
1970
1969
1967
1966
1965
1964
1963
1962
1962
1962
1962
1962
1962
1961
1961
1960
1960
1961
1962
1962
1963
1963
1963
1963
1963
1963
1963
1963
1964
1965
1966
1966
1966
1966
1965
1965
1966
1966
1967
1968
1968
1968
1967
1966
1966
1967
1967
1968
1969
1969
1969
1969
1968
1968
1967
1967
1968
1969
1970
1970
1970
1969
1969
1968
1968
1968
1968
1969
1969
1970
1970
1970
1969
1968
1966
1965
1965
1966
1968
1971
1974
1976
1978
1979
1979
1978
1977
1976
1975
1973
1972
1971
1970
1969
1969
1969
1970
1970
1971
1971
1971
1973
1973
1973
1969
1961
1952
1948
1957
1983
2032
2096
2155
2184
2165
2104
2023
1954
1918
1918
1938
1959
1970
1969
1965
1962
1961
1961
1962
1963
1964
1964
1965
1965
1965
1965
1965
1965
1966
1967
1968
1968
1968
1968
1968
1969
1969
1970
1971
1972
1973
1973
1973
1974
1974
1975
1976
1979
1981
1982
1983
1984
1984
1984
1983
1983
1983
1983
1982
1981
1980
1979
1977
1975
1973
1972
1970
1970
1970
1970
1970
1969
1969
1969
1968
1968
1968
1968
1968
1969
1969
1970
1969
1969
1968
1968
1968
1969
1970
1971
1972
1972
1972
1972
1972
1971
1972
1972
1973
1974
1975
1975
1975
1974
1974
1973
1974
1974
1975
1975
1976
1976
1976
1975
1974
1973
1973
1973
1974
1974
1975
1975
1974
1973
1973
1972
1972
1972
1973
1973
1973
1973
1972
1972
1971
1971
1971
1971
1972
1973
1973
1973
1973
1973
1972
1972
1973
1973
1973
1974
1974
1974
1973
1972
1971
1969
1969
1969
1972
1975
1978
1981
1982
1983
1982
1981
1980
1979
1979
1978
1977
1976
1975
1974
1973
1972
1972
1973
1973
1974
1974
1974
1975
1976
1975
1972
1965
1957
1954
1962
1987
2033
2095
2154
2185
2171
2114
2036
1966
1929
1927
1946
1965
1975
1973
1969
1966
1966
1967
1968
1970
1971
1971
1972
1972
1972
1973
1974
1975
1976
1977
1977
1977
1977
1977
1977
1978
1979
1980
1981
1982
1982
1983
1983
1984
1984
1985
1986
1988
1989
1990
1991
1991
1991
1991
1990
1991
1991
1991
1990
1989
1987
1985
1983
1981
1980
1979
1978
1978
1978
1977
1977
1976
1976
1976
1976
1976
1976
1976
1976
1977
1976
1976
1976
1976
1976
1976
1977
1978
1979
1979
1980
1980
1980
1980
1980
1980
1981
1981
1982
1983
1983
1982
1982
1982
1982
1982
1983
1983
1984
1984
1984
1984
1984
1984
1985
1985
1985
1986
1986
1986
1986
1986
1985
1985
1984
1984
1985
1986
1986
1987
1987
1986
1986
1985
1985
1985
1986
1986
1987
1987
1988
1987
1987
1986
1986
1986
1987
1987
1988
1988
1988
1988
1988
1987
1987
1987
1987
1986
1986
1986
1987
1989
1992
1995
1997
1998
1998
1998
1998
1997
1997
1996
1995
1993
1991
1990
1990
1990
1991
1991
1991
1991
1991
1991
1992
1993
1992
1990
1984
1977
1973
1979
2001
2044
2101
2158
2189
2179
2126
2050
1983
1946
1942
1960
1980
1991
1992
1988
1986
1986
1986
1986
1986
1986
1986
1987
1987
1989
1990
1991
1991
1991
1992
1992
1992
1992
1993
1994
1995
1996
1997
1998
1998
1998
1999
2000
2001
2002
2004
2005
2006
2006
2006
2007
2007
2008
2008
2009
2010
2010
2009
2008
2006
2004
2002
2000
1999
1997
1996
1995
1994
1993
1992
1992
1991
1991
1991
1992
1992
1992
1992
1992
1991
1991
1990
1990
1991
1991
1992
1993
1993
1993
1993
1993
1993
1993
1994
1995
1995
1996
1996
1996
1996
1995
1995
1995
1996
1996
1997
1998
1998
1997
1997
1996
1996
1996
1996
1997
1997
1997
1997
1997
1997
1996
1996
1995
1996
1996
1996
1996
1996
1995
1995
1995
1995
1995
1995
1996
1996
1997
1997
1997
1996
1995
1995
1995
1995
1996
1996
1996
1996
1996
1996
1996
1996
1996
1996
1996
1996
1996
1995
1994
1993
1994
1996
1999
2003
2005
2007
2006
2005
2004
2003
2002
2001
2000
1999
1999
1998
1998
1997
1996
1996
1995
1995
1995
1996
1998
2000
1998
1993
1985
1977
1977
1990
2021
2072
2131
2177
2188
2155
2087
2013
1958
1938
1949
1972
1990
1996
1994
1990
1988
1988
1988
1988
1989
1990
1991
1991
1992
1992
1991
1991
1990
1990
1991
1992
1994
1995
1996
1997
1997
1997
1996
1996
1996
1998
1999
2001
2003
2004
2004
2004
2004
2005
2005
2006
2008
2009
2010
2011
2010
2009
2008
2006
2004
2003
2002
2000
1999
1997
1995
1993
1991
1990
1990
1990
1990
1991
1991
1991
1990
1989
1988
1988
1987
1988
1989
1990
1991
1990
1990
1989
1989
1989
1989
1989
1990
1990
1991
1992
1993
1993
1993
1993
1993
1994
1995
1995
1995
1995
1994
1994
1994
1994
1994
1994
1994
1994
1994
1994
1993
1993
1993
1993
1993
1993
1994
1994
1995
1995
1994
1993
1992
1991
1992
1992
1993
1994
1994
1993
1993
1992
1991
1991
1991
1992
1992
1992
1992
1992
1991
1991
1991
1991
1991
1990
1990
1989
1989
1989
1991
1994
1997
1999
2001
2002
2002
2001
2001
2000
1999
1997
1995
1993
1991
1990
1990
1992
1993
1994
1994
1993
1992
1991
1992
1994
1993
1988
1979
1971
1971
1986
2021
2075
2136
2179
2182
2138
2063
1986
1934
1920
1935
1960
1980
1988
1989
1989
1989
1989
1988
1986
1986
1985
1986
1987
1987
1988
1989
1990
1990
1991
1991
1991
1992
1992
1992
1993
1994
1994
1995
1996
1997
1997
1998
1999
2001
2002
2004
2005
2006
2006
2007
2008
2009
2010
2011
2012
2012
2011
2010
2009
2007
2005
2003
2002
2000
1998
1996
1993
1991
1989
1986
1984
1983
1982
1982
1981
1981
1980
1979
1978
1977
1977
1977
1978
1979
1980
1980
1980
1979
1979
1978
1977
1978
1978
1979
1980
1981
1981
1981
1981
1981
1980
1980
1980
1980
1981
1981
1981
1981
1980
1979
1978
1979
1979
1980
1981
1980
1980
1979
1978
1977
1976
1975
1974
1975
1976
1977
1978
1978
1977
1976
1975
1975
1976
1976
1976
1976
1976
1975
1975
1974
1974
1975
1975
1976
1977
1977
1976
1975
1973
1971
1971
1972
1975
1980
1983
1986
1986
1985
1983
1981
1980
1980
1979
1979
1978
1977
1976
1975
1974
1974
1973
1973
1973
1973
1974
1976
1977
1975
1969
1960
1952
1952
1968
2005
2061
2122
2165
2168
2124
2050
1974
1923
1909
1923
1948
1966
1972
1970
1967
1966
1965
1965
1965
1966
1967
1968
1969
1969
1969
1969
1969
1969
1970
1971
1972
1972
1973
1973
1973
1974
1974
1975
1976
1977
1979
1980
1981
1982
1982
1983
1983
1985
1986
1987
1989
1990
1990
1990
1990
1989
1989
1989
1988
1988
1987
1985
1982
1979
1976
1973
1971
1969
1969
1968
1968
1968
1967
1966
1966
1965
1965
1964
1964
1964
1965
1965
1965
1964
1964
1964
1963
1964
1964
1965
1966
1967
1968
1968
1967
1967
1967
1968
1968
1969
1969
1970
1970
1970
1970
1969
1969
1969
1970
1970
1970
1970
1970
1970
1969
1969
1969
1969
1969
1969
1969
1969
1969
1968
1968
1967
1967
1967
1968
1969
1969
1969
1969
1968
1968
1967
1967
1967
1967
1968
1969
1969
1970
1969
1969
1968
1967
1967
1968
1969
1970
1970
1970
1969
1967
1965
1963
1963
1965
1969
1973
1977
1979
1979
1977
1975
1974
1973
1973
1973
1973
1972
1970
1969
1967
1966
1966
1966
1967
1968
1969
1970
1971
1971
1968
1963
1954
1947
1948
1962
1996
2049
2112
2160
2173
2139
2070
1993
1936
1915
1925
1947
1964
1969
1966
1962
1960
1960
1960
1961
1962
1963
1963
1963
1963
1963
1964
1964
1965
1966
1967
1968
1968
1969
1969
1969
1969
1970
1970
1971
1972
1973
1974
1975
1975
1976
1977
1977
1979
1980
1981
1983
1983
1984
1984
1984
1984
1983
1983
1982
1981
1980
1978
1976
1973
1971
1969
1968
1968
1967
1967
1967
1966
1966
1965
1965
1964
1964
1964
1965
1965
1966
1966
1965
1965
1965
1964
1964
1965
1965
1966
1967
1967
1967
1967
1966
1966
1966
1967
1968
1968
1969
1969
1969
1969
1968
1968
1968
1968
1969
1969
1969
1969
1969
1969
1968
1968
1967
1968
1969
1970
1970
1970
1969
1969
1968
1967
1968
1968
1969
1969
1970
1970
1970
1969
1968
1968
1968
1969
1969
1970
1970
1970
1970
1969
1968
1968
1969
1969
1970
1971
1971
1971
1971
1970
1968
1967
1966
1966
1967
1970
1974
1978
1980
1980
1979
1977
1976
1976
1976
1976
1975
1974
1972
1971
1969
1969
1969
1969
1969
1970
1970
1971
1971
1972
1970
1966
1959
1952
1952
1964
1992
2040
2099
2150
2170
2146
2083
2007
1946
1919
1924
1944
1963
1971
1969
1965
1963
1963
1964
1965
1966
1966
1967
1966
1966
1965
1966
1966
1968
1969
1970
1970
1971
1971
1971
1971
1972
1973
1974
1975
1976
1977
1977
1977
1977
1978
1979
1980
1982
1983
1984
1985
1985
1985
1985
1985
1985
1985
1985
1984
1984
1982
1980
1977
1975
1973
1971
1970
1970
1970
1970
1969
1969
1968
1967
1966
1966
1967
1967
1968
1968
1968
1968
1967
1967
1967
1967
1967
1968
1968
1969
1969
1970
1970
1970
1970
1970
1970
1971
1971
1972
1972
1973
1972
1972
1971
1971
1971
1972
1972
1973
1973
1973
1972
1972
1971
1971
1972
1973
1974
1974
1974
1973
1972
1971
1970
1970
1970
1971
1971
1972
1972
1972
1972
1971
1971
1971
1972
1972
1973
1973
1973
1973
1972
1971
1971
1970
1971
1971
1972
1973
1973
1973
1973
1972
1971
1970
1970
1971
1975
1979
1982
1984
1983
1982
1980
1979
1979
1980
1980
1979
1978
1976
1974
1972
1972
1972
1972
1973
1974
1975
1975
1977
1977
1974
1969
1961
1954
1956
1972
2008
2061
2120
2162
2165
2125
2053
1980
1930
1916
1930
1953
1970
1976
1973
1970
1968
1967
1968
1968
1969
1969
1970
1970
1971
1971
1972
1973
1975
1976
1977
1978
1978
1977
1977
1978
1979
1980
1981
1982
1982
1983
1983
1984
1984
1985
1986
1988
1990
1992
1993
1994
1994
1995
1995
1995
1995
1995
1995
1995
1994
1993
1990
1987
1984
1981
1980
1979
1978
1977
1976
1974
1973
1972
1972
1972
1972
1972
1972
1972
1972
1971
1970
1970
1969
1969
1969
1970
1971
1971
1972
1972
1972
1972
1972
1973
1973
1973
1974
1974
1975
1975
1975
1974
1974
1974
1974
1975
1977
1978
1978
1977
1975
1974
1974
1974
1975
1977
1977
1978
1978
1978
1977
1977
1977
1976
1975
1975
1975
1976
1977
1977
1977
1976
1975
1974
1975
1976
1977
1978
1978
1978
1977
1976
1975
1974
1975
1976
1976
1977
1976
1976
1976
1977
1980
1983
1986
1988
1988
1987
1986
1985
1984
1983
1982
1982
1982
1981
1981
1981
1980
1980
1979
1979
1978
1978
1980
1982
1982
1980
1974
1966
1961
1967
1990
2034
2093
2150
2178
2161
2101
2022
1952
1914
1914
1936
1961
1977
1982
1981
1980
1979
1978
1977
1977
1978
1978
1978
1978
1978
1978
1979
1980
1982
1984
1985
1985
1986
1987
1988
1989
1989
1989
1988
1987
1986
1986
1988
1989
1991
1992
1994
1995
1996
1998
2000
2003
2005
2006
2007
2007
2006
2006
2005
2005
2004
2002
2000
1997
1994
1991
1989
1986
1983
1981
1979
1978
1977
1976
1975
1975
1976
1976
1976
1975
1974
1974
1974
1975
1975
1975
1975
1974
1974
1973
1974
1975
1976
1978
1979
1980
1980
1981
1980
1979
1977
1975
1975
1976
1978
1980
1980
1980
1979
1978
1977
1976
1976
1977
1978
1978
1979
1978
1978
1977
1977
1977
1978
1978
1978
1978
1978
1978
1978
1978
1978
1978
1978
1979
1979
1980
1979
1979
1978
1978
1977
1977
1978
1979
1980
1981
1981
1980
1978
1977
1977
1978
1980
1984
1987
1989
1990
1989
1987
1985
1984
1984
1984
1985
1985
1984
1982
1980
1979
1978
1977
1978
1978
1979
1980
1981
1982
1982
1979
1973
1964
1958
1960
1979
2018
2076
2137
2177
2176
2128
2050
1975
1926
1916
1933
1958
1976
1981
1977
1974
1972
1971
1972
1973
1974
1975
1976
1976
1976
1976
1976
1977
1977
1979
1980
1981
1981
1981
1981
1982
1983
1984
1985
1985
1986
1986
1987
1989
1990
1991
1992
1993
1994
1996
1998
2000
2002
2002
2002
2002
2002
2001
2001
2001
2001
2000
1998
1995
1992
1989
1985
1983
1981
1980
1979
1979
1979
1978
1977
1976
1976
1975
1975
1975
1976
1976
1976
1976
1975
1974
1974
1974
1974
1975
1977
1978
1978
1978
1978
1977
1977
1978
1979
1980
1981
1981
1982
1981
1981
1980
1980
1980
1981
1983
1984
1985
1985
1984
1983
1983
1982
1982
1982
1983
1983
1984
1983
1982
1981
1980
1980
1981
1981
1982
1983
1983
1983
1982
1981
1981
1981
1981
1981
1982
1982
1982
1982
1982
1981
1981
1980
1980
1981
1982
1982
1981
1980
1979
1978
1979
1982
1986
1990
1992
1992
1991
1989
1987
1986
1986
1986
1986
1985
1984
1983
1983
1982
1982
1981
1981
1980
1980
1981
1983
1985
1984
1979
1970
1961
1959
1971
2004
2059
2125
2177
2193
2160
2089
2009
1948
1924
1932
1954
1973
1980
1978
1975
1973
1972
1971
1972
1972
1973
1974
1975
1976
1976
1976
1976
1976
1976
1977
1978
1979
1980
1981
1982
1982
1981
1981
1981
1982
1983
1984
1985
1987
1988
1988
1989
1989
1990
1991
1993
1994
1995
1996
1997
1997
1996
1996
1995
1994
1992
1991
1989
1987
1985
1982
1980
1978
1977
1976
1976
1976
1976
1976
1975
1975
1974
1974
1974
1973
1974
1974
1975
1975
1975
1974
1974
1974
1973
1974
1974
1975
1976
1977
1977
1977
1977
1977
1976
1976
1977
1978
1979
1979
1979
1979
1978
1977
1977
1977
1977
1978
1978
1978
1977
1977
1977
1976
1976
1976
1976
1976
1977
1977
1977
1977
1977
1976
1976
1976
1976
1976
1976
1976
1976
1976
1975
1975
1975
1975
1975
1976
1976
1976
1976
1976
1975
1974
1974
1974
1975
1975
1975
1975
1974
1973
1971
1971
1972
1974
1977
1981
1984
1985
1985
1983
1981
1979
1978
1977
1977
1977
1977
1976
1975
1974
1973
1973
1972
1972
1973
1973
1975
1976
1976
1973
1966
1957
1953
1958
1980
2022
2082
2144
2183
2180
2130
2052
1978
1932
1923
1938
1960
1973
1974
1969
1966
1964
1964
1964
1965
1966
1967
1968
1969
1969
1968
1968
1968
1969
1970
1971
1972
1972
1973
1973
1973
1974
1974
1974
1975
1976
1978
1979
1980
1980
1980
1981
1982
1983
1984
1986
1988
1989
1989
1989
1989
1988
1988
1987
1986
1985
1984
1982
1979
1977
1974
1972
1971
1970
1970
1970
1970
1970
1970
1970
1969
1968
1968
1968
1969
1969
1970
1970
1970
1970
1969
1969
1968
1968
1969
1969
1970
1971
1971
1971
1971
1971
1971
1971
1972
1973
1973
1974
1974
1973
1973
1972
1972
1972
1972
1973
1973
1974
1974
1974
1974
1973
1973
1973
1973
1973
1974
1974
1974
1974
1974
1973
1973
1973
1973
1974
1974
1974
1974
1974
1973
1973
1973
1973
1973
1974
1974
1975
1975
1975
1974
1974
1973
1974
1974
1975
1975
1975
1975
1974
1973
1971
1970
1970
1971
1974
1978
1982
1984
1985
1984
1982
1981
1980
1980
1980
1980
1979
1978
1976
1975
1974
1974
1974
1974
1974
1974
1975
1976
1978
1977
1974
1967
1959
1956
1964
1987
2030
2088
2145
2178
2167
2113
2037
1968
1929
1925
1943
1964
1975
1975
1970
1967
1967
1967
1968
1969
1969
1970
1970
1970
1970
1971
1971
1972
1973
1974
1975
1975
1975
1976
1976
1976
1977
1978
1979
1980
1981
1982
1983
1983
1983
1984
1985
1987
1988
1990
1991
1991
1991
1992
1992
1992
1992
1992
1992
1991
1990
1989
1986
1984
1981
1979
1977
1976
1975
1975
1974
1974
1973
1973
1972
1971
1971
1971
1972
1972
1972
1972
1972
1971
1971
1971
1971
1972
1972
1973
1974
1974
1974
1974
1973
1973
1974
1974
1975
1976
1976
1976
1976
1975
1975
1975
1976
1976
1976
1977
1977
1977
1977
1976
1976
1975
1975
1976
1976
1976
1976
1976
1976
1975
1975
1975
1975
1975
1975
1976
1976
1976
1976
1976
1976
1976
1975
1975
1976
1976
1977
1976
1976
1975
1974
1974
1974
1974
1975
1977
1978
1978
1978
1977
1976
1975
1974
1973
1973
1973
1974
1976
1980
1983
1985
1986
1985
1984
1984
1983
1983
1982
1981
1980
1978
1976
1975
1975
1976
1976
1977
1977
1976
1976
1977
1977
1977
1973
1967
1960
1959
1970
1997
2045
2102
2153
2172
2148
2085
2009
1947
1919
1924
1945
1965
1974
1973
1970
1969
1968
1968
1968
1968
1968
1968
1969
1971
1973
1974
1975
1976
1976
1976
1976
1976
1977
1977
1978
1978
1979
1979
1979
1980
1980
1981
1982
1984
1985
1986
1987
1988
1990
1991
1992
1993
1994
1994
1995
1996
1996
1996
1996
1994
1992
1989
1987
1985
1983
1981
1980
1978
1976
1974
1973
1972
1971
1971
1971
1971
1971
1971
1970
1969
1969
1968
1969
1969
1970
1970
1971
1970
1970
1969
1969
1969
1970
1971
1971
1972
1973
1973
1973
1973
1972
1971
1970
1970
1971
1972
1972
1972
1972
1972
1972
1972
1973
1973
1974
1974
1974
1973
1972
1972
1971
1970
1970
1970
1970
1971
1971
1972
1973
1973
1973
1973
1972
1972
1972
1972
1972
1972
1972
1971
1971
1970
1969
1970
1971
1972
1973
1973
1973
1972
1972
1971
1970
1970
1969
1968
1968
1969
1971
1974
1976
1978
1979
1979
1979
1979
1979
1979
1978
1976
1973
1971
1969
1968
1967
1968
1968
1969
1970
1971
1971
1971
1972
1971
1968
1962
1953
1950
1957
1982
2028
2088
2142
2166
2145
2083
2004
1935
1900
1901
1924
1949
1965
1970
1969
1968
1967
1966
1965
1965
1965
1965
1966
1967
1968
1969
1969
1970
1970
1971
1971
1972
1972
1972
1973
1975
1977
1980
1982
1982
1981
1980
1979
1980
1982
1985
1988
1991
1992
1992
1993
1994
1996
1998
2000
2001
2002
2002
2001
2000
1999
1997
1995
1992
1989
1986
1983
1980
1978
1976
1973
1970
1969
1968
1967
1967
1967
1967
1966
1966
1965
1965
1965
1965
1965
1965
1966
1966
1967
1967
1967
1967
1967
1967
1968
1969
1970
1971
1971
1970
1970
1969
1969
1969
1970
1970
1971
1972
1972
1973
1973
1972
1972
1972
1972
1972
1972
1972
1972
1971
1970
1969
1969
1969
1970
1971
1972
1973
1972
1971
1970
1970
1971
1972
1972
1973
1973
1973
1972
1972
1971
1971
1971
1971
1971
1972
1973
1973
1973
1973
1971
1970
1969
1969
1971
1974
1978
1981
1983
1983
1982
1980
1979
1978
1977
1976
1975
1974
1972
1971
1971
1970
1971
1972
1972
1973
1973
1973
1975
1976
1974
1969
1960
1952
1952
1967
2003
2057
2120
2166
2173
2132
2057
1977
1921
1904
1917
1943
1964
1972
1971
1968
1966
1965
1966
1967
1969
1970
1970
1970
1969
1969
1969
1969
1970
1971
1972
1974
1975
1976
1976
1975
1976
1976
1978
1979
1980
1981
1981
1982
1982
1983
1984
1986
1988
1990
1992
1994
1995
1996
1996
1996
1996
1996
1996
1996
1995
1994
1992
1989
1985
1982
1979
1977
1975
1973
1972
1970
1969
1968
1967
1966
1966
1965
1966
1966
1967
1967
1967
1966
1966
1966
1965
1966
1966
1967
1968
1969
1969
1969
1968
1968
1967
1968
1969
1970
1971
1972
1972
1972
1971
1971
1971
1971
1971
1972
1973
1973
1973
1973
1972
1972
1971
1971
1972
1972
1973
1973
1973
1972
1972
1972
1971
1971
1972
1972
1972
1972
1972
1972
1971
1971
1971
1971
1971
1972
1973
1973
1973
1973
1972
1972
1972
1972
1973
1973
1974
1974
1974
1973
1973
1972
1971
1970
1969
1970
1972
1975
1979
1982
1983
1983
1982
1981
1980
1980
1980
1979
1979
1977
1976
1974
1973
1973
1973
1973
1974
1974
1974
1974
1975
1975
1975
1971
1963
1956
1953
1962
1989
2038
2100
2158
2186
2168
2107
2027
1957
1922
1921
1941
1962
1973
1972
1968
1966
1966
1966
1967
1967
1967
1967
1967
1968
1968
1969
1971
1971
1972
1972
1972
1972
1973
1973
1973
1974
1975
1976
1977
1977
1978
1978
1979
1979
1981
1982
1984
1985
1987
1988
1988
1989
1989
1990
1990
1991
1992
1992
1992
1991
1989
1987
1985
1982
1980
1978
1977
1976
1975
1974
1973
1972
1971
1971
1970
1970
1971
1971
1972
1972
1971
1971
1970
1970
1970
1970
1970
1971
1971
1971
1971
1970
1970
1971
1971
1972
1973
1974
1974
1975
1974
1974
1973
1973
1973
1974
1975
1975
1976
1976
1975
1975
1974
1974
1974
1974
1975
1975
1975
1976
1976
1975
1975
1974
1974
1974
1975
1976
1976
1976
1976
1975
1974
1974
1974
1974
1975
1976
1976
1976
1976
1975
1974
1974
1974
1974
1975
1975
1976
1976
1976
1975
1975
1974
1975
1976
1976
1976
1976
1974
1973
1973
1975
1978
1981
1984
1986
1986
1986
1985
1984
1983
1982
1981
1979
1978
1977
1977
1976
1976
1976
1975
1975
1975
1975
1976
1978
1978
1976
1970
1962
1956
1959
1977
2015
2071
2132
2175
2179
2136
2062
1987
1936
1922
1935
1957
1972
1976
1972
1968
1967
1966
1965
1965
1965
1966
1967
1969
1970
1971
1971
1971
1971
1971
1972
1972
1973
1974
1974
1975
1976
1976
1976
1977
1977
1978
1979
1981
1982
1982
1983
1984
1984
1985
1986
1987
1989
1991
1992
1992
1992
1991
1990
1988
1987
1986
1984
1982
1980
1978
1976
1974
1973
1972
1971
1971
1971
1971
1971
1971
1971
1970
1969
1968
1968
1969
1969
1970
1970
1970
1969
1969
1969
1969
1970
1971
1972
1972
1972
1972
1972
1972
1972
1973
1973
1974
1974
1974
1974
1974
1974
1973
1973
1973
1974
1974
1974
1974
1974
1974
1974
1974
1973
1973
1973
1973
1974
1974
1975
1975
1975
1974
1973
1973
1972
1973
1973
1974
1974
1973
1972
1971
1971
1972
1972
1973
1973
1973
1973
1973
1973
1973
1973
1973
1973
1973
1973
1973
1973
1973
1973
1972
1971
1970
1971
1972
1975
1978
1982
1984
1985
1984
1982
1980
1979
1978
1978
1977
1977
1976
1974
1974
1973
1973
1974
1974
1974
1974
1975
1975
1976
1974
1969
1962
1955
1956
1970
2003
2055
2117
2164
2175
2139
2067
1989
1931
1910
1921
1945
1965
1973
1972
1968
1966
1965
1964
1965
1966
1966
1967
1967
1968
1968
1969
1969
1969
1969
1970
1971
1972
1972
1972
1972
1972
1972
1973
1974
1975
1976
1977
1977
1978
1978
1980
1982
1985
1988
1989
1990
1991
1991
1991
1991
1991
1991
1992
1992
1992
1991
1990
1988
1985
1982
1979
1976
1973
1971
1969
1968
1967
1966
1965
1964
1964
1964
1964
1965
1966
1967
1967
1967
1966
1965
1964
1963
1963
1963
1964
1964
1965
1964
1965
1965
1966
1968
1969
1971
1972
1973
1973
1973
1972
1971
1971
1971
1971
1971
1971
1971
1971
1971
1971
1971
1971
1972
1971
1971
1971
1970
1970
1970
1970
1970
1970
1970
1970
1970
1970
1969
1968
1968
1968
1968
1969
1969
1969
1968
1968
1968
1968
1968
1969
1969
1968
1966
1965
1965
1967
1969
1972
1975
1977
1977
1978
1978
1978
1977
1976
1973
1971
1969
1969
1970
1971
1971
1971
1970
1968
1966
1965
1963
1963
1963
1963
1960
1953
1946
1945
1958
1991
2044
2106
2152
2161
2121
2046
1965
1907
1889
1903
1931
1954
1963
1962
1958
1955
1953
1952
1953
1955
1956
1957
1957
1958
1958
1960
1961
1962
1963
1962
1962
1962
1963
1965
1967
1968
1968
1968
1968
1968
1970
1972
1975
1977
1978
1979
1981
1982
1984
1985
1987
1988
1990
1992
1994
1995
1995
1995
1994
1993
1991
1988
1984
1980
1977
1975
1973
1972
1970
1967
1963
1959
1957
1956
1955
1955
1955
1955
1955
1955
1956
1956
1956
1956
1955
1954
1955
1956
1958
1958
1958
1957
1955
1955
1956
1957
1959
1960
1961
1961
1961
1962
1962
1963
1963
1963
1963
1963
1963
1963
1963
1962
1962
1962
1962
1963
1964
1965
1966
1965
1965
1963
1962
1961
1960
1960
1961
1963
1965
1965
1965
1964
1963
1963
1964
1966
1967
1967
1966
1965
1964
1964
1963
1963
1962
1962
1963
1966
1970
1973
1976
1977
1976
1974
1972
1970
1969
1969
1970
1970
1968
1966
1963
1961
1961
1962
1964
1966
1966
1966
1966
1967
1967
1965
1959
1950
1944
1948
1968
2008
2067
2127
2164
2158
2105
2026
1948
1902
1896
1916
1942
1959
1963
1959
1957
1957
1957
1958
1958
1959
1959
1960
1960
1961
1962
1963
1964
1965
1965
1965
1965
1965
1965
1965
1966
1967
1969
1971
1972
1973
1973
1973
1974
1975
1977
1979
1980
1982
1983
1984
1985
1986
1987
1988
1989
1990
1991
1991
1990
1989
1987
1985
1981
1978
1975
1972
1970
1969
1967
1965
1963
1961
1960
1960
1960
1961
1961
1961
1961
1960
1959
1959
1958
1958
1958
1959
1960
1961
1962
1962
1961
1961
1960
1959
1960
1962
1963
1964
1964
1963
1963
1963
1964
1965
1965
1965
1965
1965
1965
1965
1965
1965
1965
1965
1965
1966
1966
1966
1966
1966
1966
1965
1965
1964
1964
1964
1965
1966
1966
1967
1966
1965
1964
1964
1964
1964
1965
1966
1967
1968
1967
1967
1966
1966
1966
1966
1966
1966
1965
1965
1965
1965
1968
1971
1974
1977
1977
1977
1976
1976
1975
1974
1973
1971
1970
1969
1969
1969
1969
1970
1970
1969
1968
1967
1967
1968
1971
1971
1968
1960
1951
1947
1956
1984
2034
2099
2158
2184
2163
2098
2016
1946
1912
1913
1935
1956
1968
1968
1965
1963
1962
1961
1961
1962
1962
1963
1964
1965
1965
1966
1966
1966
1965
1966
1966
1967
1968
1969
1970
1971
1972
1973
1973
1973
1973
1974
1975
1976
1978
1979
1981
1982
1983
1985
1985
1986
1988
1989
1991
1992
1993
1992
1991
1990
1989
1987
1986
1984
1982
1980
1977
1975
1973
1972
1971
1970
1970
1969
1969
1968
1968
1968
1969
1969
1970
1970
1971
1971
1971
1970
1970
1970
1969
1969
1970
1970
1971
1972
1973
1974
1974
1974
1973
1973
1972
1973
1974
1975
1976
1976
1976
1975
1975
1974
1975
1976
1977
1978
1979
1980
1979
1979
1978
1977
1977
1977
1978
1979
1979
1980
1980
1980
1980
1979
1979
1979
1979
1979
1979
1979
1979
1978
1978
1978
1978
1978
1979
1979
1979
1979
1979
1978
1978
1978
1978
1979
1979
1978
1977
1977
1977
1978
1980
1984
1986
1988
1988
1988
1987
1986
1985
1985
1984
1982
1981
1980
1979
1979
1979
1979
1979
1978
1978
1977
1978
1980
1981
1980
1975
1967
1959
1958
1972
2006
2063
2130
2183
2198
2164
2091
2009
1948
1924
1932
1954
1972
1979
1977
1973
1971
1970
1970
1970
1970
1971
1972
1973
1974
1975
1975
1975
1975
1975
1975
1976
1977
1979
1980
1981
1981
1981
1981
1981
1982
1983
1984
1986
1987
1988
1989
1990
1990
1991
1992
1993
1994
1995
1996
1997
1997
1997
1997
1996
1994
1993
1992
1990
1988
1986
1984
1982
1980
1979
1978
1977
1977
1977
1977
1977
1977
1977
1976
1976
1976
1976
1977
1978
1979
1980
1980
1979
1979
1978
1978
1978
1979
1980
1981
1981
1982
1982
1981
1981
1981
1981
1981
1982
1982
1983
1983
1983
1983
1982
1982
1982
1982
1982
1983
1983
1983
1982
1982
1982
1982
1982
1982
1982
1982
1982
1982
1982
1982
1981
1981
1981
1982
1982
1982
1982
1982
1981
1981
1981
1981
1981
1981
1982
1983
1983
1983
1983
1982
1981
1980
1979
1978
1978
1979
1982
1984
1987
1989
1989
1989
1988
1987
1987
1987
1987
1986
1985
1983
1981
1980
1979
1979
1980
1981
1981
1981
1981
1982
1982
1983
1980
1975
1968
1963
1965
1982
2018
2073
2136
2183
2191
2152
2079
2002
1947
1929
1940
1961
1975
1979
1975
1972
1971
1971
1971
1972
1971
1972
1972
1973
1973
1974
1975
1976
1976
1977
1977
1977
1977
1977
1977
1978
1979
1980
1981
1982
1982
1982
1982
1982
1983
1984
1986
1987
1989
1990
1991
1991
1992
1992
1993
1994
1994
1995
1994
1993
1992
1990
1988
1986
1984
1982
1980
1979
1978
1978
1977
1976
1975
1974
1974
1974
1974
1974
1975
1975
1975
1975
1974
1974
1973
1973
1974
1974
1975
1975
1975
1974
1974
1974
1974
1975
1976
1976
1977
1977
1977
1976
1976
1976
1977
1977
1978
1979
1979
1979
1979
1978
1977
1977
1977
1978
1979
1979
1980
1979
1979
1978
1977
1977
1977
1978
1978
1978
1979
1978
1978
1978
1978
1977
1978
1978
1978
1978
1978
1978
1978
1977
1977
1977
1977
1977
1978
1978
1977
1976
1975
1973
1973
1974
1977
1981
1984
1987
1988
1987
1985
1983
1982
1982
1981
1981
1980
1978
1977
1977
1976
1976
1976
1976
1975
1976
1977
1979
1980
1979
1975
1967
1959
1957
1966
1993
2040
2100
2155
2180
2160
2099
2021
1955
1923
1925
1945
1966
1976
1974
1970
1967
1966
1965
1966
1967
1968
1969
1970
1970
1970
1970
1970
1971
1972
1973
1974
1974
1975
1975
1975
1975
1975
1975
1976
1977
1978
1979
1980
1981
1982
1982
1983
1984
1985
1987
1988
1990
1991
1992
1992
1992
1991
1990
1989
1989
1988
1986
1985
1983
1980
1978
1975
1974
1972
1972
1971
1972
1972
1972
1971
1970
1969
1969
1968
1969
1969
1970
1970
1970
1970
1969
1968
1968
1968
1969
1970
1971
1972
1972
1972
1972
1972
1972
1972
1972
1972
1972
1972
1972
1973
1973
1974
1975
1975
1976
1976
1975
1975
1975
1975
1974
1973
1973
1972
1973
1973
1975
1976
1976
1976
1975
1974
1973
1973
1974
1974
1974
1974
1973
1972
1972
1972
1973
1974
1975
1975
1975
1975
1975
1974
1973
1972
1971
1971
1973
1976
1980
1982
1983
1983
1981
1979
1978
1977
1977
1977
1977
1976
1975
1974
1973
1971
1969
1968
1968
1968
1968
1970
1972
1973
1972
1968
1960
1953
1955
1972
2009
2064
2124
2164
2164
2118
2043
1966
1914
1901
1916
1941
1961
1970
1969
1967
1965
1963
1962
1962
1964
1965
1965
1966
1967
1967
1968
1968
1968
1969
1970
1971
1972
1973
1973
1972
1973
1973
1975
1976
1978
1979
1981
1982
1981
1980
1979
1980
1982
1984
1986
1988
1989
1990
1992
1994
1995
1995
1996
1997
1997
1997
1994
1990
1985
1981
1978
1977
1976
1974
1972
1970
1968
1966
1964
1963
1962
1962
1962
1963
1964
1964
1963
1962
1960
1960
1959
1960
1961
1961
1962
1963
1964
1965
1966
1966
1966
1966
1966
1966
1966
1967
1968
1969
1970
1970
1970
1970
1970
1971
1971
1971
1971
1971
1971
1970
1971
1972
1973
1974
1974
1974
1973
1972
1971
1970
1969
1969
1970
1971
1971
1971
1970
1969
1968
1968
1969
1971
1974
1977
1979
1981
1982
1982
1980
1978
1975
1973
1973
1973
1974
1974
1973
1973
1973
1974
1975
1975
1975
1975
1975
1974
1970
1963
1958
1959
1976
2013
2070
2132
2173
2170
2120
2040
1960
1909
1899
1919
1949
1971
1979
1977
1974
1972
1970
1970
1970
1971
1972
1972
1973
1975
1976
1978
1979
1978
1978
1977
1976
1978
1980
1982
1984
1984
1983
1982
1983
1984
1986
1988
1990
1992
1994
1995
1996
1997
1997
1997
1998
2001
2004
2006
2008
2008
2008
2007
2006
2003
2001
1998
1997
1995
1993
1990
1985
1978
1973
1970
1970
1971
1972
1972
1971
1969
1968
1967
1966
1966
1966
1966
1967
1967
1967
1966
1966
1965
1965
1966
1966
1968
1968
1968
1968
1969
1970
1972
1973
1973
1972
1970
1969
1969
1970
1971
1972
1972
1971
1971
1971
1972
1973
1973
1973
1973
1972
1971
1971
1971
1971
1971
1970
1970
1970
1970
1971
1972
1973
1975
1978
1980
1981
1981
1980
1978
1975
1972
1970
1968
1968
1969
1971
1972
1973
1972
1970
1969
1969
1970
1971
1970
1965
1958
1956
1967
1996
2047
2108
2159
2174
2141
2070
1988
1926
1902
1912
1938
1960
1971
1970
1968
1967
1967
1967
1968
1967
1967
1967
1967
1969
1970
1972
1973
1973
1972
1972
1971
1971
1972
1974
1975
1977
1977
1978
1978
1978
1978
1979
1980
1982
1983
1985
1987
1988
1990
1991
1992
1992
1992
1993
1994
1995
1995
1996
1995
1994
1992
1990
1987
1984
1981
1979
1976
1974
1972
1970
1969
1967
1967
1966
1966
1967
1967
1967
1967
1966
1965
1965
1965
1965
1965
1966
1966
1967
1968
1968
1969
1969
1969
1969
1969
1970
1971
1972
1972
1972
1971
1971
1971
1972
1973
1973
1973
1973
1973
1974
1974
1974
1974
1974
1974
1975
1974
1974
1973
1973
1972
1972
1972
1973
1973
1974
1974
1974
1974
1973
1972
1972
1972
1972
1972
1972
1972
1971
1971
1971
1971
1972
1974
1977
1979
1982
1983
1983
1982
1981
1979
1977
1975
1974
1973
1973
1974
1974
1975
1974
1974
1973
1973
1975
1977
1977
1972
1964
1956
1954
1967
2000
2054
2120
2171
2184
2148
2076
1995
1936
1914
1924
1947
1967
1975
1973
1970
1969
1968
1967
1968
1968
1969
1969
1970
1971
1972
1972
1972
1972
1972
1972
1972
1973
1974
1975
1976
1977
1977
1978
1978
1979
1980
1981
1983
1985
1986
1988
1988
1988
1989
1989
1991
1993
1995
1996
1998
1998
1997
1996
1994
1992
1990
1988
1987
1985
1983
1982
1980
1978
1976
1975
1974
1973
1973
1973
1972
1972
1972
1971
1971
1971
1971
1971
1971
1971
1970
1970
1971
1971
1971
1971
1972
1973
1974
1975
1975
1976
1975
1975
1975
1975
1976
1976
1976
1977
1977
1977
1977
1977
1976
1976
1975
1976
1976
1976
1977
1977
1977
1976
1976
1976
1976
1976
1976
1976
1976
1976
1976
1975
1975
1974
1974
1974
1975
1976
1976
1976
1975
1974
1974
1973
1973
1973
1973
1972
1972
1972
1973
1975
1977
1979
1981
1983
1984
1985
1984
1983
1982
1980
1978
1977
1976
1976
1976
1977
1977
1978
1978
1978
1977
1978
1979
1981
1980
1975
1967
1960
1962
1979
2017
2075
2140
2185
2189
2144
2067
1989
1936
1921
1935
1958
1975
1980
1977
1974
1973
1973
1973
1973
1973
1973
1973
1974
1975
1976
1977
1978
1978
1978
1979
1979
1979
1979
1980
1981
1982
1983
1983
1983
1983
1984
1985
1986
1987
1988
1989
1990
1992
1993
1994
1996
1997
1998
1999
2000
2000
1999
1998
1997
1996
1994
1992
1990
1989
1987
1985
1984
1982
1981
1980
1979
1979
1979
1979
1979
1980
1980
1980
1979
1979
1978
1978
1978
1979
1979
1980
1980
1979
1979
1979
1979
1979
1980
1981
1982
1982
1983
1983
1983
1982
1982
1982
1982
1983
1983
1984
1984
1983
1983
1982
1982
1982
1982
1982
1983
1983
1983
1983
1983
1983
1983
1983
1983
1983
1984
1984
1984
1983
1983
1983
1982
1983
1983
1983
1984
1984
1984
1984
1983
1983
1982
1982
1982
1983
1983
1984
1983
1982
1981
1979
1978
1978
1980
1984
1988
1991
1993
1993
1993
1991
1990
1989
1988
1987
1987
1985
1984
1983
1982
1981
1981
1981
1982
1982
1983
1983
1984
1985
1984
1979
1972
1964
1962
1972
1999
2048
2112
2169
2195
2175
2113
2034
1966
1933
1934
1954
1974
1982
1980
1975
1972
1971
1972
1973
1974
1974
1975
1975
1975
1975
1975
1976
1976
1977
1978
1979
1979
1979
1979
1979
1979
1979
1980
1982
1983
1984
1984
1985
1985
1985
1986
1987
1989
1991
1992
1994
1994
1994
1994
1994
1994
1994
1994
1994
1993
1992
1990
1987
1984
1982
1980
1979
1978
1978
1978
1978
1977
1977
1976
1975
1975
1974
1974
1975
1975
1976
1976
1976
1975
1975
1975
1975
1976
1976
1977
1978
1978
1978
1977
1977
1977
1977
1978
1978
1979
1979
1979
1978
1978
1978
1977
1978
1978
1979
1979
1979
1979
1979
1979
1979
1978
1978
1978
1979
1979
1979
1979
1979
1978
1978
1977
1977
1977
1978
1978
1979
1978
1978
1978
1977
1977
1977
1977
1977
1977
1978
1978
1978
1978
1978
1977
1977
1977
1978
1978
1979
1978
1978
1976
1975
1973
1973
1974
1976
1980
1984
1986
1987
1986
1984
1983
1982
1983
1983
1983
1982
1980
1978
1977
1976
1975
1975
1976
1976
1976
1977
1977
1978
1978
1976
1970
1963
1957
1960
1976
2012
2066
2126
2170
2176
2136
2064
1989
1937
1922
1934
1956
1972
1975
1971
1967
1966
1966
1967
1968
1968
1968
1969
1969
1969
1969
1970
1971
1972
1972
1973
1973
1973
1974
1974
1974
1974
1975
1976
1977
1978
1979
1980
1980
1981
1981
1982
1984
1985
1987
1988
1989
1990
1990
1990
1990
1990
1990
1990
1990
1990
1988
1986
1984
1981
1979
1977
1976
1975
1974
1974
1974
1973
1973
1972
1972
1971
1971
1971
1972
1972
1972
1971
1971
1971
1971
1970
1971
1971
1972
1973
1973
1973
1973
1972
1972
1972
1973
1973
1974
1974
1975
1974
1974
1974
1974
1974
1974
1975
1975
1975
1975
1975
1974
1974
1974
1973
1974
1974
1975
1975
1975
1974
1974
1973
1972
1972
1973
1973
1973
1973
1973
1973
1973
1973
1973
1973
1973
1973
1974
1974
1974
1974
1973
1973
1973
1973
1973
1974
1974
1974
1974
1974
1974
1973
1973
1972
1971
1970
1970
1970
1972
1975
1978
1980
1981
1981
1981
1980
1980
1980
1980
1978
1976
1974
1973
1972
1972
1973
1973
1974
1973
1973
1972
1973
1974
1974
1972
1966
1959
1955
1961
1981
2021
2076
2132
2166
2158
2108
2035
1965
1924
1918
1935
1956
1969
1971
1967
1965
1965
1965
1965
1965
1965
1965
1965
1965
1966
1968
1969
1970
1971
1971
1971
1970
1971
1971
1972
1973
1974
1975
1976
1976
1976
1977
1977
1978
1979
1981
1982
1983
1984
1985
1985
1986
1987
1988
1989
1990
1991
1991
1990
1989
1986
1984
1982
1980
1978
1977
1975
1974
1973
1972
1971
1970
1969
1968
1969
1969
1969
1969
1969
1968
1968
1967
1967
1967
1967
1968
1968
1969
1969
1969
1969
1969
1969
1969
1970
1971
1972
1972
1972
1972
1971
1971
1971
1971
1971
1972
1973
1973
1973
1973
1973
1972
1972
1972
1972
1973
1973
1973
1973
1973
1973
1972
1972
1971
1972
1972
1973
1974
1974
1973
1972
1972
1971
1971
1972
1973
1974
1974
1974
1974
1973
1972
1972
1972
1972
1973
1974
1974
1974
1974
1973
1972
1972
1973
1973
1974
1974
1974
1973
1972
1970
1969
1970
1973
1976
1980
1983
1984
1984
1982
1981
1979
1979
1978
1977
1977
1976
1975
1974
1973
1973
1973
1973
1973
1973
1974
1975
1977
1977
1973
1965
1957
1954
1963
1988
2034
2092
2145
2168
2148
2088
2013
1950
1919
1921
1942
1964
1974
1974
1970
1967
1965
1964
1965
1966
1967
1968
1969
1969
1969
1969
1969
1969
1970
1971
1972
1973
1973
1974
1975
1975
1975
1976
1976
1977
1978
1980
1981
1982
1983
1983
1983
1983
1985
1987
1988
1990
1990
1991
1991
1992
1992
1992
1991
1990
1989
1988
1987
1985
1983
1980
1977
1974
1972
1971
1971
1970
1970
1969
1968
1967
1967
1967
1967
1968
1968
1968
1968
1968
1968
1968
1968
1968
1968
1968
1969
1969
1970
1970
1970
1970
1969
1969
1970
1971
1972
1973
1974
1974
1974
1973
1972
1972
1971
1972
1973
1973
1974
1974
1974
1973
1972
1972
1971
1971
1972
1972
1973
1973
1974
1974
1973
1973
1972
1971
1971
1971
1971
1972
1972
1972
1972
1972
1972
1972
1972
1973
1972
1972
1972
1971
1971
1971
1971
1970
1970
1970
1970
1970
1970
1970
1972
1974
1977
1980
1982
1982
1981
1980
1978
1978
1977
1976
1974
1973
1973
1972
1972
1972
1972
1972
1971
1970
1969
1970
1972
1973
1972
1967
1959
1952
1954
1972
2011
2068
2128
2164
2158
2106
2029
1954
1907
1899
1918
1944
1963
1970
1969
1966
1965
1963
1963
1963
1964
1965
1966
1967
1968
1969
1970
1970
1970
1970
1970
1971
1972
1973
1974
1975
1976
1975
1975
1975
1975
1977
1978
1981
1983
1984
1986
1987
1987
1988
1990
1992
1994
1996
1996
1996
1994
1993
1993
1993
1994
1993
1992
1989
1986
1983
1980
1978
1975
1973
1970
1968
1967
1966
1965
1964
1964
1962
1961
1960
1960
1961
1962
1963
1963
1962
1961
1961
1960
1960
1961
1962
1962
1963
1963
1963
1964
1964
1964
1964
1965
1965
1966
1967
1967
1967
1966
1964
1964
1963
1963
1964
1964
1965
1966
1967
1968
1968
1967
1966
1965
1964
1964
1964
1965
1965
1964
1963
1962
1962
1962
1963
1965
1967
1968
1968
1967
1966
1965
1964
1964
1965
1966
1967
1968
1968
1968
1967
1966
1965
1965
1965
1966
1968
1970
1974
1977
1978
1977
1976
1975
1974
1974
1975
1974
1973
1971
1969
1967
1967
1967
1968
1969
1969
1970
1970
1969
1970
1970
1968
1963
1956
1949
1951
1967
2002
2056
2116
2159
2162
2120
2045
1967
1913
1898
1913
1939
1960
1968
1967
1964
1963
1962
1962
1964
1965
1966
1966
1966
1965
1966
1967
1968
1969
1969
1969
1969
1969
1970
1970
1971
1972
1973
1974
1976
1976
1977
1977
1977
1978
1980
1982
1984
1986
1988
1989
1990
1991
1991
1992
1993
1994
1994
1995
1994
1993
1991
1989
1986
1984
1981
1978
1976
1973
1971
1969
1967
1966
1965
1964
1964
1963
1963
1963
1963
1963
1962
1962
1962
1962
1962
1962
1963
1963
1964
1963
1963
1962
1962
1962
1963
1964
1965
1966
1967
1967
1967
1966
1966
1966
1967
1967
1967
1968
1968
1968
1968
1967
1967
1967
1967
1967
1968
1968
1969
1969
1968
1968
1968
1967
1968
1968
1969
1969
1969
1969
1969
1969
1970
1970
1970
1970
1971
1971
1972
1972
1972
1971
1970
1970
1970
1971
1973
1973
1973
1973
1972
1971
1970
1969
1968
1969
1970
1974
1977
1981
1982
1982
1981
1979
1978
1978
1978
1979
1978
1977
1975
1973
1971
1971
1971
1972
1973
1973
1973
1974
1974
1975
1974
1970
1963
1955
1952
1961
1987
2033
2094
2150
2178
2160
2100
2020
1951
1916
1916
1937
1959
1971
1972
1968
1966
1966
1966
1967
1967
1968
1968
1968
1968
1969
1970
1971
1972
1973
1973
1974
1974
1974
1973
1973
1974
1975
1976
1977
1979
1980
1980
1981
1981
1982
1983
1984
1986
1988
1990
1991
1991
1992
1992
1993
1993
1994
1994
1994
1993
1992
1990
1988
1986
1983
1981
1979
1978
1977
1976
1975
1974
1973
1972
1971
1971
1971
1972
1972
1972
1972
1972
1971
1971
1970
1970
1970
1971
1972
1972
1973
1973
1973
1972
1973
1973
1974
1975
1976
1976
1976
1976
1976
1975
1975
1975
1976
1977
1978
1978
1978
1978
1977
1977
1976
1976
1977
1977
1977
1977
1977
1977
1976
1975
1975
1975
1975
1976
1976
1977
1976
1976
1975
1974
1974
1975
1975
1976
1976
1976
1976
1976
1975
1975
1975
1975
1976
1976
1977
1977
1977
1977
1977
1976
1975
1975
1975
1974
1974
1974
1974
1976
1979
1982
1985
1985
1985
1984
1984
1983
1983
1983
1982
1981
1979
1978
1978
1977
1977
1976
1976
1976
1976
1976
1977
1979
1979
1977
1972
1964
1958
1961
1977
2013
2068
2131
2176
2183
2142
2069
1992
1939
1923
1935
1957
1973
1977
1974
1970
1969
1969
1969
1969
1969
1969
1969
1970
1971
1972
1973
1973
1973
1972
1972
1972
1973
1974
1975
1976
1977
1977
1977
1977
1978
1978
1980
1981
1983
1984
1984
1985
1986
1986
1987
1989
1990
1991
1992
1993
1994
1993
1993
1992
1990
1988
1987
1985
1983
1981
1979
1978
1976
1975
1974
1973
1973
1973
1973
1973
1974
1974
1974
1974
1973
1973
1972
1972
1972
1973
1973
1974
1974
1974
1973
1973
1973
1974
1974
1975
1976
1976
1976
1975
1975
1975
1975
1976
1976
1977
1977
1977
1977
1976
1976
1976
1976
1976
1977
1977
1977
1977
1977
1976
1975
1975
1975
1975
1976
1976
1976
1976
1976
1975
1975
1975
1975
1975
1975
1975
1976
1976
1976
1975
1975
1974
1974
1974
1975
1976
1976
1976
1976
1976
1975
1975
1975
1975
1975
1975
1975
1974
1973
1972
1973
1976
1979
1983
1985
1986
1985
1983
1981
1981
1980
1980
1979
1978
1977
1976
1975
1975
1975
1974
1974
1974
1974
1975
1976
1976
1975
1971
1964
1957
1955
1965
1991
2039
2098
2153
2179
2160
2099
2022
1954
1921
1921
1942
1963
1974
1974
1970
1968
1966
1965
1965
1966
1967
1968
1969
1969
1970
1970
1970
1970
1970
1971
1972
1973
1974
1974
1975
1975
1975
1975
1976
1977
1978
1979
1980
1981
1982
1982
1983
1984
1985
1987
1988
1989
1990
1991
1991
1992
1992
1992
1991
1990
1989
1988
1986
1984
1981
1979
1977
1975
1974
1973
1972
1971
1970
1969
1968
1968
1968
1967
1967
1967
1967
1967
1968
1968
1968
1967
1966
1966
1966
1967
1968
1969
1969
1969
1969
1969
1969
1969
1969
1969
1970
1971
1972
1972
1972
1972
1972
1972
1972
1972
1971
1971
1971
1971
1971
1971
1971
1970
1970
1970
1970
1971
1972
1972
1971
1970
1970
1970
1970
1970
1971
1971
1971
1971
1971
1970
1970
1969
1969
1969
1970
1970
1971
1971
1972
1971
1970
1969
1968
1968
1970
1973
1977
1980
1981
1980
1979
1978
1977
1977
1976
1976
1975
1974
1973
1972
1971
1970
1970
1970
1970
1970
1970
1969
1970
1971
1971
1969
1963
1955
1949
1953
1973
2013
2071
2132
2168
2161
2108
2029
1953
1907
1900
1919
1946
1964
1970
1968
1965
1964
1963
1963
1964
1964
1965
1965
1965
1966
1967
1969
1971
1972
1972
1973
1973
1973
1973
1973
1973
1974
1974
1976
1978
1979
1981
1981
1981
1980
1981
1982
1985
1987
1990
1992
1993
1994
1995
1996
1997
1998
1999
2000
1999
1998
1996
1994
1991
1988
1985
1981
1976
1973
1970
1967
1965
1964
1962
1961
1961
1960
1960
1960
1960
1960
1960
1960
1959
1958
1958
1957
1956
1957
1958
1959
1960
1960
1959
1958
1957
1958
1959
1962
1963
1964
1964
1963
1962
1962
1962
1962
1963
1964
1965
1965
1965
1965
1964
1964
1964
1964
1964
1965
1965
1965
1965
1965
1964
1964
1963
1962
1962
1963
1963
1964
1964
1964
1964
1963
1963
1963
1964
1964
1966
1966
1966
1966
1965
1964
1964
1964
1964
1963
1963
1963
1964
1966
1968
1971
1974
1975
1975
1974
1973
1972
1972
1972
1971
1970
1969
1967
1966
1965
1965
1965
1966
1966
1966
1965
1965
1965
1967
1968
1967
1962
1954
1946
1947
1965
2005
2064
2127
2167
2164
2113
2034
1956
1908
1898
1916
1941
1960
1966
1964
1962
1961
1960
1959
1959
1960
1961
1962
1964
1965
1966
1966
1966
1965
1965
1965
1966
1967
1969
1971
1972
1973
1973
1973
1972
1972
1973
1975
1977
1978
1980
1981
1982
1983
1984
1986
1987
1989
1991
1992
1993
1994
1994
1993
1992
1991
1989
1988
1986
1984
1982
1978
1975
1971
1968
1966
1965
1964
1963
1963
1963
1963
1962
1962
1962
1962
1962
1962
1963
1963
1963
1963
1963
1963
1962
1962
1962
1962
1963
1964
1965
1966
1966
1966
1966
1966
1967
1968
1968
1969
1969
1968
1968
1968
1968
1968
1969
1970
1971
1971
1971
1971
1970
1969
1968
1968
1968
1968
1969
1970
1971
1972
1972
1971
1970
1969
1969
1969
1970
1971
1971
1971
1970
1970
1969
1970
1970
1971
1972
1972
1972
1972
1972
1971
1971
1971
1971
1972
1972
1972
1972
1971
1970
1969
1969
1972
1976
1981
1984
1985
1983
1981
1978
1976
1976
1976
1977
1977
1976
1975
1974
1973
1972
1971
1970
1970
1970
1970
1971
1972
1974
1975
1973
1967
1958
1950
1951
1967
2004
2062
2127
2176
2184
2145
2069
1989
1932
1913
1925
1948
1966
1972
1969
1965
1964
1963
1963
1964
1965
1966
1966
1967
1967
1967
1967
1967
1968
1969
1970
1971
1972
1972
1973
1973
1973
1974
1974
1975
1976
1977
1978
1978
1979
1980
1980
1982
1983
1984
1986
1988
1989
1990
1991
1991
1991
1991
1991
1991
1991
1990
1989
1987
1984
1981
1978
1976
1974
1973
1972
1971
1971
1971
1970
1970
1969
1969
1969
1969
1970
1970
1970
1970
1970
1969
1968
1968
1968
1968
1969
1970
1971
1971
1971
1971
1971
1971
1971
1972
1973
1973
1974
1974
1974
1974
1974
1973
1973
1974
1974
1975
1975
1975
1975
1975
1974
1974
1974
1974
1975
1975
1976
1976
1975
1975
1974
1973
1973
1974
1974
1975
1975
1975
1975
1974
1974
1974
1974
1975
1975
1976
1977
1976
1976
1975
1974
1974
1975
1975
1976
1977
1977
1977
1977
1976
1976
1976
1975
1976
1976
1975
1975
1973
1973
1974
1977
1981
1984
1986
1986
1985
1983
1982
1981
1981
1981
1981
1980
1979
1978
1977
1977
1976
1976
1976
1975
1975
1975
1975
1977
1979
1978
1975
1968
1960
1955
1961
1984
2028
2089
2151
2189
2182
2129
2050
1976
1932
1925
1942
1963
1975
1976
1972
1969
1967
1966
1966
1966
1967
1969
1970
1971
1971
1971
1971
1971
1971
1971
1972
1974
1975
1976
1977
1977
1977
1977
1978
1978
1979
1980
1982
1983
1984
1984
1985
1986
1986
1987
1989
1990
1992
1993
1994
1994
1994
1993
1993
1992
1992
1991
1989
1988
1986
1983
1981
1979
1977
1976
1976
1976
1976
1976
1976
1976
1975
1975
1974
1974
1974
1975
1975
1976
1976
1975
1975
1974
1974
1974
1974
1975
1976
1977
1977
1977
1977
1976
1976
1976
1977
1978
1978
1979
1979
1979
1979
1978
1978
1978
1979
1980
1980
1981
1980
1980
1979
1979
1978
1978
1979
1980
1981
1981
1981
1981
1980
1979
1979
1979
1979
1980
1980
1980
1980
1980
1979
1978
1978
1978
1979
1979
1980
1980
1979
1979
1978
1978
1978
1979
1979
1979
1980
1980
1980
1980
1979
1979
1978
1978
1979
1979
1979
1978
1977
1976
1977
1980
1984
1987
1989
1989
1988
1986
1985
1985
1984
1984
1983
1982
1981
1980
1979
1978
1978
1978
1977
1977
1977
1977
1978
1980
1981
1980
1975
1967
1960
1960
1974
2006
2058
2121
2171
2185
2153
2084
2006
1947
1924
1932
1954
1972
1978
1975
1971
1969
1969
1969
1969
1970
1971
1972
1973
1974
1974
1974
1975
1975
1975
1975
1976
1977
1977
1978
1978
1979
1979
1979
1980
1981
1982
1983
1984
1985
1986
1987
1988
1989
1989
1990
1992
1993
1994
1996
1997
1997
1997
1996
1995
1994
1992
1991
1989
1987
1985
1983
1980
1978
1977
1976
1975
1976
1976
1976
1976
1975
1974
1973
1972
1972
1973
1973
1974
1974
1974
1974
1973
1972
1972
1972
1973
1975
1975
1976
1976
1976
1975
1975
1975
1975
1975
1976
1977
1977
1978
1978
1977
1977
1976
1976
1977
1978
1979
1979
1979
1979
1978
1978
1978
1977
1977
1978
1978
1978
1978
1978
1978
1977
1976
1976
1977
1977
1978
1978
1978
1978
1977
1977
1977
1977
1977
1977
1978
1978
1978
1978
1978
1977
1977
1977
1977
1978
1978
1978
1978
1978
1978
1977
1976
1975
1974
1974
1974
1976
1980
1983
1986
1987
1986
1984
1983
1982
1982
1983
1983
1981
1980
1978
1976
1975
1976
1976
1977
1977
1977
1976
1976
1976
1977
1977
1975
1969
1961
1956
1961
1980
2019
2075
2134
2171
2168
2121
2047
1974
1928
1919
1934
1957
1971
1974
1971
1969
1968
1968
1968
1968
1968
1968
1968
1969
1969
1971
1972
1973
1973
1973
1973
1973
1973
1973
1974
1975
1976
1977
1978
1978
1979
1979
1980
1980
1982
1983
1985
1986
1987
1988
1989
1989
1990
1991
1992
1993
1994
1994
1994
1993
1991
1989
1987
1985
1983
1981
1979
1977
1976
1974
1972
1971
1970
1970
1970
1970
1970
1970
1970
1970
1969
1969
1968
1968
1969
1969
1970
1970
1970
1970
1970
1969
1969
1969
1969
1970
1971
1972
1972
1971
1971
1970
1970
1971
1971
1972
1973
1974
1974
1974
1973
1973
1972
1972
1972
1972
1973
1973
1973
1973
1972
1972
1971
1971
1971
1971
1972
1972
1972
1972
1971
1971
1970
1970
1971
1971
1972
1972
1972
1972
1972
1971
1971
1971
1972
1972
1973
1973
1973
1973
1972
1972
1972
1972
1972
1972
1972
1972
1971
1970
1969
1971
1973
1977
1980
1982
1983
1981
1980
1979
1978
1978
1977
1977
1976
1975
1974
1973
1973
1972
1972
1971
1971
1971
1972
1974
1976
1976
1972
1965
1957
1953
1960
1983
2026
2084
2140
2171
2159
2105
2028
1959
1920
1917
1936
1959
1973
1974
1971
1968
1966
1965
1965
1966
1967
1968
1968
1969
1969
1970
1970
1970
1970
1971
1972
1973
1974
1975
1975
1975
1975
1975
1976
1977
1978
1979
1980
1981
1982
1983
1984
1985
1986
1987
1988
1990
1992
1993
1993
1994
1994
1993
1993
1992
1992
1991
1989
1987
1984
1982
1979
1977
1975
1973
1972
1972
1972
1972
1972
1971
1970
1970
1969
1969
1969
1969
1969
1970
1969
1969
1969
1968
1968
1968
1969
1970
1970
1970
1970
1970
1970
1970
1970
1971
1971
1972
1973
1973
1974
1974
1974
1973
1973
1973
1973
1974
1975
1975
1975
1975
1974
1973
1973
1973
1973
1974
1974
1975
1974
1974
1973
1973
1972
1972
1973
1973
1973
1974
1974
1974
1973
1973
1973
1972
1973
1973
1974
1974
1974
1974
1973
1973
1973
1973
1973
1974
1974
1975
1975
1974
1973
1972
1971
1970
1969
1971
1973
1977
1981
1983
1984
1982
1981
1979
1979
1979
1979
1979
1978
1976
1975
1973
1973
1973
1973
1973
1974
1974
1974
1975
1976
1976
1973
1967
1959
1955
1960
1980
2020
2075
2132
2167
2162
2113
2040
1969
1925
1918
1934
1957
1971
1974
1970
1967
1966
1966
1967
1968
1968
1969
1968
1968
1969
1969
1970
1972
1973
1974
1974
1974
1974
1975
1975
1976
1977
1978
1979
1980
1980
1981
1981
1981
1982
1983
1985
1987
1988
1990
1991
1992
1993
1993
1993
1993
1993
1994
1995
1995
1994
1992
1990
1988
1985
1984
1982
1981
1979
1978
1977
1976
1975
1974
1973
1973
1973
1974
1975
1975
1975
1974
1973
1972
1972
1972
1973
1973
1974
1975
1975
1975
1974
1974
1974
1975
1975
1976
1976
1976
1975
1975
1975
1975
1975
1975
1975
1975
1976
1976
1976
1975
1975
1975
1975
1976
1977
1977
1976
1976
1976
1976
1976
1976
1976
1975
1975
1975
1975
1975
1975
1975
1976
1977
1977
1978
1978
1978
1978
1978
1978
1978
1977
1977
1977
1977
1977
1978
1978
1978
1978
1978
1977
1976
1975
1975
1976
1978
1981
1985
1987
1987
1986
1984
1983
1983
1983
1983
1982
1981
1979
1978
1977
1976
1976
1976
1976
1976
1976
1976
1977
1978
1979
1977
1972
1964
1958
1960
1977
2014
2069
2128
2167
2165
2118
2043
1967
1919
1908
1925
1951
1970
1976
1974
1971
1969
1968
1968
1969
1970
1970
1970
1970
1969
1969
1970
1971
1973
1975
1976
1977
1977
1976
1976
1976
1977
1978
1980
1981
1982
1982
1983
1983
1983
1984
1986
1988
1990
1992
1994
1995
1995
1996
1996
1997
1998
2000
2002
2002
2002
2000
1996
1993
1989
1986
1984
1981
1980
1978
1976
1974
1972
1971
1970
1969
1969
1969
1968
1969
1969
1969
1969
1968
1968
1967
1967
1967
1967
1967
1968
1969
1969
1969
1968
1968
1968
1969
1970
1971
1971
1971
1971
1970
1971
1971
1972
1973
1974
1974
1974
1974
1974
1973
1972
1971
1971
1971
1972
1973
1974
1973
1973
1972
1971
1970
1970
1970
1971
1972
1972
1973
1972
1971
1970
1971
1971
1972
1973
1973
1972
1970
1968
1966
1965
1965
1966
1969
1973
1978
1981
1982
1980
1978
1976
1975
1975
1975
1976
1975
1973
1971
1970
1969
1968
1967
1967
1968
1969
1971
1972
1973
1974
1971
1965
1957
1950
1950
1964
1996
2048
2109
2156
2166
2129
2057
1978
1920
1899
1910
1935
1956
1966
1966
1965
1964
1964
1963
1964
1965
1966
1967
1967
1967
1967
1966
1966
1967
1967
1969
1970
1972
1972
1972
1972
1972
1972
1974
1977
1979
1980
1980
1980
1980
1981
1983
1985
1987
1988
1989
1990
1993
1997
2000
2001
2000
1999
1999
1999
1999
1999
1998
1995
1991
1986
1982
1979
1977
1976
1974
1974
1972
1971
1969
1967
1965
1964
1963
1963
1963
1964
1964
1963
1962
1962
1962
1962
1963
1964
1964
1965
1965
1965
1965
1965
1965
1965
1965
1965
1965
1966
1966
1967
1968
1968
1968
1967
1967
1967
1967
1968
1969
1970
1970
1970
1969
1969
1969
1969
1969
1969
1969
1969
1969
1968
1966
1965
1965
1966
1968
1969
1969
1969
1968
1967
1967
1967
1967
1966
1965
1965
1967
1969
1972
1975
1977
1978
1977
1976
1974
1973
1973
1972
1972
1971
1970
1969
1968
1968
1968
1968
1968
1967
1967
1966
1967
1968
1969
1967
1962
1954
1948
1951
1971
2012
2071
2133
2171
2165
2112
2032
1954
1907
1899
1918
1944
1962
1968
1966
1964
1963
1962
1961
1962
1962
1963
1964
1965
1966
1966
1967
1967
1967
1967
1968
1968
1969
1970
1971
1972
1973
1973
1974
1974
1975
1976
1977
1979
1981
1982
1984
1985
1986
1987
1988
1989
1991
1993
1995
1997
1998
1999
1999
1998
1996
1994
1992
1989
1987
1984
1982
1979
1976
1974
1972
1970
1968
1966
1966
1965
1966
1966
1965
1965
1965
1964
1964
1965
1965
1966
1966
1966
1965
1965
1965
1965
1965
1966
1967
1968
1968
1968
1968
1968
1968
1968
1968
1968
1969
1970
1971
1971
1972
1971
1971
1971
1971
1972
1972
1972
1972
1971
1971
1970
1970
1970
1970
1970
1971
1971
1971
1971
1971
1970
1970
1969
1970
1970
1971
1972
1973
1973
1972
1972
1971
1970
1969
1969
1968
1969
1971
1974
1978
1980
1982
1982
1981
1980
1980
1979
1978
1977
1976
1975
1974
1973
1972
1973
1974
1976
1976
1977
1977
1977
1978
1978
1977
1972
1965
1958
1959
1975
2010
2066
2130
2179
2188
2150
2075
1996
1938
1919
1930
1953
1970
1976
1973
1970
1969
1969
1970
1970
1970
1970
1970
1970
1971
1972
1973
1974
1975
1975
1975
1975
1975
1976
1976
1977
1978
1979
1979
1980
1980
1980
1980
1981
1982
1984
1985
1987
1988
1989
1990
1990
1991
1991
1992
1993
1994
1995
1995
1994
1993
1991
1988
1986
1983
1982
1980
1979
1977
1976
1974
1973
1972
1971
1971
1971
1971
1971
1971
1971
1971
1970
1970
1969
1969
1969
1970
1971
1971
1971
1971
1970
1970
1970
1970
1970
1971
1972
1973
1973
1973
1973
1973
1973
1973
1973
1974
1974
1974
1975
1975
1974
1974
1974
1974
1975
1975
1975
1975
1976
1975
1975
1975
1975
1975
1975
1976
1976
1976
1976
1976
1975
1975
1974
1974
1975
1975
1975
1976
1976
1976
1976
1975
1975
1975
1975
1975
1974
1973
1972
1972
1973
1975
1978
1982
1985
1986
1986
1986
1985
1983
1982
1981
1980
1979
1978
1978
1978
1977
1977
1977
1976
1976
1976
1976
1977
1979
1980
1978
1972
1964
1958
1960
1976
2013
2070
2134
2183
2193
2154
2080
2001
1944
1925
1936
1957
1974
1978
1974
1970
1969
1968
1967
1967
1968
1968
1969
1970
1971
1972
1972
1972
1972
1973
1973
1974
1975
1976
1977
1977
1977
1977
1977
1978
1979
1980
1981
1983
1984
1985
1985
1985
1986
1987
1988
1989
1991
1992
1993
1994
1993
1993
1992
1991
1990
1989
1988
1987
1985
1983
1980
1978
1976
1974
1974
1974
1974
1974
1974
1974
1973
1973
1972
1972
1972
1973
1974
1974
1974
1974
1973
1973
1973
1973
1973
1974
1974
1975
1975
1975
1975
1975
1975
1975
1975
1976
1976
1977
1977
1977
1977
1976
1976
1976
1976
1977
1977
1978
1978
1978
1978
1977
1976
1975
1975
1976
1976
1977
1978
1978
1977
1977
1977
1976
1977
1977
1978
1978
1978
1978
1978
1977
1977
1976
1976
1977
1977
1978
1978
1978
1978
1978
1977
1977
1977
1977
1977
1976
1975
1974
1974
1976
1979
1982
1985
1987
1988
1987
1986
1985
1984
1984
1982
1981
1980
1979
1978
1978
1978
1978
1978
1977
1977
1977
1977
1978
1979
1979
1975
1968
1961
1959
1969
1996
2045
2106
2162
2188
2167
2104
2025
1959
1927
1929
1949
1969
1978
1977
1973
1970
1969
1968
1968
1968
1968
1969
1970
1971
1972
1972
1972
1972
1973
1973
1973
1974
1975
1976
1977
1977
1978
1978
1978
1978
1979
1979
1981
1982
1983
1984
1985
1986
1986
1987
1988
1989
1991
1992
1994
1994
1994
1994
1993
1992
1991
1989
1988
1986
1984
1982
1980
1977
1976
1974
1974
1973
1973
1973
1973
1973
1973
1972
1972
1972
1972
1972
1973
1973
1973
1973
1972
1972
1972
1972
1972
1973
1974
1974
1975
1975
1975
1975
1975
1975
1975
1976
1976
1977
1977
1977
1977
1977
1977
1977
1977
1977
1978
1979
1979
1979
1978
1978
1977
1977
1977
1978
1978
1979
1979
1978
1978
1977
1977
1977
1977
1977
1978
1978
1979
1979
1978
1978
1977
1977
1977
1977
1978
1979
1979
1979
1979
1978
1978
1978
1978
1978
1978
1978
1977
1975
1975
1976
1978
1981
1985
1987
1988
1988
1987
1986
1986
1985
1984
1983
1981
1980
1979
1979
1979
1979
1978
1978
1977
1977
1977
1979
1980
1980
1977
1971
1963
1959
1967
1991
2036
2095
2151
2180
2165
2108
2031
1962
1925
1924
1944
1965
1977
1977
1973
1970
1969
1968
1968
1968
1969
1969
1970
1971
1972
1972
1973
1973
1973
1973
1974
1974
1975
1976
1977
1978
1978
1978
1978
1978
1978
1979
1981
1982
1984
1985
1985
1986
1986
1987
1989
1990
1992
1993
1994
1994
1994
1993
1992
1992
1991
1989
1988
1986
1984
1982
1979
1977
1975
1973
1972
1972
1972
1972
1972
1972
1972
1971
1970
1970
1970
1970
1970
1970
1971
1971
1971
1970
1970
1970
1970
1970
1971
1972
1972
1973
1973
1973
1973
1973
1973
1973
1974
1974
1974
1974
1974
1974
1973
1973
1974
1974
1975
1976
1976
1976
1976
1975
1974
1974
1974
1975
1975
1976
1976
1976
1975
1974
1974
1974
1974
1974
1975
1975
1976
1975
1975
1974
1974
1974
1974
1975
1976
1976
1976
1976
1975
1975
1974
1974
1974
1974
1973
1972
1972
1973
1975
1977
1980
1983
1984
1984
1984
1983
1982
1982
1981
1979
1978
1976
1975
1974
1975
1975
1975
1975
1975
1974
1973
1974
1975
1976
1974
1969
1962
1958
1962
1982
2021
2077
2134
2170
2164
2115
2041
1970
1927
1920
1937
1959
1972
1975
1971
1969
1968
1968
1967
1967
1966
1966
1967
1968
1970
1971
1972
1972
1972
1972
1972
1972
1973
1974
1975
1976
1977
1977
1978
1978
1978
1979
1980
1981
1982
1984
1985
1986
1987
1988
1988
1989
1990
1992
1993
1994
1995
1995
1994
1992
1991
1989
1987
1985
1983
1981
1979
1977
1975
1973
1972
1971
1970
1970
1970
1970
1971
1970
1970
1969
1968
1968
1968
1968
1969
1970
1970
1970
1970
1969
1969
1969
1969
1970
1971
1972
1972
1972
1972
1972
1972
1972
1972
1973
1973
1974
1975
1975
1974
1974
1973
1973
1973
1973
1974
1974
1975
1975
1974
1974
1973
1973
1973
1973
1973
1974
1974
1974
1974
1974
1973
1973
1973
1973
1974
1974
1975
1975
1974
1974
1973
1973
1973
1973
1974
1974
1975
1975
1975
1974
1973
1971
1970
1970
1971
1974
1977
1980
1983
1983
1982
1981
1980
1980
1980
1980
1979
1977
1976
1974
1972
1972
1972
1972
1973
1973
1974
1974
1974
1975
1975
1973
1967
1960
1956
1960
1978
2014
2068
2125
2162
2161
2116
2044
1972
1926
1917
1933
1956
1971
1974
1969
1966
1965
1965
1965
1966
1966
1966
1966
1966
1967
1968
1968
1969
1970
1971
1972
1972
1972
1972
1972
1973
1974
1975
1976
1977
1978
1978
1979
1979
1980
1981
1982
1984
1986
1987
1988
1989
1989
1990
1990
1990
1991
1992
1992
1992
1991
1989
1987
1984
1982
1979
1977
1976
1974
1973
1972
1971
1970
1969
1969
1968
1968
1968
1968
1969
1969
1968
1968
1967
1967
1967
1967
1968
1969
1969
1970
1969
1969
1969
1969
1970
1970
1971
1972
1973
1973
1973
1972
1972
1971
1972
1972
1973
1974
1974
1974
1974
1973
1972
1972
1972
1972
1973
1974
1974
1975
1974
1974
1973
1973
1973
1973
1973
1974
1974
1975
1974
1974
1973
1973
1973
1973
1973
1974
1974
1974
1974
1974
1974
1974
1974
1975
1975
1975
1974
1972
1971
1971
1972
1975
1979
1982
1984
1985
1985
1983
1982
1982
1981
1980
1979
1978
1977
1976
1976
1976
1976
1976
1975
1974
1974
1975
1977
1978
1977
1972
1965
1959
1962
1978
2014
2067
2125
2165
2166
2123
2050
1977
1929
1917
1933
1957
1975
1980
1977
1974
1972
1971
1971
1971
1971
1971
1972
1973
1975
1976
1978
1978
1978
1978
1978
1978
1979
1979
1980
1980
1981
1981
1981
1982
1982
1983
1984
1986
1988
1990
1991
1991
1991
1992
1993
1994
1996
1997
1998
1998
1998
1998
1998
1998
1998
1997
1995
1993
1990
1987
1984
1982
1980
1978
1977
1976
1975
1975
1974
1974
1973
1972
1971
1970
1969
1969
1969
1970
1971
1972
1973
1973
1972
1971
1971
1971
1972
1974
1975
1976
1975
1974
1973
1972
1973
1974
1975
1976
1976
1976
1976
1976
1976
1976
1977
1977
1977
1977
1976
1976
1976
1976
1976
1975
1975
1974
1975
1975
1976
1977
1977
1976
1974
1973
1973
1973
1974
1975
1976
1977
1977
1976
1974
1972
1970
1971
1973
1976
1979
1982
1983
1984
1983
1982
1981
1980
1980
1980
1980
1978
1977
1975
1973
1973
1973
1973
1974
1974
1974
1974
1975
1976
1975
1972
1965
1957
1956
1967
1998
2048
2109
2155
2166
2131
2061
1983
1925
1903
1913
1938
1960
1971
1972
1970
1970
1969
1969
1970
1971
1972
1972
1972
1972
1972
1973
1975
1977
1978
1978
1977
1976
1976
1976
1977
1978
1980
1981
1982
1984
1985
1986
1986
1986
1986
1987
1989
1992
1995
1998
2000
2000
2000
2001
2001
2003
2005
2006
2006
2005
2004
2002
2000
1997
1993
1989
1985
1982
1980
1979
1978
1976
1973
1970
1968
1968
1968
1969
1970
1970
1969
1968
1967
1966
1966
1966
1966
1967
1968
1968
1969
1969
1969
1968
1968
1969
1969
1970
1971
1972
1972
1971
1970
1970
1970
1970
1971
1971
1972
1972
1972
1972
1972
1972
1971
1971
1971
1971
1971
1971
1971
1971
1971
1971
1971
1970
1970
1970
1970
1970
1969
1968
1967
1967
1967
1969
1971
1974
1976
1979
1980
1981
1980
1978
1975
1973
1972
1972
1972
1972
1972
1972
1972
1971
1971
1970
1970
1971
1973
1974
1972
1966
1958
1951
1955
1976
2017
2076
2135
2168
2158
2102
2022
1948
1905
1901
1922
1948
1965
1970
1968
1966
1966
1965
1965
1966
1967
1968
1968
1969
1969
1969
1968
1968
1968
1969
1970
1971
1972
1973
1974
1975
1975
1975
1976
1977
1978
1980
1982
1983
1984
1984
1985
1986
1987
1988
1990
1992
1994
1996
1998
1999
1998
1998
1997
1997
1996
1995
1994
1991
1988
1985
1981
1978
1974
1972
1970
1970
1969
1968
1967
1966
1965
1964
1964
1964
1965
1965
1965
1965
1965
1965
1965
1964
1964
1965
1965
1966
1966
1967
1967
1967
1967
1967
1967
1967
1968
1969
1970
1971
1971
1971
1971
1970
1970
1970
1971
1971
1971
1971
1971
1970
1970
1970
1970
1970
1970
1970
1971
1971
1970
1969
1968
1967
1966
1967
1968
1970
1972
1974
1976
1978
1979
1980
1979
1978
1977
1975
1973
1972
1972
1972
1972
1972
1973
1973
1973
1974
1974
1976
1978
1977
1973
1966
1958
1955
1965
1993
2042
2104
2158
2180
2155
2089
2009
1944
1914
1919
1942
1964
1975
1975
1971
1968
1967
1966
1967
1968
1969
1970
1971
1971
1972
1972
1973
1973
1974
1974
1975
1975
1976
1976
1976
1976
1977
1977
1978
1979
1981
1981
1982
1982
1983
1984
1985
1986
1988
1990
1992
1993
1994
1994
1994
1994
1994
1994
1994
1994
1993
1991
1989
1986
1983
1979
1977
1975
1973
1973
1972
1971
1970
1969
1969
1968
1968
1968
1968
1969
1969
1969
1969
1969
1968
1968
1968
1968
1969
1970
1970
1971
1971
1971
1971
1971
1971
1971
1972
1972
1973
1973
1974
1973
1973
1973
1973
1973
1973
1974
1974
1975
1975
1974
1974
1973
1973
1973
1973
1973
1974
1974
1974
1974
1973
1973
1973
1973
1973
1974
1974
1974
1973
1972
1970
1970
1970
1971
1973
1975
1978
1980
1982
1983
1984
1983
1982
1980
1978
1977
1976
1976
1975
1975
1974
1974
1974
1974
1974
1975
1976
1978
1978
1976
1970
1962
1956
1959
1975
2011
2066
2129
2176
2184
2145
2071
1994
1940
1923
1935
1958
1975
1979
1974
1970
1968
1967
1968
1969
1970
1971
1971
1972
1972
1973
1973
1973
1973
1974
1975
1976
1977
1978
1978
1978
1978
1978
1978
1979
1980
1982
1983
1984
1984
1984
1984
1985
1986
1987
1989
1991
1992
1992
1993
1993
1993
1992
1992
1991
1991
1990
1988
1986
1984
1981
1979
1978
1976
1975
1975
1975
1974
1974
1974
1973
1973
1972
1972
1972
1973
1974
1974
1974
1974
1974
1973
1973
1973
1974
1975
1975
1976
1976
1976
1976
1975
1975
1976
1977
1978
1978
1979
1979
1979
1978
1978
1977
1977
1978
1979
1979
1980
1980
1979
1979
1978
1978
1979
1979
1980
1980
1980
1980
1979
1979
1978
1978
1978
1978
1979
1979
1979
1979
1979
1979
1978
1978
1979
1979
1979
1979
1979
1977
1975
1974
1974
1976
1979
1982
1985
1987
1988
1988
1988
1987
1985
1984
1982
1981
1980
1980
1980
1979
1979
1979
1979
1978
1979
1979
1981
1982
1983
1981
1975
1967
1960
1963
1979
2015
2070
2131
2176
2183
2143
2070
1994
1942
1926
1939
1961
1977
1981
1977
1972
1970
1970
1970
1971
1972
1973
1974
1974
1975
1975
1975
1975
1975
1975
1976
1977
1978
1979
1980
1980
1980
1980
1980
1981
1982
1983
1984
1985
1986
1987
1988
1988
1988
1989
1990
1992
1994
1995
1996
1996
1996
1995
1994
1993
1992
1991
1990
1988
1986
1984
1982
1980
1978
1978
1977
1977
1978
1978
1977
1977
1976
1975
1975
1974
1975
1975
1976
1976
1976
1976
1975
1975
1975
1976
1976
1977
1978
1978
1978
1978
1978
1978
1978
1979
1979
1980
1980
1979
1979
1978
1978
1978
1978
1979
1979
1979
1980
1981
1981
1981
1981
1980
1980
1980
1980
1980
1980
1980
1980
1979
1979
1979
1979
1979
1980
1980
1981
1981
1981
1981
1980
1980
1979
1978
1977
1976
1976
1976
1976
1977
1979
1982
1986
1988
1990
1990
1990
1989
1988
1986
1984
1982
1980
1979
1979
1979
1980
1981
1981
1980
1979
1979
1979
1980
1980
1977
1970
1964
1961
1970
1996
2041
2099
2151
2174
2152
2090
2013
1948
1918
1921
1943
1965
1977
1978
1976
1974
1973
1972
1971
1971
1971
1971
1972
1973
1975
1976
1976
1976
1976
1976
1977
1977
1978
1979
1980
1980
1981
1981
1981
1981
1980
1981
1983
1985
1987
1989
1991
1992
1992
1993
1994
1994
1995
1997
1998
1999
2000
2000
1999
1997
1995
1993
1991
1989
1986
1983
1980
1978
1976
1974
1972
1971
1969
1969
1968
1968
1968
1968
1968
1967
1966
1965
1965
1965
1966
1967
1968
1969
1969
1968
1967
1966
1965
1966
1968
1970
1971
1972
1971
1970
1969
1969
1970
1971
1972
1973
1974
1974
1973
1973
1972
1971
1971
1972
1972
1973
1974
1974
1973
1973
1972
1972
1973
1973
1974
1974
1974
1973
1973
1973
1973
1972
1972
1971
1971
1970
1970
1971
1972
1974
1975
1977
1979
1980
1982
1983
1984
1984
1983
1981
1978
1975
1973
1973
1973
1974
1975
1975
1975
1974
1974
1975
1977
1979
1977
1972
1963
1956
1958
1977
2016
2072
2132
2170
2166
2116
2039
1963
1915
1905
1923
1949
1969
1976
1975
1972
1970
1969
1969
1970
1970
1970
1970
1970
1971
1973
1974
1976
1976
1976
1976
1976
1976
1977
1978
1979
1980
1980
1980
1980
1980
1981
1982
1983
1985
1986
1987
1989
1990
1991
1993
1994
1996
1997
1999
2001
2001
2001
2001
2000
1999
1997
1995
1993
1990
1988
1986
1984
1981
1978
1976
1974
1973
1972
1971
1969
1969
1968
1968
1968
1967
1966
1965
1965
1965
1966
1967
1967
1967
1966
1966
1966
1967
1968
1969
1970
1970
1970
1970
1969
1969
1969
1970
1971
1972
1973
1973
1973
1972
1971
1971
1971
1971
1971
1971
1972
1973
1973
1973
1972
1971
1970
1970
1970
1970
1971
1972
1972
1972
1971
1971
1971
1972
1972
1972
1972
1972
1971
1971
1970
1969
1967
1966
1966
1968
1971
1975
1977
1979
1980
1980
1980
1979
1978
1977
1976
1975
1974
1973
1972
1971
1970
1970
1971
1972
1973
1973
1974
1975
1976
1973
1968
1960
1952
1952
1966
1999
2052
2115
2163
2174
2139
2068
1989
1932
1912
1923
1946
1966
1973
1971
1968
1967
1967
1967
1968
1969
1969
1969
1970
1970
1970
1971
1971
1972
1973
1974
1975
1976
1977
1977
1977
1977
1977
1978
1980
1981
1983
1983
1983
1982
1983
1984
1986
1988
1990
1992
1993
1993
1993
1994
1994
1995
1995
1996
1997
1996
1995
1993
1990
1987
1983
1981
1978
1977
1975
1974
1973
1971
1970
1970
1970
1970
1970
1969
1969
1969
1968
1968
1967
1967
1966
1966
1967
1968
1968
1969
1970
1970
1970
1970
1969
1970
1970
1971
1972
1972
1973
1973
1973
1973
1972
1972
1973
1973
1974
1975
1975
1974
1974
1973
1973
1973
1973
1973
1973
1973
1974
1974
1973
1972
1972
1971
1972
1972
1973
1973
1974
1973
1973
1973
1972
1972
1972
1973
1973
1973
1973
1972
1971
1969
1969
1969
1971
1973
1977
1979
1981
1982
1982
1981
1981
1980
1979
1978
1977
1976
1975
1974
1973
1972
1972
1972
1972
1972
1973
1974
1975
1976
1974
1968
1960
1953
1954
1968
2001
2054
2116
2166
2179
2145
2076
1998
1941
1920
1929
1952
1970
1976
1972
1968
1966
1965
1965
1966
1967
1968
1968
1969
1969
1969
1969
1969
1969
1970
1971
1972
1973
1973
1973
1973
1974
1974
1975
1976
1977
1978
1979
1979
1980
1980
1980
1981
1983
1985
1987
1988
1990
1991
1991
1991
1990
1990
1991
1991
1991
1990
1989
1986
1983
1979
1976
1974
1973
1973
1973
1973
1973
1972
1971
1969
1969
1968
1969
1969
1970
1970
1970
1970
1969
1968
1968
1969
1969
1971
1971
1972
1972
1972
1972
1971
1971
1972
1972
1973
1974
1974
1974
1974
1974
1974
1973
1974
1974
1975
1975
1975
1975
1975
1975
1975
1975
1975
1975
1976
1976
1977
1976
1976
1975
1974
1974
1974
1974
1975
1975
1975
1975
1975
1974
1974
1973
1973
1973
1974
1974
1975
1975
1974
1973
1972
1971
1970
1969
1970
1972
1975
1979
1982
1983
1983
1983
1982
1981
1981
1980
1979
1978
1977
1975
1974
1973
1973
1973
1974
1974
1974
1975
1975
1976
1976
1975
1970
1964
1958
1958
1971
2001
2050
2112
2163
2181
2153
2087
2009
1949
1924
1930
1951
1969
1975
1972
1968
1966
1965
1966
1967
1967
1967
1967
1967
1967
1968
1969
1970
1971
1972
1972
1972
1973
1972
1973
1973
1974
1975
1976
1977
1977
1978
1978
1979
1979
1980
1982
1983
1984
1986
1986
1987
1988
1988
1988
1989
1989
1990
1990
1990
1990
1988
1986
1983
1981
1979
1977
1976
1975
1974
1973
1972
1971
1970
1970
1970
1970
1970
1970
1970
1970
1970
1969
1969
1969
1969
1969
1970
1970
1971
1971
1971
1970
1970
1970
1970
1971
1972
1972
1973
1973
1973
1973
1973
1972
1973
1973
1974
1974
1975
1975
1975
1974
1974
1973
1973
1974
1974
1975
1975
1975
1975
1975
1974
1974
1974
1974
1974
1975
1975
1975
1974
1973
1972
1972
1972
1973
1974
1975
1975
1975
1975
1974
1974
1973
1972
1971
1971
1971
1973
1975
1978
1980
1982
1983
1983
1983
1982
1982
1981
1981
1980
1978
1977
1975
1975
1975
1975
1976
1976
1976
1976
1975
1975
1976
1977
1975
1970
1964
1958
1961
1977
2011
2063
2123
2167
2174
2136
2065
1990
1938
1922
1933
1954
1969
1973
1969
1966
1965
1966
1966
1966
1966
1966
1966
1967
1968
1969
1970
1971
1971
1971
1971
1971
1972
1972
1973
1974
1975
1976
1976
1977
1977
1977
1978
1978
1979
1981
1982
1983
1984
1985
1986
1986
1987
1987
1988
1989
1990
1990
1989
1988
1987
1985
1984
1982
1980
1978
1977
1975
1973
1972
1970
1969
1968
1968
1967
1967
1967
1968
1968
1968
1967
1966
1966
1966
1966
1967
1968
1968
1968
1968
1968
1968
1968
1968
1968
1969
1970
1970
1971
1971
1971
1970
1970
1971
1971
1972
1972
1973
1974
1974
1974
1974
1973
1973
1973
1974
1975
1975
1975
1974
1974
1973
1973
1973
1973
1973
1974
1974
1975
1974
1973
1973
1972
1972
1973
1973
1974
1974
1974
1974
1973
1973
1973
1972
1971
1970
1970
1971
1973
1976
1979
1981
1982
1982
1982
1981
1981
1980
1980
1978
1977
1975
1973
1973
1973
1973
1974
1974
1974
1974
1973
1973
1974
1975
1973
1969
1962
1956
1958
1974
2007
2059
2117
2160
2166
2127
2057
1984
1933
1918
1930
1952
1969
1973
1970
1967
1966
1965
1966
1966
1966
1965
1966
1966
1967
1968
1969
1970
1971
1971
1971
1970
1971
1971
1972
1973
1974
1975
1975
1976
1976
1976
1977
1978
1979
1981
1982
1984
1985
1986
1986
1986
1987
1988
1989
1990
1991
1991
1990
1989
1987
1985
1983
1981
1979
1978
1976
1975
1973
1971
1970
1968
1968
1968
1968
1969
1969
1969
1969
1969
1968
1967
1966
1966
1967
1968
1969
1969
1969
1969
1969
1968
1968
1969
1969
1970
1971
1972
1972
1972
1972
1971
1971
1971
1972
1972
1973
1974
1974
1974
1973
1973
1973
1972
1973
1973
1973
1974
1974
1974
1973
1973
1972
1972
1973
1973
1973
1974
1974
1974
1973
1972
1972
1972
1973
1973
1974
1974
1974
1973
1972
1970
1969
1968
1969
1972
1976
1980
1983
1984
1984
1983
1982
1981
1980
1979
1979
1978
1977
1976
1975
1974
1973
1973
1974
1974
1975
1975
1976
1977
1977
1975
1969
1962
1957
1960
1976
2011
2062
2119
2158
2161
2119
2049
1978
1931
1919
1934
1957
1972
1976
1972
1969
1967
1967
1968
1969
1970
1970
1970
1970
1970
1970
1971
1972
1973
1974
1975
1975
1975
1975
1975
1975
1976
1977
1978
1979
1980
1981
1982
1982
1982
1983
1984
1986
1987
1989
1990
1991
1992
1992
1993
1993
1993
1993
1993
1993
1992
1991
1989
1986
1984
1982
1980
1978
1977
1976
1975
1975
1974
1973
1972
1972
1971
1971
1972
1972
1972
1972
1971
1971
1970
1970
1970
1971
1972
1973
1973
1974
1973
1973
1972
1973
1973
1974
1975
1975
1976
1976
1976
1975
1975
1975
1975
1975
1976
1977
1977
1977
1976
1976
1975
1975
1975
1975
1975
1976
1976
1976
1975
1975
1974
1973
1973
1974
1975
1976
1976
1976
1976
1975
1974
1973
1972
1971
1971
1971
1972
1974
1977
1979
1981
1982
1983
1983
1983
1982
1981
1980
1978
1976
1975
1974
1974
1974
1974
1975
1975
1975
1975
1975
1975
1976
1975
1972
1966
1960
1959
1971
1998
2045
2100
2147
2162
2134
2071
1998
1941
1918
1925
1947
1966
1974
1972
1969
1967
1967
1967
1967
1967
1967
1967
1967
1968
1969
1970
1971
1972
1972
1973
1973
1972
1972
1973
1974
1975
1976
1977
1978
1979
1979
1979
1980
1980
1981
1983
1984
1986
1987
1988
1989
1989
1990
1990
1991
1992
1993
1993
1992
1991
1989
1986
1984
1982
1981
1979
1978
1977
1975
1974
1972
1971
1970
1970
1970
1970
1970
1970
1970
1969
1968
1968
1967
1967
1967
1968
1969
1970
1970
1970
1970
1970
1970
1970
1971
1971
1972
1972
1973
1972
1972
1972
1972
1972
1972
1973
1973
1974
1974
1974
1973
1973
1972
1972
1973
1973
1974
1974
1973
1973
1973
1972
1972
1972
1972
1973
1973
1973
1972
1971
1970
1968
1968
1969
1970
1973
1976
1978
1979
1980
1981
1981
1980
1979
1978
1977
1975
1975
1974
1973
1973
1972
1972
1972
1972
1973
1974
1975
1976
1975
1971
1964
1957
1958
1970
2000
2048
2105
2150
2162
2130
2064
1990
1935
1914
1924
1948
1968
1977
1974
1970
1967
1966
1966
1966
1967
1968
1969
1970
1970
1970
1970
1970
1971
1972
1973
1973
1974
1975
1975
1975
1975
1975
1976
1977
1979
1980
1981
1982
1982
1983
1983
1984
1985
1987
1988
1990
1991
1992
1993
1993
1993
1993
1992
1992
1992
1990
1988
1986
1983
1980
1978
1976
1974
1973
1973
1972
1972
1972
1971
1970
1969
1968
1968
1968
1968
1969
1969
1970
1970
1969
1969
1968
1968
1969
1970
1971
1972
1972
1971
1971
1971
1971
1972
1973
1974
1974
1975
1975
1975
1975
1974
1974
1974
1975
1975
1976
1976
1976
1976
1975
1974
1974
1974
1974
1975
1975
1975
1974
1973
1972
1971
1971
1971
1971
1973
1975
1977
1979
1980
1981
1982
1982
1982
1981
1980
1978
1976
1974
1973
1971
1971
1971
1972
1973
1974
1974
1975
1976
1976
1975
1971
1965
1959
1959
1972
2002
2052
2109
2151
2157
2119
2049
1974
1921
1903
1916
1941
1962
1972
1973
1971
1970
1969
1968
1967
1968
1969
1971
1972
1972
1972
1971
1971
1972
1974
1976
1977
1977
1977
1976
1976
1977
1978
1979
1980
1981
1982
1983
1984
1985
1986
1986
1987
1988
1989
1991
1994
1996
1997
1998
1998
1998
1998
1997
1997
1996
1995
1992
1989
1986
1983
1980
1979
1977
1977
1976
1974
1973
1971
1970
1969
1968
1968
1967
1967
1967
1967
1967
1966
1965
1965
1966
1967
1969
1969
1969
1969
1969
1969
1970
1970
1970
1971
1971
1972
1972
1972
1972
1972
1972
1972
1972
1972
1973
1974
1974
1974
1974
1974
1973
1972
1970
1968
1967
1968
1970
1973
1975
1976
1976
1976
1976
1978
1979
1979
1978
1976
1973
1971
1970
1970
1971
1971
1971
1972
1972
1972
1972
1972
1973
1974
1972
1967
1960
1954
1956
1973
2010
2065
2123
2160
2154
2105
2029
1955
1911
1904
1924
1950
1968
1974
1973
1971
1970
1969
1969
1970
1970
1970
1971
1971
1972
1973
1974
1975
1975
1975
1975
1975
1976
1977
1978
1979
1981
1982
1982
1983
1983
1984
1985
1985
1986
1988
1990
1992
1994
1996
1997
1998
1998
1998
1999
2000
2001
2002
2002
2002
2001
1999
1996
1992
1989
1986
1984
1982
1980
1977
1975
1974
1972
1972
1971
1971
1969
1968
1967
1966
1966
1967
1967
1968
1968
1969
1969
1969
1969
1969
1969
1969
1969
1970
1970
1971
1972
1972
1973
1973
1973
1973
1973
1973
1973
1972
1972
1972
1973
1973
1972
1972
1972
1972
1971
1971
1971
1970
1971
1971
1971
1972
1972
1973
1975
1977
1980
1982
1982
1981
1978
1976
1973
1972
1970
1970
1970
1971
1972
1972
1972
1972
1971
1971
1972
1973
1973
1969
1962
1955
1956
1971
2005
2058
2118
2161
2165
2123
2050
1975
1924
1909
1922
1946
1965
1973
1973
1971
1970
1969
1969
1969
1969
1969
1969
1970
1971
1972
1973
1975
1976
1976
1977
1977
1977
1977
1978
1979
1980
1981
1982
1983
1983
1983
1984
1985
1986
1988
1990
1991
1992
1993
1993
1993
1994
1996
1997
1999
2000
2000
1999
1997
1995
1992
1990
1988
1986
1984
1982
1980
1978
1976
1974
1972
1970
1970
1970
1970
1971
1971
1971
1970
1970
1969
1968
1968
1968
1969
1970
1970
1970
1970
1970
1971
1971
1971
1972
1973
1974
1975
1975
1975
1974
1974
1973
1973
1973
1974
1975
1975
1976
1976
1975
1975
1974
1974
1974
1973
1973
1972
1972
1971
1971
1972
1973
1974
1976
1978
1981
1983
1983
1982
1980
1977
1975
1973
1973
1973
1973
1973
1974
1974
1973
1973
1972
1973
1975
1977
1976
1973
1965
1957
1955
1965
1993
2043
2104
2158
2180
2155
2090
2012
1949
1921
1927
1948
1968
1977
1975
1971
1969
1968
1968
1968
1968
1968
1969
1970
1971
1972
1973
1974
1974
1974
1975
1975
1976
1976
1977
1978
1978
1978
1978
1978
1979
1979
1981
1982
1983
1984
1985
1986
1986
1987
1988
1989
1990
1991
1992
1992
1992
1992
1991
1990
1989
1987
1985
1984
1982
1980
1979
1977
1975
1974
1972
1972
1972
1972
1972
1972
1972
1971
1971
1971
1970
1970
1971
1971
1971
1972
1972
1972
1972
1972
1972
1972
1973
1973
1974
1974
1975
1974
1974
1974
1974
1974
1974
1975
1975
1976
1976
1975
1975
1974
1974
1975
1975
1976
1976
1976
1976
1976
1976
1976
1975
1975
1975
1975
1974
1973
1973
1972
1972
1973
1974
1976
1978
1980
1983
1984
1985
1985
1983
1981
1978
1977
1976
1976
1976
1977
1977
1976
1976
1976
1975
1975
1977
1979
1980
1978
1973
1965
1959
1962
1980
2018
2075
2137
2179
2181
2136
2061
1986
1937
1925
1940
1962
1977
1979
1975
1972
1970
1970
1970
1970
1970
1971
1972
1973
1974
1974
1974
1975
1975
1975
1976
1977
1978
1978
1979
1980
1980
1980
1980
1980
1981
1982
1983
1984
1985
1986
1987
1987
1988
1989
1990
1991
1992
1993
1993
1993
1993
1993
1991
1990
1988
1987
1985
1983
1982
1980
1978
1977
1975
1974
1974
1974
1974
1974
1974
1974
1974
1973
1973
1973
1972
1973
1973
1974
1974
1975
1975
1974
1974
1974
1974
1974
1975
1976
1977
1977
1977
1977
1976
1976
1976
1976
1977
1978
1978
1979
1979
1978
1978
1978
1978
1978
1979
1980
1980
1980
1979
1979
1978
1978
1978
1978
1979
1979
1979
1979
1979
1978
1977
1975
1974
1974
1975
1977
1979
1981
1982
1983
1985
1986
1987
1987
1986
1985
1983
1981
1980
1979
1979
1978
1978
1979
1980
1980
1980
1981
1982
1983
1982
1978
1971
1964
1963
1973
1999
2046
2104
2158
2182
2161
2101
2024
1960
1929
1932
1953
1973
1981
1979
1974
1972
1972
1972
1973
1973
1974
1974
1974
1974
1974
1974
1975
1977
1978
1978
1979
1979
1979
1979
1979
1980
1980
1982
1983
1983
1984
1984
1985
1985
1985
1986
1987
1989
1990
1992
1993
1993
1993
1993
1993
1993
1994
1994
1993
1993
1991
1989
1986
1984
1982
1980
1979
1978
1978
1977
1976
1976
1975
1974
1974
1974
1974
1974
1975
1975
1975
1974
1973
1973
1973
1973
1973
1974
1974
1975
1975
1974
1974
1974
1974
1975
1975
1976
1977
1977
1978
1978
1977
1977
1977
1977
1977
1978
1978
1979
1979
1978
1978
1977
1977
1977
1977
1978
1978
1979
1979
1978
1978
1978
1977
1977
1977
1977
1978
1978
1978
1978
1977
1976
1975
1974
1973
1973
1974
1976
1978
1979
1981
1982
1983
1985
1986
1986
1986
1984
1982
1980
1978
1977
1976
1975
1976
1976
1977
1978
1978
1978
1978
1979
1978
1976
1972
1965
1960
1964
1980
2015
2067
2125
2166
2168
2127
2055
1983
1935
1923
1937
1959
1974
1977
1973
1970
1969
1969
1969
1970
1970
1970
1970
1970
1971
1972
1973
1974
1974
1974
1975
1975
1975
1975
1975
1976
1977
1978
1979
1980
1980
1980
1981
1981
1982
1984
1985
1987
1987
1988
1989
1989
1990
1991
1992
1992
1993
1993
1992
1991
1989
1987
1985
1983
1981
1980
1978
1977
1976
1974
1973
1972
1971
1971
1970
1970
1970
1970
1970
1970
1969
1969
1968
1968
1969
1969
1970
1970
1971
1972
1973
1973
1972
1971
1971
1971
1972
1973
1974
1974
1974
1973
1973
1973
1974
1974
1975
1976
1976
1977
1977
1977
1977
1976
1975
1975
1975
1975
1976
1977
1977
1977
1977
1976
1976
1976
1976
1977
1977
1977
1977
1976
1975
1973
1973
1972
1972
1973
1975
1976
1977
1978
1979
1981
1982
1983
1984
1983
1982
1979
1977
1975
1974
1974
1974
1974
1975
1976
1976
1976
1976
1976
1977
1976
1973
1968
1962
1959
1966
1987
2028
2083
2135
2162
2147
2092
2017
1950
1915
1914
1935
1958
1973
1976
1973
1971
1970
1969
1969
1970
1971
1972
1972
1973
1973
1974
1975
1976
1976
1976
1976
1976
1977
1977
1978
1978
1978
1979
1980
1980
1981
1982
1982
1983
1984
1986
1987
1989
1991
1992
1992
1993
1993
1994
1996
1997
1999
1999
1999
1998
1996
1994
1991
1988
1986
1983
1982
1980
1978
1976
1974
1972
1971
1970
1970
1970
1970
1970
1969
1969
1969
1968
1967
1967
1967
1967
1969
1970
1970
1970
1969
1968
1968
1968
1968
1969
1970
1971
1972
1972
1972
1972
1971
1971
1971
1971
1971
1972
1973
1973
1974
1973
1972
1971
1971
1971
1971
1972
1972
1971
1971
1970
1970
1971
1972
1973
1974
1975
1977
1979
1980
1981
1981
1979
1978
1976
1974
1973
1973
1972
1972
1972
1972
1971
1970
1970
1971
1973
1976
1976
1974
1967
1958
1954
1961
1986
2033
2093
2147
2169
2145
2080
2001
1935
1905
1910
1934
1958
1971
1973
1970
1969
1968
1967
1967
1968
1969
1970
1970
1971
1971
1971
1970
1970
1971
1973
1976
1978
1978
1977
1976
1975
1975
1976
1978
1980
1982
1984
1985
1987
1988
1990
1991
1992
1993
1995
1997
1999
2000
2001
2002
2002
2002
2003
2002
2001
2000
1997
1995
1993
1990
1987
1983
1980
1978
1976
1975
1973
1972
1970
1969
1967
1966
1966
1965
1966
1966
1967
1967
1967
1967
1967
1966
1966
1966
1967
1968
1969
1970
1971
1971
1970
1970
1970
1970
1971
1972
1973
1974
1974
1974
1973
1971
1970
1970
1972
1973
1975
1975
1975
1974
1972
1971
1971
1972
1972
1972
1972
1972
1973
1974
1976
1978
1979
1981
1982
1983
1983
1982
1981
1979
1977
1975
1974
1974
1974
1974
1975
1975
1976
1975
1974
1975
1976
1977
1976
1971
1963
1957
1958
1975
2012
2069
2131
2172
2172
2125
2048
1971
1921
1909
1926
1952
1970
1976
1973
1971
1970
1969
1969
1970
1970
1970
1971
1972
1972
1973
1974
1974
1973
1973
1974
1975
1976
1977
1977
1977
1977
1977
1979
1980
1981
1981
1981
1982
1983
1984
1987
1989
1991
1992
1993
1993
1994
1994
1996
1997
1998
1998
1997
1996
1995
1992
1990
1987
1983
1981
1979
1977
1975
1973
1971
1969
1967
1966
1966
1967
1968
1967
1967
1965
1964
1962
1962
1962
1963
1964
1965
1966
1966
1966
1965
1964
1964
1964
1965
1967
1969
1970
1970
1970
1969
1968
1968
1968
1969
1970
1971
1972
1972
1971
1971
1970
1969
1969
1970
1970
1969
1969
1968
1968
1967
1966
1965
1965
1965
1966
1968
1970
1972
1973
1975
1976
1977
1977
1976
1975
1974
1972
1971
1970
1969
1968
1968
1968
1969
1969
1970
1970
1971
1972
1972
1969
1963
1955
1949
1952
1971
2010
2068
2130
2172
2171
2123
2047
1970
1922
1912
1929
1953
1969
1973
1969
1965
1963
1963
1963
1964
1966
1966
1966
1966
1966
1966
1966
1966
1967
1969
1970
1971
1971
1971
1970
1970
1970
1972
1973
1974
1975
1976
1977
1978
1979
1979
1980
1981
1982
1984
1986
1987
1988
1989
1989
1989
1990
1990
1990
1989
1988
1987
1985
1982
1979
1976
1974
1972
1971
1971
1971
1970
1969
1968
1967
1966
1965
1965
1965
1965
1966
1966
1966
1965
1965
1965
1965
1965
1966
1967
1967
1967
1967
1967
1967
1968
1968
1969
1969
1969
1970
1970
1971
1971
1971
1970
1971
1971
1972
1973
1973
1974
1973
1973
1973
1973
1974
1974
1975
1976
1976
1976
1976
1976
1976
1975
1974
1973
1973
1973
1973
1974
1976
1978
1979
1981
1982
1984
1986
1988
1989
1988
1986
1984
1981
1979
1979
1979
1980
1980
1981
1981
1981
1980
1980
1981
1982
1983
1981
1976
1968
1962
1965
1983
2023
2082
2145
2187
2187
2140
2063
1987
1939
1928
1944
1966
1980
1982
1978
1975
1973
1973
1973
1973
1973
1973
1974
1975
1976
1977
1977
1977
1977
1977
1977
1978
1978
1979
1980
1981
1982
1982
1982
1982
1982
1983
1983
1984
1986
1987
1988
1989
1990
1990
1991
1991
1992
1993
1995
1995
1996
1995
1994
1993
1991
1989
1988
1986
1984
1982
1981
1979
1978
1977
1976
1975
1974
1974
1974
1974
1975
1974
1974
1974
1973
1973
1973
1973
1973
1974
1974
1974
1974
1973
1973
1973
1974
1974
1975
1976
1977
1977
1977
1977
1976
1976
1976
1976
1977
1977
1978
1978
1978
1978
1977
1977
1977
1977
1978
1979
1979
1979
1979
1978
1978
1978
1978
1978
1979
1980
1980
1980
1980
1979
1978
1977
1976
1975
1975
1976
1978
1980
1981
1982
1983
1984
1986
1987
1988
1988
1987
1985
1983
1981
1979
1978
1978
1978
1979
1980
1980
1980
1980
1980
1980
1981
1980
1976
1970
1963
1963
1974
2003
2053
2116
2169
2190
2163
2098
2020
1958
1931
1937
1957
1974
1980
1976
1972
1971
1971
1972
1972
1972
1972
1972
1973
1973
1974
1975
1976
1977
1977
1977
1977
1977
1977
1977
1978
1979
1980
1981
1982
1982
1982
1982
1982
1983
1984
1985
1987
1988
1990
1991
1992
1992
1992
1993
1993
1994
1994
1994
1993
1992
1990
1988
1986
1984
1982
1981
1980
1979
1978
1977
1976
1975
1974
1974
1973
1973
1974
1974
1974
1974
1974
1973
1973
1973
1973
1973
1974
1974
1974
1974
1974
1973
1973
1973
1974
1974
1975
1975
1975
1975
1975
1974
1974
1975
1975
1976
1976
1976
1976
1976
1976
1976
1976
1976
1977
1977
1978
1978
1978
1978
1978
1977
1977
1977
1977
1978
1978
1978
1978
1978
1978
1977
1977
1977
1977
1977
1976
1975
1974
1973
1973
1974
1976
1979
1981
1983
1985
1986
1986
1986
1984
1982
1980
1978
1977
1977
1977
1977
1977
1977
1976
1976
1975
1975
1977
1979
1979
1978
1972
1964
1959
1961
1978
2015
2069
2130
2172
2175
2133
2060
1986
1937
1924
1938
1961
1976
1979
1975
1971
1969
1968
1968
1968
1969
1970
1971
1972
1973
1973
1973
1973
1973
1973
1974
1974
1975
1976
1977
1978
1978
1978
1978
1978
1978
1979
1981
1982
1983
1984
1984
1985
1985
1986
1987
1988
1990
1991
1991
1991
1991
1990
1990
1989
1987
1986
1984
1983
1981
1979
1977
1975
1974
1972
1972
1971
1971
1971
1971
1971
1970
1970
1970
1969
1969
1969
1969
1970
1970
1970
1971
1970
1969
1969
1969
1970
1970
1971
1972
1972
1972
1972
1971
1971
1972
1972
1973
1974
1974
1974
1973
1972
1972
1972
1973
1973
1974
1975
1975
1975
1974
1974
1974
1973
1973
1973
1974
1974
1974
1974
1974
1973
1972
1971
1970
1969
1970
1971
1973
1975
1977
1979
1980
1980
1981
1981
1981
1980
1979
1977
1976
1974
1973
1973
1973
1974
1974
1975
1975
1975
1974
1975
1975
1974
1970
1964
1958
1958
1969
1997
2044
2100
2147
2163
2135
2071
1997
1940
1918
1926
1948
1968
1975
1973
1969
1967
1966
1966
1967
1968
1969
1970
1971
1972
1973
1973
1972
1972
1972
1972
1973
1973
1973
1973
1974
1975
1976
1977
1978
1978
1978
1979
1979
1981
1982
1984
1985
1987
1987
1987
1988
1988
1989
1990
1992
1992
1993
1992
1991
1989
1988
1987
1985
1982
1979
1976
1973
1971
1969
1968
1966
1965
1964
1963
1963
1964
1964
1965
1965
1964
1963
1962
1962
1961
1961
1962
1963
1963
1963
1963
1963
1963
1963
1963
1964
1965
1966
1966
1967
1967
1967
1967
1968
1968
1967
1966
1966
1967
1967
1968
1968
1968
1966
1965
1965
1966
1968
1969
1969
1968
1966
1964
1963
1963
1964
1967
1969
1970
1972
1973
1975
1976
1977
1975
1972
1970
1968
1967
1967
1967
1967
1967
1966
1965
1965
1966
1966
1966
1967
1968
1967
1964
1958
1951
1948
1957
1983
2029
2088
2140
2160
2134
2068
1989
1924
1895
1903
1929
1954
1968
1971
1968
1965
1964
1963
1963
1964
1966
1967
1968
1969
1969
1970
1970
1970
1971
1971
1972
1974
1975
1976
1977
1977
1977
1977
1978
1979
1980
1981
1983
1985
1987
1987
1987
1987
1988
1990
1993
1995
1998
1999
1999
1999
1999
1999
1998
1997
1994
1992
1990
1987
1985
1982
1979
1977
1976
1974
1973
1971
1969
1966
1965
1963
1963
1963
1963
1963
1963
1963
1963
1963
1964
1965
1965
1965
1965
1965
1965
1966
1966
1967
1967
1967
1966
1966
1966
1967
1968
1969
1970
1970
1970
1969
1968
1967
1967
1968
1969
1970
1970
1969
1968
1966
1966
1965
1965
1965
1964
1964
1964
1966
1968
1970
1972
1974
1976
1977
1977
1976
1974
1972
1969
1967
1965
1965
1965
1966
1967
1968
1969
1969
1968
1967
1967
1968
1967
1964
1958
1951
1952
1966
1998
2051
2111
2156
2162
2122
2048
1970
1915
1899
1913
1939
1960
1969
1968
1967
1966
1965
1965
1965
1964
1964
1964
1965
1966
1968
1970
1971
1971
1971
1970
1970
1970
1971
1971
1972
1973
1975
1976
1977
1978
1978
1978
1979
1981
1983
1985
1987
1988
1989
1989
1989
1990
1991
1992
1993
1993
1993
1993
1992
1991
1989
1986
1984
1981
1979
1977
1975
1973
1970
1968
1966
1965
1964
1963
1963
1963
1963
1963
1963
1963
1962
1961
1961
1961
1962
1963
1964
1964
1964
1964
1964
1964
1964
1964
1965
1966
1967
1968
1968
1968
1968
1968
1968
1968
1968
1969
1969
1969
1969
1968
1968
1968
1968
1968
1967
1967
1967
1967
1967
1966
1966
1966
1967
1968
1969
1971
1972
1973
1975
1976
1976
1976
1974
1972
1970
1969
1968
1968
1968
1968
1968
1967
1967
1968
1968
1970
1972
1973
1971
1967
1959
1951
1949
1961
1991
2042
2104
2155
2171
2140
2071
1993
1933
1910
1920
1944
1965
1974
1972
1968
1966
1964
1964
1965
1967
1968
1969
1970
1970
1970
1970
1970
1970
1971
1972
1973
1974
1974
1974
1974
1974
1975
1975
1976
1978
1980
1981
1982
1983
1984
1985
1986
1987
1989
1990
1992
1993
1994
1995
1995
1994
1994
1994
1993
1992
1991
1989
1987
1985
1983
1981
1980
1979
1978
1978
1977
1977
1976
1976
1975
1975
1974
1974
1974
1974
1974
1974
1974
1973
1973
1973
1973
1973
1974
1975
1975
1976
1976
1976
1976
1976
1976
1976
1977
1978
1979
1979
1979
1979
1979
1978
1978
1978
1978
1978
1979
1979
1979
1979
1978
1977
1977
1976
1976
1975
1975
1975
1975
1976
1976
1977
1978
1979
1981
1984
1985
1986
1985
1983
1981
1978
1976
1975
1975
1975
1976
1976
1977
1977
1976
1976
1976
1977
1979
1978
1975
1968
1961
1959
1969
1996
2046
2107
2162
2185
2162
2098
2020
1957
1928
1932
1953
1971
1979
1977
1973
1971
1971
1971
1971
1970
1970
1971
1971
1973
1974
1975
1975
1975
1975
1975
1975
1975
1976
1977
1978
1979
1979
1979
1980
1980
1980
1981
1981
1982
1984
1985
1986
1987
1987
1988
1988
1988
1989
1990
1990
1991
1990
1989
1988
1986
1984
1982
1981
1980
1978
1977
1976
1975
1973
1972
1971
1971
1971
1972
1972
1972
1972
1972
1971
1971
1970
1970
1971
1971
1972
1972
1972
1972
1972
1972
1972
1972
1973
1974
1975
1975
1976
1975
1975
1975
1975
1975
1976
1976
1977
1977
1977
1977
1977
1976
1976
1976
1977
1977
1977
1978
1978
1977
1977
1977
1976
1976
1975
1975
1974
1974
1973
1973
1974
1975
1976
1978
1979
1981
1983
1985
1985
1985
1982
1980
1978
1976
1976
1976
1976
1976
1976
1976
1975
1975
1975
1975
1977
1978
1977
1974
1967
1960
1959
1970
1998
2048
2107
2157
2175
2148
2083
2007
1948
1924
1931
1952
1971
1978
1976
1972
1970
1969
1969
1969
1969
1970
1971
1972
1972
1973
1973
1973
1973
1973
1974
1974
1975
1976
1976
1977
1978
1978
1978
1978
1978
1978
1979
1980
1982
1983
1984
1984
1985
1985
1986
1986
1987
1988
1989
1989
1989
1988
1987
1986
1984
1983
1981
1980
1979
1978
1976
1975
1973
1972
1971
1971
1971
1972
1972
1972
1972
1971
1971
1970
1970
1970
1970
1970
1971
1971
1972
1972
1972
1972
1972
1972
1973
1974
1975
1975
1975
1975
1974
1974
1974
1974
1974
1975
1976
1976
1976
1976
1976
1975
1975
1974
1975
1975
1976
1976
1976
1976
1975
1974
1974
1974
1974
1975
1975
1975
1975
1974
1972
1971
1970
1970
1971
1973
1975
1977
1979
1980
1982
1982
1982
1982
1980
1979
1977
1976
1975
1975
1974
1974
1974
1974
1974
1975
1975
1976
1977
1978
1975
1970
1963
1958
1960
1975
2007
2057
2114
2156
2163
2126
2058
1986
1936
1921
1934
1956
1973
1978
1974
1970
1968
1967
1968
1969
1970
1971
1971
1972
1972
1972
1972
1972
1973
1974
1975
1976
1976
1976
1976
1976
1976
1976
1977
1978
1979
1980
1981
1982
1982
1983
1983
1984
1985
1987
1988
1988
1989
1989
1988
1988
1987
1987
1986
1986
1985
1984
1982
1980
1978
1976
1974
1973
1972
1972
1972
1972
1971
1971
1970
1970
1969
1969
1969
1970
1970
1970
1970
1970
1969
1969
1968
1969
1969
1971
1972
1972
1973
1972
1972
1972
1972
1972
1973
1973
1974
1974
1974
1974
1973
1973
1973
1973
1973
1974
1974
1974
1974
1974
1973
1973
1972
1972
1973
1973
1974
1974
1975
1974
1974
1973
1972
1971
1971
1970
1970
1970
1971
1972
1973
1975
1976
1978
1980
1982
1983
1983
1982
1979
1977
1975
1973
1972
1972
1973
1974
1974
1974
1974
1973
1974
1974
1975
1974
1971
1964
1959
1959
1972
2001
2048
2104
2148
2158
2125
2060
1988
1936
1918
1928
1951
1969
1975
1973
1970
1968
1968
1968
1968
1968
1969
1969
1970
1970
1971
1972
1973
1974
1974
1974
1973
1973
1974
1975
1976
1977
1977
1978
1978
1978
1978
1978
1979
1981
1982
1984
1985
1986
1986
1986
1986
1987
1987
1987
1988
1988
1988
1987
1985
1983
1981
1979
1977
1976
1975
1974
1973
1972
1971
1970
1969
1968
1968
1968
1968
1968
1968
1968
1967
1966
1966
1966
1966
1967
1968
1968
1969
1969
1969
1969
1969
1969
1969
1969
1970
1970
1971
1971
1971
1971
1971
1971
1971
1971
1971
1972
1972
1972
1972
1971
1970
1970
1969
1970
1970
1971
1971
1971
1971
1970
1970
1969
1969
1969
1969
1969
1969
1969
1968
1967
1965
1964
1964
1965
1967
1969
1971
1973
1975
1976
1977
1977
1977
1975
1974
1973
1971
1970
1969
1968
1967
1967
1967
1968
1969
1970
1970
1971
1972
1970
1966
1960
1954
1954
1966
1996
2043
2098
2140
2149
2115
2049
1978
1925
1908
1921
1945
1964
1972
1970
1967
1965
1964
1964
1965
1966
1967
1967
1967
1967
1967
1967
1968
1969
1970
1971
1972
1972
1972
1972
1972
1973
1973
1974
1976
1977
1977
1978
1978
1978
1979
1979
1981
1982
1983
1985
1986
1986
1986
1986
1985
1984
1984
1984
1983
1983
1982
1981
1979
1977
1974
1972
1970
1969
1968
1968
1968
1967
1967
1966
1965
1965
1965
1965
1965
1965
1965
1964
1964
1964
1964
1965
1965
1966
1967
1968
1968
1968
1968
1967
1965
1964
1964
1964
1965
1966
1967
1967
1967
1966
1966
1965
1965
1965
1966
1966
1966
1966
1966
1966
1965
1965
1965
1965
1965
1965
1965
1964
1963
1962
1962
1963
1965
1967
1970
1972
1974
1975
1975
1973
1971
1969
1967
1967
1966
1966
1965
1965
1965
1965
1965
1966
1966
1968
1969
1970
1968
1961
1954
1949
1956
1979
2022
2078
2128
2148
2125
2064
1990
1928
1900
1905
1929
1953
1966
1969
1967
1966
1964
1963
1963
1963
1963
1964
1966
1967
1969
1969
1969
1968
1968
1968
1970
1971
1972
1972
1973
1973
1974
1975
1976
1977
1977
1978
1979
1980
1982
1983
1985
1986
1986
1986
1986
1986
1987
1989
1990
1990
1991
1990
1988
1987
1985
1984
1982
1981
1979
1976
1973
1971
1969
1967
1966
1966
1966
1965
1965
1964
1963
1962
1961
1960
1960
1960
1961
1960
1960
1961
1961
1963
1964
1964
1965
1965
1965
1965
1965
1965
1964
1964
1964
1965
1965
1965
1965
1965
1965
1966
1966
1966
1965
1965
1965
1965
1966
1967
1967
1966
1965
1964
1963
1963
1962
1962
1963
1964
1966
1968
1970
1972
1973
1974
1974
1973
1972
1971
1970
1968
1967
1966
1965
1965
1966
1967
1967
1968
1968
1969
1970
1971
1969
1964
1957
1950
1950
1965
1997
2048
2107
2148
2151
2110
2038
1962
1911
1898
1913
1940
1960
1969
1968
1966
1965
1965
1965
1966
1967
1967
1967
1967
1967
1967
1968
1968
1969
1969
1970
1971
1972
1973
1973
1973
1974
1974
1975
1976
1977
1978
1979
1980
1980
1981
1981
1983
1985
1987
1989
1990
1990
1990
1990
1990
1989
1989
1989
1988
1987
1985
1983
1980
1978
1976
1975
1973
1970
1968
1966
1965
1964
1963
1962
1961
1960
1960
1960
1961
1961
1961
1961
1961
1960
1960
1959
1960
1960
1961
1962
1963
1963
1964
1965
1965
1965
1965
1966
1966
1966
1966
1966
1965
1965
1965
1965
1966
1967
1968
1967
1966
1965
1964
1964
1964
1964
1964
1964
1964
1963
1963
1962
1963
1964
1965
1967
1969
1971
1973
1974
1974
1972
1970
1967
1965
1964
1964
1965
1965
1966
1966
1966
1965
1965
1965
1966
1967
1968
1966
1960
1952
1947
1950
1968
2007
2063
2120
2155
2147
2096
2021
1950
1910
1906
1925
1950
1966
1970
1967
1965
1963
1962
1962
1962
1963
1964
1965
1966
1967
1968
1969
1970
1970
1970
1970
1971
1971
1973
1974
1976
1977
1977
1977
1977
1977
1978
1979
1980
1982
1983
1983
1984
1985
1986
1986
1987
1988
1989
1989
1990
1990
1989
1988
1986
1984
1982
1981
1979
1978
1976
1975
1973
1971
1970
1969
1968
1968
1968
1968
1968
1967
1967
1966
1966
1965
1965
1966
1967
1967
1968
1968
1968
1968
1967
1967
1967
1968
1969
1969
1970
1971
1971
1970
1970
1970
1970
1970
1971
1972
1972
1972
1972
1972
1971
1971
1970
1971
1971
1972
1972
1972
1971
1971
1971
1970
1970
1970
1970
1969
1968
1968
1967
1968
1968
1970
1971
1973
1975
1978
1979
1980
1979
1977
1975
1973
1971
1970
1970
1970
1970
1971
1971
1971
1970
1970
1971
1972
1974
1973
1969
1962
1955
1953
1963
1991
2041
2100
2152
2170
2142
2077
2001
1942
1918
1926
1948
1967
1975
1973
1969
1967
1966
1966
1966
1966
1967
1967
1968
1969
1970
1971
1971
1971
1971
1971
1972
1973
1974
1975
1975
1976
1976
1976
1976
1977
1977
1978
1979
1980
1982
1983
1983
1984
1984
1985
1985
1986
1988
1988
1989
1989
1988
1987
1985
1983
1981
1979
1978
1977
1976
1975
1974
1972
1971
1971
1970
1970
1970
1971
1971
1971
1970
1970
1969
1968
1968
1969
1969
1970
1971
1971
1971
1970
1970
1970
1971
1971
1973
1974
1974
1974
1974
1973
1973
1973
1973
1974
1975
1976
1976
1976
1976
1975
1974
1974
1974
1975
1975
1976
1976
1976
1976
1975
1975
1975
1975
1975
1975
1976
1976
1976
1975
1975
1974
1974
1974
1974
1974
1973
1972
1971
1971
1972
1974
1976
1978
1980
1982
1984
1984
1984
1983
1981
1979
1978
1977
1976
1976
1976
1977
1977
1976
1976
1975
1975
1976
1978
1979
1978
1974
1967
1960
1959
1971
2000
2049
2109
2159
2175
2146
2080
2005
1948
1925
1934
1956
1974
1980
1977
1974
1972
1971
1970
1970
1970
1970
1971
1972
1973
1974
1974
1974
1975
1975
1975
1975
1976
1977
1978
1978
1979
1979
1979
1979
1980
1980
1981
1983
1984
1985
1986
1987
1987
1987
1988
1988
1989
1990
1990
1990
1990
1989
1988
1986
1985
1983
1981
1980
1978
1978
1977
1976
1975
1973
1972
1972
1972
1972
1972
1973
1972
1972
1972
1971
1971
1971
1971
1972
1972
1973
1973
1973
1973
1973
1973
1973
1974
1975
1976
1976
1977
1977
1976
1976
1976
1976
1976
1977
1977
1978
1978
1978
1978
1977
1977
1977
1977
1977
1978
1978
1978
1978
1977
1977
1976
1976
1977
1977
1977
1978
1978
1978
1978
1977
1977
1977
1977
1977
1976
1975
1974
1974
1974
1975
1976
1979
1982
1984
1986
1987
1987
1986
1985
1982
1980
1979
1978
1978
1978
1978
1978
1977
1977
1977
1977
1977
1978
1980
1980
1978
1973
1965
1960
1964
1982
2020
2075
2132
2168
2164
2116
2043
1973
1931
1924
1941
1964
1978
1980
1976
1973
1972
1971
1970
1971
1971
1972
1973
1974
1975
1975
1976
1976
1976
1976
1976
1977
1978
1979
1980
1980
1980
1981
1981
1981
1982
1982
1984
1985
1986
1987
1988
1988
1989
1989
1990
1990
1991
1992
1992
1992
1991
1990
1988
1987
1986
1985
1983
1982
1980
1979
1977
1976
1975
1974
1973
1973
1973
1974
1974
1973
1973
1972
1971
1971
1971
1971
1971
1971
1972
1972
1972
1971
1971
1972
1972
1973
1974
1975
1975
1975
1975
1975
1975
1975
1975
1975
1976
1977
1977
1977
1977
1976
1976
1975
1975
1976
1976
1976
1976
1976
1976
1976
1975
1975
1975
1975
1976
1976
1976
1976
1976
1976
1975
1975
1974
1973
1973
1972
1972
1972
1974
1976
1977
1979
1980
1982
1984
1985
1985
1983
1981
1979
1976
1974
1973
1973
1974
1974
1975
1975
1975
1975
1974
1975
1976
1976
1972
1966
1959
1959
1970
1999
2048
2105
2150
2161
2128
2061
1988
1934
1915
1926
1950
1968
1975
1973
1970
1969
1968
1969
1969
1968
1968
1968
1969
1970
1971
1972
1972
1973
1973
1973
1974
1974
1975
1975
1976
1977
1978
1979
1979
1979
1980
1980
1981
1982
1984
1985
1986
1987
1987
1988
1988
1989
1990
1990
1991
1991
1991
1990
1989
1987
1984
1982
1980
1979
1977
1976
1975
1973
1972
1970
1969
1968
1967
1966
1966
1966
