2038
2038
2038
2038
2039
2038
2038
2038
2038
2038
2037
2038
2038
2039
2040
2042
2042
2041
2039
2037
2037
2037
2038
2039
2039
2039
2039
2039
2039
2038
2038
2038
2039
2039
2040
2039
2040
2040
2039
2038
2037
2037
2039
2041
2043
2043
2041
2039
2038
2037
2038
2039
2040
2040
2040
2040
2040
2039
2039
2039
2039
2039
2039
2040
2040
2041
2040
2041
2042
2041
2040
2039
2040
2041
2043
2044
2043
2041
2038
2037
2036
2038
2039
2040
2041
2041
2040
2035
2027
2022
2025
2039
2062
2082
2088
2076
2050
2024
2008
2004
2011
2021
2029
2035
2039
2042
2045
2045
2043
2041
2041
2041
2043
2043
2044
2043
2043
2043
2043
2043
2043
2043
2043
2043
2043
2043
2044
2044
2044
2044
2045
2044
2044
2042
2043
2044
2046
2048
2048
2048
2046
2044
2043
2044
2046
2046
2046
2046
2046
2046
2047
2048
2048
2048
2048
2048
2048
2049
2048
2048
2049
2048
2048
2047
2046
2045
2045
2045
2045
2044
2042
2039
2037
2036
2037
2037
2037
2037
2036
2036
2036
2036
2036
2037
2037
2037
2037
2037
2037
2037
2037
2038
2039
2038
2037
2036
2036
2037
2039
2041
2042
2041
2038
2037
2036
2036
2038
2038
2038
2037
2037
2037
2038
2038
2039
2039
2039
2038
2038
2038
2038
2038
2039
2040
2039
2039
2038
2038
2039
2040
2041
2041
2041
2039
2037
2038
2037
2038
2038
2038
2038
2038
2038
2039
2039
2039
2039
2039
2039
2039
2039
2039
2039
2039
2040
2039
2038
2037
2035
2036
2037
2040
2042
2042
2040
2038
2036
2036
2036
2037
2037
2037
2038
2038
2038
2038
2038
2037
2037
2037
2036
2037
2038
2038
2039
2039
2039
2038
2037
2036
2036
2036
2038
2040
2041
2040
2038
2037
2036
2036
2037
2038
2039
2039
2039
2039
2039
2038
2038
2037
2036
2036
2036
2037
2037
2037
2038
2040
2037
2031
2023
2019
2026
2045
2070
2088
2087
2068
2039
2013
1999
2001
2010
2021
2029
2033
2036
2038
2039
2039
2039
2040
2041
2042
2042
2042
2042
2042
2042
2043
2042
2041
2040
2040
2042
2045
2048
2048
2047
2044
2041
2040
2041
2043
2043
2044
2043
2043
2043
2043
2044
2044
2044
2045
2045
2045
2046
2046
2045
2047
2046
2046
2046
2045
2046
2047
2048
2050
2050
2048
2047
2046
2045
2046
2046
2046
2045
2044
2043
2041
2040
2039
2039
2038
2038
2037
2037
2037
2037
2037
2038
2038
2038
2037
2037
2036
2038
2039
2041
2042
2041
2039
2038
2038
2038
2040
2040
2040
2040
2039
2039
2040
2040
2041
2041
2041
2041
2041
2041
2041
2041
2041
2041
2041
2041
2040
2040
2040
2041
2043
2044
2043
2042
2040
2040
2039
2041
2041
2041
2040
2040
2040
2040
2041
2041
2041
2040
2040
2039
2039
2039
2039
2040
2041
2041
2040
2039
2038
2038
2039
2041
2043
2044
2043
2041
2039
2039
2039
2039
2039
2039
2040
2040
2040
2040
2040
2039
2039
2039
2039
2040
2040
2040
2040
2040
2040
2040
2039
2038
2039
2040
2042
2044
2045
2044
2042
2040
2039
2040
2039
2039
2038
2038
2038
2038
2039
2039
2040
2039
2038
2032
2026
2026
2038
2058
2081
2093
2085
2059
2027
2002
1991
1995
2007
2018
2025
2029
2033
2035
2038
2039
2040
2040
2041
2041
2042
2042
2042
2042
2041
2041
2041
2042
2042
2043
2042
2042
2042
2041
2041
2039
2039
2041
2043
2046
2047
2047
2045
2043
2042
2041
2043
2043
2043
2044
2044
2044
2044
2043
2043
2043
2043
2043
2043
2044
2043
2042
2043
2043
2042
2041
2039
2039
2039
2040
2041
2041
2039
2035
2032
2030
2030
2031
2031
2031
2030
2029
2028
2028
2029
2029
2029
2030
2030
2030
2030
2030
2030
2030
2031
2030
2031
2030
2028
2027
2029
2032
2035
2037
2036
2033
2030
2028
2029
2030
2032
2033
2033
2031
2030
2029
2031
2034
2037
2038
2037
2034
2032
2030
2031
2031
2033
2032
2032
2032
2032
2032
2033
2034
2035
2035
2034
2033
2032
2032
2033
2033
2033
2033
2033
2033
2033
2033
2033
2033
2033
2033
2033
2032
2032
2032
2032
2033
2033
2033
2033
2032
2032
2033
2035
2036
2036
2035
2034
2034
2033
2034
2034
2034
2033
2033
2034
2034
2035
2035
2036
2036
2036
2035
2036
2035
2036
2036
2036
2036
2035
2033
2032
2032
2034
2036
2037
2038
2038
2037
2033
2027
2021
2019
2029
2048
2071
2085
2080
2059
2031
2008
1998
2001
2011
2021
2029
2034
2036
2039
2039
2039
2039
2038
2040
2041
2043
2043
2043
2041
2041
2040
2040
2041
2041
2041
2041
2042
2042
2043
2043
2043
2043
2043
2043
2043
2043
2043
2044
2045
2045
2045
2045
2045
2045
2044
2045
2047
2048
2049
2049
2048
2048
2048
2048
2048
2049
2051
2051
2051
2052
2051
2051
2050
2050
2049
2049
2049
2048
2047
2046
2044
2043
2041
2041
2039
2038
2039
2040
2041
2042
2041
2040
2038
2037
2037
2038
2039
2039
2039
2040
2040
2039
2039
2039
2039
2039
2040
2040
2041
2041
2041
2040
2040
2041
2040
2040
2040
2040
2042
2044
2045
2045
2043
2041
2040
2040
2041
2041
2042
2042
2042
2041
2041
2041
2041
2042
2042
2042
2042
2042
2042
2042
2042
2044
2043
2044
2042
2039
2038
2038
2042
2045
2047
2046
2043
2040
2038
2039
2040
2041
2042
2041
2041
2040
2040
2040
2040
2040
2041
2041
2041
2041
2040
2040
2040
2040
2041
2040
2040
2040
2041
2043
2044
2044
2042
2041
2040
2040
2041
2042
2043
2043
2043
2043
2043
2044
2044
2045
2045
2045
2044
2043
2043
2042
2042
2043
2043
2043
2045
2045
2043
2038
2031
2026
2029
2045
2068
2087
2093
2080
2055
2029
2012
2011
2019
2030
2039
2043
2044
2045
2045
2045
2045
2045
2045
2046
2046
2046
2046
2046
2045
2044
2044
2045
2047
2048
2048
2048
2047
2045
2044
2045
2045
2046
2045
2045
2046
2046
2046
2047
2047
2047
2047
2047
2047
2047
2048
2048
2049
2049
2049
2048
2048
2050
2052
2054
2054
2054
2052
2051
2051
2051
2052
2052
2051
2051
2050
2049
2048
2048
2047
2046
2044
2043
2041
2040
2039
2039
2039
2039
2039
2038
2037
2036
2035
2036
2037
2039
2039
2039
2037
2035
2034
2035
2035
2035
2036
2036
2036
2037
2036
2036
2036
2036
2036
2036
2036
2037
2037
2037
2037
2037
2036
2036
2035
2034
2035
2037
2038
2039
2039
2037
2035
2034
2033
2034
2035
2035
2035
2035
2035
2034
2033
2033
2032
2033
2033
2033
2033
2033
2033
2032
2033
2032
2032
2031
2031
2031
2032
2034
2035
2035
2034
2032
2030
2029
2030
2030
2032
2033
2033
2033
2033
2033
2033
2034
2034
2034
2033
2033
2033
2033
2032
2033
2032
2033
2032
2031
2031
2033
2034
2032
2025
2019
2021
2035
2059
2080
2085
2068
2039
2009
1992
1991
2001
2014
2024
2029
2033
2036
2037
2037
2037
2036
2037
2037
2038
2038
2037
2037
2037
2038
2039
2040
2039
2038
2038
2037
2038
2039
2039
2039
2039
2039
2038
2039
2039
2039
2040
2040
2040
2040
2040
2039
2039
2040
2041
2041
2042
2041
2041
2042
2044
2046
2047
2047
2047
2046
2045
2046
2048
2048
2048
2048
2048
2047
2046
2046
2045
2043
2041
2040
2038
2036
2035
2034
2033
2033
2033
2033
2032
2031
2030
2030
2031
2033
2034
2033
2032
2031
2029
2030
2030
2031
2030
2031
2031
2032
2032
2032
2032
2032
2032
2032
2032
2032
2032
2033
2034
2035
2034
2034
2032
2032
2033
2034
2036
2037
2036
2035
2034
2033
2033
2034
2034
2035
2035
2035
2035
2035
2036
2036
2036
2036
2035
2036
2036
2036
2036
2037
2038
2037
2035
2034
2033
2034
2036
2038
2039
2037
2036
2034
2033
2035
2035
2035
2035
2035
2035
2035
2035
2036
2036
2037
2037
2038
2038
2039
2038
2038
2038
2038
2037
2037
2036
2035
2035
2037
2038
2040
2040
2041
2040
2037
2030
2022
2017
2022
2040
2064
2083
2086
2069
2041
2013
1999
2000
2011
2023
2032
2036
2038
2039
2039
2039
2037
2037
2038
2041
2044
2046
2045
2043
2040
2038
2038
2040
2040
2041
2041
2041
2041
2040
2040
2041
2041
2041
2041
2041
2041
2041
2042
2042
2042
2042
2041
2041
2041
2042
2044
2047
2048
2048
2047
2045
2045
2045
2047
2048
2049
2049
2050
2050
2050
2050
2050
2051
2051
2050
2050
2048
2048
2046
2044
2043
2042
2040
2039
2037
2036
2036
2037
2039
2039
2038
2036
2035
2034
2034
2035
2036
2036
2036
2036
2035
2035
2036
2036
2037
2036
2036
2035
2034
2035
2036
2038
2039
2040
2040
2039
2038
2038
2038
2040
2042
2042
2041
2039
2038
2038
2039
2040
2040
2040
2040
2040
2041
2041
2041
2042
2041
2041
2041
2041
2040
2041
2040
2041
2041
2040
2041
2039
2038
2039
2040
2042
2044
2044
2043
2041
2040
2040
2041
2041
2042
2042
2042
2042
2043
2043
2043
2042
2041
2041
2041
2042
2043
2043
2044
2043
2043
2042
2042
2042
2043
2046
2048
2048
2048
2047
2045
2044
2043
2043
2042
2042
2043
2043
2044
2045
2046
2046
2044
2039
2031
2027
2033
2050
2074
2093
2095
2077
2048
2020
2004
2005
2015
2028
2036
2041
2043
2044
2045
2047
2047
2047
2048
2048
2049
2049
2049
2049
2048
2048
2049
2049
2050
2050
2050
2050
2050
2051
2051
2051
2050
2050
2050
2051
2053
2054
2055
2054
2053
2052
2050
2051
2052
2053
2053
2054
2054
2054
2054
2054
2054
2054
2055
2055
2055
2055
2055
2054
2055
2055
2054
2052
2051
2051
2052
2054
2054
2053
2049
2046
2043
2042
2043
2043
2044
2043
2043
2042
2042
2042
2042
2042
2043
2043
2044
2044
2044
2044
2044
2045
2045
2046
2045
2043
2042
2043
2045
2048
2051
2051
2048
2046
2044
2044
2045
2046
2047
2046
2045
2045
2045
2046
2046
2046
2046
2046
2046
2046
2045
2044
2045
2045
2045
2044
2044
2043
2044
2045
2047
2048
2047
2045
2043
2042
2043
2043
2044
2044
2043
2043
2042
2042
2043
2043
2044
2044
2044
2044
2043
2043
2042
2043
2044
2044
2045
2044
2044
2044
2045
2047
2048
2048
2046
2044
2042
2040
2040
2041
2041
2041
2041
2041
2042
2042
2041
2035
2028
2029
2041
2062
2084
2095
2084
2058
2028
2004
1993
1996
2005
2016
2025
2033
2041
2045
2046
2045
2043
2043
2043
2044
2043
2045
2045
2045
2045
2045
2045
2045
2045
2045
2045
2045
2045
2045
2047
2046
2045
2044
2044
2045
2046
2048
2049
2049
2048
2047
2046
2046
2048
2048
2048
2048
2048
2048
2048
2048
2049
2049
2049
2049
2048
2048
2048
2048
2049
2049
2050
2049
2047
2045
2043
2042
2044
2045
2045
2043
2040
2037
2034
2034
2034
2035
2036
2036
2036
2036
2034
2033
2032
2032
2033
2034
2034
2035
2035
2035
2035
2035
2034
2035
2034
2034
2035
2036
2038
2038
2038
2037
2036
2035
2034
2035
2035
2036
2036
2036
2036
2036
2035
2035
2035
2036
2037
2037
2037
2037
2036
2036
2036
2036
2036
2035
2035
2034
2035
2037
2038
2038
2037
2036
2034
2033
2035
2036
2036
2036
2036
2036
2035
2035
2036
2036
2036
2036
2036
2036
2036
2036
2035
2036
2036
2035
2034
2033
2034
2035
2037
2039
2039
2038
2036
2034
2033
2034
2035
2035
2036
2036
2036
2037
2037
2037
2037
2037
2037
2037
2037
2036
2035
2035
2036
2036
2036
2036
2036
2037
2038
2037
2033
2026
2020
2023
2038
2061
2081
2086
2072
2047
2017
2000
1997
2007
2021
2033
2040
2041
2040
2038
2036
2037
2037
2039
2040
2040
2040
2039
2039
2039
2040
2043
2044
2044
2042
2041
2040
2039
2041
2041
2041
2041
2041
2041
2042
2042
2042
2042
2042
2042
2042
2042
2042
2043
2043
2044
2044
2044
2044
2042
2045
2045
2047
2048
2048
2048
2048
2048
2048
2048
2047
2047
2047
2047
2048
2048
2047
2046
2045
2043
2041
2040
2039
2039
2038
2037
2037
2037
2036
2035
2033
2032
2033
2036
2038
2039
2038
2036
2035
2034
2034
2035
2035
2035
2036
2036
2037
2037
2037
2037
2036
2036
2036
2036
2037
2038
2038
2040
2039
2038
2037
2036
2036
2038
2040
2041
2042
2041
2039
2038
2037
2038
2038
2038
2039
2040
2040
2040
2040
2040
2040
2040
2039
2039
2040
2040
2040
2040
2040
2040
2040
2040
2039
2039
2039
2040
2042
2043
2043
2042
2040
2039
2037
2039
2039
2041
2041
2041
2041
2041
2041
2041
2041
2041
2042
2042
2042
2042
2042
2041
2042
2042
2042
2041
2040
2041
2042
2043
2045
2045
2045
2043
2042
2040
2042
2042
2042
2043
2042
2042
2042
2042
2043
2044
2044
2045
2045
2045
2045
2045
2044
2045
2044
2043
2042
2041
2042
2043
2045
2047
2048
2047
2044
2038
2030
2025
2027
2042
2065
2086
2093
2081
2056
2030
2013
2011
2018
2029
2037
2041
2043
2044
2046
2046
2046
2046
2045
2045
2046
2047
2048
2048
2048
2047
2047
2046
2046
2047
2047
2047
2047
2047
2047
2047
2047
2048
2048
2048
2048
2047
2047
2047
2047
2047
2048
2048
2048
2047
2047
2047
2048
2050
2052
2052
2051
2049
2049
2048
2051
2050
2051
2050
2051
2051
2051
2051
2051
2051
2050
2049
2048
2048
2048
2047
2046
2046
2045
2045
2043
2041
2040
2040
2043
2044
2044
2043
2042
2041
2041
2042
2043
2042
2042
2041
2042
2043
2044
2044
2044
2044
2044
2044
2043
2044
2044
2044
2045
2045
2045
2044
2042
2042
2043
2045
2048
2048
2048
2046
2045
2044
2044
2045
2044
2045
2045
2046
2046
2046
2046
2046
2045
2045
2045
2045
2045
2046
2047
2048
2048
2047
2046
2044
2044
2045
2047
2048
2050
2049
2048
2046
2044
2045
2045
2047
2047
2047
2047
2047
2047
2046
2046
2046
2047
2047
2047
2047
2048
2048
2048
2048
2047
2047
2046
2046
2047
2048
2050
2050
2050
2048
2047
2046
2046
2047
2048
2048
2048
2048
2048
2048
2047
2047
2047
2047
2048
2048
2048
2048
2048
2048
2048
2049
2048
2048
2048
2048
2048
2048
2049
2048
2048
2046
2045
2045
2047
2048
2048
2045
2038
2032
2034
2048
2069
2090
2097
2085
2059
2031
2011
2005
2010
2021
2030
2036
2040
2044
2047
2048
2050
2050
2051
2050
2049
2048
2048
2049
2050
2050
2050
2050
2050
2050
2050
2050
2051
2051
2051
2051
2051
2051
2050
2050
2051
2052
2052
2052
2051
2051
2051
2052
2053
2055
2055
2055
2054
2053
2052
2052
2052
2052
2052
2052
2052
2052
2052
2052
2052
2051
2051
2051
2050
2050
2050
2049
2050
2048
2048
2046
2044
2043
2043
2043
2044
2045
2044
2043
2042
2040
2041
2041
2041
2042
2042
2042
2043
2043
2044
2044
2044
2044
2043
2043
2043
2044
2043
2045
2045
2045
2045
2044
2043
2043
2044
2046
2048
2048
2047
2045
2043
2044
2044
2044
2044
2045
2045
2045
2045
2045
2045
2045
2044
2044
2044
2044
2045
2045
2046
2046
2044
2044
2042
2041
2042
2044
2047
2048
2048
2046
2044
2042
2041
2042
2042
2043
2043
2044
2044
2044
2044
2044
2043
2043
2043
2043
2043
2044
2044
2045
2044
2044
2042
2041
2041
2042
2044
2045
2046
2045
2043
2042
2041
2041
2041
2042
2042
2042
2043
2043
2042
2042
2041
2041
2042
2042
2044
2045
2045
2043
2042
2041
2041
2044
2044
2044
2043
2041
2042
2042
2043
2043
2042
2040
2035
2029
2026
2032
2049
2072
2090
2092
2074
2045
2017
2000
1998
2006
2017
2026
2032
2036
2041
2042
2043
2043
2042
2042
2044
2046
2047
2047
2046
2044
2043
2042
2044
2045
2045
2045
2045
2045
2045
2045
2045
2046
2046
2046
2046
2046
2046
2047
2046
2047
2047
2046
2046
2045
2045
2046
2048
2048
2049
2048
2047
2046
2046
2047
2048
2048
2048
2048
2047
2047
2046
2046
2046
2046
2045
2045
2044
2043
2042
2041
2040
2039
2039
2038
2037
2036
2035
2036
2037
2038
2037
2036
2035
2034
2035
2035
2036
2036
2035
2035
2035
2035
2036
2036
2036
2036
2036
2036
2036
2036
2036
2036
2037
2037
2038
2037
2036
2036
2037
2039
2040
2040
2039
2038
2038
2037
2038
2038
2038
2037
2037
2037
2038
2038
2038
2038
2038
2037
2037
2037
2037
2037
2037
2038
2038
2037
2037
2036
2036
2037
2038
2039
2041
2039
2038
2036
2035
2036
2037
2039
2039
2039
2038
2037
2037
2037
2038
2038
2038
2037
2037
2037
2038
2038
2039
2039
2039
2038
2036
2036
2036
2038
2040
2040
2040
2039
2038
2037
2037
2038
2038
2038
2038
2038
2038
2039
2039
2039
2040
2040
2039
2040
2040
2040
2041
2041
2041
2040
2039
2037
2036
2036
2038
2040
2043
2043
2037
2029
2020
2020
2033
2056
2079
2089
2081
2056
2029
2009
2003
2009
2019
2028
2034
2037
2040
2041
2041
2041
2041
2042
2041
2041
2041
2042
2044
2046
2046
2045
2043
2042
2041
2042
2043
2045
2045
2045
2045
2045
2045
2045
2045
2046
2047
2047
2047
2047
2047
2047
2046
2046
2047
2046
2047
2047
2048
2049
2050
2052
2051
2051
2050
2049
2050
2051
2053
2053
2052
2052
2052
2052
2052
2052
2052
2051
2049
2048
2048
2046
2045
2045
2044
2042
2041
2039
2038
2038
2039
2041
2042
2042
2040
2038
2037
2037
2037
2038
2038
2038
2037
2037
2038
2038
2039
2039
2040
2040
2040
2040
2039
2039
2040
2040
2041
2040
2040
2039
2039
2041
2042
2043
2042
2041
2040
2040
2040
2041
2041
2040
2040
2039
2040
2040
2040
2041
2041
2041
2041
2041
2040
2040
2040
2040
2041
2042
2042
2040
2039
2038
2040
2043
2045
2046
2043
2041
2039
2038
2040
2041
2041
2040
2040
2040
2040
2041
2041
2041
2041
2041
2041
2041
2041
2041
2040
2042
2043
2043
2041
2040
2039
2040
2043
2045
2047
2045
2043
2041
2039
2040
2042
2043
2042
2041
2040
2040
2040
2040
2042
2041
2041
2040
2041
2041
2042
2042
2044
2044
2044
2043
2042
2042
2042
2043
2045
2045
2044
2042
2041
2040
2040
2041
2042
2043
2041
2036
2028
2024
2029
2046
2069
2087
2089
2074
2048
2023
2011
2012
2021
2031
2038
2040
2040
2042
2045
2047
2048
2047
2046
2044
2043
2043
2043
2044
2045
2045
2045
2045
2045
2045
2045
2045
2045
2045
2046
2046
2046
2046
2046
2046
2046
2046
2045
2045
2045
2046
2048
2049
2049
2048
2047
2046
2046
2046
2048
2048
2049
2049
2050
2050
2049
2050
2049
2050
2051
2051
2052
2052
2052
2051
2050
2050
2049
2048
2047
2046
2045
2046
2046
2045
2043
2040
2039
2038
2039
2040
2040
2040
2039
2039
2039
2039
2039
2039
2039
2040
2040
2040
2040
2040
2040
2041
2041
2041
2040
2038
2038
2039
2041
2043
2045
2044
2042
2040
2039
2040
2041
2042
2042
2041
2041
2041
2040
2041
2041
2041
2042
2042
2042
2042
2042
2041
2042
2044
2043
2043
2041
2040
2040
2043
2045
2046
2045
2043
2041
2040
2040
2042
2042
2042
2042
2041
2041
2041
2042
2042
2043
2042
2042
2042
2042
2042
2042
2043
2043
2044
2043
2042
2040
2040
2042
2045
2048
2047
2046
2043
2042
2040
2040
2040
2041
2044
2046
2048
2047
2044
2042
2041
2042
2042
2044
2043
2043
2043
2044
2044
2044
2044
2043
2042
2041
2041
2042
2044
2047
2047
2046
2045
2043
2044
2045
2047
2047
2045
2044
2044
2044
2044
2044
2044
2043
2044
2044
2044
2040
2033
2029
2033
2048
2069
2087
2091
2077
2052
2027
2011
2007
2013
2021
2029
2035
2040
2043
2045
2047
2047
2047
2047
2048
2047
2047
2048
2047
2048
2048
2048
2048
2049
2049
2048
2048
2047
2046
2046
2048
2049
2051
2051
2050
2048
2047
2047
2047
2048
2048
2048
2048
2048
2048
2048
2049
2049
2049
2049
2050
2050
2050
2050
2049
2050
2050
2049
2048
2048
2048
2048
2049
2051
2050
2049
2047
2045
2044
2044
2044
2044
2043
2042
2041
2040
2039
2039
2038
2039
2040
2040
2040
2040
2040
2039
2039
2039
2040
2040
2040
2040
2041
2043
2044
2044
2043
2042
2041
2040
2042
2043
2043
2043
2043
2043
2042
2043
2043
2043
2043
2043
2043
2043
2043
2043
2043
2045
2044
2044
2043
2041
2040
2041
2043
2045
2046
2045
2043
2042
2041
2041
2042
2042
2042
2042
2041
2041
2041
2041
2042
2043
2043
2043
2043
2042
2042
2042
2042
2042
2042
2042
2041
2041
2041
2042
2044
2045
2044
2043
2042
2041
2041
2042
2042
2042
2041
2042
2042
2042
2043
2043
2043
2042
2042
2042
2041
2042
2041
2041
2043
2042
2042
2041
2040
2040
2042
2045
2046
2047
2044
2042
2041
2039
2041
2041
2041
2040
2040
2039
2040
2041
2042
2042
2039
2032
2026
2028
2042
2064
2084
2092
2079
2052
2022
2001
1994
2000
2012
2023
2031
2036
2039
2040
2040
2041
2041
2043
2043
2043
2044
2043
2043
2044
2043
2043
2042
2042
2042
2043
2044
2043
2045
2046
2045
2043
2041
2041
2042
2046
2048
2049
2048
2046
2043
2042
2043
2045
2045
2045
2046
2046
2046
2046
2046
2046
2045
2045
2045
2045
2045
2046
2046
2046
2046
2045
2044
2042
2041
2041
2042
2043
2044
2042
2039
2037
2034
2034
2033
2033
2033
2033
2032
2033
2032
2032
2032
2032
2032
2032
2032
2033
2033
2033
2033
2034
2032
2032
2031
2032
2033
2035
2037
2038
2037
2035
2034
2033
2033
2034
2035
2036
2036
2036
2036
2036
2035
2036
2035
2035
2036
2036
2036
2037
2036
2036
2035
2035
2035
2034
2035
2035
2036
2038
2038
2038
2036
2035
2034
2034
2035
2035
2036
2036
2036
2035
2035
2035
2035
2036
2036
2037
2037
2036
2036
2036
2036
2037
2037
2037
2036
2035
2036
2037
2039
2040
2040
2038
2036
2035
2035
2037
2038
2038
2038
2038
2037
2037
2037
2036
2037
2037
2037
2038
2038
2038
2038
2038
2037
2037
2037
2037
2036
2035
2036
2037
2039
2040
2040
2040
2039
2039
2040
2040
2039
2039
2038
2037
2037
2037
2037
2038
2038
2038
2039
2039
2040
2038
2032
2024
2022
2028
2046
2068
2083
2084
2067
2042
2018
2004
2004
2011
2021
2028
2034
2036
2038
2039
2039
2040
2040
2041
2041
2042
2042
2041
2041
2040
2040
2041
2041
2042
2042
2042
2041
2040
2040
2041
2042
2044
2045
2044
2043
2042
2041
2041
2041
2042
2043
2044
2045
2044
2044
2044
2044
2043
2044
2044
2044
2045
2046
2046
2047
2048
2047
2046
2045
2044
2045
2048
2050
2052
2051
2048
2046
2045
2044
2044
2043
2042
2041
2040
2039
2038
2038
2037
2037
2036
2036
2036
2036
2036
2037
2038
2038
2038
2037
2036
2035
2036
2037
2039
2041
2041
2039
2038
2037
2038
2038
2038
2039
2039
2040
2040
2039
2039
2039
2039
2039
2040
2040
2040
2040
2040
2039
2041
2040
2040
2038
2038
2038
2041
2044
2045
2045
2043
2041
2039
2038
2040
2040
2041
2042
2042
2042
2042
2041
2041
2041
2041
2042
2042
2043
2041
2040
2039
2040
2043
2045
2045
2043
2042
2041
2041
2043
2042
2042
2040
2040
2041
2044
2044
2045
2044
2043
2044
2043
2043
2043
2043
2043
2044
2044
2043
2044
2043
2043
2044
2045
2045
2044
2043
2043
2043
2045
2047
2047
2045
2043
2042
2042
2043
2045
2046
2045
2045
2044
2044
2044
2044
2044
2044
2044
2044
2043
2043
2042
2043
2043
2045
2045
2040
2034
2026
2026
2039
2060
2084
2095
2087
2064
2035
2015
2008
2013
2023
2033
2039
2041
2043
2044
2045
2046
2046
2046
2046
2045
2045
2045
2045
2047
2047
2047
2045
2044
2045
2046
2048
2050
2050
2049
2048
2047
2046
2048
2047
2048
2047
2047
2048
2048
2048
2048
2048
2048
2048
2048
2048
2048
2049
2049
2051
2051
2052
2051
2051
2051
2053
2055
2057
2058
2057
2055
2053
2052
2052
2052
2052
2052
2052
2052
2051
2049
2047
2045
2044
2043
2043
2042
2042
2042
2041
2041
2041
2041
2039
2037
2036
2037
2040
2045
2047
2046
2043
2040
2038
2039
2040
2041
2041
2041
2042
2042
2042
2042
2042
2041
2041
2041
2041
2041
2042
2042
2043
2043
2043
2042
2040
2040
2040
2042
2044
2046
2045
2043
2041
2039
2039
2040
2041
2042
2042
2042
2042
2042
2042
2042
2041
2041
2041
2041
2041
2042
2042
2041
2043
2042
2041
2039
2038
2039
2041
2044
2046
2046
2044
2042
2040
2039
2041
2042
2042
2043
2042
2042
2042
2042
2042
2041
2041
2042
2042
2042
2042
2042
2042
2041
2042
2041
2041
2040
2040
2041
2043
2045
2045
2043
2041
2039
2038
2040
2041
2042
2041
2041
2041
2041
2041
2041
2042
2042
2043
2043
2043
2043
2043
2042
2043
2042
2042
2041
2040
2039
2040
2042
2045
2046
2046
2042
2036
2029
2023
2027
2042
2063
2082
2088
2077
2052
2027
2011
2008
2015
2026
2034
2039
2041
2042
2043
2043
2043
2042
2042
2042
2043
2045
2047
2047
2046
2045
2043
2043
2043
2044
2044
2044
2044
2044
2044
2044
2045
2045
2046
2045
2045
2045
2045
2045
2046
2045
2048
2047
2046
2044
2043
2043
2045
2048
2051
2052
2051
2049
2048
2048
2048
2048
2048
2048
2048
2049
2050
2050
2050
2050
2049
2048
2048
2047
2045
2045
2044
2045
2045
2044
2041
2038
2036
2036
2038
2039
2041
2041
2039
2040
2038
2039
2038
2039
2040
2041
2042
2042
2042
2041
2040
2040
2040
2041
2041
2042
2042
2042
2043
2044
2044
2042
2040
2039
2040
2043
2046
2048
2047
2045
2042
2040
2041
2041
2042
2043
2043
2043
2043
2043
2043
2043
2043
2043
2042
2042
2043
2044
2045
2046
2045
2045
2043
2041
2041
2042
2044
2047
2048
2047
2045
2043
2041
2042
2042
2042
2043
2043
2043
2043
2043
2044
2044
2044
2044
2045
2045
2045
2045
2044
2044
2045
2044
2043
2041
2041
2042
2045
2048
2048
2048
2046
2043
2041
2040
2043
2044
2046
2046
2046
2046
2046
2045
2045
2044
2044
2044
2043
2044
2044
2044
2044
2044
2044
2044
2043
2040
2036
2032
2036
2050
2072
2091
2097
2083
2054
2026
2004
1998
2002
2012
2021
2028
2034
2040
2044
2046
2047
2047
2047
2047
2048
2048
2048
2048
2048
2047
2047
2047
2048
2049
2050
2049
2048
2047
2046
2046
2047
2048
2048
2048
2048
2048
2048
2048
2048
2048
2048
2049
2049
2049
2048
2048
2049
2049
2049
2050
2049
2049
2048
2048
2049
2050
2051
2050
2049
2048
2047
2047
2048
2048
2047
2046
2045
2043
2042
2041
2040
2039
2038
2038
2037
2036
2035
2035
2035
2036
2035
2036
2035
2035
2035
2036
2037
2038
2038
2037
2036
2035
2035
2037
2036
2037
2036
2036
2036
2037
2037
2037
2038
2038
2038
2037
2037
2037
2037
2037
2038
2038
2038
2037
2036
2036
2036
2038
2039
2041
2040
2039
2036
2035
2035
2036
2038
2040
2041
2041
2040
2038
2036
2037
2036
2037
2035
2037
2037
2037
2037
2039
2039
2039
2038
2036
2036
2036
2038
2039
2040
2040
2039
2037
2036
2037
2037
2038
2038
2039
2039
2039
2039
2039
2039
2039
2039
2038
2038
2039
2039
2040
2040
2042
2042
2041
2038
2036
2035
2038
2042
2046
2046
2043
2039
2035
2034
2036
2038
2040
2040
2040
2036
2029
2023
2026
2040
2061
2082
2088
2076
2049
2021
2003
1999
2005
2016
2024
2029
2033
2036
2040
2043
2044
2043
2041
2040
2039
2041
2042
2043
2043
2043
2043
2043
2042
2042
2042
2043
2044
2044
2044
2044
2045
2045
2045
2045
2045
2044
2044
2044
2046
2047
2048
2048
2048
2047
2046
2045
2047
2048
2048
2049
2049
2050
2050
2050
2051
2051
2051
2052
2052
2053
2053
2054
2053
2053
2053
2052
2051
2049
2048
2048
2048
2048
2047
2045
2043
2042
2041
2041
2041
2041
2041
2041
2040
2040
2040
2040
2041
2041
2042
2042
2042
2042
2042
2041
2042
2041
2041
2041
2041
2041
2043
2044
2044
2044
2043
2042
2041
2040
2042
2042
2042
2042
2042
2042
2042
2042
2042
2042
2042
2042
2042
2042
2042
2042
2041
2042
2043
2043
2042
2041
2040
2040
2041
2044
2045
2044
2043
2041
2040
2040
2041
2041
2041
2041
2041
2041
2041
2041
2042
2042
2041
2041
2041
2041
2041
2042
2042
2042
2041
2041
2040
2040
2040
2042
2044
2045
2044
2043
2042
2041
2040
2042
2041
2041
2040
2040
2041
2042
2043
2043
2043
2042
2041
2041
2042
2043
2044
2043
2044
2044
2043
2042
2041
2040
2041
2042
2044
2044
2043
2042
2040
2041
2042
2043
2039
2034
2026
2023
2032
2050
2074
2089
2087
2067
2040
2017
2007
2010
2020
2031
2038
2040
2041
2041
2041
2041
2043
2045
2047
2047
2046
2044
2043
2043
2043
2044
2045
2045
2045
2045
2045
2045
2045
2045
2045
2046
2046
2046
2046
2046
2045
2047
2046
2045
2044
2043
2043
2046
2048
2050
2050
2048
2047
2046
2045
2048
2048
2049
2049
2050
2050
2050
2050
2050
2050
2050
2051
2051
2051
2051
2050
2049
2048
2047
2046
2044
2043
2041
2041
2042
2042
2042
2040
2039
2037
2036
2038
2038
2039
2039
2039
2039
2038
2038
2038
2039
2039
2039
2039
2039
2039
2039
2039
2041
2041
2040
2039
2037
2037
2039
2041
2044
2044
2043
2040
2039
2038
2039
2040
2040
2040
2040
2040
2040
2041
2041
2040
2041
2041
2041
2041
2041
2040
2040
2040
2040
2041
2041
2041
2040
2040
2040
2041
2042
2042
2041
2041
2040
2040
2041
2041
2041
2040
2040
2040
2040
2040
2041
2041
2041
2042
2042
2041
2041
2041
2041
2042
2041
2042
2041
2040
2040
2041
2042
2044
2044
2043
2042
2042
2041
2042
2042
2042
2042
2042
2042
2042
2042
2043
2043
2042
2042
2041
2041
2042
2042
2043
2044
2044
2045
2044
2043
2043
2043
2045
2046
2047
2046
2045
2043
2041
2041
2042
2042
2042
2043
2044
2041
2036
2030
2030
2041
2060
2082
2093
2085
2063
2034
2012
2003
2007
2016
2024
2031
2036
2042
2046
2048
2048
2047
2046
2045
2045
2046
2047
2047
2047
2047
2048
2047
2047
2047
2047
2047
2048
2048
2048
2048
2048
2049
2049
2049
2048
2047
2046
2047
2048
2050
2051
2051
2050
2048
2048
2048
2048
2048
2049
2049
2049
2049
2049
2049
2049
2049
2049
2048
2049
2049
2048
2048
2048
2048
2048
2046
2045
2044
2044
2044
2045
2044
2043
2040
2037
2035
2035
2036
2037
2037
2038
2038
2037
2037
2037
2036
2036
2037
2038
2038
2039
2039
2039
2039
2039
2039
2038
2038
2038
2039
2041
2042
2043
2042
2040
2038
2038
2038
2040
2040
2040
2040
2039
2039
2039
2039
2039
2039
2039
2039
2039
2037
2036
2036
2038
2041
2043
2043
2041
2038
2037
2037
2039
2040
2040
2038
2037
2036
2037
2038
2039
2039
2039
2039
2038
2038
2038
2038
2038
2039
2039
2039
2039
2038
2038
2038
2038
2038
2038
2038
2038
2038
2038
2039
2039
2039
2038
2037
2037
2037
2037
2038
2038
2038
2037
2038
2038
2038
2039
2039
2040
2039
2039
2039
2038
2038
2038
2037
2038
2037
2037
2036
2036
2037
2039
2041
2041
2036
2029
2024
2030
2048
2071
2087
2086
2066
2037
2009
1994
1993
2001
2012
2021
2027
2033
2037
2039
2040
2040
2041
2042
2042
2041
2040
2039
2040
2042
2044
2045
2044
2043
2042
2040
2041
2041
2042
2042
2042
2042
2042
2043
2044
2045
2045
2045
2045
2044
2044
2044
2044
2044
2045
2044
2043
2041
2040
2041
2045
2048
2050
2049
2047
2044
2043
2042
2044
2044
2043
2043
2043
2043
2043
2042
2041
2040
2038
2037
2037
2036
2035
2034
2034
2033
2032
2031
2030
2030
2030
2032
2034
2035
2034
2033
2031
2031
2031
2032
2032
2033
2032
2033
2033
2033
2033
2033
2033
2034
2034
2034
2035
2035
2035
2034
2036
2035
2035
2033
2032
2033
2035
2038
2040
2040
2037
2034
2033
2031
2034
2034
2035
2035
2035
2035
2036
2035
2035
2035
2035
2035
2036
2036
2036
2036
2036
2036
2036
2035
2035
2035
2035
2036
2037
2038
2038
2037
2036
2035
2034
2035
2036
2036
2036
2036
2036
2035
2035
2035
2036
2036
2037
2037
2036
2036
2036
2036
2038
2038
2038
2037
2036
2036
2037
2038
2039
2039
2038
2037
2036
2036
2037
2038
2038
2037
2036
2036
2036
2037
2037
2039
2039
2040
2041
2041
2040
2039
2039
2039
2038
2038
2038
2037
2037
2038
2039
2040
2041
2041
2038
2032
2024
2021
2026
2043
2066
2084
2088
2072
2046
2020
2004
2003
2010
2021
2029
2033
2036
2038
2040
2041
2041
2041
2040
2041
2042
2043
2045
2045
2044
2043
2042
2042
2042
2043
2042
2042
2042
2042
2043
2043
2044
2044
2044
2044
2044
2044
2044
2044
2044
2044
2046
2046
2046
2044
2042
2042
2045
2048
2051
2052
2050
2048
2048
2047
2048
2049
2049
2049
2049
2050
2051
2051
2052
2052
2051
2050
2049
2048
2048
2047
2046
2046
2045
2043
2041
2039
2038
2039
2041
2043
2043
2042
2040
2039
2038
2038
2038
2038
2039
2039
2040
2040
2040
2040
2040
2040
2040
2040
2040
2040
2041
2042
2041
2042
2042
2041
2039
2038
2038
2041
2045
2047
2047
2044
2041
2039
2038
2041
2041
2042
2041
2041
2042
2042
2042
2042
2042
2042
2042
2042
2042
2042
2042
2042
2042
2042
2042
2041
2041
2042
2043
2045
2046
2045
2044
2042
2041
2041
2041
2043
2043
2043
2043
2043
2043
2042
2043
2042
2043
2043
2042
2043
2043
2043
2043
2043
2042
2042
2041
2041
2041
2043
2044
2045
2045
2044
2043
2042
2041
2042
2043
2043
2043
2043
2043
2043
2043
2043
2044
2044
2043
2043
2043
2043
2043
2043
2044
2044
2044
2044
2044
2044
2045
2046
2047
2048
2047
2045
2044
2043
2043
2043
2044
2043
2043
2043
2043
2043
2044
2043
2039
2031
2025
2027
2041
2063
2084
2092
2081
2056
2029
2012
2009
2017
2028
2037
2042
2043
2043
2044
2045
2045
2046
2045
2045
2045
2045
2045
2045
2045
2045
2046
2046
2046
2046
2046
2046
2046
2046
2047
2047
2047
2046
2046
2046
2047
2048
2049
2049
2048
2047
2046
2046
2048
2048
2048
2048
2048
2048
2048
2049
2049
2049
2050
2050
2050
2050
2051
2051
2051
2053
2052
2053
2052
2051
2050
2050
2052
2052
2052
2049
2047
2045
2042
2042
2041
2041
2040
2038
2040
2040
2040
2040
2039
2039
2039
2040
2040
2039
2039
2039
2040
2040
2040
2039
2037
2037
2038
2041
2044
2045
2044
2041
2037
2036
2037
2041
2044
2044
2043
2041
2039
2038
2039
2040
2040
2040
2039
2039
2040
2041
2041
2042
2043
2043
2042
2039
2036
2036
2039
2044
2047
2048
2045
2042
2038
2038
2039
2041
2042
2042
2042
2042
2042
2042
2042
2041
2041
2041
2042
2042
2043
2042
2043
2044
2043
2042
2041
2039
2040
2042
2044
2046
2046
2044
2042
2040
2039
2041
2041
2042
2043
2043
2043
2043
2042
2042
2042
2042
2042
2042
2043
2043
2043
2043
2043
2042
2042
2042
2042
2042
2043
2045
2046
2045
2044
2043
2042
2042
2042
2042
2043
2042
2042
2043
2043
2043
2043
2044
2044
2045
2045
2045
2045
2044
2043
2044
2044
2044
2043
2042
2042
2043
2045
2047
2047
2043
2036
2028
2027
2040
2060
2083
2094
2086
2063
2035
2012
2002
2006
2016
2027
2034
2039
2043
2044
2046
2046
2046
2046
2046
2046
2046
2047
2048
2048
2049
2048
2048
2047
2046
2046
2047
2047
2048
2047
2048
2048
2048
2048
2048
2048
2048
2048
2048
2048
2048
2048
2048
2049
2049
2049
2048
2048
2048
2049
2052
2053
2053
2052
2050
2049
2048
2049
2049
2048
2048
2048
2048
2048
2049
2048
2048
2047
2046
2045
2044
2043
2042
2040
2041
2041
2039
2037
2035
2035
2036
2039
2042
2043
2042
2039
2038
2036
2037
2038
2039
2038
2039
2039
2040
2040
2040
2040
2040
2040
2040
2040
2040
2040
2040
2041
2042
2041
2040
2038
2038
2039
2042
2045
2046
2045
2042
2039
2038
2038
2040
2039
2040
2040
2040
2040
2040
2040
2040
2040
2039
2039
2039
2040
2041
2041
2042
2041
2040
2039
2037
2036
2037
2039
2042
2043
2042
2040
2038
2036
2038
2038
2039
2039
2039
2039
2039
2039
2039
2039
2039
2039
2039
2039
2040
2040
2039
2040
2040
2039
2039
2038
2037
2038
2039
2041
2042
2041
2040
2038
2037
2038
2038
2039
2039
2039
2038
2038
2038
2038
2039
2039
2040
2040
2040
2040
2040
2040
2039
2039
2039
2038
2037
2036
2036
2038
2039
2040
2040
2040
2038
2034
2028
2023
2023
2036
2056
2078
2088
2079
2055
2026
2005
1997
2001
2012
2022
2029
2033
2036
2039
2040
2040
2039
2038
2039
2040
2042
2044
2044
2042
2040
2039
2038
2040
2041
2041
2041
2041
2041
2041
2041
2041
2041
2042
2042
2043
2043
2043
2043
2042
2042
2042
2043
2043
2043
2044
2045
2046
2046
2046
2045
2044
2045
2045
2046
2048
2047
2047
2047
2047
2047
2048
2048
2048
2048
2048
2048
2047
2046
2045
2044
2042
2043
2041
2041
2038
2037
2036
2037
2039
2039
2040
2039
2038
2037
2036
2037
2037
2037
2037
2037
2037
2037
2037
2038
2038
2038
2038
2038
2038
2039
2039
2039
2040
2041
2041
2040
2039
2038
2040
2042
2045
2046
2045
2042
2040
2039
2040
2041
2041
2040
2041
2041
2043
2043
2043
2043
2042
2041
2042
2043
2044
2044
2043
2043
2044
2043
2043
2041
2040
2041
2045
2048
2049
2048
2046
2043
2042
2043
2044
2043
2044
2044
2044
2045
2046
2045
2044
2042
2042
2042
2044
2046
2048
2048
2048
2047
2046
2046
2044
2043
2043
2044
2047
2048
2049
2048
2046
2044
2043
2044
2045
2046
2046
2046
2045
2045
2045
2045
2045
2045
2045
2046
2046
2046
2045
2045
2045
2045
2045
2044
2044
2044
2046
2048
2050
2050
2048
2047
2045
2044
2045
2045
2046
2045
2045
2045
2045
2045
2046
2046
2047
2045
2039
2032
2028
2035
2052
2075
2091
2092
2074
2047
2023
2011
2014
2024
2035
2042
2044
2044
2044
2046
2047
2048
2048
2048
2048
2048
2048
2048
2048
2049
2049
2049
2049
2049
2049
2048
2049
2049
2049
2048
2048
2048
2048
2049
2051
2052
2051
2050
2048
2048
2049
2050
2051
2050
2050
2050
2050
2050
2050
2052
2053
2053
2052
2051
2050
2052
2054
2058
2059
2057
2054
2052
2051
2054
2056
2058
2056
2054
2051
2049
2048
2048
2048
2048
2047
2046
2045
2044
2044
2044
2044
2045
2045
2044
2044
2044
2044
2044
2044
2046
2045
2045
2043
2042
2042
2043
2046
2048
2048
2046
2044
2043
2042
2044
2044
2045
2045
2045
2045
2045
2045
2045
2045
2045
2044
2044
2044
2044
2044
2044
2046
2045
2046
2044
2043
2042
2044
2046
2048
2049
2048
2046
2045
2044
2045
2044
2045
2045
2045
2046
2046
2047
2046
2046
2045
2044
2045
2045
2047
2048
2048
2047
2046
2046
2045
2044
2044
2044
2047
2049
2050
2049
2048
2046
2044
2045
2045
2045
2046
2046
2047
2047
2047
2047
2047
2046
2046
2045
2046
2046
2047
2048
2048
2049
2048
2048
2045
2043
2043
2046
2049
2053
2054
2051
2048
2044
2043
2044
2045
2047
2047
2047
2047
2047
2047
2047
2047
2047
2048
2048
2049
2049
2049
2048
2048
2047
2047
2046
2045
2045
2046
2048
2050
2050
2049
2048
2045
2040
2036
2032
2036
2050
2072
2091
2097
2084
2057
2030
2011
2006
2012
2022
2032
2038
2042
2046
2048
2048
2048
2047
2047
2048
2050
2053
2054
2053
2051
2048
2048
2048
2050
2051
2051
2050
2050
2050
2050
2050
2050
2051
2051
2051
2051
2052
2052
2051
2051
2051
2052
2051
2050
2051
2051
2052
2053
2054
2053
2052
2051
2051
2052
2053
2054
2053
2051
2049
2048
2048
2049
2050
2051
2051
2050
2049
2048
2048
2046
2045
2045
2044
2043
2042
2041
2041
2041
2041
2042
2042
2041
2040
2040
2040
2040
2040
2040
2039
2040
2039
2040
2040
2041
2041
2041
2041
2041
2040
2041
2041
2042
2043
2043
2042
2041
2041
2041
2042
2044
2044
2044
2043
2042
2041
2040
2042
2041
2042
2041
2041
2041
2041
2041
2041
2041
2041
2041
2041
2041
2040
2040
2040
2042
2041
2042
2041
2039
2039
2040
2041
2043
2044
2043
2042
2040
2039
2040
2040
2040
2040
2040
2041
2041
2041
2041
2042
2041
2041
2040
2040
2040
2040
2041
2042
2042
2042
2041
2039
2038
2040
2042
2044
2045
2045
2043
2042
2041
2041
2042
2042
2043
2043
2042
2043
2043
2043
2043
2044
2044
2044
2044
2045
2046
2046
2046
2046
2045
2045
2042
2040
2040
2043
2048
2050
2050
2048
2046
2043
2037
2031
2025
2028
2042
2066
2088
2096
2084
2057
2027
2008
2004
2013
2026
2037
2042
2046
2047
2048
2048
2046
2046
2047
2048
2051
2052
2052
2051
2049
2049
2049
2051
2052
2052
2051
2050
2050
2051
2051
2050
2050
2050
2050
2050
2050
2050
2050
2049
2050
2049
2049
2049
2048
2048
2050
2051
2053
2053
2052
2050
2049
2050
2052
2053
2055
2055
2054
2054
2054
2054
2055
2055
2055
2055
2054
2054
2054
2053
2052
2050
2048
2048
2046
2044
2043
2043
2044
2044
2043
2042
2040
2039
2039
2040
2040
2040
2040
2039
2039
2040
2041
2041
2041
2041
2040
2040
2039
2039
2038
2038
2038
2039
2039
2039
2039
2038
2038
2039
2040
2041
2041
2040
2039
2038
2039
2039
2040
2040
2039
2038
2038
2038
2039
2040
2040
2040
2040
2041
2041
2041
2041
2041
2042
2042
2042
2041
2041
2041
2042
2044
2045
2045
2044
2042
2042
2041
2043
2042
2042
2043
2043
2044
2043
2043
2042
2042
2042
2042
2041
2041
2040
2039
2039
2040
2040
2041
2040
2039
2038
2039
2040
2042
2043
2042
2041
2040
2039
2040
2040
2040
2040
2040
2041
2041
2041
2041
2041
2041
2041
2041
2041
2042
2043
2044
2046
2047
2045
2043
2041
2039
2040
2043
2046
2046
2045
2043
2041
2040
2040
2043
2040
2035
2028
2025
2031
2048
2070
2085
2085
2069
2045
2022
2011
2012
2021
2030
2037
2040
2041
2041
2041
2041
2043
2045
2047
2045
2043
2041
2041
2043
2046
2048
2047
2044
2043
2042
2044
2044
2045
2045
2044
2044
2044
2045
2045
2045
2045
2046
2045
2044
2043
2042
2043
2045
2048
2049
2049
2048
2045
2043
2042
2044
2044
2045
2045
2046
2046
2046
2046
2045
2045
2044
2045
2044
2045
2044
2044
2043
2042
2041
2040
2039
2038
2037
2037
2037
2038
2038
2036
2036
2035
2035
2036
2036
2037
2038
2039
2040
2040
2040
2040
2040
2041
2041
2041
2041
2042
2042
2041
2041
2041
2041
2040
2040
2040
2041
2042
2043
2043
2042
2041
2039
2039
2039
2040
2040
2040
2040
2040
2039
2039
2039
2039
2039
2040
2040
2040
2040
2040
2039
2040
2040
2041
2040
2040
2040
2041
2042
2043
2043
2042
2041
2040
2040
2040
2041
2041
2042
2041
2041
2040
2041
2041
2042
2042
2042
2042
2041
2041
2041
2040
2040
2042
2041
2041
2041
2040
2041
2043
2046
2047
2046
2044
2042
2041
2040
2042
2041
2041
2041
2041
2041
2042
2043
2044
2043
2040
2033
2028
2032
2047
2068
2086
2092
2076
2049
2020
2002
1998
2006
2019
2030
2036
2040
2043
2044
2045
2046
2046
2046
2046
2047
2047
2048
2048
2048
2048
2048
2048
2048
2048
2048
2048
2048
2049
2050
2049
2048
2048
2048
2048
2051
2053
2055
2054
2053
2051
2050
2051
2051
2051
2052
2053
2054
2054
2054
2055
2054
2055
2055
2055
2056
2056
2057
2058
2058
2059
2059
2057
2055
2053
2053
2055
2058
2060
2058
2054
2049
2046
2044
2045
2046
2045
2045
2045
2045
2045
2044
2044
2044
2044
2044
2044
2044
2044
2045
2044
2046
2045
2044
2043
2042
2044
2046
2048
2049
2049
2048
2045
2044
2043
2046
2046
2047
2047
2047
2047
2047
2046
2046
2046
2046
2047
2047
2047
2047
2047
2046
2047
2047
2046
2046
2046
2046
2047
2048
2049
2050
2049
2048
2046
2045
2046
2047
2048
2048
2047
2047
2046
2046
2046
2046
2046
2046
2047
2047
2048
2048
2048
2047
2047
2047
2046
2046
2047
2047
2048
2048
2048
2048
2047
2046
2046
2046
2047
2047
2047
2047
2047
2047
2048
2048
2048
2049
2049
2049
2048
2048
2048
2047
2047
2047
2047
2047
2047
2047
2048
2048
2049
2048
2045
2038
2033
2037
2051
2073
2090
2092
2076
2050
2026
2012
2012
2020
2031
2039
2044
2047
2048
2048
2048
2049
2050
2051
2051
2051
2050
2051
2051
2053
2054
2054
2053
2052
2052
2052
2053
2053
2053
2053
2053
2054
2055
2055
2055
2054
2054
2054
2054
2055
2055
2055
2055
2057
2056
2056
2056
2055
2054
2055
2057
2059
2059
2059
2058
2057
2056
2057
2057
2057
2057
2057
2057
2057
2057
2057
2056
2055
2053
2052
2051
2050
2049
2048
2047
2048
2047
2046
2044
2042
2043
2046
2049
2050
2050
2048
2045
2044
2044
2046
2046
2046
2046
2047
2047
2047
2047
2046
2046
2046
2046
2046
2046
2047
2047
2047
2048
2047
2047
2045
2045
2045
2046
2048
2048
2048
2048
2046
2045
2044
2045
2045
2046
2046
2046
2046
2045
2046
2045
2045
2046
2045
2046
2046
2045
2045
2044
2046
2045
2044
2043
2042
2043
2046
2048
2048
2048
2046
2043
2041
2040
2043
2044
2045
2044
2044
2043
2043
2043
2043
2043
2044
2044
2044
2045
2045
2045
2045
2044
2044
2043
2043
2043
2043
2045
2046
2047
2046
2045
2043
2042
2043
2044
2045
2046
2046
2046
2045
2044
2044
2044
2044
2044
2044
2043
2042
2042
2042
2042
2044
2044
2044
2041
2035
2029
2029
2041
2060
2081
2091
2084
2060
2032
2011
2001
2004
2013
2022
2029
2034
2039
2042
2045
2045
2046
2046
2046
2046
2046
2045
2045
2045
2045
2045
2044
2045
2046
2047
2048
2048
2048
2047
2046
2046
2046
2047
2047
2047
2047
2047
2048
2048
2048
2048
2049
2048
2048
2048
2049
2051
2053
2054
2053
2050
2048
2046
2046
2048
2049
2049
2048
2048
2046
2046
2046
2045
2047
2046
2045
2045
2044
2043
2043
2042
2041
2040
2040
2039
2038
2038
2038
2038
2037
2039
2039
2039
2038
2038
2038
2039
2041
2042
2042
2042
2040
2040
2040
2041
2042
2042
2042
2042
2042
2043
2044
2044
2044
2044
2043
2044
2044
2044
2044
2044
2044
2044
2045
2044
2042
2042
2042
2044
2046
2047
2047
2046
2045
2044
2044
2044
2045
2045
2045
2045
2045
2044
2044
2044
2044
2044
2043
2044
2044
2044
2045
2045
2046
2045
2044
2042
2041
2041
2044
2047
2048
2048
2047
2043
2041
2039
2040
2041
2043
2043
2044
2044
2044
2044
2044
2045
2045
2045
2045
2045
2045
2044
2043
2044
2042
2042
2041
2040
2041
2042
2046
2048
2046
2040
2030
2025
2029
2047
2068
2085
2086
2070
2044
2020
2006
2007
2016
2027
2036
2040
2043
2043
2045
2044
2045
2046
2046
2045
2045
2045
2047
2049
2051
2051
2049
2047
2045
2045
2046
2047
2048
2048
2048
2048
2048
2048
2048
2047
2047
2047
2048
2048
2048
2048
2048
2048
2048
2048
2048
2048
2048
2048
2049
2051
2051
2051
2050
2049
2049
2050
2051
2051
2051
2050
2050
2050
2049
2049
2049
2049
2048
2048
2046
2044
2043
2041
2040
2040
2039
2038
2037
2037
2038
2039
2040
2041
2040
2039
2038
2037
2037
2039
2039
2039
2039
2039
2039
2039
2040
2040
2040
2040
2040
2040
2040
2040
2040
2039
2041
2040
2040
2039
2038
2038
2039
2041
2041
2041
2040
2039
2038
2037
2039
2040
2040
2040
2040
2040
2040
2040
2040
2040
2041
2041
2041
2041
2040
2041
2040
2042
2042
2042
2041
2040
2040
2041
2043
2045
2045
2044
2043
2042
2041
2042
2042
2042
2041
2041
2042
2043
2043
2043
2043
2042
2042
2042
2042
2042
2042
2041
2042
2042
2043
2043
2041
2039
2039
2042
2044
2046
2046
2044
2042
2041
2042
2042
2042
2043
2043
2043
2042
2041
2040
2039
2039
2039
2039
2040
2041
2043
2043
2040
2035
2027
2029
2039
2057
2076
2086
2080
2059
2035
2015
2007
2009
2017
2027
2033
2039
2042
2043
2044
2044
2043
2043
2043
2044
2044
2045
2046
2046
2046
2046
2047
2046
2046
2044
2044
2045
2048
2050
2052
2051
2048
2047
2046
2045
2048
2048
2048
2048
2048
2048
2048
2048
2048
2048
2048
2048
2048
2048
2048
2049
2049
2048
2049
2049
2048
2049
2048
2049
2050
2051
2051
2050
2048
2048
2047
2047
2047
2047
2045
2044
2042
2041
2040
2039
2039
2039
2039
2039
2038
2039
2039
2039
2040
2040
2041
2040
2040
2040
2041
2042
2043
2043
2043
2041
2040
2040
2040
2041
2042
2042
2041
2041
2041
2041
2041
2042
2042
2043
2043
2043
2042
2041
2041
2040
2040
2041
2041
2040
2040
2041
2042
2043
2044
2044
2043
2042
2041
2041
2041
2042
2042
2041
2041
2041
2041
2042
2042
2042
2042
2043
2042
2042
2042
2041
2041
2043
2042
2042
2042
2042
2043
2044
2045
2044
2044
2043
2042
2042
2042
2043
2043
2043
2043
2043
2044
2045
2045
2045
2045
2045
2044
2044
2044
2043
2043
2042
2043
2043
2043
2043
2042
2042
2041
2038
2034
2032
2041
2058
2079
2093
2090
2068
2038
2012
1999
2000
2009
2019
2027
2033
2038
2041
2043
2044
2046
2046
2046
2046
2046
2046
2047
2047
2047
2046
2047
2048
2049
2048
2049
2048
2047
2047
2048
2047
2048
2048
2048
2048
2049
2049
2048
2048
2048
2048
2048
2049
2050
2050
2051
2050
2050
2049
2048
2048
2048
2050
2051
2052
2052
2051
2049
2048
2048
2048
2048
2048
2048
2048
2048
2046
2045
2044
2043
2041
2040
2040
2039
2038
2038
2037
2038
2038
2038
2036
2035
2036
2038
2041
2041
2040
2037
2037
2038
2040
2044
2042
2040
2037
2036
2038
2039
2040
2040
2040
2040
2040
2040
2041
2041
2041
2041
2042
2042
2041
2041
2040
2040
2041
2042
2043
2044
2043
2041
2040
2039
2040
2040
2040
2041
2041
2041
2040
2041
2040
2041
2041
2040
2040
2039
2039
2039
2040
2041
2042
2041
2040
2038
2037
2039
2042
2045
2046
2044
2042
2039
2038
2039
2042
2042
2042
2041
2040
2039
2039
2039
2039
2039
2040
2041
2041
2039
2035
2028
2025
2033
2051
2073
2089
2087
2067
2039
2013
1999
1998
2006
2016
2024
2030
2036
2040
2041
2042
2042
2042
2042
2043
2043
2044
2043
2043
2043
2043
2044
2044
2044
2044
2044
2044
2044
2044
2044
2044
2046
2047
2048
2048
2047
2046
2045
2045
2045
2045
2045
2045
2046
2046
2047
2047
2046
2046
2046
2046
2047
2047
2048
2047
2048
2048
2047
2047
2046
2045
2046
2047
2048
2048
2047
2045
2043
2041
2040
2039
2037
2036
2035
2035
2035
2035
2035
2035
2035
2034
2034
2034
2034
2035
2035
2036
2036
2035
2034
2033
2034
2035
2037
2039
2039
2038
2037
2036
2035
2035
2035
2035
2036
2037
2037
2038
2038
2038
2037
2037
2036
2036
2037
2037
2038
2038
2038
2038
2037
2037
2035
2035
2035
2037
2039
2040
2040
2038
2037
2036
2035
2036
2036
2036
2036
2036
2036
2036
2037
2037
2037
2037
2036
2037
2037
2037
2037
2036
2038
2037
2036
2035
2035
2035
2038
2040
2042
2041
2039
2036
2035
2034
2036
2037
2038
2039
2039
2039
2039
2038
2038
2038
2037
2037
2037
2037
2037
2037
2038
2039
2040
2039
2033
2026
2021
2026
2042
2064
2084
2087
2072
2047
2020
2006
2004
2012
2023
2031
2036
2038
2040
2041
2041
2042
2042
2043
2043
2043
2043
2042
2043
2044
2044
2044
2043
2042
2043
2046
2048
2048
2048
2045
2043
2042
2042
2045
2046
2046
2046
2046
2046
2045
2046
2046
2047
2047
2048
2048
2048
2048
2048
2048
2048
2050
2050
2050
2050
2051
2052
2053
2054
2053
2053
2052
2052
2052
2052
2053
2052
2050
2049
2048
2048
2047
2046
2046
2045
2044
2043
2042
2042
2041
2041
2042
2042
2043
2042
2040
2040
2040
2042
2043
2045
2046
2045
2044
2043
2044
2043
2044
2044
2043
2043
2044
2044
2044
2044
2044
2043
2043
2043
2043
2043
2043
2044
2044
2044
2044
2042
2042
2043
2045
2047
2048
2048
2047
2045
2044
2044
2044
2044
2044
2044
2045
2045
2045
2045
2045
2044
2044
2044
2044
2044
2045
2044
2046
2045
2045
2044
2043
2042
2043
2046
2048
2050
2049
2048
2045
2042
2043
2043
2043
2044
2045
2045
2046
2046
2046
2045
2045
2044
2044
2044
2045
2045
2046
2046
2047
2046
2045
2043
2042
2043
2046
2049
2052
2053
2051
2048
2045
2042
2044
2043
2045
2044
2044
2044
2044
2045
2046
2047
2044
2039
2033
2029
2034
2050
2072
2090
2090
2074
2047
2022
2010
2014
2026
2038
2046
2047
2045
2044
2044
2046
2047
2048
2048
2047
2047
2047
2047
2047
2047
2047
2048
2048
2048
2048
2048
2047
2048
2048
2048
2047
2047
2047
2049
2051
2053
2053
2051
2048
2047
2047
2048
2048
2049
2049
2049
2049
2049
2049
2050
2050
2051
2052
2052
2052
2053
2053
2053
2053
2052
2053
2052
2052
2052
2052
2053
2054
2054
2052
2049
2048
2047
2046
2046
2045
2044
2043
2043
2043
2043
2044
2044
2044
2044
2044
2044
2044
2043
2043
2043
2044
2045
2045
2045
2044
2044
2046
2047
2048
2048
2047
2045
2044
2044
2046
2047
2047
2046
2046
2046
2046
2047
2047
2048
2047
2046
2045
2045
2045
2045
2045
2046
2046
2046
2045
2045
2045
2046
2048
2048
2048
2048
2046
2045
2045
2045
2046
2045
2045
2045
2045
2046
2046
2046
2044
2043
2043
2045
2048
2049
2049
2048
2046
2044
2043
2043
2043
2043
2044
2046
2048
2048
2048
2047
2046
2045
2045
2044
2045
2045
2045
2045
2045
2045
2046
2046
2047
2047
2048
2048
2048
2048
2048
2048
2048
2047
2046
2043
2042
2043
2047
2049
2051
2051
2048
2041
2033
2029
2036
2051
2073
2092
2094
2078
2050
2024
2007
2004
2012
2022
2031
2038
2043
2047
2048
2048
2048
2048
2047
2047
2047
2049
2051
2053
2052
2050
2048
2047
2046
2048
2048
2049
2049
2049
2048
2048
2049
2049
2050
2049
2050
2050
2051
2052
2052
2051
2052
2050
2048
2047
2047
2048
2051
2054
2056
2056
2054
2051
2050
2049
2051
2052
2052
2052
2052
2052
2052
2051
2051
2051
2050
2050
2049
2048
2048
2047
2046
2044
2042
2041
2039
2039
2039
2041
2043
2043
2043
2041
2040
2038
2038
2039
2040
2040
2040
2040
2040
2040
2040
2040
2041
2041
2042
2042
2042
2042
2042
2042
2043
2043
2043
2043
2042
2042
2042
2044
2045
2046
2046
2044
2042
2042
2042
2042
2042
2043
2042
2042
2042
2042
2042
2042
2041
2042
2042
2042
2042
2041
2041
2041
2041
2041
2042
2042
2042
2042
2042
2043
2044
2044
2043
2042
2041
2041
2041
2041
2041
2041
2041
2041
2041
2041
2041
2041
2041
2041
2040
2040
2041
2041
2041
2043
2042
2041
2041
2040
2041
2043
2045
2045
2044
2043
2041
2041
2040
2041
2041
2041
2041
2041
2042
2043
2043
2043
2043
2043
2042
2041
2041
2040
2040
2040
2041
2041
2041
2041
2041
2041
2040
2036
2031
2028
2034
2049
2071
2086
2087
2069
2042
2017
2004
2005
2014
2025
2033
2038
2041
2042
2043
2043
2043
2044
2044
2045
2046
2045
2044
2043
2042
2044
2047
2049
2049
2048
2046
2044
2043
2044
2045
2044
2045
2045
2046
2047
2047
2047
2046
2046
2045
2045
2046
2046
2047
2047
2048
2048
2048
2048
2047
2047
2048
2049
2051
2052
2052
2052
2050
2049
2049
2049
2050
2050
2050
2050
2050
2049
2048
2048
2047
2046
2044
2044
2043
2042
2042
2040
2041
2040
2040
2038
2037
2037
2040
2043
2045
2045
2043
2039
2038
2036
2038
2039
2039
2039
2040
2040
2040
2040
2040
2040
2040
2040
2041
2041
2042
2042
2042
2041
2041
2041
2041
2041
2041
2042
2043
2043
2043
2042
2041
2040
2039
2041
2041
2042
2042
2042
2042
2041
2042
2041
2042
2042
2043
2042
2042
2042
2042
2042
2043
2043
2043
2042
2042
2042
2042
2043
2045
2045
2044
2043
2042
2042
2042
2043
2044
2044
2043
2043
2043
2043
2042
2043
2043
2044
2044
2044
2044
2043
2043
2043
2044
2045
2044
2044
2043
2043
2044
2044
2046
2046
2045
2045
2044
2044
2045
2045
2044
2044
2043
2043
2044
2045
2046
2046
2047
2047
2047
2046
2046
2046
2045
2046
2045
2044
2044
2043
2044
2045
2047
2047
2047
2046
2041
2035
2028
2030
2042
2063
2084
2092
2082
2058
2033
2014
2010
2017
2028
2037
2042
2044
2045
2046
2047
2048
2048
2047
2046
2046
2048
2049
2050
2051
2050
2048
2048
2048
2048
2048
2048
2048
2048
2048
2049
2049
2049
2049
2049
2049
2048
2048
2048
2049
2049
2050
2050
2049
2049
2048
2049
2050
2052
2055
2056
2055
2054
2052
2051
2052
2052
2052
2054
2054
2054
2055
2055
2054
2054
2053
2053
2053
2052
2052
2051
2050
2048
2049
2048
2047
2043
2041
2040
2042
2046
2048
2049
2048
2045
2041
2039
2041
2041
2043
2043
2043
2044
2044
2044
2043
2043
2043
2043
2044
2044
2044
2044
2044
2045
2044
2043
2042
2042
2044
2046
2048
2048
2047
2046
2044
2043
2042
2044
2044
2045
2045
2045
2044
2044
2043
2044
2044
2044
2045
2044
2044
2044
2044
2044
2043
2044
2043
2042
2043
2043
2045
2044
2044
2044
2044
2045
2047
2047
2046
2044
2043
2042
2043
2044
2044
2044
2044
2044
2044
2044
2044
2044
2044
2044
2044
2045
2044
2044
2044
2043
2043
2044
2046
2047
2048
2047
2045
2043
2043
2043
2044
2044
2044
2044
2043
2043
2044
2044
2046
2046
2047
2047
2046
2046
2045
2045
2045
2045
2045
2044
2044
2043
2044
2045
2047
2048
2048
2044
2037
2029
2029
2040
2060
2081
2091
2084
2061
2035
2015
2008
2014
2024
2034
2040
2043
2045
2046
2047
2048
2048
2048
2047
2047
2047
2048
2049
2050
2050
2049
2048
2047
2047
2048
2048
2048
2048
2048
2048
2048
2048
2048
2048
2049
2049
2048
2048
2048
2049
2049
2050
2050
2050
2049
2049
2048
2050
2051
2053
2054
2053
2052
2051
2051
2051
2052
2052
2052
2052
2052
2052
2053
2053
2053
2052
2050
2049
2048
2048
2047
2046
2046
2045
2043
2042
2040
2040
2040
2041
2043
2045
2046
2045
2043
2042
2041
2041
2041
2042
2042
2043
2043
2043
2043
2043
2042
2042
2042
2043
2043
2043
2044
2043
2044
2043
2044
2041
2040
2039
2041
2045
2048
2049
2048
2044
2041
2039
2041
2041
2043
2042
2042
2043
2043
2043
2043
2043
2042
2042
2042
2043
2043
2043
2042
2043
2042
2042
2041
2040
2041
2042
2044
2045
2045
2043
2041
2040
2039
2041
2041
2042
2042
2042
2042
2042
2042
2042
2041
2041
2042
2042
2042
2041
2041
2041
2042
2042
2042
2041
2041
2041
2042
2043
2044
2044
2043
2041
2040
2040
2042
2042
2043
2043
2042
2041
2041
2040
2040
2040
2040
2040
2040
2041
2041
2042
2042
2042
2038
2031
2025
2028
2044
2066
2087
2092
2077
2049
2021
2003
1999
2007
2018
2028
2033
2037
2040
2041
2043
2043
2043
2043
2044
2044
2044
2044
2044
2044
2044
2044
2044
2045
2045
2045
2045
2045
2046
2047
2048
2048
2047
2046
2046
2046
2047
2047
2047
2047
2047
2047
2047
2048
2048
2048
2048
2048
2048
2048
2048
2048
2049
2048
2048
2048
2048
2048
2050
2052
2052
2051
2049
2048
2048
2048
2048
2048
2046
2045
2043
2042
2042
2041
2040
2039
2039
2038
2037
2037
2037
2038
2038
2038
2038
2038
2038
2037
2037
2037
2039
2041
2042
2041
2040
2038
2037
2038
2038
2039
2039
2039
2039
2039
2040
2040
2040
2040
2040
2040
2040
2040
2040
2040
2041
2041
2041
2040
2039
2039
2039
2040
2042
2042
2042
2040
2039
2039
2039
2038
2038
2039
2039
2040
2041
2041
2041
2040
2040
2040
2040
2040
2040
2040
2041
2041
2041
2040
2040
2039
2038
2038
2040
2043
2045
2046
2044
2041
2039
2037
2038
2038
2040
2040
2040
2040
2040
2040
2040
2039
2039
2040
2040
2041
2041
2040
2039
2040
2040
2040
2039
2039
2039
2040
2041
2043
2042
2041
2039
2039
2038
2040
2042
2042
2042
2042
2041
2041
2040
2039
2039
2039
2039
2039
2040
2040
2041
2042
2042
2040
2033
2025
2023
2032
2052
2077
2092
2087
2065
2036
2012
2001
2006
2016
2027
2034
2037
2040
2041
2042
2042
2042
2043
2044
2044
2045
2045
2045
2044
2045
2044
2044
2044
2044
2044
2045
2047
2048
2048
2047
2046
2045
2044
2045
2045
2046
2046
2046
2045
2046
2046
2046
2047
2047
2047
2047
2047
2047
2047
2047
2047
2048
2048
2048
2048
2048
2048
2049
2051
2051
2051
2049
2048
2048
2048
2048
2048
2048
2046
2045
2044
2043
2042
2041
2041
2040
2040
2039
2038
2038
2038
2038
2039
2039
2039
2038
2038
2038
2039
2041
2042
2042
2041
2039
2038
2038
2039
2039
2039
2039
2039
2039
2040
2040
2040
2040
2040
2040
2040
2040
2040
2040
2040
2041
2041
2041
2041
2039
2039
2040
2041
2043
2044
2043
2042
2041
2040
2040
2040
2040
2041
2040
2042
2042
2042
2040
2039
2039
2040
2043
2045
2045
2044
2042
2041
2040
2041
2042
2041
2039
2041
2042
2043
2044
2044
2043
2042
2041
2041
2041
2041
2042
2041
2042
2043
2043
2043
2043
2042
2042
2041
2042
2042
2043
2043
2044
2043
2043
2043
2041
2040
2041
2043
2046
2048
2048
2046
2043
2040
2039
2040
2040
2042
2042
2042
2042
2042
2041
2041
2041
2041
2042
2043
2044
2044
2044
2044
2045
2043
2042
2040
2039
2041
2043
2046
2047
2046
2044
2042
2042
2041
2039
2033
2026
2028
2041
2062
2083
2089
2079
2054
2028
2011
2007
2015
2025
2035
2039
2042
2044
2044
2044
2043
2044
2047
2048
2050
2049
2048
2046
2045
2044
2045
2046
2046
2047
2046
2046
2046
2046
2046
2047
2047
2048
2048
2048
2048
2048
2048
2048
2047
2047
2047
2047
2047
2048
2049
2051
2051
2050
2048
2048
2048
2048
2050
2050
2051
2051
2050
2050
2051
2051
2052
2052
2053
2052
2052
2051
2050
2050
2049
2048
2048
2047
2046
2045
2045
2045
2046
2046
2044
2042
2041
2041
2041
2042
2042
2042
2041
2041
2041
2042
2042
2043
2043
2043
2043
2043
2043
2043
2043
2042
2043
2043
2043
2043
2042
2042
2042
2043
2044
2044
2044
2042
2042
2041
2042
2043
2043
2043
2042
2042
2042
2042
2042
2043
2043
2043
2043
2043
2042
2043
2042
2043
2043
2043
2043
2042
2042
2042
2043
2044
2045
2044
2043
2043
2042
2042
2042
2042
2042
2042
2043
2043
2043
2043
2043
2043
2042
2042
2042
2042
2043
2043
2043
2043
2043
2042
2041
2041
2042
2044
2045
2046
2045
2044
2043
2043
2043
2043
2043
2043
2043
2043
2044
2044
2044
2044
2043
2043
2042
2043
2043
2044
2044
2044
2044
2043
2043
2041
2041
2041
2042
2045
2047
2048
2047
2045
2043
2042
2043
2043
2044
2044
2044
2044
2043
2043
2042
2041
2041
2042
2043
2044
2042
2037
2029
2027
2034
2050
2070
2085
2084
2068
2044
2022
2009
2010
2016
2026
2032
2038
2042
2043
2044
2044
2044
2044
2044
2044
2044
2045
2046
2046
2046
2046
2045
2045
2045
2045
2044
2044
2043
2044
2047
2048
2050
2049
2048
2046
2044
2044
2046
2046
2046
2047
2046
2046
2046
2046
2047
2047
2047
2048
2048
2048
2048
2048
2048
2049
2049
2049
2048
2048
2048
2049
2051
2052
2052
2050
2048
2048
2047
2047
2046
2046
2045
2044
2042
2041
2041
2040
2041
2041
2041
2041
2040
2040
2040
2040
2039
2041
2040
2040
2040
2040
2041
2043
2044
2045
2044
2042
2041
2041
2041
2042
2042
2042
2041
2042
2042
2042
2042
2043
2043
2043
2043
2043
2042
2042
2042
2043
2043
2043
2043
2042
2041
2042
2043
2045
2045
2045
2044
2043
2042
2042
2042
2043
2042
2042
2042
2042
2043
2043
2043
2043
2043
2043
2042
2043
2043
2043
2043
2044
2044
2043
2042
2042
2041
2042
2043
2045
2045
2045
2043
2042
2042
2042
2042
2042
2042
2042
2043
2043
2044
2044
2043
2043
2042
2042
2042
2042
2043
2043
2044
2044
2044
2043
2041
2041
2041
2043
2045
2046
2045
2044
2042
2041
2042
2043
2044
2045
2044
2044
2045
2044
2045
2044
2044
2043
2042
2042
2043
2043
2044
2045
2046
2045
2040
2033
2029
2035
2053
2077
2096
2096
2076
2046
2017
2001
1999
2007
2018
2027
2033
2039
2043
2045
2047
2046
2046
2047
2047
2048
2048
2048
2047
2048
2048
2048
2047
2046
2047
2048
2049
2051
2051
2050
2048
2048
2047
2048
2049
2050
2050
2050
2050
2050
2050
2050
2049
2049
2050
2050
2051
2051
2052
2051
2051
2051
2049
2049
2048
2049
2050
2052
2053
2052
2051
2048
2048
2047
2048
2048
2048
2048
2047
2046
2044
2043
2042
2042
2041
2041
2040
2040
2040
2040
2040
2040
2039
2039
2039
2040
2040
2041
2041
2041
2041
2042
2044
2046
2046
2045
2043
2041
2041
2042
2042
2043
2043
2043
2043
2044
2044
2044
2044
2044
2044
2044
2044
2045
2044
2044
2043
2043
2044
2045
2046
2047
2045
2044
2042
2042
2042
2043
2043
2043
2042
2042
2042
2042
2042
2043
2043
2043
2043
2042
2042
2042
2042
2041
2043
2043
2043
2043
2042
2042
2043
2044
2044
2044
2043
2042
2042
2041
2043
2043
2042
2042
2041
2041
2042
2042
2043
2044
2044
2044
2044
2043
2042
2042
2041
2042
2042
2041
2041
2040
2040
2042
2044
2046
2043
2037
2031
2036
2052
2075
2092
2093
2074
2044
2014
1996
1992
1999
2010
2019
2026
2033
2039
2043
2045
2046
2047
2047
2047
2047
2047
2047
2048
2049
2050
2051
2049
2048
2046
2045
2046
2047
2048
2048
2048
2048
2048
2048
2048
2048
2048
2048
2048
2048
2049
2050
2050
2051
2051
2050
2049
2048
2047
2048
2049
2051
2054
2054
2053
2050
2048
2047
2046
2046
2047
2047
2047
2047
2046
2045
2043
2042
2041
2040
2039
2038
2037
2036
2035
2036
2035
2034
2033
2033
2034
2036
2040
2042
2041
2040
2038
2037
2037
2038
2039
2040
2041
2040
2040
2040
2040
2040
2040
2040
2041
2041
2042
2042
2042
2042
2041
2042
2041
2041
2040
2040
2042
2043
2045
2044
2043
2041
2040
2039
2040
2041
2040
2041
2041
2040
2039
2038
2038
2038
2040
2042
2043
2042
2042
2042
2041
2042
2041
2041
2040
2039
2039
2040
2042
2044
2045
2044
2043
2041
2041
2040
2040
2040
2040
2040
2039
2039
2038
2039
2040
2041
2042
2041
2037
2031
2031
2042
2060
2082
2093
2084
2057
2025
2000
1991
1995
2006
2016
2022
2027
2033
2037
2041
2042
2043
2042
2042
2043
2043
2043
2043
2044
2044
2044
2043
2043
2043
2043
2042
2044
2045
2045
2044
2043
2043
2044
2046
2047
2048
2047
2045
2044
2043
2044
2044
2045
2045
2045
2045
2046
2046
2046
2046
2046
2046
2045
2045
2045
2045
2044
2045
2045
2044
2043
2042
2041
2041
2042
2043
2042
2040
2037
2035
2033
2033
2032
2031
2030
2030
2031
2031
2032
2032
2032
2032
2032
2033
2033
2033
2033
2034
2034
2034
2034
2033
2032
2032
2033
2036
2038
2039
2038
2037
2035
2034
2034
2034
2035
2036
2037
2037
2038
2037
2037
2036
2036
2037
2036
2036
2037
2038
2038
2038
2038
2037
2037
2035
2034
2034
2035
2038
2041
2042
2041
2038
2036
2034
2035
2035
2037
2037
2037
2037
2037
2037
2037
2036
2036
2036
2037
2037
2037
2037
2036
2038
2038
2038
2036
2035
2035
2036
2039
2041
2041
2039
2037
2036
2035
2038
2040
2040
2040
2039
2039
2038
2037
2037
2037
2037
2037
2037
2038
2039
2040
2038
2032
2027
2025
2035
2052
2074
2087
2083
2062
2034
2009
1997
1999
2009
2021
2030
2035
2038
2040
2041
2041
2040
2041
2042
2042
2042
2042
2042
2042
2043
2043
2044
2044
2043
2042
2041
2041
2043
2045
2048
2048
2047
2044
2043
2042
2043
2044
2044
2045
2044
2044
2044
2044
2044
2045
2046
2047
2047
2046
2046
2046
2046
2046
2048
2048
2048
2046
2046
2047
2048
2050
2052
2051
2048
2047
2045
2045
2046
2045
2044
2043
2041
2040
2039
2039
2039
2039
2039
2038
2038
2038
2038
2037
2037
2038
2039
2039
2038
2038
2038
2039
2041
2043
2043
2041
2040
2039
2039
2040
2041
2041
2040
2040
2041
2041
2041
2041
2041
2041
2041
2041
2040
2040
2040
2040
2042
2042
2042
2041
2040
2040
2041
2043
2044
2045
2045
2043
2042
2041
2042
2041
2040
2039
2039
2040
2040
2041
2042
2042
2041
2041
2041
2041
2042
2042
2043
2043
2044
2043
2042
2041
2040
2041
2042
2044
2045
2045
2043
2044
2042
2042
2042
2041
2042
2044
2045
2045
2044
2042
2042
2043
2046
2048
2048
2048
2046
2045
2044
2045
2046
2046
2044
2044
2044
2045
2047
2048
2048
2047
2046
2046
2045
2046
2047
2048
2048
2048
2047
2047
2047
2046
2046
2046
2046
2048
2048
2048
2046
2038
2033
2031
2041
2059
2081
2093
2089
2070
2046
2025
2017
2020
2029
2038
2045
2048
2048
2050
2050
2050
2050
2049
2049
2049
2050
2050
2050
2051
2051
2051
2051
2051
2051
2051
2051
2050
2050
2051
2053
2054
2055
2054
2052
2051
2050
2051
2052
2053
2053
2052
2052
2052
2052
2052
2053
2054
2054
2054
2054
2055
2056
2056
2057
2059
2059
2059
2058
2057
2058
2060
2062
2064
2064
2062
2060
2059
2058
2058
2057
2057
2055
2054
2052
2051
2051
2050
2049
2049
2049
2048
2048
2048
2048
2048
2048
2049
2049
2048
2048
2048
2048
2049
2050
2050
2049
2048
2048
2048
2048
2048
2048
2048
2048
2048
2048
2048
2048
2048
2048
2048
2048
2048
2048
2048
2048
2049
2049
2049
2048
2048
2048
2048
2049
2050
2050
2049
2048
2048
2048
2049
2049
2048
2048
2048
2048
2049
2048
2048
2048
2048
2048
2048
2048
2048
2048
2048
2048
2048
2048
2048
2047
2047
2048
2049
2051
2051
2049
2048
2047
2046
2047
2047
2047
2047
2047
2048
2048
2048
2048
2048
2048
2048
2048
2048
2047
2048
2048
2048
2048
2048
2048
2047
2047
2047
2048
2049
2050
2049
2048
2047
2046
2046
2046
2045
2045
2047
2048
2049
2049
2049
2048
2048
2048
2048
2048
2047
2047
2048
2048
2048
2048
2047
2046
2047
2047
2046
2043
2037
2035
2043
2060
2080
2091
2086
2065
2041
2022
2016
2022
2031
2041
2046
2047
2048
2048
2049
2049
2049
2049
2049
2050
2049
2049
2048
2048
2049
2050
2053
2054
2053
2051
2049
2048
2048
2050
2051
2051
2051
2051
2050
2050
2050
2050
2050
2051
2051
2051
2052
2051
2051
2051
2051
2051
2052
2051
2051
2051
2053
2055
2057
2058
2057
2056
2055
2054
2055
2055
2057
2057
2057
2057
2056
2056
2054
2054
2052
2051
2050
2049
2049
2048
2048
2047
2048
2047
2045
2043
2042
2042
2045
2048
2049
2049
2047
2045
2044
2044
2046
2046
2046
2046
2045
2045
2045
2045
2046
2046
2047
2047
2046
2046
2046
2046
2046
2046
2046
2045
2044
2044
2043
2044
2046
2047
2047
2046
2045
2044
2044
2045
2045
2045
2045
2045
2044
2045
2045
2045
2046
2046
2046
2046
2045
2045
2045
2044
2046
2046
2046
2045
2043
2043
2044
2046
2048
2048
2047
2045
2044
2043
2045
2045
2045
2045
2045
2045
2046
2046
2046
2046
2045
2045
2045
2044
2044
2045
2045
2046
2046
2046
2045
2044
2043
2043
2045
2047
2048
2048
2047
2046
2045
2045
2045
2046
2046
2046
2046
2046
2046
2046
2046
2046
2046
2046
2045
2045
2045
2046
2047
2047
2048
2048
2047
2047
2047
2048
2049
2049
2049
2048
2047
2045
2046
2045
2046
2047
2047
2046
2042
2036
2034
2042
2057
2078
2091
2088
2069
2043
2021
2011
2013
2021
2031
2037
2040
2044
2047
2050
2052
2051
2050
2048
2047
2046
2048
2048
2049
2049
2049
2050
2050
2050
2050
2050
2050
2050
2050
2050
2050
2051
2050
2051
2050
2051
2050
2049
2050
2050
2052
2053
2054
2054
2052
2050
2049
2050
2050
2050
2052
2052
2052
2052
2052
2052
2052
2052
2053
2053
2053
2053
2053
2053
2052
2053
2051
2050
2048
2047
2047
2048
2049
2049
2048
2044
2041
2040
2040
2043
2043
2044
2043
2043
2043
2042
2043
2043
2044
2044
2044
2044
2044
2045
2045
2045
2045
2045
2045
2045
2045
2045
2046
2048
2048
2048
2047
2046
2045
2046
2046
2047
2047
2047
2047
2047
2047
2047
2048
2047
2047
2047
2047
2047
2046
2047
2046
2047
2047
2047
2047
2047
2046
2046
2045
2046
2047
2048
2049
2049
2048
2046
2045
2044
2044
2045
2046
2046
2046
2046
2046
2046
2046
2045
2045
2045
2045
2045
2046
2046
2046
2045
2044
2044
2045
2047
2048
2048
2046
2045
2043
2043
2044
2044
2045
2046
2046
2046
2047
2046
2046
2045
2044
2044
2043
2043
2043
2043
2043
2045
2045
2045
2042
2035
2029
2031
2045
2065
2087
2095
2085
2059
2030
2008
1999
2003
2013
2024
2032
2037
2042
2044
2046
2046
2046
2047
2046
2047
2047
2048
2048
2048
2048
2046
2046
2046
2047
2048
2050
2049
2048
2048
2048
2048
2048
2049
2048
2048
2048
2048
2048
2049
2050
2050
2049
2049
2048
2048
2049
2050
2050
2051
2051
2051
2050
2049
2049
2049
2052
2054
2056
2056
2054
2052
2050
2049
2049
2049
2049
2048
2048
2047
2046
2045
2043
2042
2040
2040
2039
2039
2039
2039
2038
2039
2038
2038
2038
2037
2037
2037
2039
2041
2042
2041
2040
2038
2037
2038
2039
2040
2041
2041
2041
2041
2040
2041
2041
2041
2042
2042
2042
2042
2042
2042
2042
2044
2042
2041
2039
2038
2039
2042
2045
2047
2046
2043
2040
2039
2039
2042
2042
2041
2041
2041
2041
2041
2041
2041
2041
2041
2042
2042
2042
2042
2042
2042
2042
2042
2042
2042
2042
2042
2043
2044
2045
2044
2043
2042
2042
2042
2043
2043
2043
2043
2043
2043
2043
2043
2044
2044
2045
2045
2044
2044
2044
2043
2043
2043
2044
2043
2043
2043
2044
2046
2048
2048
2048
2047
2045
2043
2043
2043
2043
2043
2042
2042
2043
2045
2044
2041
2035
2032
2037
2052
2074
2090
2092
2075
2051
2028
2015
2013
2020
2030
2039
2046
2050
2052
2053
2051
2050
2049
2051
2051
2051
2051
2051
2052
2052
2052
2053
2053
2053
2053
2053
2052
2052
2051
2052
2053
2053
2054
2052
2051
2050
2050
2050
2052
2053
2052
2052
2050
2049
2050
2050
2051
2051
2051
2051
2052
2052
2053
2053
2053
2052
2053
2053
2054
2054
2054
2054
2054
2054
2053
2051
2050
2050
2050
2050
2050
2049
2047
2044
2042
2041
2041
2042
2042
2041
2040
2040
2040
2041
2042
2041
2040
2040
2039
2039
2040
2042
2042
2042
2041
2041
2039
2038
2038
2039
2042
2044
2044
2042
2040
2038
2037
2037
2038
2038
2039
2039
2040
2040
2040
2039
2038
2038
2038
2039
2040
2040
2040
2039
2040
2039
2038
2038
2037
2038
2040
2043
2044
2043
2042
2039
2038
2038
2040
2040
2041
2041
2041
2041
2041
2041
2041
2041
2041
2042
2042
2043
2043
2043
2043
2043
2044
2043
2043
2041
2040
2042
2045
2048
2051
2050
2048
2046
2044
2044
2047
2046
2047
2046
2045
2045
2044
2045
2045
2045
2046
2047
2046
2042
2035
2030
2034
2048
2070
2087
2089
2075
2049
2026
2012
2012
2019
2029
2037
2041
2045
2047
2048
2048
2047
2047
2047
2047
2048
2048
2048
2048
2049
2048
2048
2048
2047
2048
2048
2048
2048
2048
2048
2048
2049
2050
2051
2050
2049
2049
2048
2049
2049
2050
2050
2050
2051
2051
2051
2052
2052
2052
2052
2052
2053
2053
2054
2055
2055
2057
2058
2058
2058
2057
2057
2057
2059
2059
2059
2058
2056
2054
2052
2051
2050
2049
2048
2047
2046
2046
2046
2046
2045
2045
2044
2044
2044
2044
2044
2044
2045
2045
2044
2044
2043
2042
2043
2044
2046
2047
2047
2046
2045
2044
2044
2044
2045
2044
2044
2045
2045
2046
2046
2046
2045
2045
2045
2044
2045
2045
2045
2046
2046
2046
2045
2044
2043
2043
2045
2046
2047
2047
2046
2044
2043
2042
2043
2043
2044
2044
2044
2043
2043
2043
2043
2044
2044
2044
2044
2043
2043
2043
2043
2046
2045
2045
2044
2043
2043
2045
2047
2048
2047
2046
2044
2042
2041
2042
2043
2044
2045
2046
2044
2040
2033
2030
2035
2050
2071
2087
2088
2072
2046
2021
2007
2006
2013
2023
2032
2038
2043
2047
2049
2050
2049
2048
2046
2045
2048
2048
2048
2048
2048
2047
2047
2047
2047
2048
2048
2048
2048
2048
2048
2048
2048
2048
2048
2048
2048
2048
2048
2048
2050
2051
2052
2051
2050
2048
2048
2050
2051
2051
2052
2052
2052
2052
2052
2052
2053
2053
2054
2054
2054
2054
2054
2054
2054
2054
2054
2052
2049
2047
2046
2047
2048
2049
2048
2045
2042
2040
2040
2041
2042
2042
2042
2041
2042
2042
2042
2043
2043
2043
2044
2043
2043
2043
2043
2043
2044
2044
2044
2044
2043
2043
2044
2045
2046
2046
2045
2044
2043
2043
2044
2044
2044
2044
2043
2043
2043
2044
2044
2044
2044
2043
2043
2043
2043
2043
2044
2044
2044
2044
2043
2042
2043
2044
2046
2046
2045
2044
2043
2043
2043
2044
2044
2044
2043
2043
2043
2043
2043
2043
2043
2043
2044
2044
2043
2043
2043
2043
2044
2044
2044
2042
2042
2042
2043
2046
2048
2048
2048
2046
2045
2044
2044
2044
2044
2043
2043
2043
2043
2043
2043
2043
2043
2043
2044
2042
2037
2031
2029
2036
2052
2072
2085
2081
2062
2037
2016
2007
2010
2019
2029
2035
2039
2042
2044
2045
2045
2045
2045
2047
2046
2046
2046
2046
2047
2047
2048
2048
2048
2047
2048
2048
2047
2047
2046
2045
2045
2048
2050
2052
2051
2049
2048
2046
2045
2046
2047
2048
2048
2048
2048
2049
2049
2048
2048
2048
2048
2049
2050
2051
2051
2050
2051
2051
2051
2049
2048
2048
2050
2053
2056
2056
2053
2049
2046
2044
2045
2045
2044
2043
2042
2042
2042
2041
2041
2040
2040
2041
2041
2041
2042
2042
2041
2041
2041
2041
2041
2041
2041
2042
2043
2044
2045
2043
2042
2041
2041
2042
2042
2043
2043
2043
2043
2042
2042
2042
2042
2043
2042
2042
2041
2042
2041
2042
2042
2043
2043
2042
2040
2040
2040
2042
2044
2045
2045
2042
2040
2040
2040
2042
2042
2042
2042
2041
2040
2040
2040
2041
2041
2041
2041
2041
2041
2040
2040
2040
2040
2041
2041
2040
2040
2039
2040
2041
2042
2043
2042
2041
2040
2040
2040
2040
2040
2040
2040
2040
2040
2040
2041
2041
2041
2041
2041
2040
2040
2040
2039
2042
2042
2043
2043
2042
2042
2042
2043
2044
2044
2043
2042
2040
2039
2040
2040
2040
2041
2041
2042
2042
2038
2032
2027
2030
2043
2062
2080
2084
2071
2046
2022
2006
2003
2010
2019
2027
2033
2039
2043
2046
2046
2044
2043
2042
2043
2043
2044
2044
2044
2044
2044
2044
2044
2044
2044
2044
2044
2044
2044
2045
2045
2045
2046
2045
2045
2044
2043
2044
2045
2047
2048
2048
2047
2045
2045
2045
2045
2046
2046
2047
2047
2048
2047
2048
2047
2047
2046
2045
2046
2048
2048
2049
2048
2048
2048
2046
2044
2044
2043
2044
2045
2045
2045
2042
2040
2038
2036
2036
2037
2037
2038
2038
2038
2038
2038
2038
2038
2038
2038
2039
2040
2040
2040
2040
2041
2040
2039
2039
2038
2039
2041
2044
2045
2045
2043
2040
2039
2038
2040
2041
2041
2041
2041
2041
2041
2041
2040
2040
2039
2040
2040
2040
2040
2040
2040
2041
2041
2040
2040
2039
2038
2040
2042
2044
2044
2042
2040
2039
2039
2040
2041
2041
2041
2041
2041
2040
2040
2040
2040
2041
2041
2041
2041
2041
2041
2041
2042
2041
2042
2040
2038
2036
2036
2039
2043
2046
2046
2043
2040
2038
2038
2039
2041
2041
2041
2040
2040
2040
2040
2040
2040
2041
2040
2040
2040
2040
2040
2041
2041
2042
2042
2042
2042
2042
2043
2045
2045
2043
2041
2040
2039
2040
2041
2041
2041
2041
2041
2042
2041
2036
2030
2028
2035
2051
2072
2085
2082
2064
2038
2016
2005
2007
2016
2026
2033
2037
2040
2042
2044
2046
2047
2048
2047
2046
2044
2042
2043
2044
2045
2045
2045
2045
2045
2045
2045
2045
2045
2045
2045
2045
2046
2046
2046
2046
2046
2045
2046
2047
2048
2048
2048
2048
2047
2046
2047
2047
2048
2048
2048
2048
2048
2049
2049
2049
2049
2049
2049
2049
2049
2049
2049
2050
2049
2048
2048
2046
2046
2046
2046
2047
2046
2045
2043
2042
2041
2041
2041
2041
2041
2041
2041
2041
2041
2041
2040
2041
2041
2040
2041
2041
2042
2044
2045
2046
2045
2043
2040
2038
2038
2041
2046
2048
2049
2048
2045
2042
2041
2043
2044
2044
2044
2044
2044
2043
2043
2043
2043
2042
2042
2043
2043
2044
2044
2043
2044
2043
2043
2042
2040
2040
2042
2045
2047
2048
2046
2043
2041
2040
2042
2043
2043
2043
2043
2042
2042
2042
2042
2042
2042
2043
2043
2043
2043
2043
2042
2042
2042
2042
2042
2041
2040
2041
2043
2045
2046
2045
2043
2041
2040
2040
2041
2042
2043
2042
2042
2042
2042
2042
2042
2042
2042
2042
2042
2042
2042
2042
2042
2043
2042
2043
2040
2039
2040
2043
2047
2048
2049
2046
2043
2040
2039
2041
2041
2042
2041
2040
2040
2041
2042
2043
2042
2037
2031
2027
2033
2048
2068
2083
2084
2067
2042
2017
2004
2004
2014
2026
2036
2041
2043
2043
2043
2042
2044
2044
2045
2045
2045
2044
2045
2045
2046
2046
2046
2046
2046
2045
2046
2046
2046
2047
2047
2047
2046
2045
2046
2047
2048
2050
2050
2048
2048
2047
2047
2047
2048
2048
2048
2048
2048
2048
2049
2049
2049
2049
2049
2048
2048
2048
2048
2048
2048
2048
2049
2048
2048
2048
2048
2049
2050
2050
2048
2047
2044
2043
2043
2042
2042
2041
2041
2041
2041
2042
2042
2042
2041
2041
2041
2041
2042
2042
2043
2043
2043
2043
2041
2040
2040
2041
2044
2046
2047
2046
2044
2042
2041
2041
2043
2043
2044
2044
2043
2044
2044
2044
2043
2043
2042
2042
2042
2042
2043
2044
2045
2046
2045
2044
2041
2040
2040
2043
2045
2048
2048
2046
2043
2040
2040
2040
2041
2042
2042
2042
2042
2042
2042
2041
2041
2041
2041
2042
2042
2042
2042
2042
2043
2043
2043
2041
2039
2039
2041
2045
2048
2049
2048
2044
2041
2040
2041
2043
2044
2043
2043
2043
2043
2043
2043
2043
2043
2044
2044
2044
2044
2044
2043
2044
2044
2044
2043
2042
2042
2043
2045
2047
2048
2048
2046
2044
2044
2045
2046
2047
2047
2046
2046
2045
2044
2044
2044
2045
2045
2046
2046
2047
2047
2043
2037
2034
2037
2049
2067
2083
2087
2076
2055
2033
2016
2010
2014
2022
2030
2039
2043
2047
2048
2048
2048
2048
2048
2048
2048
2049
2050
2051
2051
2049
2048
2047
2047
2048
2049
2049
2049
2048
2048
2049
2051
2051
2051
2051
2050
2050
2050
2051
2051
2051
2051
2051
2051
2052
2053
2053
2053
2053
2053
2053
2053
2053
2052
2054
2053
2053
2052
2052
2051
2052
2053
2054
2054
2053
2052
2051
2049
2050
2049
2048
2048
2047
2047
2046
2046
2045
2045
2045
2045
2045
2045
2045
2046
2046
2047
2048
2048
2047
2046
2046
2047
2048
2049
2051
2051
2050
2049
2049
2049
2049
2049
2049
2049
2050
2050
2050
2051
2051
2050
2050
2050
2050
2050
2050
2050
2050
2051
2051
2050
2049
2048
2048
2050
2051
2053
2053
2051
2050
2048
2048
2048
2048
2048
2049
2049
2049
2048
2048
2048
2048
2048
2048
2048
2048
2048
2048
2048
2050
2050
2049
2048
2047
2046
2048
2048
2051
2051
2049
2048
2046
2045
2046
2046
2047
2047
2047
2047
2046
2046
2047
2047
2047
2048
2048
2048
2048
2047
2046
2046
2045
2044
2043
2042
2043
2046
2048
2049
2047
2040
2031
2031
2044
2065
2086
2093
2081
2053
2024
2004
1999
2007
2018
2027
2032
2035
2039
2042
2045
2045
2046
2045
2045
2045
2044
2045
2046
2048
2049
2049
2048
2046
2045
2044
2047
2047
2048
2047
2047
2047
2046
2047
2047
2048
2048
2048
2048
2048
2048
2048
2048
2048
2048
2049
2048
2047
2046
2046
2048
2051
2053
2053
2051
2048
2047
2046
2048
2048
2048
2048
2048
2048
2047
2047
2047
2046
2045
2044
2043
2042
2040
2039
2038
2038
2037
2036
2035
2034
2034
2035
2037
2038
2037
2036
2035
2035
2035
2036
2037
2037
2036
2036
2036
2037
2037
2038
2038
2038
2038
2038
2038
2038
2038
2038
2039
2039
2039
2039
2038
2038
2038
2039
2040
2040
2040
2039
2038
2038
2038
2038
2037
2037
2037
2037
2038
2038
2039
2039
2039
2039
2039
2039
2039
2039
2038
2039
2039
2039
2039
2038
2037
2037
2038
2040
2041
2040
2039
2038
2037
2037
2037
2038
2038
2038
2038
2038
2039
2039
2039
2039
2039
2039
2038
2038
2038
2039
2039
2040
2040
2040
2040
2040
2041
2042
2043
2043
2041
2040
2038
2038
2038
2038
2039
2039
2040
2040
2037
2031
2026
2028
2040
2059
2076
2083
2072
2048
2024
2008
2006
2012
2022
2030
2034
2038
2041
2044
2045
2045
2043
2043
2042
2042
2044
2044
2045
2045
2045
2045
2045
2045
2045
2045
2045
2046
2046
2046
2047
2047
2046
2047
2047
2047
2046
2046
2046
2048
2049
2050
2051
2049
2048
2047
2046
2048
2048
2049
2050
2050
2050
2050
2050
2050
2050
2050
2051
2051
2052
2052
2052
2052
2052
2052
2051
2050
2048
2048
2047
2048
2048
2047
2046
2044
2042
2041
2042
2042
2043
2042
2042
2041
2041
2041
2041
2042
2042
2043
2043
2043
2043
2043
2043
2044
2045
2045
2044
2042
2041
2042
2044
2047
2048
2047
2045
2043
2042
2042
2044
2044
2044
2044
2044
2043
2043
2043
2043
2044
2044
2044
2044
2044
2043
2043
2044
2045
2045
2045
2044
2043
2042
2043
2044
2046
2046
2045
2044
2043
2043
2044
2044
2045
2044
2044
2043
2044
2044
2044
2044
2044
2044
2043
2043
2043
2043
2042
2044
2044
2044
2042
2041
2041
2042
2045
2045
2045
2044
2042
2042
2042
2045
2045
2045
2045
2044
2044
2044
2044
2044
2044
2043
2043
2043
2043
2044
2045
2044
2040
2034
2031
2035
2050
2071
2086
2088
2072
2048
2023
2009
2009
2017
2027
2036
2041
2044
2046
2048
2048
2048
2048
2048
2048
2048
2048
2048
2048
2049
2048
2049
2049
2048
2048
2047
2048
2048
2050
2052
2052
2051
2050
2049
2048
2049
2049
2050
2050
2050
2050
2051
2051
2051
2051
2051
2051
2051
2051
2052
2053
2053
2054
2054
2053
2053
2052
2050
2050
2051
2053
2055
2055
2054
2052
2050
2048
2048
2048
2048
2047
2047
2046
2045
2044
2043
2042
2042
2042
2042
2042
2043
2042
2041
2043
2042
2042
2041
2041
2042
2043
2046
2047
2047
2046
2044
2042
2041
2043
2044
2044
2044
2044
2044
2044
2044
2044
2044
2044
2044
2043
2043
2043
2044
2043
2044
2043
2043
2042
2041
2040
2041
2043
2044
2045
2044
2043
2041
2040
2041
2042
2042
2042
2042
2041
2040
2040
2040
2041
2041
2041
2041
2040
2040
2040
2041
2041
2041
2041
2041
2038
2036
2036
2038
2042
2045
2045
2042
2039
2038
2037
2039
2041
2042
2041
2040
2039
2039
2039
2039
2038
2039
2038
2039
2039
2039
2038
2034
2027
2025
2032
2048
2069
2084
2083
2065
2038
2012
1998
1997
2005
2016
2024
2030
2035
2038
2040
2040
2040
2041
2041
2042
2043
2043
2043
2042
2042
2042
2041
2043
2043
2043
2043
2042
2041
2042
2044
2045
2046
2045
2044
2043
2043
2044
2044
2044
2044
2044
2045
2045
2046
2046
2046
2046
2046
2046
2046
2046
2046
2047
2047
2048
2048
2047
2046
2047
2048
2050
2051
2051
2049
2048
2046
2045
2044
2043
2042
2040
2039
2038
2037
2037
2036
2035
2034
2034
2034
2033
2034
2035
2035
2035
2036
2036
2035
2034
2033
2034
2035
2038
2039
2040
2038
2037
2036
2036
2037
2037
2038
2038
2038
2039
2039
2039
2038
2038
2038
2038
2038
2038
2038
2040
2039
2041
2040
2039
2037
2036
2037
2039
2042
2044
2044
2042
2040
2039
2037
2039
2039
2040
2040
2040
2040
2040
2040
2040
2039
2039
2039
2040
2040
2041
2041
2040
2040
2040
2039
2038
2037
2038
2039
2042
2044
2043
2042
2039
2038
2037
2039
2039
2039
2039
2039
2039
2040
2041
2041
2041
2041
2041
2040
2040
2040
2039
2039
2038
2039
2038
2038
2036
2037
2038
2037
2035
2031
2031
2039
2056
2074
2082
2075
2052
2028
2008
2003
2009
2019
2029
2035
2039
2041
2042
2043
2043
2043
2042
2043
2043
2042
2042
2041
2041
2041
2043
2045
2046
2045
2043
2041
2041
2042
2044
2044
2044
2043
2043
2043
2043
2044
2044
2045
2045
2045
2045
2045
2045
2045
2046
2046
2047
2047
2046
2046
2046
2048
2049
2050
2050
2049
2049
2048
2049
2049
2049
2049
2049
2049
2049
2049
2048
2048
2047
2046
2045
2044
2042
2041
2041
2040
2041
2041
2040
2039
2038
2037
2038
2040
2041
2042
2041
2040
2039
2038
2039
2039
2039
2040
2039
2040
2040
2040
2040
2040
2040
2040
2040
2041
2040
2041
2040
2041
2041
2041
2040
2039
2039
2040
2041
2042
2043
2042
2042
2041
2040
2039
2039
2040
2040
2040
2040
2040
2040
2040
2040
2041
2040
2040
2040
2040
2041
2041
2042
2042
2041
2041
2039
2039
2039
2040
2042
2043
2043
2041
2040
2039
2039
2040
2040
2040
2041
2041
2041
2041
2042
2041
2041
2041
2040
2040
2040
2041
2041
2042
2043
2042
2042
2042
2040
2041
2042
2045
2046
2047
2045
2043
2041
2038
2039
2040
2040
2042
2043
2044
2043
2038
2031
2028
2035
2052
2074
2088
2085
2065
2038
2015
2002
2004
2012
2022
2030
2037
2043
2047
2048
2047
2044
2043
2043
2044
2045
2046
2046
2046
2045
2046
2046
2046
2045
2045
2045
2045
2045
2046
2046
2046
2046
2047
2046
2046
2044
2043
2044
2046
2049
2051
2051
2049
2047
2045
2045
2047
2047
2048
2048
2048
2048
2048
2048
2048
2048
2048
2049
2048
2049
2048
2048
2048
2048
2048
2047
2045
2044
2044
2044
2044
2044
2042
2040
2038
2037
2037
2038
2038
2038
2038
2038
2038
2039
2039
2039
2039
2039
2039
2040
2040
2040
2040
2040
2040
2041
2041
2040
2040
2039
2040
2041
2042
2043
2042
2041
2040
2040
2040
2041
2041
2041
2041
2040
2040
2041
2041
2041
2042
2042
2041
2041
2040
2040
2040
2041
2041
2041
2040
2039
2039
2039
2041
2043
2044
2043
2042
2040
2040
2040
2040
2041
2040
2040
2040
2040
2040
2040
2040
2040
2040
2039
2039
2039
2039
2040
2041
2042
2043
2042
2041
2039
2039
2040
2041
2043
2042
2041
2040
2038
2038
2039
2039
2037
2032
2027
2029
2043
2063
2083
2091
2078
2051
2021
2000
1993
1999
2009
2021
2027
2032
2036
2038
2040
2043
2044
2045
2045
2044
2043
2043
2042
2044
2043
2043
2044
2044
2044
2044
2044
2044
2044
2044
2044
2044
2045
2045
2046
2047
2048
2047
2045
2045
2043
2043
2045
2047
2049
2050
2050
2048
2047
2044
2045
2046
2046
2048
2048
2048
2047
2047
2047
2047
2047
2047
2047
2047
2047
2046
2044
2044
2042
2040
2038
2036
2036
2036
2038
2038
2038
2036
2033
2031
2030
2031
2032
2033
2033
2033
2033
2033
2033
2033
2033
2033
2033
2033
2034
2034
2035
2034
2034
2035
2035
2035
2034
2033
2034
2036
2040
2041
2041
2038
2035
2033
2034
2035
2035
2035
2033
2033
2035
2037
2039
2039
2037
2035
2033
2033
2034
2035
2035
2035
2035
2034
2034
2033
2033
2034
2035
2037
2038
2038
2036
2035
2034
2035
2036
2036
2036
2035
2035
2034
2034
2035
2035
2035
2036
2035
2035
2035
2035
2035
2035
2037
2037
2037
2037
2036
2036
2036
2037
2037
2037
2035
2034
2033
2034
2035
2036
2037
2034
2029
2022
2020
2027
2046
2067
2081
2079
2059
2032
2009
1997
1998
2010
2020
2029
2032
2034
2036
2037
2039
2040
2041
2040
2040
2039
2038
2039
2039
2039
2039
2039
2040
2041
2041
2041
2041
2040
2041
2040
2041
2040
2041
2041
2041
2042
2042
2042
2041
2040
2041
2042
2044
2045
2045
2044
2044
2043
2044
2044
2045
2045
2046
2047
2047
2048
2048
2048
2048
2048
2049
2049
2049
2050
2050
2049
2048
2048
2046
2044
2042
2041
2040
2040
2040
2040
2038
2037
2036
2035
2035
2035
2035
2035
2036
2036
2036
2036
2036
2036
2036
2035
2036
2036
2037
2038
2038
2039
2038
2037
2037
2035
2034
2036
2038
2039
2041
2040
2039
2037
2035
2036
2036
2037
2038
2038
2038
2038
2038
2037
2037
2038
2038
2039
2038
2039
2038
2037
2038
2038
2037
2037
2035
2035
2037
2040
2042
2043
2042
2039
2037
2036
2037
2038
2039
2039
2039
2038
2038
2038
2038
2038
2038
2038
2038
2039
2039
2039
2039
2040
2039
2039
2038
2037
2036
2037
2040
2041
2042
2041
2039
2037
2036
2038
2038
2039
2040
2040
2040
2040
2040
2040
2041
2041
2041
2041
2040
2040
2040
2040
2040
2041
2040
2040
2038
2038
2038
2037
2035
2031
2031
2039
2055
2073
2082
2077
2056
2032
2012
2005
2011
2021
2031
2037
2040
2041
2043
2043
2043
2043
2042
2043
2044
2044
2044
2043
2042
2042
2043
2046
2047
2047
2046
2045
2044
2043
2045
2044
2044
2044
2045
2045
2046
2046
2046
2046
2046
2046
2046
2046
2046
2046
2046
2047
2047
2048
2048
2048
2048
2048
2049
2050
2051
2051
2051
2050
2050
2050
2050
2050
2050
2050
2050
2050
2050
2049
2048
2048
2046
2044
2043
2042
2042
2041
2041
2041
2040
2040
2040
2039
2040
2041
2042
2043
2042
2041
2040
2040
2040
2040
2041
2041
2041
2041
2041
2042
2042
2041
2041
2040
2040
2040
2041
2041
2041
2041
2041
2041
2040
2039
2039
2039
2041
2043
2043
2043
2041
2040
2040
2040
2041
2041
2041
2041
2041
2041
2041
2042
2041
2041
2041
2040
2041
2041
2042
2042
2042
2043
2042
2042
2041
2041
2041
2042
2044
2043
2043
2042
2042
2042
2041
2043
2042
2042
2042
2042
2043
2043
2042
2042
2041
2041
2042
2042
2043
2043
2042
2041
2042
2041
2041
2041
2040
2041
2042
2044
2045
2045
2043
2042
2041
2041
2043
2044
2045
2045
2044
2044
2043
2043
2042
2042
2042
2042
2041
2042
2042
2042
2043
2044
2043
2038
2030
2026
2032
2049
2073
2090
2090
2071
2043
2017
2003
2005
2014
2025
2032
2037
2040
2042
2044
2044
2044
2045
2045
2046
2046
2046
2046
2047
2047
2048
2048
2047
2046
2045
2045
2047
2049
2050
2051
2049
2048
2047
2047
2048
2048
2048
2048
2048
2048
2048
2048
2049
2049
2050
2050
2049
2049
2049
2049
2050
2051
2051
2051
2050
2049
2049
2051
2053
2054
2054
2051
2049
2048
2048
2049
2048
2048
2047
2046
2044
2043
2043
2042
2042
2041
2041
2040
2039
2039
2039
2039
2041
2040
2040
2040
2039
2039
2040
2041
2043
2045
2044
2043
2042
2041
2042
2042
2041
2041
2041
2040
2042
2043
2044
2045
2045
2045
2044
2043
2043
2043
2043
2044
2044
2044
2043
2042
2041
2041
2042
2045
2046
2045
2044
2042
2041
2040
2041
2041
2041
2040
2041
2041
2041
2041
2041
2041
2041
2041
2041
2041
2040
2039
2040
2043
2046
2046
2044
2041
2038
2039
2041
2044
2044
2043
2040
2039
2039
2040
2040
2040
2040
2040
2040
2040
2040
2040
2040
2041
2041
2041
2042
2043
2044
2044
2044
2043
2042
2040
2038
2038
2039
2041
2042
2043
2042
2041
2040
2038
2036
2030
2025
2029
2043
2066
2085
2089
2075
2048
2019
1999
1995
2001
2012
2021
2027
2034
2037
2040
2040
2039
2040
2042
2045
2047
2048
2046
2044
2042
2041
2042
2044
2044
2044
2044
2044
2044
2044
2044
2044
2044
2045
2045
2045
2046
2046
2045
2045
2046
2046
2045
2045
2044
2045
2048
2049
2050
2049
2048
2046
2045
2046
2047
2048
2048
2048
2048
2048
2048
2048
2048
2048
2048
2048
2047
2046
2045
2044
2043
2042
2041
2040
2036
2034
2033
2035
2039
2041
2042
2039
2035
2032
2030
2033
2034
2035
2035
2035
2035
2034
2035
2035
2035
2036
2036
2036
2036
2036
2036
2036
2037
2037
2038
2037
2037
2037
2037
2039
2040
2040
2039
2037
2036
2036
2037
2037
2038
2037
2037
2037
2037
2038
2038
2038
2037
2037
2037
2036
2036
2036
2036
2038
2038
2038
2036
2035
2034
2035
2038
2040
2041
2040
2037
2036
2035
2036
2036
2037
2036
2036
2036
2037
2037
2038
2037
2037
2036
2036
2036
2036
2036
2036
2036
2037
2037
2037
2036
2035
2036
2038
2040
2041
2041
2040
2038
2036
2036
2037
2038
2038
2039
2039
2040
2040
2040
2040
2039
2039
2038
2038
2037
2037
2037
2038
2038
2038
2038
2037
2036
2031
2026
2025
2031
2047
2067
2082
2082
2067
2042
2017
2003
2002
2011
2022
2030
2035
2037
2039
2040
2040
2040
2041
2042
2043
2044
2045
2044
2044
2042
2041
2041
2042
2045
2047
2048
2046
2044
2042
2041
2044
2044
2045
2045
2045
2045
2044
2045
2045
2045
2045
2046
2047
2047
2047
2047
2047
2048
2048
2048
2048
2048
2048
2049
2052
2055
2058
2058
2055
2052
2049
2049
2050
2052
2053
2053
2051
2050
2049
2048
2048
2047
2046
2045
2044
2043
2042
2041
2040
2040
2040
2039
2039
2039
2039
2041
2043
2044
2042
2041
2039
2038
2040
2041
2042
2042
2041
2041
2041
2041
2041
2041
2042
2042
2042
2042
2042
2042
2042
2041
2043
2042
2042
2041
2040
2041
2043
2046
2047
2046
2044
2041
2040
2040
2043
2044
2044
2043
2043
2043
2042
2042
2043
2043
2044
2044
2044
2044
2044
2043
2043
2044
2044
2044
2044
2043
2042
2043
2044
2045
2046
2045
2044
2043
2042
2044
2043
2043
2042
2042
2042
2043
2043
2043
2043
2043
2043
2043
2043
2043
2043
2042
2043
2043
2043
2042
2041
2040
2041
2044
2045
2046
2045
2043
2041
2041
2042
2043
2043
2043
2043
2044
2044
2044
2044
2043
2043
2042
2042
2041
2041
2042
2042
2042
2044
2045
2043
2038
2030
2024
2027
2043
2065
2084
2089
2076
2051
2026
2011
2010
2017
2028
2037
2041
2043
2044
2045
2044
2044
2044
2044
2045
2045
2046
2046
2046
2046
2046
2045
2045
2045
2047
2048
2048
2048
2047
2046
2046
2046
2047
2047
2048
2048
2048
2048
2048
2048
2048
2048
2048
2048
2048
2048
2049
2049
2050
2051
2052
2051
2050
2049
2049
2051
2053
2056
2056
2054
2053
2051
2051
2053
2053
2054
2053
2051
2050
2048
2048
2047
2045
2044
2044
2044
2044
2043
2042
2041
2042
2041
2041
2040
2040
2041
2043
2045
2047
2047
2045
2043
2042
2041
2043
2044
2045
2045
2045
2044
2044
2044
2044
2043
2044
2045
2045
2046
2046
2046
2045
2045
2045
2045
2044
2043
2043
2045
2048
2049
2049
2048
2046
2044
2043
2045
2045
2046
2046
2045
2045
2044
2044
2044
2043
2044
2044
2044
2044
2044
2044
2043
2043
2044
2044
2045
2043
2042
2042
2044
2047
2049
2050
2048
2045
2041
2039
2042
2044
2048
2049
2048
2046
2044
2042
2043
2044
2045
2045
2045
2045
2045
2045
2045
2045
2045
2045
2045
2045
2044
2045
2046
2047
2048
2047
2047
2045
2045
2045
2045
2046
2046
2046
2046
2045
2045
2044
2044
2043
2043
2043
2043
2043
2044
2044
2044
2038
2032
2029
2036
2052
2074
2090
2088
2069
2041
2015
2001
2001
2010
2021
2030
2035
2039
2042
2043
2044
2044
2044
2044
2044
2044
2044
2044
2044
2045
2045
2046
2046
2045
2045
2044
2045
2046
2047
2048
2048
2047
2047
2046
2046
2047
2047
2047
2047
2047
2048
2048
2048
2048
2048
2048
2048
2048
2049
2050
2050
2051
2052
2051
2051
2051
2052
2053
2054
2055
2055
2055
2054
2053
2053
2053
2053
2051
2050
2049
2048
2048
2047
2046
2044
2043
2043
2042
2042
2042
2043
2043
2042
2042
2042
2041
2040
2039
2039
2041
2043
2044
2046
2044
2043
2042
2040
2042
2043
2044
2045
2045
2044
2044
2044
2043
2043
2043
2043
2043
2043
2043
2043
2042
2043
2042
2042
2042
2041
2042
2043
2044
2045
2045
2044
2042
2041
2040
2041
2042
2043
2043
2043
2043
2043
2042
2043
2042
2043
2043
2042
2042
2042
2042
2042
2042
2042
2042
2042
2041
2041
2042
2044
2046
2046
2045
2043
2042
2042
2043
2043
2043
2043
2042
2042
2042
2042
2042
2042
2042
2042
2042
2042
2042
2042
2042
2041
2041
2041
2042
2041
2042
2042
2044
2046
2046
2045
2043
2041
2040
2040
2041
2041
2041
2041
2040
2039
2039
2041
2043
2043
2040
2034
2026
2025
2036
2057
2077
2088
2080
2056
2029
2010
2006
2015
2028
2039
2044
2044
2044
2044
2043
2045
2045
2045
2045
2045
2045
2045
2046
2046
2047
2047
2047
2047
2046
2046
2046
2045
2047
2047
2048
2047
2046
2046
2046
2048
2048
2049
2049
2048
2048
2048
2048
2048
2048
2048
2048
2048
2049
2049
2050
2050
2050
2049
2049
2050
2050
2051
2052
2052
2052
2051
2050
2049
2049
2051
2053
2055
2053
2050
2048
2045
2043
2043
2043
2042
2041
2040
2040
2040
2040
2040
2040
2040
2040
2040
2040
2040
2040
2040
2040
2040
2040
2039
2039
2039
2040
2041
2043
2043
2043
2042
2041
2040
2041
2041
2041
2041
2041
2041
2042
2042
2042
2042
2041
2040
2040
2040
2041
2042
2042
2044
2044
2042
2041
2039
2038
2039
2041
2044
2045
2045
2043
2041
2039
2038
2039
2040
2041
2042
2042
2041
2040
2040
2039
2040
2040
2040
2041
2042
2042
2041
2040
2041
2040
2040
2039
2038
2038
2040
2043
2045
2044
2042
2040
2038
2038
2039
2039
2041
2041
2041
2041
2041
2041
2041
2041
2041
2042
2043
2043
2043
2042
2042
2042
2041
2041
2040
2039
2039
2040
2041
2043
2044
2044
2043
2041
2036
2030
2023
2026
2041
2062
2084
2091
2078
2051
2022
2002
1997
2005
2018
2029
2035
2039
2041
2043
2043
2043
2042
2042
2042
2044
2046
2046
2046
2044
2043
2043
2043
2045
2045
2045
2044
2044
2043
2043
2043
2044
2044
2044
2045
2044
2044
2044
2044
2044
2046
2046
2046
2046
2046
2046
2047
2048
2049
2049
2049
2048
2048
2048
2048
2048
2049
2048
2049
2049
2049
2049
2050
2050
2050
2050
2049
2048
2047
2046
2044
2045
2043
2041
2039
2038
2037
2038
2040
2041
2041
2039
2037
2036
2036
2036
2037
2036
2036
2035
2036
2037
2037
2038
2038
2038
2037
2037
2037
2037
2037
2038
2039
2039
2040
2039
2038
2036
2037
2039
2041
2043
2042
2040
2039
2037
2037
2037
2037
2037
2037
2037
2037
2037
2038
2038
2038
2038
2037
2037
2037
2037
2038
2038
2038
2037
2036
2035
2036
2037
2039
2041
2042
2041
2039
2037
2037
2036
2037
2037
2037
2037
2038
2038
2038
2038
2038
2037
2037
2038
2037
2036
2036
2036
2038
2041
2042
2042
2040
2037
2035
2036
2039
2041
2041
2039
2038
2037
2035
2036
2036
2037
2038
2040
2041
2041
2040
2040
2040
2039
2040
2040
2039
2038
2039
2038
2038
2037
2037
2036
2038
2039
2040
2036
2030
2024
2028
2043
2065
2084
2087
2070
2042
2013
1997
1996
2007
2019
2028
2033
2037
2039
2040
2041
2041
2041
2041
2042
2042
2041
2041
2040
2040
2042
2044
2046
2047
2045
2044
2042
2042
2042
2043
2043
2044
2044
2044
2043
2043
2043
2043
2044
2044
2045
2045
2045
2045
2045
2045
2046
2046
2045
2045
2046
2047
2048
2051
2051
2050
2048
2048
2047
2048
2049
2049
2049
2049
2048
2048
2047
2046
2046
2045
2044
2044
2042
2041
2040
2038
2038
2038
2038
2037
2036
2035
2035
2036
2038
2039
2039
2037
2036
2035
2035
2036
2036
2036
2036
2036
2037
2037
2038
2038
2038
2038
2038
2038
2038
2038
2038
2038
2039
2040
2039
2037
2036
2036
2038
2041
2043
2043
2040
2038
2037
2037
2038
2038
2038
2038
2037
2037
2038
2038
2038
2038
2039
2039
2038
2038
2038
2038
2038
2039
2039
2039
2038
2037
2036
2037
2038
2039
2040
2040
2038
2037
2037
2037
2037
2038
2038
2038
2038
2038
2038
2039
2039
2039
2038
2038
2038
2038
2039
2039
2039
2040
2039
2038
2037
2037
2037
2039
2042
2043
2042
2041
2039
2038
2037
2039
2039
2039
2039
2039
2039
2039
2039
2038
2037
2037
2037
2037
2039
2041
2040
2035
2027
2020
2022
2037
2061
2083
2091
2078
2050
2021
2002
1997
2005
2017
2028
2033
2036
2038
2039
2040
2041
2041
2040
2040
2040
2040
2040
2042
2041
2041
2041
2041
2041
2041
2040
2040
2041
2042
2044
2044
2044
2043
2042
2041
2040
2041
2042
2043
2043
2043
2043
2043
2043
2043
2043
2043
2044
2044
2044
2044
2044
2045
2045
2045
2046
2045
2045
2045
2046
2048
2048
2049
2048
2047
2046
2045
2045
2045
2044
2043
2042
2040
2039
2038
2037
2036
2035
2035
2034
2034
2034
2033
2033
2033
2034
2033
2033
2032
2032
2032
2033
2035
2036
2036
2035
2033
2033
2033
2034
2035
2035
2035
2035
2035
2035
2035
2036
2036
2037
2037
2037
2036
2036
2036
2035
2036
2037
2037
2036
2036
2036
2037
2038
2039
2039
2038
2037
2037
2036
2038
2038
2037
2037
2037
2037
2038
2038
2038
2038
2038
2038
2038
2038
2038
2038
2037
2039
2039
2039
2038
2037
2037
2039
2041
2043
2043
2041
2039
2038
2038
2039
2039
2039
2039
2039
2039
2039
2039
2039
2039
2039
2039
2039
2039
2039
2040
2040
2041
2041
2041
2039
2038
2037
2038
2040
2042
2043
2042
2041
2039
2038
2039
2039
2040
2040
2040
2041
2042
2042
2042
2042
2041
2040
2040
2040
2040
2040
2040
2040
2040
2039
2040
2040
2039
2035
2030
2025
2028
2041
2062
2083
2089
2077
2051
2024
2006
2004
2012
2024
2033
2038
2039
2041
2042
2042
2042
2042
2043
2043
2044
2046
2045
2044
2042
2041
2042
2045
2048
2050
2049
2047
2044
2042
2042
2044
2045
2046
2046
2046
2046
2046
2046
2046
2046
2045
2045
2046
2047
2046
2047
2046
2047
2047
2046
2046
2046
2047
2048
2051
2052
2052
2051
2049
2048
2048
2049
2049
2050
2050
2050
2050
2050
2049
2048
2047
2046
2045
2044
2044
2043
2042
2041
2040
2039
2039
2038
2038
2037
2038
2040
2041
2041
2041
2039
2037
2037
2038
2038
2039
2039
2039
2039
2039
2039
2040
2040
2040
2040
2040
2040
2040
2040
2041
2040
2041
2041
2040
2039
2039
2039
2041
2042
2043
2043
2041
2039
2039
2038
2040
2040
2040
2040
2039
2039
2039
2039
2040
2039
2040
2039
2039
2039
2040
2040
2040
2041
2041
2040
2040
2039
2039
2041
2042
2043
2043
2041
2039
2037
2037
2041
2043
2045
2044
2042
2039
2038
2038
2040
2041
2041
2041
2041
2040
2041
2041
2041
2043
2043
2042
2041
2041
2041
2042
2045
2046
2046
2044
2042
2041
2040
2041
2042
2042
2042
2042
2042
2043
2043
2043
2043
2042
2042
2042
2043
2042
2042
2042
2043
2043
2044
2044
2043
2042
2043
2044
2046
2048
2047
2045
2043
2042
2042
2042
2042
2042
2042
2043
2044
2045
2043
2037
2029
2027
2037
2056
2080
2093
2088
2065
2037
2012
2002
2004
2015
2027
2037
2044
2048
2048
2048
2046
2045
2044
2046
2046
2047
2047
2047
2048
2048
2048
2047
2047
2047
2046
2047
2048
2048
2048
2048
2049
2048
2048
2048
2047
2048
2049
2050
2052
2052
2050
2049
2048
2048
2048
2049
2049
2049
2049
2049
2049
2050
2051
2051
2051
2050
2050
2050
2049
2050
2049
2049
2049
2048
2048
2048
2048
2048
2048
2049
2048
2047
2044
2042
2041
2041
2041
2041
2041
2041
2040
2040
2040
2040
2039
2039
2040
2039
2040
2040
2040
2041
2041
2041
2040
2040
2039
2040
2042
2044
2046
2046
2044
2042
2040
2040
2041
2041
2042
2042
2041
2041
2041
2041
2041
2041
2041
2041
2041
2041
2041
2041
2041
2040
2041
2040
2040
2038
2037
2038
2040
2044
2046
2046
2043
2040
2037
2037
2038
2040
2040
2040
2039
2039
2039
2039
2039
2040
2040
2040
2040
2040
2039
2038
2039
2040
2040
2040
2039
2038
2038
2040
2042
2044
2043
2041
2038
2037
2037
2038
2040
2040
2040
2040
2039
2039
2039
2039
2040
2040
2040
2039
2039
2039
2039
2039
2039
2039
2039
2039
2038
2039
2040
2042
2044
2044
2043
2041
2040
2040
2039
2039
2039
2039
2038
2039
2039
2039
2040
2040
2040
2036
2029
2021
2021
2034
2056
2080
2091
2081
2055
2025
2002
1997
2004
2018
2030
2036
2038
2040
2040
2041
2042
2042
2042
2042
2042
2043
2043
2043
2043
2043
2043
2043
2042
2043
2043
2043
2043
2043
2043
2043
2042
2042
2042
2044
2046
2046
2046
2045
2044
2043
2043
2044
2044
2045
2045
2045
2046
2046
2046
2045
2045
2045
2045
2046
2047
2048
2048
2048
2049
2048
2048
2048
2047
2048
2048
2050
2050
2049
2047
2045
2043
2042
2043
2042
2041
2040
2039
2038
2037
2037
2037
2037
2036
2035
2036
2036
2036
2036
2035
2035
2035
2035
2035
2035
2036
2037
2038
2039
2039
2038
2036
2035
2035
2036
2037
2037
2038
2038
2038
2038
2038
2038
2038
2038
2038
2039
2039
2039
2039
2038
2038
2038
2037
2037
2037
2037
2038
2040
2041
2041
2040
2039
2038
2038
2039
2039
2040
2040
2040
2040
2039
2039
2039
2039
2039
2040
2040
2040
2041
2041
2040
2039
2039
2038
2038
2039
2040
2042
2044
2045
2046
2044
2042
2040
2039
2039
2041
2041
2042
2041
2040
2040
2040
2040
2040
2041
2041
2041
2041
2040
2040
2040
2039
2041
2042
2041
2040
2039
2038
2040
2043
2045
2045
2043
2041
2039
2038
2040
2042
2042
2041
2041
2041
2041
2041
2041
2041
2041
2040
2040
2039
2039
2039
2040
2042
2040
2033
2023
2018
2025
2046
2072
2091
2089
2067
2036
2011
2001
2006
2019
2030
2037
2039
2040
2041
2042
2042
2042
2042
2042
2042
2042
2042
2042
2043
2043
2043
2043
2042
2041
2041
2042
2044
2046
2047
2047
2045
2044
2044
2044
2044
2044
2043
2043
2043
2043
2044
2044
2045
2045
2044
2044
2044
2044
2046
2047
2048
2048
2048
2046
2045
2045
2047
2049
2052
2052
2051
2049
2048
2047
2047
2048
2048
2048
2048
2048
2047
2046
2045
2044
2042
2041
2039
2038
2038
2038
2039
2039
2040
2039
2038
2036
2035
2035
2037
2040
2042
2042
2040
2038
2036
2035
2036
2036
2038
2038
2038
2038
2037
2037
2038
2039
2040
2039
2038
2036
2036
2038
2041
2043
2042
2039
2035
2033
2034
2037
2040
2043
2042
2040
2038
2036
2036
2037
2037
2038
2038
2038
2038
2038
2037
2037
2037
2037
2038
2038
2038
2038
2038
2038
2038
2038
2039
2038
2037
2037
2038
2040
2041
2043
2041
2039
2037
2036
2037
2037
2038
2038
2038
2038
2038
2038
2038
2038
2039
2039
2039
2039
2039
2039
2039
2039
2039
2039
2039
2038
2039
2039
2041
2043
2043
2043
2041
2039
2037
2036
2038
2038
2040
2040
2040
2040
2040
2041
2041
2041
2041
2041
2040
2040
2039
2039
2038
2040
2040
2040
2040
2040
2041
2039
2036
2030
2026
2033
2049
2071
2085
2083
2062
2034
2010
2001
2006
2018
2031
2038
2041
2042
2043
2043
2043
2043
2043
2042
2044
2044
2044
2043
2042
2043
2044
2047
2048
2048
2048
2046
2045
2044
2044
2045
2045
2045
2045
2045
2046
2047
2047
2047
2046
2046
2045
2046
2046
2047
2047
2048
2048
2048
2047
2047
2047
2048
2050
2052
2054
2053
2051
2050
2049
2049
2050
2051
2051
2052
2052
2051
2051
2051
2051
2051
2050
2048
2047
2044
2043
2042
2041
2042
2040
2039
2038
2037
2038
2040
2042
2043
2042
2040
2038
2037
2037
2038
2038
2039
2039
2040
2040
2040
2040
2040
2039
2039
2039
2039
2040
2040
2041
2041
2042
2042
2041
2040
2040
2040
2041
2043
2044
2044
2043
2042
2040
2040
2041
2041
2042
2041
2043
2042
2041
2041
2040
2041
2041
2042
2043
2043
2042
2041
2040
2041
2042
2041
2040
2040
2040
2041
2042
2044
2044
2043
2042
2040
2040
2041
2041
2042
2043
2043
2042
2042
2042
2042
2042
2042
2042
2042
2042
2042
2042
2042
2042
2042
2042
2042
2042
2041
2042
2043
2044
2044
2043
2042
2041
2040
2042
2042
2044
2044
2044
2044
2043
2043
2042
2042
2042
2043
2042
2042
2042
2041
2040
2042
2044
2044
2040
2033
2025
2024
2036
2058
2080
2089
2080
2055
2026
2005
2000
2008
2021
2033
2039
2042
2043
2043
2044
2044
2044
2044
2045
2045
2045
2044
2044
2045
2045
2045
2044
2044
2044
2046
2048
2048
2048
2046
2045
2045
2045
2047
2047
2047
2046
2046
2046
2046
2047
2047
2048
2048
2048
2048
2048
2048
2048
2048
2049
2050
2050
2049
2049
2049
2050
2052
2054
2054
2053
2052
2051
2051
2051
2051
2051
2051
2050
2049
2049
2048
2048
2047
2045
2044
2043
2043
2042
2042
2041
2041
2041
2040
2039
2038
2038
2039
2041
2043
2043
2042
2040
2039
2038
2038
2040
2039
2039
2039
2039
2040
2040
2040
2040
2040
2039
2039
2039
2040
2040
2040
2040
2040
2040
2040
2039
2038
2039
2040
2042
2043
2043
2042
2040
2039
2038
2040
2040
2040
2040
2040
2041
2041
2041
2040
2040
2040
2039
2040
2040
2041
2042
2042
2043
2042
2041
2039
2038
2038
2040
2043
2045
2045
2043
2040
2038
2037
2040
2040
2041
2041
2042
2041
2041
2040
2040
2040
2040
2041
2041
2041
2041
2040
2039
2039
2040
2040
2040
2040
2041
2041
2043
2045
2045
2044
2042
2040
2039
2039
2040
2040
2040
2040
2040
2041
2041
2038
2033
2026
2025
2034
2052
2072
2083
2076
2053
2026
2004
1996
2003
2015
2028
2037
2041
2043
2043
2042
2041
2040
2041
2042
2043
2043
2043
2043
2043
2043
2043
2043
2044
2044
2044
2044
2044
2044
2044
2044
2044
2044
2044
2043
2043
2044
2045
2047
2048
2047
2046
2044
2043
2043
2045
2046
2046
2046
2046
2046
2046
2046
2046
2047
2047
2048
2047
2047
2047
2047
2046
2048
2048
2048
2047
2046
2045
2046
2046
2046
2045
2043
2041
2039
2037
2038
2038
2037
2036
2036
2036
2036
2036
2035
2035
2036
2036
2036
2036
2036
2035
2036
2037
2037
2038
2037
2037
2037
2037
2040
2041
2040
2038
2036
2036
2038
2043
2045
2044
2041
2037
2035
2035
2037
2039
2039
2039
2039
2039
2039
2039
2040
2040
2040
2041
2040
2040
2039
2039
2040
2042
2044
2045
2044
2042
2041
2039
2040
2041
2040
2040
2041
2041
2042
2042
2042
2041
2041
2041
2041
2041
2041
2041
2041
2042
2042
2041
2041
2039
2039
2040
2042
2044
2045
2044
2043
2041
2040
2040
2042
2042
2043
2044
2043
2043
2043
2042
2042
2042
2041
2041
2041
2042
2043
2043
2040
2037
2031
2034
2047
2064
2082
2087
2076
2051
2025
2005
1998
2002
2011
2023
2029
2036
2041
2043
2044
2045
2044
2044
2044
2044
2045
2046
2047
2047
2047
2046
2046
2045
2044
2045
2044
2045
2047
2048
2050
2050
2049
2048
2047
2047
2047
2048
2048
2049
2049
2049
2049
2048
2048
2048
2048
2049
2049
2049
2050
2050
2050
2049
2049
2049
2048
2048
2048
2048
2049
2050
2050
2049
2048
2047
2046
2046
2045
2045
2044
2042
2041
2040
2040
2039
2038
2038
2038
2038
2037
2037
2038
2038
2039
2039
2039
2038
2037
2037
2038
2040
2042
2043
2042
2040
2039
2038
2038
2040
2040
2040
2040
2040
2040
2040
2040
2040
2041
2041
2040
2040
2040
2039
2039
2038
2040
2040
2039
2039
2038
2038
2038
2040
2041
2040
2039
2038
2038
2037
2038
2038
2037
2037
2037
2037
2037
2037
2037
2037
2037
2037
2037
2038
2038
2037
2037
2038
2037
2037
2037
2036
2035
2036
2037
2037
2037
2036
2035
2034
2034
2032
2028
2026
2035
2051
2071
2085
2081
2059
2029
2002
1988
1988
1996
2006
2014
2020
2028
2034
2037
2038
2037
2037
2038
2039
2041
2042
2042
2041
2039
2038
2039
2039
2039
2039
2039
2040
2040
2040
2041
2041
2041
2041
2041
2041
2041
2041
2042
2043
2043
2043
2043
2042
2042
2043
2045
2047
2048
2048
2046
2044
2042
2041
2042
2043
2044
2044
2044
2045
2044
2044
2044
2043
2042
2041
2041
2040
2040
2039
2038
2038
2035
2035
2032
2029
2028
2029
2031
2034
2036
2035
2032
2028
2026
2027
2027
2030
2031
2031
2031
2030
2031
2030
2030
2030
2030
2030
2031
2033
2033
2033
2033
2032
2032
2031
2032
2032
2033
2034
2035
2035
2034
2032
2031
2030
2031
2032
2032
2033
2033
2032
2032
2032
2031
2031
2032
2032
2032
2033
2033
2033
2033
2033
2033
2032
2032
2031
2031
2032
2034
2034
2034
2033
2032
2031
2031
2033
2034
2035
2035
2034
2034
2033
2033
2032
2032
2032
2032
2032
2033
2034
2035
2032
2028
2021
2020
2030
2048
2069
2080
2075
2052
2024
2000
1990
1994
2005
2018
2026
2031
2035
2036
2037
2037
2037
2037
2038
2038
2039
2039
2039
2039
2039
2038
2038
2039
2039
2039
2039
2038
2040
2042
2043
2044
2044
2042
2041
2041
2041
2043
2043
2043
2042
2042
2043
2043
2043
2044
2044
2045
2045
2045
2044
2044
2045
2045
2047
2047
2047
2046
2045
2046
2047
2048
2049
2049
2048
2047
2046
2045
2045
2044
2042
2041
2040
2039
2039
2038
2037
2037
2036
2036
2035
2035
2035
2035
2035
2036
2036
2036
2035
2035
2035
2035
2036
2038
2039
2038
2037
2036
2035
2036
2036
2036
2036
2037
2037
2037
2038
2038
2038
2037
2037
2037
2036
2037
2037
2037
2037
2038
2037
2037
2035
2034
2035
2037
2040
2041
2041
2039
2037
2035
2034
2037
2036
2037
2037
2037
2037
2037
2037
2037
2036
2036
2035
2035
2036
2038
2040
2040
2041
2040
2039
2038
2037
2038
2039
2040
2041
2040
2039
2037
2036
2036
2038
2039
2037
2031
2023
2021
2030
2050
2072
2084
2078
2055
2027
2006
1999
2006
2016
2028
2034
2037
2038
2039
2040
2041
2043
2045
2045
2044
2042
2041
2040
2040
2042
2042
2043
2043
2043
2043
2043
2043
2044
2043
2043
2042
2043
2046
2048
2048
2048
2046
2044
2042
2042
2044
2045
2047
2047
2048
2047
2047
2046
2046
2047
2047
2048
2048
2048
2048
2048
2048
2048
2048
2048
2048
2049
2048
2048
2048
2048
2048
2048
2046
2045
2043
2041
2040
2040
2041
2041
2040
2039
2037
2036
2035
2036
2037
2038
2037
2037
2037
2037
2037
2038
2038
2038
2038
2038
2038
2038
2038
2037
2039
2039
2038
2037
2036
2037
2038
2040
2041
2041
2040
2039
2039
2038
2040
2039
2039
2038
2038
2038
2039
2039
2039
2039
2039
2039
2039
2039
2039
2039
2038
2039
2039
2039
2039
2038
2038
2039
2041
2042
2043
2043
2041
2040
2039
2039
2039
2039
2040
2040
2041
2042
2043
2043
2043
2042
2041
2041
2040
2040
2040
2040
2040
2041
2041
2041
2040
2037
2033
2028
2028
2036
2052
2073
2086
2082
2064
2037
2011
1999
2001
2011
2023
2031
2036
2040
2042
2043
2043
