2030
2031
2032
2032
2032
2031
2031
2031
2032
2031
2031
2031
2033
2037
2041
2043
2042
2039
2035
2031
2030
2030
2030
2030
2030
2030
2031
2031
2031
2031
2030
2031
2035
2040
2044
2048
2060
2081
2115
2148
2174
2168
2129
2061
1981
1907
1855
1833
1836
1860
1894
1929
1964
1988
2012
2026
2037
2045
2050
2054
2058
2061
2064
2067
2069
2072
2073
2075
2076
2078
2080
2080
2080
2078
2078
2081
2086
2092
2096
2098
2097
2097
2097
2099
2105
2108
2111
2113
2116
2119
2124
2130
2134
2138
2141
2143
2145
2147
2150
2151
2154
2154
2154
2152
2150
2147
2144
2142
2139
2134
2126
2116
2105
2093
2085
2076
2069
2061
2054
2048
2043
2038
2035
2031
2029
2027
2025
2024
2023
2023
2022
2024
2026
2027
2025
2022
2020
2022
2026
2031
2034
2032
2029
2026
2024
2025
2026
2027
2027
2027
2027
2027
2026
2026
2025
2025
2025
2025
2026
2025
2024
2022
2022
2021
2020
2021
2019
2018
2017
2018
2021
2024
2026
2025
2023
2020
2019
2019
2019
2022
2022
2022
2022
2021
2021
2021
2021
2022
2023
2023
2022
2022
2021
2021
2023
2023
2023
2021
2019
2020
2021
2024
2027
2027
2027
2026
2027
2027
2029
2029
2028
2027
2025
2025
2023
2022
2021
2021
2021
2021
2021
2022
2021
2021
2019
2022
2027
2032
2035
2035
2042
2059
2089
2125
2154
2162
2141
2092
2018
1940
1870
1823
1805
1816
1848
1890
1932
1967
1996
2015
2025
2031
2034
2039
2045
2050
2054
2058
2061
2062
2062
2061
2063
2067
2072
2076
2077
2077
2076
2075
2076
2078
2080
2082
2084
2087
2090
2093
2095
2098
2101
2104
2107
2110
2114
2118
2121
2125
2132
2136
2138
2137
2136
2137
2141
2148
2153
2154
2149
2141
2134
2127
2125
2118
2112
2102
2094
2084
2075
2066
2057
2050
2043
2038
2033
2029
2025
2023
2021
2019
2019
2017
2015
2014
2012
2014
2017
2020
2021
2019
2018
2016
2016
2017
2018
2021
2021
2020
2019
2019
2020
2021
2023
2024
2023
2022
2020
2020
2019
2019
2020
2019
2019
2016
2014
2012
2013
2017
2020
2022
2021
2018
2014
2011
2013
2013
2014
2014
2014
2014
2014
2013
2013
2014
2014
2015
2015
2015
2015
2015
2014
2016
2018
2018
2017
2015
2014
2014
2016
2019
2021
2020
2018
2016
2016
2015
2017
2017
2018
2018
2018
2018
2018
2018
2017
2017
2018
2019
2020
2020
2020
2020
2019
2019
2019
2018
2017
2017
2017
2019
2022
2024
2025
2024
2022
2020
2020
2020
2021
2021
2021
2021
2022
2022
2022
2022
2022
2022
2022
2023
2022
2023
2023
2022
2023
2023
2022
2022
2021
2023
2025
2030
2034
2036
2035
2033
2031
2028
2028
2027
2026
2025
2024
2023
2023
2023
2022
2022
2021
2021
2021
2021
2021
2021
2018
2023
2026
2032
2034
2037
2048
2071
2102
2132
2146
2131
2085
2015
1935
1866
1817
1800
1811
1844
1887
1928
1962
1987
2006
2021
2032
2039
2046
2050
2054
2056
2061
2065
2067
2067
2067
2067
2069
2073
2079
2083
2083
2082
2081
2081
2083
2084
2087
2089
2091
2093
2096
2099
2102
2105
2109
2113
2117
2121
2125
2129
2133
2137
2143
2151
2155
2154
2150
2147
2149
2157
2166
2172
2170
2162
2152
2141
2134
2128
2119
2109
2097
2087
2077
2068
2059
2051
2044
2038
2032
2028
2025
2022
2020
2020
2018
2015
2011
2008
2007
2011
2017
2023
2025
2022
2018
2015
2012
2016
2016
2017
2017
2017
2016
2016
2017
2018
2020
2021
2021
2020
2018
2018
2017
2017
2018
2017
2017
2015
2012
2011
2011
2014
2017
2020
2019
2016
2013
2009
2010
2009
2010
2011
2011
2011
2010
2010
2010
2010
2009
2009
2010
2010
2011
2011
2012
2012
2013
2012
2010
2008
2007
2008
2010
2013
2014
2014
2013
2012
2011
2011
2012
2013
2013
2012
2012
2012
2011
2011
2011
2011
2012
2012
2013
2012
2012
2012
2013
2013
2014
2013
2012
2012
2013
2015
2018
2021
2021
2021
2019
2018
2018
2019
2020
2020
2020
2020
2020
2020
2020
2021
2022
2023
2024
2025
2026
2028
2029
2028
2029
2027
2025
2022
2020
2019
2021
2024
2026
2026
2023
2019
2017
2014
2017
2019
2020
2021
2021
2021
2024
2028
2032
2037
2048
2069
2098
2128
2143
2133
2089
2022
1938
1862
1806
1783
1792
1828
1878
1929
1968
1995
2012
2024
2033
2043
2048
2054
2058
2062
2066
2070
2072
2074
2075
2076
2077
2079
2081
2083
2084
2086
2088
2091
2093
2094
2094
2095
2098
2104
2110
2117
2120
2122
2123
2126
2130
2135
2140
2145
2150
2156
2161
2167
2171
2175
2178
2180
2180
2180
2179
2177
2174
2171
2170
2164
2159
2145
2128
2113
2102
2099
2099
2096
2085
2070
2054
2041
2037
2032
2033
2030
2028
2027
2026
2025
2025
2024
2023
2023
2021
2020
2019
2019
2020
2022
2024
2024
2022
2020
2017
2018
2021
2025
2027
2026
2022
2019
2015
2017
2019
2020
2019
2022
2021
2020
2018
2016
2016
2017
2019
2021
2020
2019
2016
2015
2014
2016
2016
2015
2013
2012
2012
2014
2016
2018
2018
2017
2015
2012
2012
2012
2012
2012
2012
2013
2013
2013
2014
2013
2013
2012
2013
2014
2014
2010
2007
2006
2010
2015
2021
2021
2018
2013
2011
2011
2016
2018
2017
2014
2013
2012
2013
2013
2013
2012
2012
2012
2013
2015
2016
2019
2021
2024
2026
2027
2027
2025
2023
2021
2020
2020
2018
2016
2015
2016
2018
2020
2022
2021
2019
2016
2014
2013
2013
2017
2023
2031
2040
2048
2062
2079
2098
2113
2117
2104
2069
2018
1955
1889
1838
1808
1805
1826
1862
1903
1939
1969
1994
2013
2027
2037
2043
2046
2049
2054
2055
2060
2062
2064
2065
2066
2068
2069
2070
2071
2072
2074
2075
2076
2076
2080
2082
2083
2081
2079
2080
2085
2095
2105
2111
2111
2110
2108
2109
2115
2121
2126
2130
2134
2137
2140
2143
2145
2147
2147
2148
2147
2146
2144
2141
2137
2132
2126
2117
2107
2096
2085
2077
2070
2065
2060
2053
2046
2039
2034
2031
2029
2027
2025
2024
2022
2022
2021
2021
2021
2021
2022
2022
2022
2022
2021
2021
2021
2025
2026
2027
2025
2022
2022
2026
2033
2038
2040
2036
2031
2026
2022
2025
2024
2025
2024
2023
2022
2022
2021
2021
2021
2020
2021
2020
2020
2020
2021
2021
2021
2022
2021
2020
2019
2018
2020
2023
2026
2027
2025
2023
2021
2020
2020
2021
2021
2020
2023
2023
2022
2021
2019
2019
2021
2023
2025
2024
2024
2022
2023
2023
2026
2028
2027
2026
2026
2027
2030
2033
2035
2035
2033
2031
2029
2030
2030
2033
2035
2037
2038
2039
2038
2037
2035
2034
2032
2031
2029
2029
2028
2028
2030
2032
2034
2033
2031
2029
2029
2033
2040
2048
2055
2061
2065
2073
2088
2108
2127
2139
2136
2112
2067
2006
1937
1875
1834
1821
1834
1868
1909
1947
1977
2000
2020
2034
2044
2049
2055
2060
2066
2071
2074
2076
2076
2076
2078
2079
2083
2085
2087
2090
2091
2093
2094
2095
2096
2097
2099
2101
2104
2106
2110
2113
2116
2120
2124
2127
2130
2133
2137
2142
2147
2152
2155
2156
2157
2158
2159
2161
2163
2163
2163
2162
2160
2158
2154
2149
2142
2135
2127
2118
2109
2099
2089
2077
2073
2066
2062
2055
2049
2046
2044
2044
2046
2046
2044
2040
2037
2034
2037
2037
2039
2039
2038
2038
2038
2038
2039
2040
2040
2040
2041
2041
2041
2041
2041
2040
2041
2040
2039
2037
2034
2033
2035
2037
2040
2041
2040
2038
2035
2032
2032
2031
2031
2031
2031
2031
2031
2031
2030
2030
2030
2030
2029
2029
2029
2030
2030
2033
2033
2031
2027
2022
2020
2023
2030
2037
2041
2040
2036
2031
2026
2028
2027
2029
2030
2031
2032
2033
2034
2036
2036
2036
2035
2033
2032
2030
2030
2028
2030
2030
2029
2027
2022
2019
2020
2025
2033
2039
2043
2046
2047
2048
2059
2079
2102
2124
2138
2131
2099
2042
1969
1895
1836
1805
1805
1830
1871
1914
1951
1981
2004
2021
2031
2039
2047
2053
2061
2068
2071
2072
2072
2072
2072
2075
2076
2079
2081
2082
2084
2085
2087
2088
2090
2091
2093
2095
2097
2099
2102
2105
2108
2113
2117
2119
2121
2124
2129
2135
2143
2150
2153
2154
2156
2157
2159
2163
2165
2165
2165
2164
2161
2157
2152
2144
2136
2126
2116
2106
2095
2084
2074
2064
2056
2049
2043
2037
2031
2028
2026
2025
2025
2024
2022
2019
2017
2016
2017
2018
2019
2019
2019
2020
2021
2021
2022
2022
2022
2022
2023
2023
2023
2023
2022
2024
2023
2022
2022
2021
2023
2025
2027
2028
2027
2024
2023
2022
2021
2024
2024
2025
2025
2024
2023
2023
2023
2023
2023
2022
2022
2022
2022
2024
2024
2023
2024
2021
2020
2017
2015
2015
2016
2019
2023
2026
2026
2026
2024
2023
2026
2026
2028
2028
2028
2028
2027
2027
2027
2027
2028
2029
2030
2030
2031
2032
2032
2034
2035
2034
2031
2027
2023
2022
2025
2028
2030
2030
2028
2027
2023
2019
2018
2018
2025
2034
2044
2048
2052
2062
2082
2111
2139
2152
2134
2084
2011
1926
1851
1805
1787
1801
1834
1876
1920
1958
1990
2015
2032
2040
2043
2044
2045
2050
2053
2058
2060
2063
2065
2067
2068
2069
2070
2071
2073
2074
2077
2078
2080
2080
2085
2087
2088
2087
2086
2087
2093
2103
2113
2119
2120
2119
2120
2121
2128
2134
2137
2140
2143
2146
2150
2153
2153
2153
2153
2152
2152
2151
2149
2144
2137
2130
2119
2109
2099
2088
2078
2070
2064
2059
2054
2048
2042
2035
2030
2028
2026
2026
2024
2023
2023
2022
2022
2023
2023
2023
2023
2024
2024
2024
2025
2024
2026
2027
2028
2027
2024
2021
2020
2022
2027
2031
2032
2030
2027
2023
2021
2022
2022
2023
2022
2022
2021
2020
2020
2019
2019
2019
2019
2020
2020
2020
2019
2019
2018
2017
2017
2016
2016
2015
2017
2019
2022
2024
2023
2021
2018
2017
2017
2018
2020
2020
2020
2020
2020
2020
2020
2020
2021
2021
2021
2021
2021
2021
2020
2023
2022
2021
2020
2018
2019
2021
2025
2028
2027
2025
2023
2022
2021
2024
2025
2024
2024
2024
2024
2025
2025
2025
2025
2025
2025
2026
2026
2026
2026
2025
2028
2027
2026
2026
2023
2022
2023
2026
2030
2033
2033
2032
2030
2027
2027
2026
2026
2029
2032
2034
2036
2037
2037
2036
2035
2034
2033
2031
2030
2029
2028
2027
2028
2027
2026
2025
2024
2024
2027
2030
2035
2039
2042
2043
2047
2060
2085
2117
2145
2155
2136
2084
2011
1929
1859
1816
1806
1824
1861
1906
1945
1976
1998
2019
2031
2043
2045
2045
2046
2050
2061
2073
2083
2084
2079
2074
2069
2072
2071
2074
2073
2074
2078
2083
2087
2089
2090
2091
2092
2095
2098
2100
2103
2105
2108
2111
2114
2114
2115
2115
2120
2129
2139
2146
2148
2147
2145
2142
2145
2146
2148
2149
2149
2148
2146
2144
2137
2130
2121
2113
2106
2099
2092
2084
2074
2066
2058
2053
2044
2039
2033
2030
2031
2033
2035
2034
2030
2025
2022
2022
2023
2025
2025
2025
2025
2025
2025
2025
2025
2026
2026
2026
2026
2025
2025
2024
2025
2028
2029
2027
2023
2019
2017
2020
2025
2030
2030
2027
2022
2019
2018
2019
2022
2022
2021
2020
2019
2019
2018
2018
2018
2019
2020
2020
2020
2019
2019
2018
2018
2019
2017
2015
2013
2013
2016
2021
2025
2027
2025
2021
2018
2017
2019
2021
2021
2021
2021
2021
2021
2021
2022
2022
2022
2022
2023
2023
2023
2023
2022
2025
2024
2023
2022
2020
2021
2024
2028
2031
2030
2028
2026
2025
2024
2028
2027
2027
2027
2027
2027
2027
2029
2029
2030
2030
2030
2029
2029
2029
2029
2027
2031
2031
2034
2032
2030
2029
2031
2038
2045
2048
2048
2043
2037
2032
2031
2031
2031
2030
2029
2028
2028
2028
2028
2028
2028
2029
2029
2029
2029
2031
2034
2042
2047
2051
2061
2077
2103
2134
2157
2158
2123
2055
1971
1890
1833
1813
1825
1858
1902
1942
1976
2001
2020
2033
2043
2050
2056
2060
2063
2066
2068
2070
2075
2079
2081
2081
2077
2074
2075
2081
2090
2097
2099
2097
2094
2091
2092
2095
2097
2101
2103
2106
2109
2112
2115
2118
2121
2124
2128
2132
2137
2140
2144
2145
2151
2153
2155
2154
2150
2147
2149
2156
2164
2168
2166
2157
2146
2132
2126
2116
2109
2101
2092
2084
2076
2070
2062
2056
2049
2045
2041
2039
2038
2038
2035
2037
2034
2033
2028
2026
2024
2026
2032
2039
2043
2041
2036
2032
2027
2029
2029
2031
2031
2032
2032
2031
2031
2031
2030
2030
2029
2029
2028
2026
2026
2025
2027
2029
2031
2029
2023
2017
2016
2022
2031
2038
2039
2034
2027
2021
2019
2021
2023
2024
2024
2024
2024
2024
2024
2024
2023
2025
2026
2026
2022
2018
2016
2018
2026
2034
2037
2033
2027
2024
2024
2030
2033
2033
2028
2024
2022
2022
2026
2026
2027
2027
2027
2027
2027
2027
2028
2028
2029
2029
2029
2029
2029
2029
2028
2029
2030
2030
2029
2027
2026
2028
2032
2036
2038
2036
2034
2031
2029
2030
2032
2034
2035
2036
2038
2040
2041
2042
2042
2041
2039
2038
2036
2035
2034
2031
2033
2032
2032
2030
2028
2027
2028
2032
2035
2038
2037
2036
2036
2039
2048
2050
2060
2075
2098
2129
2156
2169
2153
2106
2035
1954
1883
1839
1828
1844
1879
1918
1957
1984
2005
2019
2030
2040
2050
2061
2068
2072
2072
2072
2072
2073
2077
2079
2080
2081
2082
2084
2085
2087
2089
2090
2092
2092
2094
2095
2098
2100
2103
2108
2109
2111
2111
2111
2114
2119
2126
2133
2138
2141
2143
2144
2146
2149
2151
2154
2155
2156
2157
2157
2157
2156
2154
2151
2147
2141
2135
2127
2119
2109
2102
2093
2083
2073
2064
2056
2054
2055
2056
2054
2049
2044
2040
2035
2038
2037
2037
2036
2037
2037
2037
2037
2037
2037
2037
2036
2036
2036
2036
2036
2036
2040
2039
2039
2035
2031
2030
2030
2035
2039
2040
2039
2036
2033
2030
2031
2030
2031
2031
2031
2032
2031
2030
2030
2029
2028
2028
2029
2029
2028
2028
2027
2027
2030
2031
2030
2026
2022
2022
2025
2032
2036
2037
2034
2030
2027
2025
2027
2028
2029
2029
2029
2029
2029
2029
2029
2029
2030
2030
2030
2030
2031
2030
2031
2031
2031
2030
2028
2028
2029
2031
2035
2037
2036
2034
2031
2030
2030
2031
2031
2032
2032
2032
2032
2032
2032
2032
2032
2032
2032
2033
2033
2033
2034
2034
2035
2036
2037
2039
2039
2040
2041
2043
2045
2045
2043
2039
2035
2032
2031
2031
2032
2032
2031
2030
2030
2030
2031
2031
2031
2031
2033
2037
2043
2047
2050
2065
2085
2115
2144
2160
2150
2110
2045
1967
1893
1839
1817
1824
1854
1899
1939
1972
1998
2017
2030
2041
2048
2053
2058
2062
2065
2069
2071
2073
2075
2077
2079
2081
2082
2082
2081
2081
2083
2088
2093
2097
2098
2097
2096
2096
2098
2102
2105
2108
2111
2114
2117
2120
2123
2128
2132
2136
2139
2143
2146
2150
2153
2156
2160
2160
2159
2156
2153
2152
2152
2154
2152
2147
2137
2126
2113
2103
2094
2085
2077
2069
2061
2054
2048
2044
2041
2037
2034
2032
2030
2029
2028
2028
2026
2028
2028
2026
2024
2022
2021
2025
2031
2036
2038
2035
2031
2027
2024
2027
2027
2027
2027
2028
2028
2028
2028
2027
2026
2025
2024
2026
2025
2024
2023
2020
2023
2023
2025
2024
2021
2018
2017
2020
2024
2028
2027
2024
2021
2018
2019
2018
2020
2020
2020
2021
2021
2021
2020
2020
2020
2021
2021
2021
2020
2020
2020
2021
2024
2024
2023
2018
2015
2016
2022
2030
2034
2034
2029
2024
2021
2020
2023
2023
2024
2024
2024
2024
2025
2025
2025
2025
2025
2025
2025
2026
2026
2027
2026
2026
2026
2026
2026
2026
2026
2027
2029
2031
2032
2031
2028
2027
2026
2027
2028
2028
2028
2028
2029
2029
2031
2032
2034
2036
2038
2039
2039
2038
2037
2034
2033
2032
2031
2029
2028
2027
2028
2030
2031
2032
2030
2028
2026
2025
2026
2027
2027
2030
2034
2038
2043
2052
2072
2101
2132
2154
2152
2118
2053
1973
1891
1835
1807
1813
1840
1881
1924
1961
1990
2013
2029
2039
2045
2048
2050
2056
2059
2063
2066
2068
2069
2071
2073
2074
2076
2078
2079
2081
2082
2083
2084
2086
2088
2090
2091
2091
2092
2093
2097
2104
2111
2116
2117
2118
2118
2120
2123
2129
2133
2136
2140
2144
2147
2150
2151
2153
2154
2154
2154
2153
2151
2148
2144
2140
2135
2126
2114
2101
2089
2080
2075
2071
2067
2061
2052
2043
2031
2027
2025
2028
2032
2034
2033
2028
2023
2020
2020
2022
2024
2024
2024
2024
2025
2024
2025
2027
2027
2024
2021
2018
2018
2023
2030
2035
2037
2032
2027
2022
2019
2022
2022
2022
2021
2021
2021
2021
2022
2021
2020
2020
2019
2019
2018
2020
2020
2018
2020
2018
2018
2016
2015
2016
2017
2021
2024
2025
2023
2021
2018
2016
2017
2017
2019
2020
2020
2020
2019
2019
2019
2019
2019
2020
2021
2020
2020
2019
2019
2019
2022
2024
2022
2018
2015
2015
2019
2026
2031
2032
2029
2024
2021
2019
2021
2023
2023
2023
2024
2024
2024
2024
2023
2023
2024
2023
2024
2024
2024
2024
2025
2025
2025
2025
2024
2024
2024
2024
2026
2028
2028
2028
2026
2024
2024
2025
2026
2027
2028
2029
2031
2032
2034
2035
2036
2037
2036
2035
2033
2031
2030
2028
2028
2027
2026
2024
2022
2022
2023
2026
2030
2032
2031
2028
2025
2024
2028
2034
2038
2042
2052
2072
2101
2133
2154
2150
2113
2046
1964
1884
1828
1805
1814
1849
1892
1936
1968
1991
2009
2023
2036
2047
2054
2057
2059
2060
2061
2065
2066
2069
2070
2072
2073
2074
2076
2078
2080
2081
2082
2083
2085
2086
2087
2089
2092
2095
2097
2098
2098
2099
2103
2109
2116
2122
2126
2127
2128
2130
2132
2138
2141
2144
2146
2148
2149
2150
2150
2150
2150
2148
2144
2140
2133
2127
2119
2111
2104
2094
2084
2073
2062
2055
2051
2049
2048
2044
2038
2033
2028
2025
2026
2025
2025
2024
2025
2025
2025
2025
2025
2025
2025
2026
2026
2027
2027
2027
2026
2027
2026
2025
2022
2020
2020
2023
2028
2033
2034
2030
2026
2023
2019
2022
2022
2022
2021
2020
2020
2020
2020
2019
2019
2019
2019
2019
2019
2019
2020
2017
2020
2018
2018
2017
2016
2016
2017
2020
2023
2025
2024
2020
2019
2016
2017
2017
2019
2020
2020
2020
2020
2020
2020
2020
2020
2020
2021
2021
2020
2020
2020
2021
2024
2023
2021
2016
2014
2015
2022
2030
2034
2033
2028
2023
2020
2019
2022
2022
2024
2024
2024
2025
2024
2024
2024
2024
2025
2025
2025
2025
2026
2025
2026
2026
2026
2025
2023
2023
2025
2027
2030
2032
2032
2030
2028
2025
2027
2028
2029
2030
2031
2032
2033
2034
2036
2037
2038
2038
2036
2035
2033
2031
2030
2030
2029
2028
2026
2025
2023
2024
2026
2028
2031
2031
2029
2027
2026
2028
2033
2037
2040
2047
2061
2087
2121
2150
2160
2139
2085
2009
1925
1855
1816
1811
1833
1877
1919
1957
1982
2001
2015
2029
2042
2050
2057
2059
2060
2060
2061
2066
2067
2070
2071
2072
2073
2074
2076
2077
2079
2080
2082
2084
2085
2087
2088
2090
2093
2096
2098
2098
2099
2100
2103
2110
2117
2123
2125
2126
2127
2129
2132
2137
2140
2143
2145
2146
2147
2148
2148
2148
2146
2144
2140
2135
2129
2122
2114
2105
2099
2090
2080
2070
2060
2053
2049
2048
2047
2044
2038
2033
2029
2026
2026
2026
2026
2025
2025
2026
2026
2026
2026
2026
2026
2027
2027
2027
2027
2027
2026
2028
2028
2026
2023
2020
2020
2023
2028
2033
2034
2030
2026
2022
2019
2022
2022
2022
2021
2021
2021
2021
2021
2021
2020
2020
2019
2019
2019
2019
2020
2018
2020
2019
2019
2018
2016
2017
2018
2021
2024
2025
2024
2021
2019
2017
2018
2017
2019
2020
2020
2020
2020
2020
2020
2020
2020
2020
2021
2021
2020
2020
2021
2021
2024
2025
2023
2020
2017
2018
2022
2028
2033
2032
2029
2024
2022
2020
2023
2024
2025
2025
2025
2026
2025
2025
2024
2025
2026
2026
2026
2026
2026
2026
2026
2026
2026
2027
2026
2025
2026
2026
2028
2030
2031
2031
2029
2028
2027
2027
2028
2029
2029
2030
2030
2031
2033
2034
2037
2039
2040
2038
2034
2031
2030
2032
2038
2040
2036
2031
2025
2020
2023
2027
2031
2032
2030
2028
2025
2023
2025
2028
2032
2037
2039
2045
2059
2083
2117
2149
2166
2153
2105
2031
1945
1870
1821
1812
1829
1868
1911
1948
1977
1999
2018
2034
2045
2050
2053
2055
2056
2060
2062
2065
2068
2069
2071
2072
2074
2075
2077
2078
2079
2081
2082
2083
2085
2087
2089
2091
2092
2093
2093
2094
2098
2104
2110
2116
2118
2119
2120
2122
2126
2130
2134
2137
2139
2142
2144
2146
2147
2148
2147
2147
2146
2144
2141
2136
2130
2122
2117
2110
2100
2087
2073
2063
2059
2062
2064
2062
2054
2043
2031
2026
2025
2026
2026
2025
2025
2025
2025
2025
2025
2025
2024
2025
2025
2025
2026
2026
2026
2028
2028
2026
2023
2021
2019
2023
2027
2032
2034
2031
2027
2023
2020
2022
2022
2021
2022
2022
2022
2021
2021
2021
2020
2020
2020
2020
2020
2020
2019
2020
2023
2020
2019
2015
2013
2015
2019
2024
2027
2028
2025
2022
2019
2019
2020
2019
2021
2020
2021
2021
2021
2021
2021
2022
2021
2021
2021
2021
2022
2023
2024
2024
2024
2023
2021
2020
2020
2021
2024
2026
2027
2027
2026
2024
2024
2023
2024
2025
2025
2025
2026
2026
2026
2026
2026
2027
2027
2028
2028
2028
2027
2027
2027
2027
2027
2026
2026
2026
2026
2028
2030
2032
2032
2031
2029
2027
2026
2027
2028
2029
2029
2030
2032
2033
2036
2038
2039
2039
2038
2036
2034
2033
2031
2030
2029
2029
2028
2027
2026
2026
2027
2029
2031
2031
2029
2027
2025
2026
2031
2038
2042
2047
2056
2076
2106
2139
2166
2170
2142
2081
2000
1917
1854
1823
1823
1851
1890
1929
1961
1985
2006
2022
2036
2045
2049
2052
2053
2055
2058
2063
2064
2066
2067
2068
2070
2072
2073
2075
2076
2078
2080
2081
2083
2084
2086
2088
2090
2093
2095
2095
2096
2097
2100
2106
2113
2118
2121
2122
2124
2126
2129
2133
2136
2138
2140
2142
2144
2145
2146
2145
2145
2143
2140
2136
2132
2126
2120
2113
2108
2098
2089
2077
2066
2057
2053
2051
2049
2047
2041
2035
2029
2024
2025
2023
2023
2023
2023
2022
2023
2023
2023
2023
2023
2023
2023
2024
2024
2024
2023
2024
2024
2023
2022
2020
2020
2022
2025
2029
2029
2027
2025
2021
2019
2020
2020
2020
2020
2020
2020
2020
2020
2019
2020
2019
2019
2019
2018
2019
2018
2018
2022
2021
2020
2016
2012
2011
2015
2022
2029
2032
2029
2023
2018
2014
2017
2018
2021
2020
2020
2021
2020
2021
2021
2021
2021
2021
2021
2021
2021
2021
2023
2024
2024
2023
2021
2019
2019
2021
2025
2028
2030
2028
2025
2023
2022
2023
2025
2024
2025
2025
2025
2025
2025
2025
2025
2026
2027
2027
2026
2026
2026
2026
2027
2030
2031
2032
2031
2031
2033
2036
2040
2042
2039
2035
2030
2025
2025
2027
2026
2028
2026
2026
2024
2024
2025
2025
2025
2025
2027
2031
2037
2043
2047
2055
2071
2095
2125
2154
2169
2157
2116
2048
1970
1896
1846
1828
1837
1868
1907
1943
1971
1994
2012
2025
2036
2043
2048
2052
2056
2060
2062
2064
2066
2068
2070
2073
2074
2074
2073
2073
2074
2077
2082
2086
2088
2089
2088
2087
2089
2092
2093
2097
2100
2102
2105
2107
2111
2115
2119
2123
2126
2129
2132
2135
2139
2141
2144
2145
2145
2144
2142
2140
2139
2140
2141
2138
2132
2123
2113
2102
2094
2085
2077
2068
2060
2053
2048
2042
2038
2035
2031
2028
2026
2023
2021
2021
2021
2021
2023
2022
2024
2020
2017
2016
2018
2024
2030
2034
2033
2029
2024
2021
2022
2022
2024
2024
2024
2024
2024
2024
2024
2024
2024
2024
2023
2023
2023
2022
2021
2023
2024
2022
2020
2017
2015
2017
2022
2027
2029
2024
2018
2013
2012
2018
2024
2028
2028
2024
2020
2016
2017
2018
2020
2020
2020
2020
2020
2020
2020
2019
2021
2022
2021
2020
2017
2016
2017
2021
2026
2030
2030
2028
2024
2021
2021
2021
2022
2023
2023
2023
2024
2024
2024
2024
2023
2023
2023
2023
2024
2025
2026
2026
2025
2025
2023
2022
2022
2024
2026
2029
2029
2029
2026
2025
2025
2024
2026
2026
2026
2027
2028
2029
2030
2031
2032
2034
2036
2037
2036
2035
2032
2030
2028
2029
2027
2026
2024
2022
2022
2025
2028
2031
2031
2029
2026
2022
2021
2024
2028
2034
2038
2042
2050
2069
2099
2132
2157
2157
2125
2062
1982
1902
1841
1811
1814
1842
1882
1925
1959
1985
2005
2023
2036
2045
2049
2052
2054
2056
2060
2064
2065
2067
2068
2070
2072
2074
2076
2076
2079
2081
2082
2082
2082
2082
2082
2088
2093
2099
2099
2097
2098
2100
2108
2117
2124
2127
2127
2127
2128
2133
2137
2143
2146
2149
2152
2154
2156
2157
2157
2156
2155
2152
2149
2144
2137
2129
2121
2111
2100
2088
2074
2063
2056
2053
2054
2052
2048
2040
2032
2024
2023
2021
2020
2019
2017
2017
2017
2018
2018
2018
2018
2019
2018
2018
2019
2019
2019
2021
2023
2023
2021
2017
2015
2015
2020
2027
2031
2032
2028
2023
2018
2017
2019
2019
2019
2019
2019
2019
2019
2019
2019
2018
2018
2018
2018
2018
2017
2017
2016
2019
2018
2017
2012
2008
2007
2011
2019
2027
2031
2028
2022
2017
2012
2015
2015
2017
2017
2018
2018
2018
2018
2018
2019
2019
2018
2018
2019
2019
2019
2019
2021
2021
2020
2018
2014
2013
2015
2021
2027
2032
2032
2027
2022
2019
2019
2020
2021
2023
2023
2023
2023
2023
2023
2023
2023
2023
2024
2024
2023
2024
2024
2024
2028
2028
2027
2022
2017
2016
2021
2031
2039
2040
2035
2029
2024
2020
2025
2026
2027
2027
2027
2028
2029
2029
2030
2031
2033
2035
2037
2038
2038
2037
2035
2035
2035
2033
2029
2026
2025
2026
2030
2034
2035
2032
2028
2025
2023
2025
2026
2027
2027
2029
2033
2036
2039
2046
2062
2090
2124
2150
2155
2128
2070
1992
1913
1851
1818
1816
1839
1880
1925
1967
1999
2020
2032
2039
2044
2047
2052
2057
2061
2063
2066
2068
2070
2072
2074
2075
2076
2078
2079
2080
2081
2082
2083
2086
2088
2089
2089
2089
2090
2093
2099
2106
2111
2114
2114
2115
2116
2120
2124
2130
2134
2137
2141
2145
2148
2151
2153
2155
2155
2156
2155
2154
2152
2149
2146
2141
2133
2124
2112
2100
2091
2085
2082
2078
2070
2060
2050
2044
2039
2034
2031
2029
2025
2025
2024
2024
2024
2023
2023
2023
2023
2023
2023
2023
2023
2022
2027
2028
2028
2023
2017
2014
2017
2025
2035
2041
2039
2032
2025
2019
2021
2021
2024
2023
2023
2023
2023
2023
2023
2023
2023
2022
2021
2021
2020
2020
2019
2021
2021
2020
2017
2015
2013
2015
2021
2027
2029
2028
2023
2018
2014
2017
2017
2018
2018
2019
2021
2023
2024
2023
2020
2017
2016
2016
2017
2019
2019
2018
2020
2019
2020
2019
2017
2020
2020
2021
2022
2023
2023
2023
2024
2023
2023
2022
2021
2021
2021
2023
2023
2023
2023
2024
2024
2024
2025
2024
2024
2023
2023
2026
2027
2028
2026
2022
2020
2020
2024
2030
2033
2033
2030
2027
2023
2024
2025
2027
2027
2027
2028
2028
2028
2027
2027
2028
2028
2028
2029
2029
2030
2028
2029
2029
2029
2028
2027
2027
2029
2032
2037
2040
2042
2041
2039
2038
2037
2037
2035
2034
2033
2031
2030
2030
2030
2030
2029
2029
2029
2029
2028
2029
2029
2028
2030
2030
2031
2033
2035
2039
2050
2070
2099
2130
2154
2159
2135
2081
2009
1929
1864
1827
1822
1844
1884
1925
1963
1991
2011
2024
2032
2038
2045
2053
2062
2070
2071
2069
2065
2062
2064
2069
2076
2080
2083
2083
2082
2081
2081
2084
2085
2088
2089
2091
2093
2095
2097
2099
2102
2105
2109
2112
2115
2118
2122
2126
2131
2134
2138
2140
2142
2144
2147
2152
2157
2160
2160
2158
2155
2152
2150
2147
2143
2137
2129
2120
2111
2102
2093
2084
2075
2067
2058
2050
2044
2039
2035
2033
2032
2028
2026
2022
2018
2018
2019
2024
2026
2027
2026
2023
2020
2019
2021
2021
2022
2022
2022
2022
2022
2023
2024
2025
2024
2024
2023
2023
2023
2023
2022
2023
2024
2023
2021
2019
2018
2019
2022
2026
2027
2025
2023
2020
2017
2018
2018
2018
2018
2018
2019
2018
2019
2019
2019
2019
2018
2018
2018
2019
2019
2018
2021
2021
2021
2018
2015
2013
2015
2021
2028
2031
2029
2024
2019
2017
2018
2021
2023
2022
2021
2021
2021
2022
2022
2023
2022
2022
2022
2023
2023
2024
2024
2024
2025
2024
2023
2022
2021
2023
2026
2029
2031
2030
2027
2025
2024
2024
2026
2027
2027
2027
2027
2027
2027
2027
2027
2028
2028
2028
2028
2029
2030
2032
2033
2037
2037
2037
2035
2033
2031
2032
2034
2036
2035
2033
2029
2027
2025
2028
2027
2028
2027
2027
2027
2027
2027
2028
2030
2035
2043
2048
2054
2067
2086
2113
2142
2162
2158
2124
2062
1984
1910
1856
1833
1838
1863
1898
1932
1961
1986
2008
2022
2033
2041
2047
2052
2056
2059
2062
2064
2066
2068
2071
2072
2073
2073
2076
2077
2078
2078
2077
2078
2081
2085
2091
2094
2095
2095
2095
2096
2100
2103
2106
2109
2112
2115
2119
2123
2127
2131
2134
2137
2140
2142
2144
2146
2147
2148
2149
2148
2146
2141
2137
2134
2131
2128
2123
2114
2102
2091
2080
2071
2064
2056
2050
2045
2040
2035
2031
2028
2026
2024
2023
2022
2020
2019
2019
2018
2020
2022
2021
2019
2016
2015
2017
2021
2027
2030
2029
2026
2024
2021
2021
2023
2024
2025
2025
2025
2025
2025
2025
2025
2025
2025
2025
2025
2024
2023
2023
2022
2024
2024
2022
2019
2016
2015
2018
2024
2029
2030
2026
2022
2019
2016
2019
2020
2019
2019
2019
2020
2020
2020
2020
2020
2020
2020
2021
2021
2021
2020
2020
2022
2022
2022
2019
2017
2018
2020
2025
2029
2031
2029
2025
2021
2018
2018
2019
2023
2026
2027
2026
2024
2023
2023
2023
2025
2024
2025
2025
2024
2025
2025
2025
2030
2029
2029
2024
2020
2019
2024
2031
2037
2037
2033
2028
2025
2023
2026
2027
2028
2028
2028
2028
2028
2029
2029
2030
2032
2034
2035
2037
2038
2037
2036
2035
2033
2032
2029
2027
2027
2028
2030
2031
2030
2028
2026
2025
2025
2027
2027
2027
2027
2029
2033
2038
2041
2048
2064
2091
2124
2152
2160
2138
2084
2009
1928
1860
1820
1812
1830
1867
1912
1953
1985
2007
2022
2033
2040
2045
2050
2056
2060
2062
2064
2067
2069
2071
2073
2074
2076
2077
2078
2080
2081
2082
2083
2086
2087
2089
2090
2090
2092
2095
2100
2104
2109
2111
2113
2115
2117
2122
2126
2131
2136
2139
2144
2148
2152
2156
2158
2160
2162
2162
2162
2160
2159
2156
2151
2145
2136
2125
2112
2100
2091
2084
2079
2072
2063
2053
2045
2038
2033
2030
2026
2024
2022
2021
2020
2019
2018
2017
2017
2017
2017
2017
2017
2017
2017
2019
2023
2023
2022
2017
2012
2010
2015
2024
2033
2036
2033
2027
2020
2018
2020
2022
2023
2022
2022
2022
2022
2022
2022
2021
2020
2020
2019
2020
2020
2019
2018
2020
2019
2018
2016
2014
2013
2017
2021
2025
2025
2022
2019
2016
2014
2016
2017
2017
2017
2018
2018
2018
2019
2019
2019
2018
2019
2019
2019
2019
2018
2019
2020
2020
2020
2018
2016
2016
2020
2025
2029
2027
2024
2019
2016
2019
2024
2027
2028
2026
2025
2022
2022
2022
2023
2022
2023
2023
2024
2024
2024
2024
2025
2025
2026
2026
2025
2024
2023
2024
2026
2029
2030
2030
2028
2026
2025
2025
2027
2027
2028
2028
2028
2028
2028
2028
2028
2029
2029
2030
2029
2030
2030
2030
2029
2028
2028
2028
2028
2028
2030
2032
2035
2038
2040
2041
2040
2039
2036
2036
2035
2034
2033
2032
2031
2030
2030
2029
2029
2029
2028
2028
2028
2029
2029
2028
2028
2030
2032
2035
2037
2040
2049
2072
2104
2138
2158
2154
2116
2051
1973
1898
1842
1816
1822
1851
1894
1937
1973
1999
2017
2031
2040
2048
2052
2057
2060
2065
2067
2068
2069
2071
2073
2076
2080
2083
2084
2083
2082
2083
2084
2088
2089
2090
2092
2094
2096
2098
2100
2103
2106
2109
2112
2115
2118
2122
2126
2130
2135
2140
2144
2147
2149
2152
2156
2161
2166
2169
2169
2167
2164
2161
2158
2155
2149
2141
2132
2122
2112
2102
2091
2081
2072
2064
2056
2050
2045
2040
2036
2032
2031
2029
2027
2023
2019
2017
2018
2023
2028
2030
2028
2024
2021
2019
2021
2021
2023
2023
2023
2024
2024
2024
2024
2024
2023
2024
2023
2023
2023
2023
2022
2023
2023
2022
2020
2018
2017
2019
2023
2026
2027
2024
2021
2018
2016
2017
2018
2019
2018
2018
2018
2018
2018
2018
2018
2018
2018
2018
2018
2019
2019
2018
2019
2019
2020
2017
2015
2013
2015
2020
2026
2030
2029
2024
2021
2018
2017
2017
2019
2020
2022
2023
2024
2023
2022
2021
2021
2021
2022
2022
2023
2023
2023
2024
2024
2023
2021
2019
2019
2022
2027
2030
2030
2028
2025
2023
2022
2025
2026
2026
2026
2025
2026
2026
2026
2026
2027
2028
2028
2028
2028
2027
2027
2025
2027
2029
2028
2027
2025
2024
2026
2032
2038
2043
2044
2042
2038
2035
2032
2033
2031
2031
2030
2030
2029
2028
2028
2027
2027
2027
2027
2027
2028
2028
2027
2027
2028
2033
2038
2043
2048
2057
2077
2104
2136
2161
2165
2141
2088
2015
1938
1874
1836
1830
1848
1883
1922
1954
1981
2002
2019
2031
2040
2046
2050
2054
2056
2062
2064
2067
2067
2066
2067
2071
2076
2080
2083
2083
2081
2081
2080
2083
2084
2087
2089
2091
2094
2096
2098
2100
2102
2104
2107
2111
2114
2118
2122
2126
2130
2136
2138
2141
2141
2143
2146
2150
2154
2157
2157
2154
2150
2147
2142
2138
2131
2124
2116
2107
2099
2089
2080
2071
2064
2056
2049
2044
2039
2035
2032
2029
2029
2027
2024
2020
2017
2017
2020
2025
2027
2027
2024
2021
2019
2019
2021
2023
2023
2023
2023
2023
2024
2025
2026
2025
2026
2026
2025
2026
2025
2026
2024
2026
2026
2024
2022
2018
2017
2019
2023
2028
2030
2028
2024
2021
2018
2020
2021
2020
2020
2020
2021
2021
2021
2020
2020
2020
2020
2020
2020
2020
2020
2019
2022
2020
2021
2019
2018
2018
2019
2022
2026
2027
2027
2025
2022
2019
2021
2020
2021
2021
2021
2023
2025
2026
2026
2025
2023
2023
2023
2023
2024
2024
2024
2024
2028
2028
2027
2023
2020
2019
2023
2029
2034
2035
2032
2028
2025
2022
2025
2026
2027
2028
2028
2029
2029
2028
2028
2028
2028
2028
2028
2029
2029
2028
2029
2030
2030
2031
2031
2031
2032
2035
2040
2043
2043
2040
2036
2032
2029
2030
2029
2030
2029
2029
2028
2028
2028
2027
2028
2028
2029
2028
2028
2028
2031
2036
2040
2045
2053
2070
2097
2129
2155
2160
2135
2078
2001
1920
1855
1820
1818
1843
1882
1923
1959
1986
2006
2021
2033
2042
2048
2053
2056
2060
2063
2065
2067
2070
2071
2073
2074
2074
2075
2076
2080
2083
2086
2087
2087
2087
2087
2090
2092
2094
2096
2098
2101
2103
2108
2112
2116
2117
2119
2121
2127
2136
2146
2153
2156
2155
2153
2151
2153
2154
2158
2160
2163
2162
2158
2150
2142
2132
2124
2115
2105
2094
2083
2074
2065
2057
2050
2045
2040
2035
2032
2028
2025
2023
2020
2021
2022
2020
2019
2015
2013
2014
2017
2022
2025
2026
2025
2022
2019
2019
2020
2020
2021
2021
2022
2022
2022
2023
2024
2024
2023
2024
2023
2023
2023
2023
2022
2023
2023
2021
2019
2017
2017
2020
2023
2027
2027
2025
2022
2019
2017
2017
2018
2018
2018
2018
2019
2018
2018
2018
2018
2018
2018
2018
2018
2019
2019
2019
2021
2021
2021
2016
2013
2011
2014
2021
2028
2032
2029
2024
2019
2016
2017
2018
2021
2021
2020
2020
2019
2020
2021
2023
2023
2024
2023
2022
2022
2021
2024
2024
2025
2024
2022
2021
2021
2023
2026
2029
2029
2028
2026
2025
2024
2025
2026
2026
2026
2026
2027
2027
2027
2027
2026
2027
2028
2029
2029
2029
2028
2027
2026
2029
2028
2028
2027
2025
2025
2028
2031
2034
2035
2034
2032
2030
2029
2033
2034
2037
2039
2040
2040
2038
2037
2035
2034
2033
2032
2031
2030
2030
2029
2028
2028
2029
2028
2028
2027
2026
2028
2030
2034
2037
2039
2040
2042
2052
2075
2107
2139
2155
2146
2105
2038
1959
1885
1834
1814
1824
1856
1899
1942
1976
2000
2018
2031
2041
2046
2050
2053
2058
2063
2068
2073
2074
2075
2074
2075
2077
2078
2079
2080
2081
2082
2084
2086
2088
2090
2091
2093
2095
2097
2099
2102
2104
2108
2111
2114
2117
2120
2123
2128
2134
2141
2147
2151
2153
2155
2156
2159
2161
2162
2162
2161
2161
2160
2157
2153
2147
2139
2130
2119
2109
2098
2087
2077
2068
2062
2056
2051
2044
2036
2030
2028
2030
2032
2034
2031
2027
2022
2019
2020
2020
2021
2021
2022
2021
2022
2022
2023
2023
2023
2024
2024
2024
2024
2025
2023
2025
2026
2024
2022
2020
2019
2021
2024
2027
2029
2027
2024
2021
2018
2020
2020
2020
2020
2020
2020
2019
2019
2020
2020
2019
2019
2018
2018
2019
2019
2018
2020
2019
2019
2018
2016
2016
2017
2020
2023
2024
2023
2021
2019
2018
2019
2019
2020
2021
2021
2020
2019
2018
2018
2019
2022
2024
2025
2023
2021
2020
2020
2021
2024
2026
2025
2020
2015
2012
2015
2024
2032
2036
2034
2028
2022
2019
2021
2023
2025
2025
2025
2025
2025
2025
2025
2026
2026
2026
2027
2027
2027
2027
2028
2027
2027
2026
2025
2025
2026
2028
2031
2033
2033
2031
2029
2029
2030
2032
2034
2037
2038
2037
2036
2034
2033
2031
2031
2030
2030
2029
2028
2028
2028
2027
2027
2028
2027
2026
2025
2024
2027
2031
2036
2042
2045
2047
2053
2069
2095
2127
2154
2165
2148
2101
2032
1952
1883
1839
1827
1842
1875
1915
1950
1977
1998
2018
2030
2039
2043
2046
2049
2055
2061
2068
2071
2072
2071
2070
2070
2073
2075
2077
2078
2080
2080
2082
2083
2084
2086
2087
2090
2092
2094
2096
2099
2102
2105
2108
2111
2114
2116
2119
2123
2129
2136
2142
2146
2147
2148
2148
2149
2151
2152
2152
2152
2150
2148
2145
2140
2134
2127
2119
2110
2100
2091
2082
2074
2066
2061
2053
2046
2038
2032
2029
2029
2031
2031
2029
2026
2022
2020
2018
2020
2020
2021
2021
2021
2021
2022
2022
2023
2024
2024
2025
2025
2025
2025
2025
2023
2026
2026
2025
2022
2019
2017
2019
2025
2031
2033
2031
2026
2023
2020
2022
2023
2023
2022
2022
2022
2022
2022
2021
2021
2020
2020
2020
2020
2021
2021
2020
2022
2021
2022
2020
2019
2018
2019
2022
2026
2027
2027
2023
2021
2019
2020
2020
2022
2022
2023
2023
2022
2021
2020
2021
2022
2024
2026
2025
2023
2022
2021
2021
2027
2026
2026
2020
2017
2015
2021
2026
2030
2029
2025
2022
2023
2025
2030
2032
2030
2027
2026
2024
2027
2026
2027
2027
2027
2027
2027
2028
2028
2029
2028
2028
2029
2028
2026
2023
2022
2025
2030
2036
2038
2037
2033
2031
2031
2033
2036
2038
2038
2037
2036
2034
2033
2032
2031
2030
2029
2029
2029
2028
2028
2026
2026
2027
2027
2026
2023
2022
2025
2034
2043
2049
2052
2058
2075
2102
2134
2158
2157
2121
2059
1980
1903
1844
1817
1820
1847
1888
1930
1965
1992
2011
2025
2037
2045
2050
2052
2054
2055
2059
2066
2074
2079
2080
2077
2075
2073
2075
2078
2081
2082
2083
2084
2085
2087
2090
2092
2094
2096
2098
2100
2102
2106
2109
2114
2117
2118
2120
2122
2126
2134
2143
2151
2154
2155
2155
2155
2156
2159
2161
2160
2158
2156
2154
2149
2143
2135
2126
2116
2106
2095
2085
2076
2066
2058
2051
2047
2043
2039
2034
2027
2022
2021
2024
2028
2032
2031
2027
2022
2018
2018
2018
2019
2021
2021
2022
2022
2023
2023
2023
2023
2023
2024
2024
2025
2026
2025
2027
2027
2026
2022
2018
2016
2018
2024
2031
2034
2032
2028
2024
2020
2021
2021
2022
2021
2021
2021
2020
2020
2020
2020
2020
2020
2020
2020
2021
2020
2020
2021
2021
2021
2019
2016
2014
2015
2019
2025
2030
2031
2028
2024
2020
2020
2020
2021
2023
2022
2024
2023
2022
2022
2022
2023
2025
2027
2027
2025
2023
2021
2021
2024
2028
2027
2022
2016
2013
2016
2026
2037
2043
2040
2034
2026
2022
2024
2026
2029
2028
2028
2027
2027
2027
2026
2026
2025
2026
2027
2027
2027
2026
2026
2026
2028
2027
2025
2023
2021
2024
2028
2033
2036
2035
2032
2030
2030
2033
2036
2038
2038
2036
2035
2033
2032
2031
2030
2029
2028
2028
2027
2027
2027
2024
2025
2026
2027
2025
2022
2021
2023
2032
2041
2048
2051
2059
2077
2104
2137
2159
2154
2114
2048
1965
1887
1832
1808
1817
1850
1895
1938
1974
1999
2017
2029
2041
2048
2053
2055
2056
2057
2059
2066
2073
2079
2080
2077
2075
2074
2076
2078
2080
2081
2082
2084
2085
2087
2088
2090
2092
2094
2096
2098
2100
2102
2105
2108
2112
2116
2121
2125
2129
2133
2135
2139
2142
2144
2146
2148
2149
2150
2151
2151
2150
2148
2145
2141
2135
2128
2121
2112
2103
2094
2084
2076
2066
2058
2052
2048
2045
2041
2036
2031
2026
2025
2027
2030
2031
2029
2025
2022
2019
2020
2021
2022
2022
2022
2022
2023
2024
2024
2025
2024
2025
2024
2025
2025
2025
2025
2026
2027
2026
2024
2021
2019
2020
2024
2028
2031
2030
2028
2024
2020
2020
2020
2021
2021
2021
2021
2020
2020
2020
2020
2019
2019
2019
2019
2020
2020
2019
2022
2021
2021
2018
2016
2014
2016
2020
2024
2026
2025
2023
2021
2019
2020
2020
2020
2020
2020
2021
2021
2023
2022
2022
2021
2021
2021
2022
2024
2025
2024
2026
2025
2024
2022
2020
2019
2022
2026
2030
2032
2030
2027
2024
2023
2024
2025
2026
2026
2026
2027
2027
2027
2026
2026
2027
2027
2028
2028
2028
2028
2027
2026
2029
2029
2029
2026
2022
2021
2025
2032
2040
2045
2045
2042
2039
2036
2038
2038
2037
2036
2033
2032
2030
2030
2030
2029
2029
2029
2028
2028
2028
2028
2027
2029
2029
2028
2027
2028
2033
2040
2048
2060
2078
2103
2133
2160
2171
2156
2109
2038
1957
1886
1842
1831
1846
1881
1921
1956
1983
2004
2019
2030
2039
2044
2049
2054
2058
2060
2058
2057
2058
2063
2072
2079
2082
2081
2077
2075
2074
2076
2079
2081
2082
2084
2085
2087
2088
2090
2092
2094
2096
2098
2101
2104
2107
2110
2115
2119
2121
2124
2125
2128
2132
2136
2141
2142
2142
2140
2139
2138
2137
2136
2133
2128
2122
2117
2110
2104
2094
2083
2075
2068
2066
2064
2059
2052
2045
2039
2034
2033
2031
2027
2023
2022
2025
2029
2032
2030
2027
2024
2021
2023
2024
2026
2026
2026
2026
2027
2027
2027
2028
2027
2028
2027
2027
2028
2028
2027
2029
2030
2028
2025
2023
2021
2023
2027
2032
2034
2032
2029
2025
2021
2023
2023
2022
2022
2022
2023
2023
2023
2023
2023
2023
2022
2022
2022
2022
2022
2021
2023
2023
2025
2022
2018
2015
2015
2021
2028
2033
2033
2029
2023
2020
2020
2023
2025
2025
2026
2026
2026
2026
2028
2029
2030
2030
2030
2030
2031
2032
2032
2030
2032
2030
2027
2022
2021
2021
2025
2031
2035
2035
2031
2027
2025
2023
2028
2028
2030
2031
2032
2034
2035
2037
2037
2037
2036
2034
2033
2032
2030
2029
2027
2028
2027
2027
2025
2024
2024
2025
2028
2030
2031
2029
2027
2028
2032
2039
2044
2051
2063
2083
2113
2145
2169
2171
2142
2083
2005
1925
1862
1830
1829
1852
1889
1927
1959
1982
2001
2017
2030
2041
2049
2055
2057
2057
2057
2058
2061
2065
2067
2069
2070
2071
2072
2072
2074
2076
2077
2079
2081
2082
2083
2084
2085
2088
2091
2093
2094
2094
2095
2098
2104
2112
2118
2122
2122
2123
2124
2127
2130
2134
2136
2137
2138
2139
2140
2140
2139
2138
2135
2132
2127
2122
2116
2109
2101
2094
2085
2077
2068
2060
2053
2048
2046
2044
2042
2038
2033
2028
2025
2024
2022
2023
2023
2023
2023
2023
2023
2023
2023
2023
2024
2025
2025
2025
2024
2024
2026
2027
2028
2027
2023
2020
2020
2025
2030
2035
2035
2032
2027
2022
2021
2021
2020
2022
2022
2022
2022
2022
2022
2022
2021
2022
2021
2021
2021
2021
2020
2022
2024
2023
2019
2014
2011
2014
2021
2029
2034
2031
2026
2020
2016
2019
2021
2022
2023
2022
2022
2022
2022
2023
2023
2023
2023
2024
2024
2023
2023
2022
2025
2027
2027
2023
2018
2016
2017
2024
2032
2037
2036
2032
2027
2022
2022
2024
2024
2025
2027
2030
2032
2035
2035
2036
2033
2030
2027
2024
2024
2026
2028
2029
2029
2027
2025
2024
2023
2025
2025
2026
2027
2029
2032
2037
2042
2048
2061
2082
2111
2144
2169
2170
2141
2081
2003
1923
1860
1828
1827
1849
1885
1923
1956
1982
2003
2018
2028
2037
2043
2048
2054
2059
2063
2065
2066
2066
2067
2070
2072
2074
2074
2075
2076
2077
2079
2080
2082
2084
2085
2087
2089
2092
2094
2096
2098
2101
2104
2105
2108
2111
2116
2122
2129
2133
2136
2137
2137
2139
2142
2144
2146
2146
2147
2146
2144
2142
2139
2135
2130
2124
2116
2108
2099
2089
2080
2073
2064
2056
2048
2042
2037
2035
2034
2032
2030
2026
2022
2020
2019
2020
2019
2019
2019
2019
2019
2020
2020
2021
2021
2021
2022
2022
2022
2023
2023
2023
2023
2024
2024
2023
2022
2021
2021
2023
2025
2027
2027
2026
2024
2022
2022
2022
2022
2021
2021
2021
2021
2021
2021
2022
2022
2021
2021
2021
2020
2019
2019
2019
2021
2022
2023
2020
2017
2014
2015
2020
2025
2028
2027
2024
2020
2017
2019
2020
2022
2022
2023
2023
2022
2021
2020
2020
2021
2023
2024
2027
2029
2030
2030
2030
2030
2026
2022
2019
2016
2018
2021
2026
2028
2027
2024
2022
2018
2020
2020
2021
2026
2030
2035
2040
2050
2071
2102
2134
2155
2152
2116
2050
1969
1888
1832
1804
1811
1839
1880
1923
1959
1988
2011
2026
2036
2041
2045
2048
2051
2055
2058
2062
2064
2066
2067
2069
2070
2073
2073
2074
2074
2075
2077
2081
2084
2086
2089
2091
2090
2088
2084
2086
2092
2103
2114
2121
2123
2120
2119
2119
2126
2133
2137
2141
2144
2147
2149
2151
2152
2153
2153
2153
2151
2148
2144
2137
2130
2122
2111
2102
2090
2080
2072
2062
2054
2047
2041
2039
2039
2040
2036
2032
2024
2020
2017
2017
2018
2018
2017
2017
2017
2018
2018
2018
2019
2019
2020
2019
2020
2021
2021
2020
2019
2019
2019
2022
2025
2027
2027
2025
2022
2019
2019
2020
2021
2021
2020
2020
2020
2020
2020
2020
2019
2019
2018
2018
2018
2018
2016
2019
2018
2018
2018
2016
2014
2013
2016
2020
2023
2025
2023
2021
2018
2017
2017
2017
2019
2018
2018
2019
2020
2020
2020
2020
2019
2019
2019
2020
2022
2024
2026
2028
2028
2027
2024
2021
2020
2021
2023
2024
2023
2021
2018
2017
2017
2019
2019
2018
2018
2019
2023
2028
2032
2036
2047
2066
2096
2129
2153
2153
2121
2058
1979
1897
1834
1800
1800
1827
1873
1922
1962
1990
2008
2019
2028
2033
2041
2046
2049
2052
2055
2058
2061
2063
2064
2066
2067
2069
2070
2072
2073
2074
2075
2078
2080
2081
2081
2081
2081
2086
2092
2099
2104
2105
2105
2105
2106
2111
2115
2119
2123
2127
2131
2134
2138
2140
2142
2144
2145
2146
2146
2146
2144
2139
2139
2133
2127
2117
2105
2095
2086
2081
2077
2072
2064
2054
2046
2038
2034
2031
2028
2026
2024
2023
2022
2022
2021
2022
2022
2021
2019
2018
2019
2021
2023
2026
2028
2026
2022
2019
2016
2018
2022
2028
2032
2032
2028
2024
2021
2019
2022
2023
2023
2022
2022
2022
2021
2021
2020
2020
2020
2020
2020
2020
2020
2019
2019
2020
2019
2019
2017
2016
2016
2017
2021
2023
2024
2023
2020
2019
2016
2018
2018
2019
2019
2019
2019
2019
2019
2019
2019
2020
2020
2021
2020
2021
2021
2020
2022
2023
2022
2020
2016
2016
2018
2024
2030
2034
2033
2031
2029
2027
2028
2029
2027
2025
2023
2022
2021
2021
2021
2020
2021
2021
2021
2022
2021
2020
2020
2025
2029
2033
2036
2044
2061
2091
2127
2156
2162
2133
2070
1988
1904
1839
1807
1809
1836
1878
1922
1959
1985
2005
2019
2030
2037
2042
2047
2049
2053
2055
2058
2061
2062
2064
2065
2065
2066
2068
2072
2077
2079
2080
2079
2078
2079
2081
2082
2085
2087
2089
2091
2094
2097
2100
2103
2106
2109
2113
2117
2120
2123
2126
2131
2135
2138
2139
2137
2135
2136
2140
2144
2147
2145
2140
2131
2121
2115
2107
2099
2091
2083
2074
2067
2060
2054
2048
2043
2039
2035
2032
2029
2027
2025
2025
2026
2022
2022
2019
2018
2020
2024
2028
2032
2032
2030
2027
2023
2024
2024
2023
2025
2025
2025
2025
2025
2025
2025
2024
2024
2025
2024
2024
2024
2023
2025
2024
2023
2022
2019
2018
2018
2021
2025
2027
2027
2024
2021
2019
2019
2019
2019
2020
2020
2020
2020
2020
2021
2021
2020
2021
2021
2020
2019
2019
2019
2020
2025
2026
2025
2020
2015
2014
2017
2025
2030
2031
2028
2024
2021
2019
2023
2023
2023
2022
2023
2023
2023
2023
2023
2023
2023
2024
2024
2025
2025
2025
2025
2026
2025
2026
2025
2024
2023
2024
2027
2030
2032
2031
2029
2027
2024
2026
2026
2028
2028
2028
2028
2028
2028
2028
2029
2029
2030
2030
2030
2030
2030
2029
2031
2032
2031
2029
2025
2025
2027
2032
2037
2039
2038
2034
2031
2029
2031
2032
2031
2032
2032
2032
2032
2032
2033
2034
2035
2036
2037
2039
2040
2042
2041
2042
2041
2040
2038
2035
2033
2033
2033
2035
2036
2035
2033
2031
2029
2029
2030
2031
2031
2031
2030
2031
2035
2039
2042
2047
2057
2078
2108
2140
2160
2154
2117
2054
1977
1901
1847
1823
1831
1863
1907
1949
1981
2003
2018
2030
2039
2047
2052
2055
2059
2062
2064
2067
2070
2072
2073
2075
2075
2076
2077
2078
2079
2080
2084
2086
2088
2087
2085
2084
2088
2095
2103
2107
2108
2107
2105
2105
2110
2114
2118
2121
2125
2130
2134
2135
2135
2135
2138
2144
2150
2155
2155
2151
2145
2143
2143
2140
2135
2126
2117
2112
2108
2104
2099
2089
2078
2067
2057
2054
2049
2045
2042
2038
2036
2033
2032
2031
2030
2029
2028
2028
2028
2028
2029
2028
2030
2030
2031
2028
2026
2025
2025
2029
2034
2037
2037
2033
2030
2027
2026
2027
2029
2028
2028
2028
2027
2027
2026
2026
2025
2024
2025
2024
2023
2022
2022
2023
2025
2026
2026
2021
2017
2015
2017
2021
2028
2030
2028
2025
2021
2020
2020
2020
2022
2022
2023
2023
2022
2022
2021
2022
2022
2023
2024
2024
2024
2023
2022
2025
2025
2025
2022
2018
2016
2017
2023
2030
2034
2033
2029
2025
2021
2023
2024
2024
2025
2025
2025
2025
2025
2026
2026
2027
2027
2027
2027
2027
2027
2026
2027
2028
2028
2028
2026
2024
2025
2027
2031
2035
2035
2033
2030
2028
2028
2028
2027
2028
2028
2029
2030
2031
2033
2034
2035
2037
2039
2040
2039
2039
2036
2037
2035
2035
2033
2028
2023
2022
2026
2032
2037
2039
2036
2031
2028
2027
2028
2029
2030
2031
2035
2040
2045
2051
2063
2084
2113
2145
2168
2168
2137
2077
2000
1924
1866
1836
1837
1859
1895
1934
1967
1994
2014
2027
2035
2041
2046
2051
2056
2059
2061
2064
2066
2069
2071
2072
2074
2075
2076
2078
2079
2079
2080
2081
2085
2087
2090
2090
2089
2088
2091
2097
2105
2110
2112
2112
2112
2111
2116
2120
2124
2127
2131
2134
2137
2140
2141
2143
2143
2144
2144
2144
2144
2143
2140
2138
2135
2128
2119
2110
2101
2095
2091
2087
2082
2072
2062
2052
2045
2042
2039
2036
2033
2030
2029
2028
2027
2027
2026
2026
2025
2025
2026
2026
2026
2026
2029
2028
2029
2027
2025
2024
2024
2028
2032
2034
2033
2031
2028
2025
2026
2026
2027
2027
2026
2026
2026
2025
2024
2024
2023
2023
2023
2021
2023
2022
2022
2020
2023
2024
2023
2021
2018
2016
2018
2024
2029
2030
2028
2023
2020
2017
2021
2021
2022
2022
2022
2022
2022
2022
2022
2022
2022
2022
2023
2023
2023
2023
2023
2024
2023
2024
2022
2021
2020
2022
2026
2028
2030
2029
2027
2025
2023
2025
2025
2026
2025
2025
2025
2026
2026
2026
2026
2027
2027
2027
2027
2028
2028
2026
2028
2028
2027
2026
2023
2022
2024
2030
2035
2039
2039
2037
2036
2035
2037
2038
2037
2036
2033
2031
2031
2029
2029
2028
2028
2027
2027
2027
2026
2026
2025
2027
2026
2027
2026
2026
2030
2036
2042
2049
2062
2083
2111
2142
2164
2165
2133
2072
1993
1914
1854
1826
1829
1854
1893
1932
1965
1989
2009
2023
2034
2042
2048
2052
2056
2058
2059
2060
2063
2067
2073
2076
2077
2076
2075
2074
2076
2077
2079
2080
2082
2084
2086
2088
2089
2091
2093
2095
2098
2101
2104
2106
2108
2113
2118
2123
2127
2127
2127
2128
2133
2141
2149
2153
2153
2150
2146
2143
2143
2142
2140
2135
2130
2123
2115
2107
2099
2090
2080
2069
2059
2052
2048
2047
2044
2042
2037
2032
2024
2019
2017
2018
2024
2029
2032
2031
2027
2022
2019
2019
2020
2021
2022
2023
2024
2023
2024
2023
2023
2023
2023
2024
2024
2024
2024
2023
2025
2025
2026
2022
2019
2016
2017
2023
2029
2033
2031
2026
2021
2017
2017
2018
2020
2021
2020
2020
2020
2019
2019
2019
2019
2019
2019
2018
2018
2019
2019
2018
2020
2021
2022
2016
2011
2008
2011
2020
2031
2037
2035
2028
2019
2013
2016
2017
2021
2021
2021
2021
2021
2021
2021
2020
2021
2021
2022
2023
2023
2023
2022
2023
2023
2023
2021
2019
2018
2020
2025
2030
2032
2030
2026
2023
2021
2023
2024
2025
2025
2024
2025
2025
2025
2025
2026
2026
2026
2026
2026
2026
2027
2026
2027
2029
2029
2030
2029
2031
2031
2032
2035
2038
2041
2044
2044
2039
2034
2029
2024
2024
2025
2026
2026
2025
2025
2026
2026
2026
2026
2026
2027
2029
2033
2037
2042
2050
2066
2092
2123
2149
2158
2137
2084
2008
1925
1857
1819
1816
1840
1881
1924
1960
1988
2007
2022
2033
2041
2048
2051
2055
2058
2061
2064
2066
2069
2072
2072
2072
2071
2071
2074
2078
2083
2085
2085
2085
2084
2085
2086
2091
2092
2094
2096
2099
2102
2105
2109
2112
2115
2118
2122
2126
2128
2132
2135
2138
2143
2147
2150
2149
2146
2143
2144
2148
2153
2156
2151
2142
2131
2118
2111
2102
2094
2085
2077
2069
2062
2055
2049
2044
2039
2035
2033
2031
2030
2029
2026
2026
2025
2024
2021
2018
2016
2017
2022
2029
2034
2034
2031
2027
2023
2023
2024
2025
2025
2025
2026
2026
2026
2026
2025
2025
2025
2024
2024
2024
2023
2022
2023
2023
2024
2022
2018
2015
2015
2019
2025
2029
2029
2025
2021
2017
2016
2017
2019
2019
2019
2019
2018
2018
2018
2019
2020
2020
2020
2019
2019
2019
2019
2019
2023
2023
2024
2017
2011
2007
2011
2021
2032
2038
2036
2029
2019
2015
2018
2019
2022
2022
2022
2022
2022
2022
2021
2022
2023
2024
2024
2024
2024
2022
2024
2025
2025
2025
2022
2020
2020
2024
2029
2033
2034
2031
2027
2023
2023
2024
2026
2029
2030
2030
2028
2026
2024
2024
2024
2026
2027
2027
2027
2028
2029
2028
2031
2032
2032
2032
2032
2033
2036
2039
2041
2040
2036
2032
2029
2027
2028
2028
2027
2026
2025
2025
2026
2026
2027
2028
2028
2028
2029
2031
2035
2038
2041
2052
2071
2100
2131
2152
2153
2123
2066
1991
1913
1852
1820
1820
1845
1888
1930
1967
1993
2011
2025
2035
2043
2048
2052
2056
2060
2063
2065
2067
2068
2069
2071
2073
2075
2076
2077
2077
2078
2081
2085
2088
2090
2090
2089
2090
2091
2094
2097
2099
2102
2105
2108
2112
2116
2119
2123
2127
2130
2134
2138
2140
2143
2145
2149
2151
2153
2152
2148
2144
2143
2144
2145
2143
2137
2126
2115
2102
2095
2086
2079
2070
2063
2056
2051
2047
2043
2038
2034
2031
2029
2029
2028
2027
2025
2025
2025
2023
2021
2020
2019
2021
2026
2031
2034
2032
2029
2026
2023
2024
2025
2026
2026
2026
2026
2026
2026
2026
2026
2025
2025
2025
2025
2024
2024
2023
2025
2024
2024
2022
2019
2018
2018
2021
2025
2026
2026
2023
2020
2018
2019
2018
2020
2020
2020
2020
2020
2020
2020
2019
2019
2020
2020
2020
2020
2020
2021
2021
2024
2025
2026
2019
2012
2009
2011
2021
2032
2040
2039
2032
2025
2018
2021
2020
2024
2024
2024
2024
2025
2025
2025
2025
2026
2026
2026
2025
2026
2026
2026
2027
2027
2027
2026
2025
2025
2026
2029
2031
2032
2031
2029
2027
2026
2027
2027
2029
2028
2029
2029
2029
2029
2030
2031
2032
2034
2036
2038
2040
2040
2039
2037
2035
2032
2031
2029
2029
2029
2030
2032
2032
2031
2029
2028
2027
2028
2029
2029
2028
2028
2030
2034
2040
2046
2051
2063
2084
2112
2142
2165
2166
2136
2078
2001
1925
1864
1832
1832
1855
1893
1932
1965
1989
2008
2021
2031
2039
2045
2050
2054
2057
2059
2062
2064
2066
2068
2070
2071
2072
2073
2074
2076
2077
2079
2082
2082
2082
2082
2083
2086
2091
2097
2100
2101
2101
2102
2103
2107
2112
2114
2117
2120
2124
2128
2131
2134
2137
2138
2140
2141
2141
2141
2140
2138
2138
2138
2135
2131
2122
2112
2103
2098
2094
2091
2086
2076
2065
2055
2048
2044
2040
2038
2034
2031
2029
2028
2027
2026
2025
2024
2024
2023
2024
2025
2026
2026
2027
2027
2025
2023
2022
2022
2025
2030
2034
2036
2034
2031
2028
2025
2026
2027
2026
2027
2028
2028
2025
2023
2021
2022
2027
2031
2033
2031
2027
2023
2020
2023
2023
2025
2022
2019
2019
2020
2024
2028
2029
2028
2025
2022
2020
2021
2021
2022
2023
2023
2023
2023
2023
2023
2023
2023
2023
2024
2023
2023
2023
2023
2023
2025
2026
2027
2022
2017
2015
2016
2024
2033
2038
2037
2032
2026
2019
2022
2023
2026
2026
2026
2026
2026
2026
2026
2026
2026
2026
2027
2028
2028
2028
2027
2027
2027
2028
2027
2026
2026
2026
2029
2030
2032
2032
2030
2029
2029
2031
2032
2036
2037
2038
2038
2036
2035
2033
2032
2031
2030
2029
2028
2028
2027
2027
2026
2026
2025
2025
2024
2025
2025
2027
2030
2033
2037
2041
2043
2050
2068
2096
2129
2156
2164
2139
2084
2008
1926
1860
1822
1818
1839
1877
1919
1956
1983
2005
2020
2032
2039
2044
2048
2052
2058
2063
2067
2070
2070
2070
2070
2071
2073
2075
2077
2078
2079
2080
2082
2083
2085
2086
2088
2089
2091
2093
2096
2098
2101
2106
2107
2109
2111
2114
2119
2125
2131
2136
2138
2140
2141
2144
2145
2149
2150
2150
2150
2149
2147
2144
2140
2135
2128
2120
2111
2102
2092
2083
2074
2066
2060
2055
2050
2043
2035
2028
2026
2027
2030
2032
2031
2027
2022
2018
2020
2020
2022
2022
2022
2022
2022
2023
2024
2024
2024
2025
2024
2025
2026
2027
2025
2027
2026
2024
2022
2021
2021
2024
2028
2032
2033
2030
2027
2024
2021
2022
2023
2022
2023
2022
2022
2022
2022
2022
2022
2021
2021
2021
2020
2020
2020
2019
2022
2021
2021
2019
2017
2016
2016
2020
2023
2026
2026
2023
2021
2018
2019
2019
2020
2021
2021
2021
2021
2021
2021
2021
2021
2021
2022
2021
2021
2021
2019
2022
2025
2025
2025
2018
2013
2011
2015
2025
2034
2039
2036
2030
2023
2020
2022
2021
2025
2024
2025
2025
2025
2025
2025
2025
2025
2025
2026
2026
2027
2025
2027
2027
2026
2026
2024
2024
2025
2028
2032
2034
2035
2033
2032
2031
2034
2036
2038
2038
2037
2034
2032
2030
2030
2029
2029
2029
2028
2028
2027
2027
2026
2025
2026
2027
2026
2025
2024
2025
2030
2038
2044
2049
2058
2077
2105
2137
2160
2160
2125
2062
1982
1904
1848
1823
1830
1859
1900
1941
1974
1998
2015
2028
2036
2045
2048
2053
2054
2053
2054
2058
2064
2071
2075
2076
2074
2073
2070
2074
2076
2078
2080
2082
2083
2085
2086
2088
2090
2092
2095
2097
2099
2101
2105
2107
2110
2116
2119
2122
2125
2128
2132
2137
2143
2148
2150
2150
2150
2150
2150
2152
2151
2150
2147
2143
2138
2132
2124
2116
2106
2097
2087
2078
2069
2061
2054
2048
2046
2041
2036
2030
2023
2020
2020
2024
2027
2027
2025
2022
2020
2017
2020
2021
2022
2022
2022
2023
2023
2023
2024
2024
2024
2025
2024
2024
2024
2023
2022
2023
2023
2022
2020
2018
2017
2019
2023
2027
2029
2027
2024
2021
2018
2018
2018
2018
2018
2018
2018
2018
2019
2019
2018
2018
2018
2018
2018
2018
2018
2018
2020
2019
2022
2019
2015
2013
2011
2015
2022
2027
2029
2027
2022
2018
2018
2016
2021
2021
2021
2021
2021
2021
2021
2021
2021
2021
2022
2022
2022
2023
2023
2022
2026
2025
2023
2020
2017
2018
2022
2028
2032
2032
2027
2024
2023
2022
2027
2026
2027
2028
2029
2031
2032
2034
2034
2035
2034
2033
2031
2030
2029
2027
2026
2026
2025
2025
2024
2023
2022
2022
2025
2027
2028
2028
2026
2026
2030
2037
2043
2050
2062
2081
2109
2139
2162
2163
2135
2077
2001
1922
1860
1829
1828
1851
1888
1925
1956
1981
2001
2017
2030
2041
2048
2054
2056
2058
2059
2060
2062
2065
2068
2069
2071
2072
2073
2074
2076
2077
2079
2081
2082
2084
2085
2086
2088
2091
2092
2095
2097
2100
2103
2104
2106
2110
2115
2122
2130
2137
2140
2141
2139
2140
2141
2144
2147
2148
2148
2148
2147
2144
2141
2136
2130
2123
2116
2106
2097
2089
2079
2069
2059
2051
2048
2045
2043
2040
2034
2029
2025
2022
2021
2022
2021
2020
2020
2020
2020
2021
2021
2022
2022
2022
2022
2023
2023
2022
2022
2023
2025
2026
2027
2024
2020
2019
2021
2026
2031
2033
2032
2028
2024
2021
2023
2024
2025
2024
2024
2023
2023
2023
2023
2022
2022
2022
2021
2021
2022
2022
2021
2023
2023
2021
2018
2017
2016
2019
2023
2027
2029
2026
2023
2020
2018
2018
2019
2019
2020
2021
2022
2021
2021
2021
2020
2021
2021
2021
2022
2022
2022
2021
2024
2022
2025
2021
2018
2015
2015
2020
2028
2033
2034
2031
2026
2020
2022
2021
2025
2025
2025
2025
2026
2026
2026
2026
2026
2026
2026
2026
2027
2028
2029
2030
2034
2033
2033
2032
2030
2031
2035
2040
2041
2040
2034
2028
2026
2024
2029
2028
2027
2026
2025
2025
2026
2026
2026
2026
2026
2027
2030
2035
2039
2043
2051
2071
2099
2131
2154
2154
2123
2061
1984
1905
1845
1814
1815
1840
1881
1925
1962
1991
2010
2025
2036
2044
2049
2053
2057
2060
2063
2066
2068
2071
2072
2073
2074
2076
2077
2077
2078
2079
2082
2086
2090
2092
2092
2092
2092
2093
2096
2099
2102
2105
2108
2111
2115
2119
2123
2128
2132
2136
2140
2144
2147
2150
2153
2156
2157
2159
2158
2155
2153
2150
2149
2147
2143
2135
2124
2112
2099
2089
2079
2071
2064
2056
2049
2045
2039
2035
2032
2029
2027
2025
2024
2022
2022
2021
2020
2021
2020
2020
2019
2019
2020
2022
2025
2028
2029
2027
2026
2024
2024
2025
2025
2025
2025
2025
2025
2025
2025
2025
2025
2025
2025
2025
2024
2023
2022
2021
2023
2025
2025
2023
2019
2015
2016
2019
2024
2027
2027
2024
2020
2017
2019
2019
2020
2020
2020
2020
2021
2021
2021
2021
2020
2020
2020
2020
2021
2021
2020
2022
2022
2022
2021
2019
2018
2019
2023
2027
2029
2028
2026
2023
2021
2022
2022
2022
2023
2023
2024
2024
2025
2024
2024
2024
2024
2025
2025
2025
2025
2025
2027
2026
2027
2025
2022
2021
2022
2026
2031
2033
2033
2031
2029
2028
2029
2030
2034
2035
2037
2039
2039
2037
2034
2033
2031
2031
2030
2029
2029
2028
2027
2027
2028
2027
2025
2023
2021
2023
2026
2030
2033
2035
2036
2037
2040
2053
2079
2111
2142
2158
2147
2100
2028
1944
1867
1818
1803
1819
1857
1904
1948
1982
2005
2024
2035
2042
2044
2046
2048
2056
2066
2074
2077
2076
2073
2070
2069
2074
2076
2078
2079
2080
2081
2082
2083
2085
2087
2088
2090
2092
2094
2096
2098
2099
2104
2107
2109
2111
2112
2114
2120
2128
2137
2142
2143
2142
2142
2142
2146
2148
2149
2149
2148
2146
2145
2142
2138
2132
2124
2116
2107
2098
2088
2080
2070
2064
2059
2052
2046
2037
2031
2029
2033
2038
2040
2038
2032
2027
2022
2023
2025
2025
2025
2025
2026
2027
2027
2028
2028
2028
2028
2028
2028
2028
2028
2028
2027
2029
2029
2028
2027
2026
2026
2027
2029
2031
2030
2029
2027
2025
2024
2025
2025
2025
2024
2024
2023
2023
2023
2023
2023
2023
2023
2023
2023
2022
2021
2021
2023
2025
2026
2023
2020
2017
2018
2022
2028
2031
2031
2027
2023
2019
2022
2022
2023
2023
2023
2023
2024
2024
2025
2025
2025
2024
2024
2025
2026
2026
2025
2026
2026
2024
2022
2021
2021
2023
2027
2032
2035
2033
2030
2027
2025
2026
2027
2027
2027
2027
2028
2028
2028
2029
2028
2029
2029
2029
2029
2029
2029
2028
2030
2030
2031
2030
2027
2026
2026
2030
2034
2036
2037
2035
2032
2032
2033
2034
2039
2040
2040
2037
2033
2031
2031
2035
2039
2041
2038
2033
2028
2025
2025
2026
2030
2030
2031
2026
2021
2018
2021
2031
2044
2052
2053
2050
2052
2065
2096
2130
2164
2173
2152
2099
2025
1943
1876
1836
1828
1847
1884
1923
1958
1984
2005
2021
2032
2041
2045
2048
2051
2056
2061
2065
2069
2070
2070
2070
2070
2072
2073
2076
2077
2078
2080
2081
2083
2084
2086
2088
2090
2092
2093
2096
2098
2100
2103
2106
2108
2110
2112
2116
2120
2126
2132
2136
2138
2138
2138
2139
2140
2143
2143
2143
2142
2141
2139
2136
2132
2127
2121
2114
2107
2099
2091
2082
2074
2067
2059
2054
2047
2041
2035
2032
2032
2033
2034
2033
2030
2027
2024
2024
2024
2025
2025
2024
2024
2024
2024
2025
2026
2027
2027
2027
2027
2026
2027
2026
2027
2028
2028
2026
2024
2023
2024
2027
2029
2031
2030
2027
2024
2023
2022
2023
2023
2022
2021
2021
2020
2020
2020
2021
2021
2021
2021
2021
2020
2020
2019
2020
2022
2023
2023
2020
2017
2015
2017
2023
2028
2030
2029
2025
2021
2018
2021
2021
2022
2022
2022
2022
2023
2023
2024
2023
2023
2023
2023
2024
2025
2026
2025
2025
2025
2023
2022
2022
2022
2024
2028
2031
2032
2029
2027
2025
2024
2025
2026
2026
2027
2027
2029
2030
2032
2033
2034
2036
2037
2037
2036
2035
2033
2032
2032
2030
2029
2026
2023
2022
2023
2026
2030
2032
2031
2029
2026
2024
2025
2026
2031
2037
2042
2048
2057
2075
2101
2134
2162
2172
2152
2100
2025
1942
1873
1831
1826
1844
1881
1916
1945
1970
1993
2016
2037
2051
2057
2057
2054
2051
2056
2059
2066
2069
2071
2073
2073
2074
2074
2075
2077
2078
2080
2082
2084
2086
2087
2090
2091
2094
2094
2095
2097
2100
2106
2112
2116
2119
2120
2122
2124
2130
2134
2138
2140
2143
2145
2147
2149
2149
2149
2149
2148
2146
2142
2138
2133
2124
2120
2111
2100
2090
2078
2069
2063
2061
2058
2054
2047
2039
2033
2028
2027
2026
2024
2023
2022
2021
2021
2021
2021
2021
2021
2022
2022
2023
2023
2024
2023
2024
2024
2026
2025
2024
2025
2025
2025
2025
2025
2024
2024
2025
2026
2028
2027
2028
2026
2024
2025
2024
2024
2024
2024
2024
2023
2022
2022
2021
2021
2021
2020
2021
2022
2021
2018
2016
2015
2017
2022
2026
2028
2026
2022
2019
2017
2018
2020
2020
2020
2020
2021
2021
2021
2021
2020
2021
2021
2022
2021
2021
2020
2019
2021
2024
2024
2022
2018
2014
2015
2021
2027
2033
2032
2028
2024
2019
2021
2021
2023
2024
2024
2025
2025
2025
2025
2025
2025
2025
2026
2026
2027
2027
2026
2027
2025
2025
2024
2022
2021
2023
2027
2034
2038
2039
2036
2033
2030
2032
2034
2036
2036
2034
2032
2030
2029
2028
2028
2026
2026
2026
2025
2025
2025
2024
2026
2026
2027
2025
2022
2019
2022
2030
2039
2048
2058
2075
2100
2129
2153
2156
2127
2066
1987
1907
1846
1815
1817
1844
1886
1929
1965
1991
2010
2025
2035
2042
2050
2054
2056
2054
2053
2055
2061
2071
2081
2085
2083
2077
2073
2071
2075
2077
2078
2079
2081
2084
2088
2090
2091
2092
2093
2095
2097
2101
2104
2107
2109
2115
2119
2123
2124
2124
2127
2132
2142
2150
2157
2157
2154
2150
2146
2150
2149
2149
2145
2140
2134
2126
2118
2110
2101
2093
2084
2075
2066
2058
2052
2045
2041
2039
2035
2030
2024
2020
2019
2024
2032
2036
2035
2029
2024
2018
2017
2020
2022
2023
2024
2024
2024
2024
2024
2024
2024
2025
2025
2025
2026
2026
2025
2025
2025
2027
2024
2021
2018
2017
2020
2026
2031
2031
2028
2024
2020
2020
2020
2021
2021
2020
2020
2020
2020
2020
2020
2020
2019
2019
2019
2018
2018
2018
2020
2021
2021
2018
2014
2011
2013
2019
2026
2030
2030
2027
2022
2018
2020
2019
2021
2021
2021
2021
2022
2022
2022
2022
2022
2022
2023
2023
2023
2022
2022
2022
2024
2027
2028
2025
2021
2018
2018
2023
2030
2035
2035
2031
2027
2022
2024
2024
2025
2026
2026
2026
2026
2026
2027
2027
2028
2028
2028
2028
2029
2029
2027
2030
2029
2029
2026
2023
2022
2024
2029
2035
2039
2039
2035
2032
2029
2030
2032
2036
2037
2039
2039
2038
2037
2035
2034
2032
2032
2030
2028
2028
2028
2030
2032
2032
2032
2027
2024
2021
2021
2024
2029
2034
2037
2039
2039
2045
2061
2087
2122
2151
2160
2140
2087
2012
1930
1863
1824
1818
1839
1878
1921
1959
1988
2008
2025
2036
2045
2046
2046
2048
2051
2061
2071
2079
2081
2077
2071
2070
2072
2073
2077
2077
2078
2080
2083
2086
2087
2088
2089
2090
2091
2095
2097
2099
2101
2106
2108
2112
2113
2116
2119
2123
2131
2138
2143
2146
2146
2146
2146
2150
2152
2154
2154
2153
2152
2149
2146
2141
2135
2128
2119
2110
2101
2092
2084
2073
2068
2060
2052
2045
2038
2034
2033
2035
2037
2036
2032
2028
2024
2022
2023
2024
2023
2024
2024
2024
2024
2024
2025
2025
2025
2026
2027
2027
2026
2025
2025
2026
2026
2027
2026
2023
2021
2021
2023
2027
2029
2029
2026
2023
2021
2020
2020
2021
2021
2021
2020
2020
2020
2020
2019
2019
2019
2019
2018
2018
2018
2018
2018
2019
2019
2018
2017
2016
2017
2019
2022
2024
2024
2022
2020
2019
2018
2019
2020
2020
2021
2021
2021
2021
2022
2022
2021
2022
2022
2022
2023
2022
2022
2022
2024
2025
2026
2024
2020
2018
2020
2025
2030
2033
2031
2028
2024
2021
2023
2023
2024
2024
2025
2025
2025
2025
2026
2025
2026
2026
2026
2027
2027
2028
2028
2027
2027
2026
2024
2024
2025
2028
2033
2036
2038
2037
2036
2036
2037
2037
2036
2034
2032
2031
2030
2029
2029
2028
2027
2026
2025
2025
2025
2025
2025
2025
2027
2025
2026
2025
2027
2031
2036
2046
2061
2085
2113
2140
2155
2147
2111
2047
1970
1894
1839
1816
1822
1851
1892
1933
1966
1991
2009
2024
2035
2043
2048
2053
2058
2060
2060
2060
2060
2064
2069
2075
2079
2079
2077
2076
2076
2076
2080
2081
2083
2084
2085
2087
2089
2092
2095
2097
2100
2102
2105
2108
2113
2117
2120
2125
2128
2132
2134
2136
2139
2144
2149
2154
2158
2157
2155
2153
2149
2149
2146
2142
2134
2126
2117
2107
2097
2088
2079
2071
2063
2056
2050
2045
2040
2034
2034
2031
2027
2024
2020
2019
2020
2024
2029
2030
2028
2024
2021
2020
2020
2023
2022
2024
2024
2024
2025
2025
2026
2026
2026
2026
2026
2026
2026
2026
2026
2026
2026
2027
2026
2024
2022
2022
2023
2026
2028
2029
2026
2024
2021
2021
2020
2021
2021
2021
2021
2021
2021
2021
2021
2021
2021
2020
2020
2020
2020
2020
2019
2022
2020
2020
2018
2016
2017
2020
2026
2028
2028
2025
2021
2020
2018
2022
2021
2021
2021
2021
2022
2022
2023
2023
2023
2023
2023
2023
2022
2022
2023
2024
2026
2026
2025
2023
2020
2019
2022
2026
2029
2030
2029
2026
2025
2023
2025
2026
2026
2025
2026
2026
2026
2026
2027
2026
2027
2027
2027
2028
2028
2027
2027
2027
2027
2027
2026
2025
2026
2028
2032
2036
2039
2039
2038
2037
2037
2037
2037
2035
2033
2031
2031
2030
2030
2029
2028
2028
2027
2027
2026
2026
2026
2026
2027
2026
2028
2028
2030
2032
2035
2044
2061
2088
2120
2150
2164
2151
2108
2038
1957
1881
1832
1816
1831
1867
1910
1950
1980
2001
2018
2029
2038
2045
2049
2052
2057
2059
2063
2062
2060
2059
2062
2069
2079
2086
2086
2083
2078
2074
2077
2079
2085
2083
2081
2081
2084
2091
2099
2105
2106
2105
2104
2104
2107
2112
2116
2121
2124
2128
2131
2132
2134
2137
2141
2145
2149
2151
2149
2146
2142
2141
2138
2135
2129
2122
2114
2105
2097
2088
2080
2072
2065
2058
2052
2047
2043
2037
2036
2033
2029
2026
2022
2022
2025
2030
2033
2033
2030
2025
2023
2023
2025
2027
2026
2028
2027
2027
2027
2027
2027
2027
2027
2027
2027
2027
2026
2027
2025
2028
2026
2027
2024
2021
2020
2021
2024
2028
2029
2029
2026
2024
2021
2022
2021
2021
2021
2020
2021
2021
2022
2022
2022
2022
2022
2021
2021
2021
2021
2021
2021
2022
2021
2022
2020
2019
2019
2020
2023
2026
2028
2027
2026
2024
2022
2023
2022
2023
2023
2023
2023
2024
2025
2025
2025
2025
2025
2024
2024
2024
2025
2025
2028
2028
2027
2025
2022
2021
2023
2026
2030
2031
2030
2028
2025
2023
2026
2027
2027
2027
2027
2028
2028
2028
2029
2029
2029
2030
2029
2030
2030
2030
2028
2030
2031
2030
2027
2026
2025
2028
2033
2039
2042
2042
2040
2038
2037
2038
2037
2037
2035
2034
2033
2032
2031
2030
2028
2028
2028
2027
2027
2027
2027
2027
2029
2028
2030
2029
2032
2036
2039
2047
2062
2086
2118
2150
2172
2170
2138
2074
1996
1916
1857
1830
1834
1861
1900
1939
1971
1994
2012
2025
2036
2044
2049
2052
2058
2060
2061
2062
2062
2065
2068
2073
2077
2079
2078
2077
2077
2076
2081
2082
2084
2086
2088
2089
2090
2092
2094
2098
2101
2104
2106
2108
2111
2115
2118
2123
2125
2130
2131
2133
2136
2140
2145
2149
2152
2153
2151
2149
2145
2145
2143
2141
2136
2130
2123
2115
2106
2097
2089
2081
2073
2065
2058
2052
2047
2041
2038
2035
2031
2027
2022
2020
2022
2026
2031
2032
2030
2026
2023
2021
2022
2025
2024
2025
2025
2025
2025
2025
2025
2025
2025
2026
2026
2026
2026
2025
2025
2026
2025
2026
2025
2022
2021
2020
2022
2025
2027
2028
2026
2023
2020
2020
2018
2019
2020
2020
2020
2020
2020
2020
2020
2021
2021
2020
2021
2020
2020
2020
2019
2022
2021
2020
2018
2017
2019
2022
2027
2029
2029
2025
2022
2021
2019
2023
2023
2023
2023
2023
2024
2024
2025
2024
2025
2025
2025
2025
2024
2025
2025
2026
2029
2029
2028
2024
2022
2022
2026
2031
2034
2034
2032
2029
2026
2025
2028
2028
2029
2029
2029
2029
2029
2029
2030
2031
2032
2034
2036
2038
2039
2039
2039
2038
2036
2034
2032
2029
2028
2027
2029
2032
2034
2033
2031
2028
2026
2026
2027
2027
2028
2027
2030
2034
2040
2045
2050
2063
2084
2115
2148
2171
2170
2136
2074
1992
1913
1852
1824
1828
1857
1900
1942
1975
1998
2014
2025
2033
2043
2048
2054
2057
2061
2064
2066
2068
2069
2071
2073
2074
2075
2076
2078
2079
2081
2082
2086
2086
2088
2085
2083
2084
2088
2097
2108
2115
2116
2113
2109
2108
2113
2116
2124
2126
2131
2134
2137
2139
2141
2143
2146
2149
2151
2151
2150
2147
2144
2140
2137
2132
2123
2114
2106
2097
2091
2084
2076
2068
2058
2050
2043
2040
2036
2033
2030
2028
2026
2024
2023
2022
2022
2022
2021
2021
2021
2022
2022
2021
2024
2023
2022
2021
2020
2020
2023
2028
2032
2032
2029
2025
2023
2022
2024
2025
2024
2024
2024
2023
2024
2024
2024
2023
2023
2023
2022
2022
2021
2021
2021
2021
2021
2022
2021
2020
2019
2019
2020
2022
2023
2023
2022
2021
2019
2019
2019
2020
2020
2020
2020
2020
2020
2020
2021
2021
2021
2021
2021
2021
2022
2022
2021
2022
2022
2021
2021
2020
2021
2023
2026
2028
2028
2026
2024
2023
2022
2023
2024
2024
2024
2024
2025
2026
2026
2026
2025
2026
2026
2027
2027
2026
2023
2019
2021
2025
2032
2035
2033
2029
2026
2026
2029
2033
2034
2033
2029
2026
2029
2030
2033
2034
2036
2038
2038
2038
2037
2035
2033
2032
2031
2030
2030
2029
2028
2028
2027
2025
2023
2023
2023
2025
2028
2030
2032
2032
2034
2037
2039
2046
2061
2086
2119
2149
2163
2147
2099
2026
1944
1871
1826
1814
1831
1867
1911
1951
1982
2003
2020
2030
2037
2042
2047
2053
2060
2065
2067
2068
2067
2067
2070
2071
2074
2075
2076
2077
2078
2080
2081
2083
2085
2086
2087
2089
2092
2094
2097
2099
2103
2104
2105
2106
2108
2112
2119
2126
2133
2137
2139
2140
2142
2142
2147
2148
2150
2151
2151
2151
2150
2146
2142
2136
2130
2123
2115
2107
2099
2089
2078
2071
2062
2053
2048
2040
2036
2035
2036
2036
2034
2030
2025
2022
2019
2021
2021
2021
2021
2021
2021
2021
2022
2023
2023
2023
2024
2024
2024
2025
2025
2023
2025
2025
2023
2023
2021
2021
2022
2026
2030
2031
2030
2027
2024
2022
2020
2022
2020
2022
2022
2021
2021
2021
2020
2020
2020
2020
2020
2020
2020
2020
2018
2020
2019
2020
2019
2017
2016
2018
2021
2024
2025
2024
2022
2021
2019
2021
2020
2020
2020
2020
2020
2021
2021
2021
2021
2022
2022
2022
2022
2022
2022
2022
2021
2025
2023
2022
2020
2019
2019
2022
2027
2031
2032
2030
2027
2025
2022
2025
2024
2023
2024
2024
2025
2025
2026
2026
2026
2026
2026
2026
2026
2026
2027
2027
2030
2030
2029
2027
2024
2025
2028
2032
2037
2039
2039
2039
2037
2035
2036
2035
2033
2032
2031
2031
2030
2028
2028
2027
2027
2028
2027
2027
2028
2028
2026
2027
2027
2027
2028
2031
2034
2040
2054
2079
2111
2143
2166
2164
2130
2068
1988
1907
1847
1818
1823
1852
1895
1937
1971
1996
2014
2028
2037
2044
2049
2053
2058
2060
2064
2066
2067
2069
2070
2073
2076
2078
2080
2080
2079
2079
2081
2082
2085
2087
2088
2090
2092
2094
2096
2098
2101
2104
2108
2111
2113
2116
2119
2124
2130
2134
2137
2138
2138
2139
2144
2151
2158
2161
2159
2156
2152
2147
2147
2144
2140
2133
2125
2116
2105
2098
2089
2080
2071
2063
2056
2049
2046
2042
2037
2035
2032
2030
2025
2021
2018
2018
2024
2029
2032
2030
2026
2022
2019
2021
2024
2026
2025
2025
2025
2025
2025
2025
2025
2025
2025
2025
2025
2025
2025
2024
2024
2027
2024
2023
2019
2017
2018
2023
2029
2032
2030
2026
2021
2018
2017
2020
2019
2020
2020
2019
2019
2018
2019
2019
2020
2020
2020
2020
2019
2019
2019
2020
2020
2021
2021
2019
2018
2018
2020
2023
2024
2025
2023
2022
2020
2021
2020
2022
2022
2021
2022
2022
2023
2023
2024
2024
2024
2023
2023
2023
2023
2024
2023
2025
2024
2024
2024
2023
2023
2024
2027
2029
2029
2028
2027
2025
2025
2025
2026
2026
2026
2026
2027
2029
2031
2032
2033
2035
2037
2038
2037
2035
2033
2031
2032
2032
2031
2030
2026
2024
2024
2026
2030
2033
2034
2031
2028
2024
2024
2025
2027
2032
2038
2043
2048
2059
2080
2108
2141
2167
2171
2144
2086
2008
1926
1864
1832
1831
1853
1889
1926
1961
1989
2014
2030
2038
2043
2046
2048
2054
2058
2061
2063
2065
2067
2069
2071
2072
2073
2074
2075
2077
2078
2080
2081
2083
2085
2086
2088
2089
2089
2090
2092
2097
2102
2108
2113
2114
2115
2116
2118
2122
2125
2131
2134
2137
2140
2142
2144
2145
2145
2145
2145
2144
2141
2138
2134
2130
2125
2118
2110
2098
2084
2074
2067
2065
2064
2061
2054
2046
2037
2028
2026
2024
2024
2024
2022
2021
2019
2020
2019
2019
2019
2019
2020
2021
2023
2024
2023
2024
2024
2024
2022
2020
2018
2019
2024
2030
2032
2031
2028
2023
2018
2016
2018
2021
2025
2029
2031
2028
2024
2020
2019
2020
2021
2022
2021
2020
2020
2019
2019
2022
2020
2019
2015
2013
2015
2019
2025
2028
2027
2022
2018
2016
2015
2019
2018
2020
2019
2019
2019
2018
2019
2019
2020
2020
2020
2020
2020
2020
2020
2020
2020
2022
2021
2020
2019
2020
2021
2024
2026
2027
2025
2023
2022
2022
2022
2023
2023
2023
2023
2024
2024
2025
2025
2025
2025
2025
2025
2025
2025
2026
2025
2027
2027
2026
2024
2023
2024
2025
2029
2031
2031
2030
2027
2026
2025
2026
2028
2029
2029
2030
2032
2034
2036
2037
2037
2036
2035
2033
2032
2030
2028
2026
2028
2029
2029
2027
2024
2022
2022
2025
2030
2033
2032
2029
2026
2025
2030
2035
2039
2047
2063
2090
2123
2150
2157
2135
2080
2005
1923
1857
1819
1814
1836
1876
1921
1958
1985
2004
2018
2030
2041
2049
2056
2058
2059
2060
2061
2064
2066
2068
2070
2071
2073
2074
2076
2077
2078
2079
2081
2083
2084
2086
2087
2089
2091
2092
2096
2096
2098
2100
2104
2109
2115
2121
2125
2127
2128
2130
2134
2137
2141
2144
2146
2148
2150
2150
2150
2149
2148
2145
2142
2136
2129
2121
2113
2103
2096
2088
2078
2066
2056
2049
2046
2046
2045
2042
2036
2030
2026
2022
2023
2023
2023
2022
2022
2022
2022
2019
2020
2018
2018
2019
2021
2023
2026
2028
2027
2029
2027
2026
2022
2018
2019
2022
2028
2034
2036
2033
2028
2024
2020
2023
2024
2024
2023
2022
2022
2022
2022
2022
2022
2021
2021
2020
2020
2020
2020
2019
2021
2021
2021
2018
2014
2013
2015
2021
2027
2030
2029
2025
2020
2017
2019
2018
2020
2019
2019
2019
2020
2020
2020
2020
2021
2021
2021
2021
2022
2022
2022
2021
2024
2023
2023
2018
2015
2015
2020
2027
2034
2036
2033
2028
2023
2019
2022
2022
2025
2024
2024
2025
2025
2025
2025
2025
2025
2025
2026
2026
2026
2025
2026
2028
2028
2028
2024
2020
2020
2025
2032
2038
2039
2035
2029
2025
2023
2026
2027
2029
2028
2029
2029
2030
2031
2032
2033
2036
2038
2038
2038
2036
2034
2031
2035
2034
2035
2030
2023
2019
2020
2027
2035
2040
2039
2034
2028
2022
2025
2025
2027
2029
2032
2036
2039
2045
2059
2085
2118
2149
2162
2146
2098
2026
1943
1874
1830
1819
1834
1869
1910
1949
1984
2011
2031
2041
2046
2047
2048
2052
2055
2060
2063
2066
2068
2070
2072
2073
2074
2074
2075
2077
2078
2080
2081
2083
2085
2086
2088
2088
2088
2088
2090
2096
2104
2111
2114
2114
2113
2113
2116
2121
2128
2132
2135
2138
2141
2144
2146
2148
2150
2151
2150
2149
2147
2146
2144
2140
2138
2131
2121
2108
2094
2084
2078
2077
2075
2070
2061
2050
2041
2034
2033
2031
2030
2028
2026
2025
2024
2024
2024
2024
2023
2022
2021
2021
2023
2025
2025
2028
2028
2026
2023
2018
2018
2020
2026
2032
2035
2034
2029
2024
2020
2024
2024
2024
2024
2023
2023
2023
2023
2023
2022
2022
2021
2021
2021
2020
2020
2019
2022
2022
2021
2019
2015
2014
2015
2020
2027
2030
2029
2024
2019
2016
2017
2019
2020
2021
2021
2020
2021
2021
2021
2022
2022
2022
2022
2021
2022
2021
2022
2022
2024
2024
2023
2019
2015
2016
2020
2028
2034
2035
2032
2027
2023
2020
2023
2023
2025
2024
2025
2025
2025
2025
2026
2026
2026
2026
2026
2026
2027
2027
2028
2029
2029
2028
2025
2022
2022
2025
2031
2038
2038
2036
2031
2029
2027
2031
2032
2031
2029
2027
2028
2029
2031
2034
2036
2038
2039
2039
2037
2035
2032
2030
2032
2033
2032
2030
2025
2021
2022
2028
2034
2039
2039
2034
2029
2024
2025
2029
2033
2040
2045
2050
2063
2084
2114
2146
2168
2169
2138
2076
1996
1915
1855
1831
1839
1869
1907
1940
1964
1984
2004
2023
2037
2047
2050
2051
2053
2055
2058
2062
2065
2067
2069
2070
2072
2072
2074
2075
2076
2078
2080
2081
2083
2084
2086
2087
2090
2091
2092
2093
2095
2099
2105
2110
2115
2117
2118
2119
2122
2125
2129
2134
2137
2140
2142
2143
2144
2144
2144
2144
2144
2142
2139
2135
2131
2125
2121
2115
2106
2093
2082
2072
2066
2064
2061
2057
2050
2043
2036
2030
2029
2028
2027
2025
2024
2023
2022
2022
2022
2023
2023
2023
2023
2022
2022
2023
2023
2028
2028
2028
2025
2022
2021
2024
2027
2030
2032
2031
2028
2026
2023
2025
2024
2025
2025
2025
2025
2025
2024
2024
2024
2023
2023
2023
2022
2022
2021
2021
2022
2022
2021
2020
2018
2017
2018
2021
2025
2026
2025
2022
2019
2018
2019
2019
2020
2020
2020
2020
2020
2020
2020
2020
2020
2021
2021
2021
2021
2022
2022
2021
2023
2022
2022
2020
2017
2017
2021
2026
2031
2032
2029
2025
2022
2020
2023
2023
2024
2023
2023
2023
2024
2025
2025
2025
2025
2025
2025
2025
2025
2025
2025
2027
2027
2026
2025
2024
2024
2026
2029
2032
2032
2030
2028
2026
2025
2027
2028
2029
2029
2030
2032
2034
2035
2037
2037
2037
2035
2033
2032
2030
2029
2026
2030
2031
2031
2028
2022
2018
2019
2024
2031
2036
2034
2030
2026
2025
2032
2037
2041
2049
2067
2095
2129
2156
2163
2139
2083
2007
1924
1858
1820
1815
1837
1876
1920
1956
1983
2002
2017
2030
2041
2049
2056
2058
2059
2059
2061
2064
2067
2069
2070
2072
2073
2074
2076
2077
2078
2080
2081
2083
2084
2086
2087
2089
2091
2093
2096
2097
2099
2101
2104
2109
2115
2121
2125
2128
2130
2132
2135
2138
2143
2146
2148
2149
2151
2151
2152
2151
2149
2146
2143
2137
2129
2121
2112
2104
2096
2087
2078
2066
2056
2048
2045
2044
2044
2041
2035
2029
2025
2020
2021
2021
2021
2020
2020
2020
2019
2020
2020
2021
2021
2021
2021
2020
2021
2022
2022
2026
2025
2024
2021
2019
2020
2023
2027
2030
2030
2027
2024
2022
2020
2022
2021
2022
2021
2021
2021
2021
2020
2020
2020
2019
2019
2019
2019
2019
2019
2018
2019
2019
2018
2016
2015
2015
2018
2021
2025
2025
2022
2019
2016
2014
2017
2018
2018
2018
2018
2018
2018
2018
2018
2019
2019
2019
2019
2019
2019
2019
2020
2020
2022
2022
2021
2018
2016
2016
2020
2026
2030
2031
2029
2025
2021
2020
2022
2023
2023
2023
2023
2023
2023
2024
2024
2025
2025
2025
2025
2025
2025
2025
2026
2028
2027
2027
2025
2023
2024
2027
2031
2034
2033
2031
2028
2026
2025
2027
2027
2027
2027
2027
2028
2028
2029
2029
2029
2029
2030
2031
2031
2032
2033
2032
2038
2041
2043
2040
2033
2028
2027
2032
2038
2043
2041
2035
2029
2024
2027
2026
2028
2027
2027
2027
2028
2028
2027
2028
2030
2034
2037
2042
2053
2074
2104
2138
2160
2156
2119
2054
1974
1898
1845
1824
1831
1859
1899
1938
1971
1997
2015
2028
2037
2044
2049
2053
2058
2060
2062
2064
2066
2068
2070
2072
2073
2074
2076
2077
2079
2079
2079
2080
2081
2085
2089
2093
2095
2095
2095
2095
2098
2100
2104
2108
2111
2114
2118
2121
2125
2129
2133
2137
2140
2143
2144
2146
2148
2150
2153
2154
2151
2147
2142
2138
2135
2133
2128
2120
2108
2095
2084
2074
2068
2062
2055
2048
2044
2039
2035
2032
2029
2027
2026
2025
2025
2024
2023
2021
2019
2022
2022
2024
2023
2021
2021
2022
2025
2028
2031
2030
2027
2025
2024
2026
2025
2026
2026
2026
2026
2026
2025
2025
2025
2025
2025
2024
2024
2024
2023
2022
2023
2023
2022
2021
2019
2018
2019
2022
2025
2027
2026
2022
2016
2012
2012
2016
2021
2026
2028
2026
2021
2018
2017
2018
2020
2021
2020
2020
2020
2020
2021
2020
2022
2022
2020
2018
2016
2017
2021
2026
2030
2030
2027
2023
2022
2021
2023
2024
2023
2023
2023
2024
2024
2025
2025
2025
2025
2025
2025
2025
2025
2025
2024
2026
2026
2025
2024
2023
2023
2025
2029
2032
2032
2030
2028
2026
2024
2026
2027
2028
2028
2028
2028
2029
2029
2030
2029
2030
2029
2029
2029
2029
2028
2028
2032
2033
2033
2031
2027
2027
2031
2040
2048
2051
2049
2044
2038
2033
2034
2033
2033
2032
2031
2030
2030
2030
2029
2029
2028
2029
2029
2029
2029
2029
2029
2031
2035
2039
2041
2044
2054
2077
2111
2147
2171
2168
2133
2067
1987
1909
1851
1825
1830
1858
1899
1939
1972
1996
2014
2028
2038
2045
2049
2053
2056
2059
2063
2064
2067
2067
2068
2069
2072
2076
2081
2084
2084
2083
2082
2081
2084
2085
2088
2090
2092
2094
2096
2098
2100
2103
2106
2109
2113
2116
2119
2123
2126
2131
2136
2139
2141
2140
2140
2143
2149
2156
2160
2160
2155
2149
2143
2138
2136
2131
2125
2117
2109
2100
2091
2082
2074
2066
2059
2052
2048
2043
2040
2036
2030
2030
2026
2027
2025
2024
2023
2023
2025
2027
2028
2027
2026
2024
2022
2025
2024
2026
2026
2026
2026
2026
2026
2026
2026
2027
2027
2027
2027
2027
2026
2026
2027
2027
2026
2024
2022
2021
2023
2026
2029
2030
2027
2024
2021
2020
2021
2022
2022
2022
2021
2021
2021
2021
2021
2022
2022
2022
2022
2022
2022
2022
2022
2021
2024
2024
2023
2020
2018
2018
2022
2027
2032
2032
2030
2026
2024
2022
2024
2025
2025
2025
2025
2025
2025
2026
2026
2027
2027
2027
2027
2027
2027
2027
2028
2029
2029
2029
2028
2026
2026
2028
2032
2035
2035
2034
2031
2029
2027
2029
2030
2031
2031
2031
2031
2031
2031
2032
2032
2032
2032
2032
2032
2032
2033
2032
2038
2040
2042
2040
2037
2035
2037
2042
2047
2049
2046
2040
2034
2029
2031
2031
2032
2032
2032
2031
2031
2031
2032
2032
2032
2032
2033
2037
2042
2047
2051
2062
2082
2109
2141
2167
2172
2150
2097
2025
1945
1878
1839
1833
1852
1889
1930
1964
1990
2010
2025
2036
2045
2050
2055
2059
2062
2065
2067
2070
2071
2073
2075
2076
2078
2078
2078
2079
2080
2084
2087
2091
2092
2092
2092
2092
2093
2095
2099
2101
2104
2107
2110
2112
2116
2119
2123
2126
2130
2134
2137
2140
2143
2146
2150
2152
2152
2149
2146
2145
2146
2148
2147
2143
2134
2123
2113
2102
2095
2087
2079
2070
2063
2056
2049
2045
2040
2036
2033
2031
2030
2026
2028
2025
2023
2024
2021
2021
2019
2019
2021
2024
2028
2030
2030
2028
2027
2024
2023
2026
2026
2027
2026
2026
2025
2025
2026
2026
2026
2026
2026
2026
2026
2026
2025
2025
2025
2026
2024
2023
2021
2020
2022
2026
2029
2030
2027
2024
2021
2020
2021
2022
2022
2021
2021
2021
2021
2021
2021
2021
2022
2022
2022
2022
2021
2021
2022
2022
2024
2023
2021
2018
2016
2018
2023
2029
2033
2032
2028
2024
2021
2021
2023
2024
2024
2024
2024
2024
2024
2025
2025
2026
2025
2026
2025
2025
2025
2025
2026
2027
2027
2026
2025
2024
2024
2028
2031
2033
2033
2031
2028
2026
2025
2027
2028
2028
2028
2028
2028
2029
2029
2029
2029
2029
2029
2029
2029
2029
2029
2027
2031
2034
2034
2031
2026
2022
2024
2032
2041
2048
2048
2045
2040
2036
2036
2037
2036
2034
2033
2032
2032
2031
2030
2030
2029
2029
2028
2029
2029
2029
2029
2029
2030
2030
2032
2035
2036
2042
2054
2079
2113
2145
2166
2160
2123
2058
1979
1901
1845
1819
1825
1855
1897
1939
1973
1998
2017
2029
2035
2039
2044
2050
2061
2070
2075
2073
2069
2065
2066
2071
2077
2082
2082
2081
2079
2078
2080
2081
2084
2086
2087
2089
2091
2093
2094
2097
2099
2102
2105
2108
2112
2115
2119
2123
2127
2130
2133
2136
2138
2142
2146
2151
2153
2154
2153
2152
2150
2148
2147
2143
2137
2131
2123
2114
2105
2095
2086
2078
2070
2063
2056
2049
2044
2040
2034
2033
2029
2028
2025
2023
2023
2024
2025
2027
2028
2027
2025
2024
2021
2023
2023
2025
2025
2026
2026
2026
2026
2026
2026
2026
2027
2027
2027
2027
2026
2025
2026
2027
2025
2024
2022
2020
2020
2023
2026
2028
2028
2026
2023
2021
2021
2022
2020
2021
2020
2021
2020
2020
2020
2020
2020
2020
2019
2020
2020
2020
2019
2020
2020
2021
2021
2019
2019
2018
2020
2023
2026
2027
2025
2023
2021
2021
2020
2021
2022
2022
2022
2022
2022
2023
2023
2023
2023
2024
2024
2024
2024
2024
2022
2026
2025
2024
2021
2019
2019
2022
2028
2032
2033
2030
2027
2025
2022
2026
2026
2026
2026
2025
2026
2026
2026
2027
2027
2027
2027
2027
2027
2027
2028
2027
2032
2031
2030
2026
2023
2021
2024
2030
2036
2038
2037
2034
2032
2030
2036
2038
2039
2039
2038
2036
2034
2032
2031
2030
2029
2030
2029
2029
2028
2027
2026
2028
2029
2028
2026
2023
2020
2022
2030
2039
2046
2049
2058
2077
2106
2140
2163
2158
2122
2056
1976
1898
1842
1818
1825
1856
1899
1941
1974
1998
2015
2028
2038
2044
2049
2052
2054
2057
2059
2064
2069
2072
2075
2074
2073
2073
2074
2075
2077
2079
2080
2082
2083
2085
2087
2089
2091
2093
2095
2097
2099
2101
2104
2108
2113
2118
2120
2121
2122
2125
2131
2138
2144
2147
2148
2147
2148
2148
2150
2151
2150
2148
2145
2141
2136
2129
2120
2112
2103
2094
2085
2077
2069
2061
2053
2049
2043
2039
2033
2029
2026
2027
2029
2031
2031
2028
2024
2021
2020
2022
2022
2024
2024
2024
2023
2024
2024
2024
2025
2025
2026
2026
2026
2026
2026
2025
2027
2027
2026
2024
2022
2020
2021
2023
2027
2029
2028
2026
2024
2022
2022
2022
2021
2021
2021
2021
2021
2020
2020
2020
2020
2020
2020
2020
2020
2020
2020
2021
2020
2021
2020
2018
2017
2018
2020
2023
2025
2025
2023
2020
2019
2020
2021
2021
2022
2021
2021
2022
2022
2022
2022
2022
2022
2022
2022
2022
2023
2023
2021
2025
2025
2024
2021
2019
2018
2021
2027
2031
2033
2031
2027
2025
2022
2026
2025
2025
2025
2025
2026
2027
2027
2028
2028
2028
2028
2027
2027
2027
2027
2026
2031
2031
2030
2028
2025
2025
2026
2031
2034
2035
2034
2031
2029
2028
2031
2034
2036
2038
2039
2040
2040
2038
2037
2034
2033
2032
2031
2031
2030
2029
2028
2029
2030
2028
2026
2023
2021
2022
2028
2035
2041
2044
2045
2045
2050
2065
2092
2122
2154
2170
2160
2118
2049
1969
1895
1845
1828
1839
1870
1910
1946
1975
1999
2015
2028
2036
2040
2045
2050
2057
2064
2068
2069
2068
2067
2066
2069
2070
2073
2075
2076
2077
2078
2079
2081
2082
2084
2086
2088
2090
2092
2094
2095
2099
2102
2106
2108
2108
2109
2111
2118
2126
2134
2138
2138
2137
2136
2138
2140
2143
2145
2145
2145
2144
2142
2139
2134
2130
2124
2118
2111
2103
2095
2084
2076
2070
2061
2055
2048
2040
2035
2034
2034
2036
2035
2033
2028
2024
2021
2022
2021
2022
2023
2024
2023
2023
2023
2023
2023
2024
2025
2025
2025
2025
2025
2023
2025
2027
2025
2025
2022
2021
2022
2025
2029
2031
2030
2028
2025
2023
2023
2024
2023
2023
2022
2022
2021
2021
2022
2022
2022
2021
2021
2021
2020
2021
2020
2021
2020
2022
2020
2017
2016
2015
2018
2023
2028
2028
2022
2015
2012
2014
2021
2029
2031
2028
2024
2020
2018
2019
2021
2022
2021
2021
2021
2021
2022
2022
2022
2023
2023
2023
2022
2021
2021
2023
2026
2029
2029
2028
2026
2024
2022
2024
2025
2025
2026
2026
2026
2025
2025
2025
2025
2026
2026
2026
2026
2026
2025
2024
2028
2030
2032
2029
2023
2017
2015
2020
2030
2039
2041
2038
2032
2025
2026
2027
2029
2032
2033
2034
2037
2039
2040
2039
2036
2035
2032
2031
2030
2030
2029
2029
2030
2030
2028
2023
2017
2015
2019
2027
2035
2039
2038
2035
2035
2036
2041
2050
2069
2096
2130
2157
2165
2141
2086
2009
1927
1860
1822
1818
1840
1880
1924
1960
1988
2008
2020
2029
2037
2045
2054
2064
2069
2069
2067
2065
2065
2066
2069
2073
2074
2076
2077
2078
2079
2081
2082
2083
2084
2086
2088
2091
2093
2096
2099
2101
2102
2102
2102
2105
2111
2120
2127
2132
2133
2133
2134
2136
2141
2146
2148
2149
2150
2151
2151
2150
2149
2147
2143
2138
2131
2124
2115
2106
2096
2089
2081
2071
2063
2051
2043
2039
2038
2041
2043
2041
2036
2030
2024
2023
2023
2023
2024
2022
2022
2022
2022
2023
2023
2024
2024
2024
2024
2025
2025
2025
2027
2027
2027
2024
2021
2019
2021
2026
2032
2035
2034
2030
2025
2022
2022
2023
2023
2023
2023
2023
2023
2023
2023
2023
2023
2023
2022
2021
2021
2021
2021
2021
2023
2021
2019
2014
2011
2012
2017
2025
2031
2032
2029
2023
2019
2016
2019
2019
2020
2020
2020
2021
2021
2022
2022
2022
2022
2021
2021
2021
2021
2021
2021
2025
2025
2024
2019
2014
2013
2017
2026
2034
2037
2033
2027
2022
2019
2022
2023
2024
2023
2024
2025
2026
2026
2026
2026
2026
2026
2026
2026
2025
2025
2026
2029
2030
2029
2026
2022
2021
2023
2029
2034
2037
2036
2033
2029
2026
2026
2027
2027
2028
2028
2029
2029
2029
2029
2029
2030
2030
2031
2033
2035
2037
2038
2040
2041
2040
2037
2032
2027
2027
2030
2035
2039
2038
2034
2029
2025
2024
2025
2027
2027
2028
2027
2027
2027
2030
2034
2037
2041
2049
2066
2094
2127
2157
2166
2145
2093
2016
1932
1862
1823
1820
1847
1890
1934
1968
1991
2007
2021
2032
2041
2048
2051
2055
2059
2062
2064
2067
2068
2070
2072
2073
2073
2075
2076
2079
2081
2084
2085
2082
2080
2081
2085
2092
2099
2102
2102
2100
2099
2100
2104
2109
2113
2116
2119
2122
2127
2130
2134
2137
2141
2144
2146
2148
2149
2149
2147
2150
2148
2146
2140
2134
2126
2119
2114
2110
2106
2098
2088
2077
2065
2059
2052
2048
2041
2039
2035
2032
2029
2028
2027
2025
2024
2024
2024
2026
2027
2026
2027
2025
2022
2020
2018
2018
2021
2024
2028
2031
2030
2028
2025
2024
2025
2026
2026
2026
2026
2026
2026
2026
2026
2026
2025
2025
2025
2025
2025
2024
2023
2021
2024
2024
2022
2019
2016
2015
2018
2024
2029
2029
2026
2022
2020
2018
2020
2020
2021
2021
2021
2021
2022
2022
2022
2021
2021
2022
2022
2022
2022
2022
2020
2024
2024
2023
2020
2017
2016
2019
2025
2030
2033
2030
2026
2023
2019
2023
2024
2024
2024
2024
2024
2024
2025
2025
2026
2026
2026
2026
2025
2025
2026
2025
2030
2030
2029
2026
2023
2021
2023
2027
2032
2033
2032
2029
2027
2024
2027
2028
2029
2029
2029
2029
2029
2029
2029
2029
2028
2029
2029
2029
2030
2030
2030
2030
2031
2031
2031
2030
2030
2034
2038
2044
2046
2045
2042
2038
2035
2034
2034
2033
2032
2031
2031
2030
2031
2030
2030
2029
2029
2029
2029
2029
2029
2028
2033
2037
2042
2044
2049
2063
2088
2123
2157
2178
2170
2129
2060
1978
1903
1850
1831
1840
1869
1908
1944
1973
1996
2015
2029
2038
2041
2043
2047
2053
2062
2071
2075
2074
2070
2066
2065
2067
2072
2078
2081
2082
2081
2080
2080
2081
2084
2086
2089
2090
2093
2094
2096
2098
2100
2104
2107
2110
2114
2116
2120
2123
2125
2131
2134
2137
2137
2137
2139
2142
2146
2149
2150
2149
2146
2143
2137
2134
2127
2121
2113
2104
2097
2088
2079
2071
2064
2057
2051
2046
2041
2037
2033
2030
2028
2030
2026
2023
2018
2015
2016
2021
2029
2034
2033
2029
2024
2021
2020
2025
2025
2025
2024
2024
2025
2025
2025
2025
2026
2026
2026
2026
2025
2026
2025
2026
2025
2025
2023
2021
2020
2021
2023
2026
2027
2027
2025
2022
2021
2021
2021
2021
2021
2020
2020
2020
2020
2020
2020
2020
2021
2021
2021
2021
2021
2020
2018
2023
2022
2022
2019
2015
2014
2016
2022
2027
2030
2028
2025
2022
2018
2022
2023
2023
2023
2023
2023
2023
2023
2024
2025
2025
2025
2024
2024
2024
2024
2024
2028
2028
2027
2025
2021
2020
2022
2026
2031
2033
2032
2029
2027
2025
2027
2028
2029
2029
2029
2029
2029
2028
2029
2029
2029
2030
2030
2031
2031
2032
2032
2035
2038
2038
2037
2035
2033
2033
2035
2037
2038
2036
2033
2030
2027
2027
2028
2027
2027
2027
2028
2028
2028
2028
2028
2030
2035
2041
2046
2052
2066
2088
2120
2151
2172
2167
2128
2062
1982
1906
1853
1831
1839
1866
1903
1939
1969
1993
2012
2027
2037
2044
2049
2054
2057
2060
2063
2065
2067
2068
2070
2072
2073
2075
2078
2080
2080
2079
2078
2078
2081
2087
2092
2096
2096
2095
2095
2095
2099
2102
2106
2109
2113
2116
2119
2123
2126
2131
2134
2138
2142
2145
2148
2149
2149
2151
2150
2151
2148
2145
2142
2139
2135
2131
2124
2114
2104
2093
2083
2076
2067
2061
2053
2047
2043
2038
2034
2031
2028
2026
2025
2024
2023
2022
2021
2020
2021
2023
2021
2020
2018
2017
2020
2024
2029
2031
2029
2027
2024
2023
2023
2025
2024
2025
2024
2024
2024
2024
2024
2024
2025
2025
2024
2024
2024
2023
2023
2024
2024
2024
2022
2019
2019
2020
2023
2026
2027
2027
2024
2021
2018
2019
2019
2019
2020
2020
2020
2020
2020
2021
2021
2021
2020
2020
2021
2020
2021
2021
2020
2024
2023
2021
2018
2015
2015
2019
2026
2031
2031
2028
2024
2022
2019
2023
2023
2023
2023
2023
2024
2024
2024
2025
2025
2025
2025
2025
2024
2024
2024
2024
2028
2028
2027
2024
2021
2022
2025
2030
2033
2033
2031
2028
2025
2025
2027
2027
2028
2027
2027
2028
2028
2028
2029
2029
2029
2030
2029
2030
2029
2029
2028
2029
2031
2031
2030
2027
2026
2029
2037
2045
2049
2048
2043
2037
2031
2030
2031
2030
2030
2029
2029
2029
2028
2028
2027
2027
2028
2028
2029
2029
2028
2029
2034
2037
2041
2045
2054
2075
2104
2138
2162
2161
2126
2061
1980
1900
1843
1816
1822
1851
1893
1935
1970
1995
2014
2027
2037
2044
2049
2053
2056
2060
2062
2065
2069
2072
2072
2071
2071
2072
2075
2079
2083
2085
2084
2084
2084
2084
2087
2089
2091
2093
2095
2098
2100
2103
2105
2108
2111
2115
2119
2123
2127
2130
2133
2138
2141
2144
2146
2147
2149
2151
2154
2157
2157
2155
2151
2145
2139
2134
2125
2117
2106
2097
2087
2079
2070
2063
2056
2050
2046
2041
2037
2034
2031
2028
2027
2027
2025
2023
2021
2018
2019
2022
2026
2029
2029
2026
2024
2022
2022
2024
2024
2025
2025
2025
2025
2025
2025
2025
2026
2026
2026
2026
2026
2025
2024
2025
2025
2025
2024
2022
2021
2020
2022
2025
2026
2027
2025
2023
2021
2021
2020
2021
2021
2020
2020
2021
2021
2021
2021
2021
2021
2021
2021
2021
2021
2021
2019
2023
2023
2022
2019
2015
2015
2019
2026
2029
2028
2022
2017
2018
2021
2031
2033
2030
2025
2021
2019
2020
2022
2024
2024
2024
2024
2024
2024
2024
2024
2023
2028
2028
2027
2025
2022
2021
2023
2027
2031
2032
2030
2028
2025
2024
2026
2027
2027
2027
2027
2027
2027
2027
2028
2028
2028
2029
2028
2029
2029
2029
2028
2030
2031
2029
2026
2023
2021
2024
2031
2038
2042
2040
2037
2033
2031
2034
2038
2038
2039
2037
2036
2034
2033
2032
2030
2030
2029
2029
2029
2028
2028
2028
2029
2029
2030
2028
2026
2026
2028
2035
2043
2048
2052
2062
2081
2108
2141
2164
2164
2133
2072
1995
1918
1860
1832
1835
1861
1900
1938
1969
1992
2011
2025
2037
2045
2050
2053
2053
2054
2057
2062
2069
2074
2076
2075
2074
2072
2073
2075
2076
2078
2079
2081
2083
2085
2086
2088
2090
2092
2095
2098
2100
2102
2104
2106
2111
2114
2117
2118
2120
2123
2130
2137
2144
2147
2147
2147
2146
2147
2150
2150
2150
2147
2145
2140
2137
2131
2124
2116
2107
2098
2089
2081
2073
2064
2056
2050
2047
2041
2035
2029
2024
2023
2024
2027
2028
2027
2024
2020
2018
2018
2020
2019
2020
2019
2020
2020
2021
2022
2022
2023
2023
2023
2023
2023
2023
2023
2024
2024
2024
2023
2021
2020
2019
2021
2024
2026
2027
2025
2022
2020
2020
2020
2020
2020
2020
2019
2019
2019
2019
2019
2019
2019
2019
2019
2018
2018
2018
2017
2021
2020
2019
2016
2013
2012
2015
2021
2026
2028
2025
2021
2019
2016
2020
2020
2021
2021
2021
2021
2020
2020
2020
2021
2022
2022
2022
2022
2021
2022
2021
2024
2024
2025
2023
2021
2020
2021
2025
2028
2030
2030
2028
2026
2024
2025
2025
2026
2026
2026
2027
2027
2027
2027
2027
2027
2027
2027
2027
2028
2028
2027
2028
2031
2029
2028
2025
2024
2028
2035
2044
2048
2045
2040
2033
2028
2027
2029
2028
2028
2027
2027
2027
2027
2026
2026
2026
2026
2026
2026
2027
2028
2032
2038
2042
2047
2056
2072
2099
2129
2159
2170
2150
2098
2022
1939
1870
1832
1827
1847
1885
1924
1957
1983
2004
2019
2031
2039
2045
2050
2054
2058
2060
2063
2065
2069
2071
2072
2071
2070
2071
2074
2080
2085
2087
2087
2085
2084
2084
2087
2090
2093
2095
2098
2100
2102
2105
2108
2112
2115
2119
2123
2126
2130
2133
2135
2141
2143
2147
2148
2148
2149
2148
2153
2154
2153
2149
2143
2136
2128
2123
2116
2108
2098
2087
2078
2069
2062
2054
2048
2043
2038
2034
2031
2029
2026
2023
2023
2023
2021
2019
2016
2014
2016
2020
2024
2026
2025
2023
2020
2019
2019
2021
2021
2022
2022
2023
2023
2023
2023
2023
2023
2023
2023
2023
2023
2022
2022
2023
2023
2023
2021
2018
2017
2018
2021
2024
2026
2025
2022
2020
2017
2018
2018
2018
2019
2018
2018
2018
2018
2019
2019
2018
2019
2019
2019
2018
2018
2018
2016
2021
2020
2018
2015
2012
2012
2016
2023
2028
2029
2025
2021
2019
2016
2020
2020
2020
2020
2020
2021
2021
2022
2022
2022
2023
2023
2023
2022
2023
2023
2023
2027
2027
2025
2022
2019
2019
2022
2027
2031
2032
2030
2027
2024
2023
2025
2025
2026
2026
2026
2026
2027
2026
2027
2027
2027
2028
2028
2029
2029
2028
2027
2028
2029
2027
2026
2022
2021
2024
2031
2039
2044
2044
2042
2038
2035
2034
2035
2032
2032
2030
2031
2030
2030
2029
2028
2027
2027
2027
2027
2027
2027
2028
2028
2028
2030
2032
2033
2035
2041
2056
2084
2119
2150
2163
2148
2101
2030
1951
1878
1831
1814
1827
1861
1905
1947
1979
2002
2019
2032
2040
2046
2050
2054
2059
2063
2067
2069
2068
2067
2068
2071
2076
2081
2083
2083
2082
2081
2082
2084
2086
2089
2090
2092
2093
2095
2098
2102
2104
2104
2104
2106
2112
2122
2132
2138
2139
2138
2138
2139
2143
2148
2152
2156
2160
2163
2164
2162
2159
2154
2151
2148
2145
2139
2130
2120
2108
2096
2087
2076
2070
2062
2055
2048
2044
2039
2034
2031
2028
2026
2023
2020
2019
2019
2022
2024
2025
2024
2022
2020
2019
2020
2021
2021
2022
2021
2022
2022
2022
2022
2022
2022
2022
2023
2023
2023
2023
2022
2021
2023
2023
2022
2020
2018
2017
2019
2022
2025
2025
2023
2021
2019
2017
2018
2017
2017
2017
2017
2017
2017
2017
2017
2017
2017
2017
2017
2017
2016
2017
2017
2019
2019
2019
2018
2015
2015
2017
2020
2024
2025
2023
2021
2019
2017
2019
2020
2019
2019
2019
2020
2021
2021
2021
2021
2021
2021
2022
2022
2021
2021
2020
2024
2025
2028
2024
2018
2012
2011
2018
2028
2037
2038
2034
2027
2020
2020
2021
2024
2025
2025
2026
2026
2026
2026
2026
2025
2026
2026
2028
2029
2030
2031
2034
2037
2037
2036
2032
2027
2027
2029
2033
2035
2034
2031
2027
2024
2024
2025
2025
2025
2025
2026
2026
2026
2026
2027
2030
2036
2042
2047
2056
2074
2099
2131
2156
2166
2145
2095
2024
1946
1882
1843
1835
1850
1881
1916
1948
1975
1996
2014
2026
2036
2043
2048
2052
2055
2058
2061
2063
2066
2068
2069
2071
2072
2074
2077
2077
2077
2076
2076
2078
2082
2086
2090
2092
2092
2092
2094
2096
2100
2103
2106
2109
2112
2116
2119
2123
2127
2131
2135
2138
2141
2143
2145
2145
2148
2149
2148
2148
2144
2140
2137
2135
2133
2129
2122
2112
2099
2090
2080
2072
2063
2056
2050
2047
2044
2040
2036
2031
2027
2025
2023
2023
2022
2022
2021
2020
2021
2022
2021
2020
2019
2019
2020
2024
2028
2030
2030
2028
2026
2024
2024
2025
2025
2025
2025
2026
2026
2026
2026
2025
2025
2024
2024
2024
2024
2024
2023
2023
2025
2024
2022
2018
2015
2014
2018
2024
2029
2029
2026
2021
2019
2017
2020
2020
2020
2019
2019
2019
2020
2021
2021
2021
2021
2021
2020
2021
2021
2021
2020
2022
2022
2021
2020
2018
2017
2019
2022
2026
2027
2026
2023
2022
2020
2023
2023
2023
2023
2023
2023
2024
2024
2024
2024
2025
2025
2025
2025
2024
2024
2022
2027
2029
2030
2026
2021
2016
2017
2025
2033
2039
2037
2032
2026
2021
2023
2025
2027
2027
2027
2028
2029
2031
2032
2034
2035
2036
2037
2037
2036
2035
2032
2031
2031
2030
2028
2025
2022
2023
2025
2028
2030
2030
2028
2026
2024
2024
2026
2027
2031
2036
2040
2046
2058
2080
2110
2141
2161
2156
2120
2056
1978
1903
1848
1823
1829
1856
1894
1933
1965
1991
2012
2028
2039
2045
2048
2051
2054
2058
2062
2065
2067
2068
2070
2071
2072
2074
2075
2077
2078
2079
2080
2082
2083
2085
2089
2091
2093
2092
2091
2092
2096
2103
2109
2114
2117
2118
2120
2122
2127
2132
2137
2141
2145
2148
2150
2152
2153
2154
2154
2155
2154
2152
2149
2144
2137
2130
2120
2112
2100
2089
2078
2070
2064
2060
2055
2048
2041
2034
2027
2028
2025
2024
2021
2018
2017
2018
2020
2021
2020
2018
2017
2017
2017
2020
2020
2019
2020
2021
2020
2019
2017
2018
2020
2024
2028
2030
2029
2027
2024
2022
2023
2023
2022
2022
2022
2022
2022
2021
2021
2021
2021
2021
2021
2021
2021
2020
2019
2020
2021
2021
2018
2014
2012
2012
2017
2024
2028
2028
2024
2019
2015
2015
2017
2019
2019
2019
2018
2017
2015
2014
2016
2018
2021
2023
2023
2022
2021
2021
2021
2024
2023
2023
2018
2014
2013
2016
2023
2029
2032
2030
2026
2022
2018
2020
2021
2022
2022
2022
2023
2023
2023
2023
2024
2024
2024
2024
2024
2024
2023
2022
2027
2028
2028
2024
2020
2018
2022
2028
2032
2033
2030
2029
2031
2033
2036
2033
2028
2024
2022
2024
2026
2027
2027
2027
2028
2027
2027
2028
2029
2030
2029
2031
2032
2034
2033
2032
2031
2033
2036
2041
2043
2041
2037
2031
2027
2026
2027
2029
2027
2027
2027
2026
2027
2027
2028
2027
2027
2028
2029
2032
2035
2037
2044
2058
2084
2114
2141
2151
2134
2090
2025
1950
1882
1835
1818
1831
1865
1911
1952
1984
2006
2021
2033
2041
2047
2051
2056
2059
2062
2065
2066
2068
2069
2071
2075
2078
2079
2076
2074
2073
2077
2083
2091
2094
2094
2091
2088
2088
2092
2095
2099
2101
2104
2106
2110
2113
2117
2121
2125
2129
2134
2138
2141
2144
2146
2151
2152
2153
2152
2151
2152
2153
2156
2155
2151
2142
2132
2122
2111
2105
2095
2085
2075
2066
2059
2053
2049
2046
2041
2036
2032
2029
2026
2025
2024
2021
2022
2022
2023
2021
2018
2017
2017
2021
2026
2030
2031
2028
2025
2022
2022
2024
2025
2025
2025
2025
2025
2025
2026
2026
2026
2026
2026
2026
2026
2025
2024
2023
2025
2025
2024
2020
2016
2014
2017
2023
2030
2032
2030
2024
2021
2018
2020
2019
2021
2019
2019
2020
2020
2020
2020
2020
2021
2020
2020
2020
2020
2021
2021
2024
2023
2024
2020
2016
2014
2016
2021
2028
2031
2030
2026
2022
2018
2021
2021
2023
2023
2023
2023
2024
2024
2024
2024
2024
2025
2025
2025
2024
2024
2023
2027
2029
2031
2028
2021
2015
2013
2020
2031
2041
2044
2039
2032
2023
2022
2023
2025
2027
2027
2027
2028
2028
2028
2028
2029
2029
2029
2028
2029
2029
2029
2031
2031
2030
2028
2023
2021
2023
2029
2037
2043
2043
2040
2034
2031
2032
2035
2038
2039
2039
2039
2037
2036
2034
2033
2031
2030
2029
2029
2029
2028
2027
2028
2029
2030
2028
2025
2023
2023
2028
2036
2045
2049
2053
2062
2079
2107
2137
2159
2159
2130
2073
1999
1921
1860
1830
1829
1854
1892
1931
1965
1990
2009
2025
2036
2042
2046
2048
2051
2056
2062
2067
2071
2072
2071
2071
2070
2072
2075
2076
2078
2080
2081
2082
2083
2085
2087
2089
2091
2094
2096
2098
2100
2102
2105
2109
2111
2114
2116
2118
2122
2128
2135
2142
2146
2147
2147
2148
2148
2150
2151
2153
2153
2151
2147
2142
2137
2133
2128
2123
2114
2104
2092
2082
2074
2065
2060
2054
2047
2041
2034
2030
2028
2030
2032
2032
2030
2026
2022
2020
2020
2021
2021
2022
2021
2022
2022
2022
2023
2023
2023
2024
2024
2025
2025
2025
2024
2024
2026
2027
2025
2021
2018
2017
2021
2027
2032
2033
2029
2023
2020
2018
2020
2021
2020
2019
2018
2018
2019
2019
2019
2019
2019
2018
2018
2018
2017
2018
2017
2020
2020
2020
2018
2016
2015
2017
2021
2024
2026
2024
2022
2019
2017
2020
2020
2021
2021
2021
2021
2021
2022
2022
2023
2023
2022
2023
2023
2022
2022
2020
2024
2026
2026
2023
2019
2015
2017
2023
2032
2037
2035
2030
2025
2020
2021
2023
2025
2025
2025
2025
2026
2027
2027
2027
2027
2027
2027
2027
2028
2028
2029
2031
2034
2035
2035
2034
2032
2032
2034
2036
2038
2036
2033
2029
2027
2026
2027
2026
2026
2026
2027
2027
2028
2027
2026
2026
2027
2032
2037
2043
2048
2057
2075
2100
2132
2159
2168
2148
2098
2027
1949
1883
1842
1832
1846
1878
1916
1949
1977
1999
2016
2028
2038
2044
2048
2052
2056
2059
2062
2064
2065
2067
2068
2071
2074
2076
2077
2075
2075
2075
2078
2083
2087
2090
2090
2089
2090
2091
2094
2098
2101
2104
2107
2110
2113
2116
2119
2124
2128
2132
2136
2140
2143
2145
2147
2149
2150
2152
2151
2149
2147
2146
2144
2142
2137
2130
2120
2109
2098
2089
2080
2072
2066
2057
2050
2045
2040
2034
2029
2025
2023
2024
2027
2030
2030
2025
2021
2018
2015
2017
2016
2017
2018
2020
2024
2026
2027
2027
2026
2023
2023
2023
2022
2023
2023
2023
2023
2023
2024
2024
2024
2024
2024
2023
2023
2022
2022
2023
2024
2024
2021
2017
2014
2014
2019
2026
2031
2030
2026
2021
2016
2016
2019
2020
2019
2018
2018
2018
2019
2019
2019
2019
2020
2020
2020
2020
2020
2020
2018
2023
2024
2022
2019
2014
2013
2017
2024
2031
2032
2029
2024
2020
2017
2021
2022
2022
2023
2022
2023
2023
2023
2023
2024
2024
2024
2024
2023
2023
2024
2023
2028
2027
2026
2022
2017
2016
2018
2025
2030
2033
2030
2027
2024
2022
2024
2025
2026
2026
2026
2027
2028
2029
2031
2032
2034
2035
2036
2036
2034
2033
2031
2030
2031
2029
2027
2024
2022
2023
2025
2029
2031
2030
2028
2025
2024
2024
2026
2029
2033
2037
2041
2050
2068
2096
2129
2154
2159
2134
2077
2001
1921
1856
1820
1816
1838
1875
1917
1953
1981
2004
2021
2035
2044
2048
2051
2053
2056
2059
2063
2066
2068
2069
2071
2072
2073
2074
2075
2076
2078
2079
2080
2081
2083
2085
2088
2091
2092
2091
2091
2092
2096
2102
2109
2114
2116
2118
2119
2122
2127
2131
2137
2141
2144
2147
2149
2151
2151
2153
2153
2153
2152
2149
2145
2140
2132
2125
2115
2105
2094
2084
2075
2068
2063
2057
2050
2044
2037
2033
2029
2028
2026
2025
2023
2022
2020
2019
2017
2017
2018
2020
2022
2022
2021
2020
2019
2019
2020
2022
2020
2020
2018
2018
2020
2024
2028
2030
2029
2026
2023
2021
2022
2023
2021
2022
2021
2021
2021
2021
2021
2021
2021
2021
2020
2020
2020
2020
2020
2020
2022
2022
2020
2016
2013
2012
2016
2022
2027
2028
2024
2020
2017
2016
2019
2020
2019
2019
2019
2019
2020
2020
2020
2021
2021
2021
2021
2021
2021
2021
2020
2024
2025
2023
2021
2017
2015
2018
2025
2031
2033
2031
2026
2023
2019
2022
2023
2023
2023
2023
2024
2024
2025
2025
2025
2025
2025
2025
2024
2025
2025
2024
2028
2028
2028
2026
2023
2022
2023
2027
2031
2032
2031
2029
2027
2025
2027
2029
2030
2031
2033
2034
2036
2037
2039
2038
2037
2036
2033
2032
2032
2031
2030
2029
2030
2028
2028
2025
2023
2023
2026
2030
2033
2033
2032
2030
2032
2034
2038
2045
2061
2088
2122
2151
2161
2141
2089
2015
1933
1864
1823
1814
1833
1871
1917
1955
1985
2005
2019
2030
2039
2048
2055
2061
2064
2064
2065
2064
2067
2069
2071
2073
2074
2076
2077
2078
2079
2080
2082
2084
2086
2087
2088
2089
2091
2093
2098
2101
2103
2104
2105
2107
2112
2119
2125
2131
2133
2135
2137
2139
2143
2146
2150
2153
2154
2155
2155
2154
2153
2151
2148
2144
2138
2131
2123
2113
2103
2095
2085
2075
2066
2057
2049
2046
2045
2043
2040
2035
2029
2026
2023
2024
2024
2023
2022
2022
2022
2022
2022
2022
2021
2022
2023
2025
2026
2026
2025
2024
2024
2024
2023
2023
2021
2021
2022
2026
2029
2030
2029
2026
2023
2021
2021
2023
2022
2022
2021
2021
2021
2020
2020
2020
2019
2020
2019
2019
2018
2018
2018
2018
2020
2021
2021
2017
2014
2012
2014
2019
2025
2028
2028
2024
2020
2017
2018
2018
2020
2020
2020
2020
2020
2021
2021
2021
