2056
2056
2055
2055
2055
2056
2056
2056
2056
2057
2058
2059
2060
2060
2061
2061
2061
2061
2062
2063
2063
2064
2066
2067
2069
2069
2069
2070
2071
2073
2074
2075
2075
2074
2072
2070
2069
2068
2066
2065
2063
2061
2059
2056
2054
2051
2049
2047
2044
2042
2040
2038
2037
2036
2035
2035
2033
2032
2031
2030
2031
2033
2034
2033
2032
2031
2030
2029
2029
2029
2029
2028
2027
2027
2026
2026
2026
2025
2024
2022
2021
2020
2018
2017
2016
2015
2014
2013
2011
2008
2007
2007
2007
2007
2006
2004
2001
1999
1996
1995
1994
1993
1992
1990
1990
1989
1988
1987
1986
1985
1985
1984
1984
1985
1986
1987
1988
1989
1989
1988
1988
1987
1988
1989
1989
1989
1987
1986
1984
1983
1984
1985
1986
1987
1988
1988
1988
1988
1988
1987
1983
1980
1980
1985
1994
2000
2004
2007
2010
2012
2012
2006
1996
1985
1980
1984
1992
1999
2001
1996
1991
1990
1991
1992
1994
1996
1997
1997
1998
1998
1999
2000
2000
2001
2001
2002
2002
2001
2001
2002
2002
2002
2002
2002
2003
2006
2009
2012
2013
2013
2012
2011
2011
2014
2015
2016
2016
2016
2015
2015
2014
2015
2014
2014
2013
2012
2010
2008
2005
2002
2001
1999
1997
1994
1991
1989
1989
1990
1991
1990
1988
1985
1983
1982
1983
1983
1983
1982
1981
1980
1979
1979
1979
1979
1979
1979
1979
1978
1977
1977
1976
1977
1977
1977
1976
1976
1975
1975
1976
1976
1976
1976
1975
1975
1974
1975
1974
1974
1973
1974
1974
1975
1975
1975
1976
1976
1976
1976
1976
1977
1977
1978
1979
1979
1979
1978
1978
1979
1980
1982
1984
1984
1983
1981
1979
1978
1979
1979
1979
1979
1979
1979
1980
1981
1982
1983
1983
1982
1980
1979
1982
1991
2000
2007
2009
2009
2008
2007
2005
1999
1992
1987
1987
1992
1998
2003
2003
2000
1998
1999
2000
2000
2001
2001
2001
2002
2002
2003
2003
2003
2004
2004
2005
2006
2007
2008
2008
2008
2007
2008
2010
2012
2016
2018
2019
2020
2020
2022
2023
2025
2027
2029
2030
2031
2033
2035
2036
2037
2039
2040
2042
2044
2046
2047
2048
2048
2050
2051
2051
2051
2051
2052
2054
2057
2061
2064
2065
2067
2068
2070
2074
2077
2080
2082
2085
2088
2090
2092
2094
2095
2098
2102
2105
2107
2108
2106
2106
2107
2110
2113
2116
2116
2117
2118
2119
2120
2120
2118
2115
2113
2110
2108
2107
2105
2102
2099
2095
2091
2086
2083
2082
2081
2081
2082
2082
2082
2082
2081
2080
2082
2084
2086
2088
2089
2090
2090
2091
2092
2094
2095
2095
2096
2097
2100
2103
2105
2106
2106
2103
2100
2099
2102
2111
2121
2128
2132
2133
2131
2126
2119
2109
2097
2088
2085
2089
2095
2102
2105
2103
2100
2098
2097
2096
2095
2096
2097
2097
2098
2098
2098
2098
2099
2100
2101
2102
2104
2105
2106
2107
2108
2108
2111
2113
2116
2118
2120
2121
2123
2125
2127
2129
2130
2130
2131
2131
2133
2133
2134
2134
2135
2136
2136
2137
2136
2135
2133
2132
2130
2128
2127
2125
2124
2124
2125
2124
2123
2122
2121
2121
2123
2125
2127
2127
2127
2127
2127
2128
2130
2131
2132
2133
2134
2135
2135
2136
2136
2136
2137
2138
2138
2139
2139
2139
2139
2139
2139
2139
2138
2137
2137
2138
2140
2142
2143
2143
2142
2141
2139
2139
2139
2139
2139
2139
2140
2140
2139
2138
2138
2138
2138
2138
2137
2136
2134
2132
2132
2131
2131
2129
2128
2127
2127
2128
2128
2128
2126
2124
2123
2120
2117
2116
2118
2126
2134
2140
2144
2147
2149
2149
2144
2133
2119
2108
2104
2109
2116
2122
2122
2116
2113
2111
2111
2112
2113
2115
2116
2114
2112
2111
2110
2111
2111
2112
2112
2112
2111
2111
2110
2110
2111
2112
2112
2113
2113
2114
2114
2115
2116
2117
2117
2117
2116
2116
2116
2118
2118
2118
2116
2113
2111
2109
2109
2109
2109
2108
2107
2105
2103
2101
2098
2096
2093
2091
2090
2088
2087
2086
2085
2084
2083
2082
2081
2080
2080
2081
2082
2083
2083
2082
2080
2078
2078
2078
2078
2078
2078
2077
2077
2076
2076
2075
2075
2075
2074
2073
2074
2072
2071
2071
2069
2070
2069
2068
2067
2066
2066
2066
2067
2067
2066
2065
2063
2062
2060
2060
2060
2060
2060
2059
2058
2057
2056
2055
2054
2054
2053
2053
2052
2052
2052
2051
2051
2052
2052
2052
2051
2048
2047
2048
2055
2065
2073
2079
2084
2087
2090
2089
2080
2065
2051
2044
2046
2052
2060
2063
2060
2056
2056
2058
2059
2060
2060
2060
2060
2060
2060
2060
2060
2061
2063
2065
2066
2066
2065
2065
2065
2066
2067
2066
2065
2064
2063
2063
2063
2064
2064
2063
2062
2061
2061
2062
2062
2062
2061
2059
2056
2052
2048
2043
2039
2037
2035
2033
2030
2025
2018
2013
2007
2004
1999
1996
1993
1990
1988
1985
1983
1981
1980
1979
1979
1978
1978
1978
1979
1979
1979
1978
1977
1974
1972
1971
1970
1971
1971
1970
1968
1965
1963
1961
1961
1961
1960
1959
1959
1958
1957
1956
1955
1954
1953
1953
1953
1953
1953
1953
1951
1951
1951
1950
1950
1950
1949
1950
1952
1953
1954
1954
1952
1950
1949
1948
1949
1950
1950
1950
1950
1950
1951
1951
1952
1953
1955
1956
1956
1954
1953
1953
1959
1967
1972
1977
1980
1984
1988
1990
1985
1974
1961
1953
1954
1961
1968
1973
1972
1970
1970
1970
1971
1971
1972
1972
1972
1973
1974
1975
1976
1977
1977
1977
1979
1980
1981
1981
1981
1983
1986
1989
1991
1992
1991
1991
1991
1992
1995
1996
1997
1998
1999
2000
2001
2001
2002
2001
2001
2001
2001
2001
2001
2000
1998
1998
1997
1996
1994
1991
1990
1990
1991
1992
1992
1991
1990
1989
1988
1989
1989
1990
1990
1990
1990
1991
1991
1991
1991
1992
1992
1993
1994
1995
1995
1995
1996
1996
1996
1996
1995
1996
1997
2000
2002
2003
2002
2000
1998
1999
2000
2002
2002
2001
2000
2000
1999
2000
2001
2003
2004
2003
2003
2003
2003
2003
2004
2006
2007
2008
2007
2006
2005
2004
2004
2005
2005
2006
2007
2008
2008
2007
2005
2004
2004
2006
2007
2007
2005
2005
2009
2017
2024
2028
2030
2032
2033
2032
2029
2020
2009
2001
2000
2005
2013
2020
2021
2019
2017
2017
2016
2015
2015
2015
2016
2017
2017
2018
2018
2019
2019
2020
2021
2022
2023
2023
2024
2025
2026
2027
2029
2029
2029
2028
2027
2028
2031
2035
2038
2039
2039
2037
2035
2034
2036
2036
2036
2036
2035
2035
2035
2034
2033
2031
2030
2029
2027
2026
2024
2022
2021
2020
2020
2019
2017
2016
2015
2016
2018
2020
2020
2019
2017
2015
2014
2016
2017
2018
2018
2018
2017
2017
2017
2018
2018
2018
2017
2017
2017
2019
2020
2021
2021
2020
2018
2017
2015
2015
2016
2018
2019
2020
2020
2019
2018
2016
2016
2016
2017
2018
2018
2018
2018
2018
2019
2020
2020
2020
2019
2017
2016
2016
2016
2016
2015
2015
2014
2013
2013
2014
2015
2016
2018
2018
2015
2013
2012
2017
2027
2035
2038
2040
2039
2039
2038
2034
2026
2018
2012
2013
2019
2027
2032
2031
2027
2027
2028
2028
2028
2028
2028
2029
2031
2032
2032
2031
2030
2030
2031
2033
2033
2033
2033
2034
2034
2036
2037
2038
2039
2040
2041
2042
2043
2043
2044
2044
2045
2046
2046
2047
2047
2047
2048
2048
2048
2048
2048
2047
2045
2043
2042
2040
2038
2036
2034
2034
2033
2033
2032
2031
2030
2028
2028
2027
2027
2026
2026
2027
2028
2029
2029
2029
2029
2029
2031
2032
2032
2032
2032
2032
2033
2034
2035
2034
2034
2033
2033
2034
2034
2034
2034
2034
2034
2034
2034
2034
2034
2033
2034
2034
2035
2035
2034
2033
2032
2033
2035
2037
2038
2038
2037
2035
2034
2034
2033
2034
2034
2035
2035
2035
2035
2035
2034
2034
2036
2036
2035
2034
2034
2040
2049
2057
2062
2063
2060
2055
2050
2044
2036
2031
2030
2034
2042
2048
2052
2049
2047
2047
2048
2048
2048
2048
2048
2048
2048
2048
2048
2048
2048
2049
2050
2050
2051
2051
2051
2052
2053
2055
2057
2059
2060
2060
2059
2060
2060
2062
2063
2065
2066
2066
2067
2067
2067
2066
2066
2065
2065
2064
2063
2063
2062
2061
2060
2058
2056
2054
2052
2050
2050
2049
2049
2048
2047
2045
2044
2042
2043
2043
2043
2043
2044
2044
2044
2045
2045
2046
2047
2048
2048
2048
2049
2049
2049
2049
2050
2050
2050
2049
2049
2050
2051
2052
2052
2051
2049
2048
2048
2048
2049
2050
2050
2050
2050
2049
2048
2048
2048
2048
2050
2052
2053
2053
2052
2050
2049
2049
2049
2049
2049
2049
2050
2051
2053
2053
2053
2052
2051
2049
2048
2048
2053
2061
2067
2070
2072
2071
2069
2066
2061
2053
2047
2043
2045
2051
2057
2060
2059
2057
2057
2057
2057
2058
2059
2061
2063
2063
2062
2061
2060
2060
2061
2062
2062
2062
2062
2062
2062
2063
2064
2065
2066
2066
2067
2067
2068
2068
2068
2069
2070
2070
2071
2070
2070
2070
2070
2071
2071
2070
2069
2067
2066
2066
2065
2064
2063
2061
2059
2058
2057
2057
2055
2054
2053
2051
2050
2049
2049
2049
2049
2051
2050
2050
2048
2048
2048
2049
2051
2053
2054
2052
2051
2050
2049
2051
2051
2051
2051
2051
2051
2051
2052
2052
2051
2051
2051
2051
2051
2051
2051
2051
2051
2051
2051
2050
2049
2048
2049
2051
2053
2053
2053
2051
2049
2048
2048
2049
2049
2050
2050
2050
2050
2049
2049
2049
2050
2051
2051
2049
2048
2050
2055
2062
2066
2068
2071
2074
2077
2077
2071
2061
2051
2047
2049
2056
2061
2062
2060
2058
2059
2059
2059
2059
2059
2059
2060
2061
2061
2062
2062
2063
2063
2063
2063
2063
2063
2064
2064
2065
2067
2069
2072
2073
2073
2072
2072
2072
2074
2075
2076
2078
2079
2079
2077
2076
2075
2075
2077
2078
2079
2077
2075
2072
2070
2068
2068
2067
2065
2063
2061
2060
2060
2060
2060
2059
2057
2055
2054
2054
2055
2055
2055
2055
2055
2054
2055
2054
2054
2055
2055
2056
2057
2058
2058
2057
2055
2055
2055
2055
2057
2056
2056
2056
2057
2058
2057
2056
2055
2054
2054
2055
2055
2055
2055
2054
2053
2053
2052
2052
2052
2053
2054
2055
2055
2054
2054
2052
2053
2053
2053
2054
2053
2052
2052
2054
2055
2056
2058
2057
2055
2052
2051
2054
2061
2067
2070
2073
2077
2080
2082
2079
2070
2059
2051
2052
2058
2065
2070
2069
2065
2063
2062
2061
2060
2061
2062
2064
2064
2064
2063
2063
2063
2064
2064
2064
2065
2065
2066
2067
2068
2070
2071
2072
2072
2072
2072
2073
2074
2075
2076
2080
2080
2081
2081
2080
2080
2081
2084
2085
2086
2084
2082
2080
2078
2078
2077
2075
2074
2073
2071
2070
2068
2067
2065
2064
2064
2063
2063
2063
2063
2064
2064
2064
2063
2062
2062
2063
2064
2066
2067
2067
2067
2065
2065
2065
2066
2066
2066
2066
2066
2066
2066
2065
2064
2063
2063
2063
2062
2062
2061
2060
2059
2058
2058
2058
2057
2057
2056
2057
2059
2062
2062
2062
2059
2056
2054
2054
2055
2056
2056
2056
2056
2055
2055
2055
2054
2053
2053
2054
2054
2055
2055
2054
2054
2054
2054
2053
2051
2049
2051
2059
2067
2072
2075
2077
2079
2080
2078
2071
2058
2048
2044
2048
2055
2061
2063
2060
2057
2058
2059
2059
2059
2059
2060
2060
2061
2061
2062
2063
2063
2064
2065
2066
2067
2067
2067
2067
2066
2067
2068
2069
2071
2071
2072
2072
2073
2073
2074
2075
2077
2078
2079
2079
2078
2078
2076
2076
2075
2074
2073
2071
2071
2071
2071
2070
2069
2066
2063
2060
2058
2057
2056
2054
2053
2051
2050
2050
2049
2049
2049
2050
2050
2050
2050
2050
2050
2050
2051
2052
2052
2051
2051
2049
2049
2049
2050
2050
2049
2048
2047
2045
2045
2046
2048
2048
2051
2053
2054
2056
2056
2057
2057
2056
2055
2054
2054
2053
2053
2054
2055
2055
2054
2052
2050
2049
2051
2052
2053
2052
2049
2047
2044
2042
2043
2042
2043
2043
2044
2045
2046
2046
2046
2046
2046
2045
2042
2040
2041
2048
2056
2061
2063
2063
2061
2059
2056
2050
2043
2034
2031
2034
2041
2047
2049
2048
2045
2046
2046
2047
2048
2048
2049
2049
2049
2049
2049
2050
2050
2050
2050
2049
2049
2048
2048
2046
2046
2046
2048
2049
2051
2052
2051
2049
2047
2043
2039
2034
2028
2023
2019
2017
2015
2013
2012
2009
2007
2004
2002
1999
1997
1995
1993
1992
1991
1989
1986
1983
1981
1979
1978
1977
1975
1974
1972
1972
1971
1972
1973
1973
1973
1973
1973
1974
1976
1977
1978
1979
1979
1980
1981
1983
1985
1986
1988
1988
1989
1990
1991
1993
1995
1998
2000
2003
2004
2004
2004
2004
2004
2005
2006
2007
2008
2009
2009
2009
2009
2010
2012
2015
2018
2020
2022
2023
2025
2025
2027
2028
2029
2029
2029
2031
2032
2034
2035
2035
2035
2035
2034
2035
2036
2038
2039
2042
2042
2041
2041
2046
2056
2068
2077
2082
2084
2084
2083
2080
2073
2066
2060
2060
2064
2071
2077
2079
2080
2080
2081
2081
2080
2080
2081
2083
2084
2084
2084
2083
2083
2084
2086
2087
2088
2089
2089
2089
2088
2088
2088
2089
2090
2092
2093
2094
2095
2095
2095
2096
2096
2096
2095
2093
2091
2090
2090
2089
2088
2086
2084
2083
2083
2083
2083
2082
2080
2077
2075
2072
2071
2069
2068
2068
2068
2066
2065
2063
2063
2064
2066
2069
2070
2070
2069
2068
2068
2068
2070
2070
2070
2070
2071
2072
2072
2072
2072
2070
2069
2068
2068
2068
2067
2067
2066
2067
2067
2066
2066
2064
2063
2061
2061
2061
2062
2063
2063
2062
2059
2057
2054
2053
2053
2055
2056
2056
2055
2054
2053
2052
2052
2053
2053
2053
2054
2053
2055
2055
2056
2055
2054
2052
2051
2054
2062
2072
2079
2081
2080
2077
2076
2074
2069
2061
2053
2049
2051
2056
2062
2065
2063
2060
2059
2060
2060
2060
2059
2060
2060
2060
2059
2059
2059
2060
2062
2064
2065
2066
2067
2067
2068
2070
2072
2075
2078
2082
2085
2088
2092
2095
2099
2102
2105
2109
2112
2117
2121
2125
2128
2131
2133
2135
2137
2138
2139
2140
2140
2139
2137
2135
2132
2130
2129
2130
2130
2130
2130
2129
2128
2128
2127
2128
2128
2129
2129
2130
2130
2130
2131
2130
2131
2130
2130
2130
2129
2130
2130
2131
2132
2131
2128
2126
2124
2122
2123
2122
2121
2119
2116
2114
2111
2109
2107
2106
2104
2101
2098
2093
2088
2083
2079
2076
2073
2071
2068
2067
2067
2068
2071
2071
2071
2069
2068
2069
2069
2072
2072
2071
2069
2067
2066
2066
2067
2068
2067
2065
2064
2066
2073
2081
2085
2086
2089
2092
2097
2098
2092
2079
2066
2060
2062
2069
2074
2074
2070
2065
2067
2068
2069
2070
2070
2070
2069
2070
2070
2071
2071
2071
2071
2071
2072
2072
2073
2074
2076
2077
2077
2077
2077
2078
2080
2083
2086
2087
2088
2088
2089
2089
2091
2092
2092
2092
2092
2093
2094
2095
2096
2095
2094
2093
2092
2091
2090
2089
2088
2088
2087
2086
2084
2082
2081
2082
2083
2084
2084
2083
2082
2081
2080
2080
2080
2081
2082
2082
2082
2082
2082
2083
2084
2084
2084
2084
2085
2085
2086
2087
2089
2089
2089
2087
2086
2085
2086
2087
2088
2088
2087
2085
2083
2081
2080
2079
2078
2077
2076
2075
2075
2074
2073
2072
2071
2070
2071
2072
2072
2071
2069
2067
2066
2064
2063
2061
2060
2061
2062
2063
2063
2061
2058
2056
2054
2052
2050
2049
2054
2064
2072
2075
2076
2076
2076
2076
2071
2061
2048
2038
2034
2037
2042
2045
2041
2035
2031
2030
2029
2028
2028
2027
2025
2023
2020
2018
2017
2017
2016
2016
2015
2014
2013
2012
2011
2010
2009
2008
2007
2006
2006
2005
2004
2003
2003
2003
2003
2003
2002
2002
2003
2003
2003
2001
1999
1997
1995
1994
1993
1992
1991
1990
1988
1986
1984
1982
1980
1979
1977
1977
1976
1974
1973
1971
1970
1970
1970
1969
1967
1966
1965
1964
1964
1964
1963
1962
1961
1961
1961
1962
1962
1962
1962
1962
1964
1965
1967
1968
1970
1971
1972
1973
1974
1975
1977
1978
1980
1982
1984
1986
1986
1988
1990
1993
1996
1999
2000
2001
2002
2004
2006
2007
2008
2009
2010
2012
2013
2014
2016
2017
2019
2021
2022
2024
2025
2026
2026
2029
2030
2031
2032
2032
2033
2035
2039
2044
2047
2049
2051
2052
2052
2053
2057
2065
2075
2082
2085
2088
2092
2097
2099
2095
2084
2071
2063
2064
2071
2078
2082
2082
2079
2078
2078
2077
2078
2080
2083
2086
2088
2089
2090
2090
2090
2092
2092
2093
2094
2096
2097
2098
2099
2100
2101
2102
2102
2103
2105
2107
2108
2111
2113
2114
2116
2115
2115
2116
2116
2118
2118
2117
2115
2112
2111
2110
2110
2109
2108
2106
2104
2102
2099
2096
2094
2091
2089
2088
2087
2087
2086
2086
2085
2084
2084
2083
2083
2084
2084
2084
2084
2085
2085
2085
2084
2084
2084
2085
2086
2088
2089
2089
2089
2089
2089
2090
2091
2092
2092
2093
2093
2094
2095
2096
2097
2098
2098
2099
2099
2100
2100
2102
2103
2104
2105
2105
2106
2107
2108
2109
2111
2112
2113
2114
2116
2117
2118
2119
2121
2123
2124
2125
2125
2126
2127
2127
2128
2127
2127
2126
2126
2127
2128
2129
2130
2130
2129
2129
2129
2130
2132
2132
2131
2128
2128
2133
2142
2150
2154
2157
2158
2158
2160
2156
2146
2135
2126
2125
2129
2136
2139
2137
2133
2133
2135
2135
2136
2133
2132
2131
2130
2131
2132
2131
2131
2130
2130
2130
2130
2130
2130
2131
2132
2132
2132
2132
2132
2132
2132
2134
2134
2134
2133
2133
2134
2136
2138
2139
2137
2135
2133
2132
2131
2131
2130
2128
2126
2124
2122
2121
2119
2116
2114
2111
2108
2106
2104
2101
2100
2098
2098
2097
2097
2096
2095
2095
2095
2095
2095
2094
2093
2092
2091
2091
2092
2092
2092
2091
2091
2090
2090
2091
2091
2091
2091
2089
2088
2087
2087
2087
2087
2086
2086
2085
2083
2082
2082
2083
2083
2084
2084
2083
2081
2080
2079
2080
2079
2079
2079
2080
2080
2080
2079
2079
2078
2079
2079
2079
2079
2078
2077
2076
2076
2075
2075
2074
2073
2073
2073
2074
2075
2075
2075
2074
2072
2069
2068
2073
2084
2094
2101
2105
2105
2102
2098
2091
2081
2070
2063
2064
2070
2078
2081
2080
2076
2074
2074
2073
2073
2073
2075
2076
2078
2078
2077
2076
2074
2074
2075
2075
2076
2076
2076
2077
2077
2078
2079
2080
2081
2082
2082
2083
2084
2085
2086
2087
2087
2088
2087
2087
2088
2088
2089
2089
2088
2086
2084
2082
2081
2080
2078
2077
2075
2073
2071
2068
2065
2063
2061
2061
2060
2059
2059
2059
2058
2057
2057
2056
2056
2055
2055
2055
2055
2056
2057
2058
2058
2058
2058
2057
2057
2057
2057
2058
2058
2057
2057
2057
2058
2058
2058
2057
2057
2057
2056
2056
2055
2055
2055
2055
2054
2052
2052
2053
2055
2057
2058
2056
2053
2051
2051
2052
2053
2052
2052
2051
2050
2051
2052
2053
2053
2052
2051
2050
2050
2049
2049
2049
2050
2051
2051
2050
2048
2048
2048
2051
2054
2053
2050
2048
2053
2063
2072
2079
2083
2084
2083
2080
2073
2062
2051
2046
2048
2053
2061
2064
2062
2058
2058
2059
2060
2060
2060
2059
2058
2058
2059
2061
2062
2062
2061
2061
2061
2063
2064
2066
2066
2066
2066
2067
2068
2070
2072
2073
2074
2074
2074
2075
2076
2078
2079
2080
2080
2080
2078
2076
2075
2075
2076
2077
2077
2074
2071
2068
2065
2063
2061
2060
2058
2057
2055
2054
2052
2050
2049
2048
2048
2048
2048
2048
2048
2048
2048
2048
2048
2048
2047
2048
2048
2050
2052
2053
2052
2051
2050
2049
2050
2050
2050
2050
2051
2051
2051
2050
2050
2049
2048
2048
2048
2048
2047
2047
2047
2047
2046
2045
2044
2043
2042
2043
2044
2046
2047
2046
2044
2043
2042
2043
2044
2044
2044
2044
2044
2044
2044
2044
2044
2044
2045
2045
2046
2046
2045
2044
2043
2043
2043
2043
2042
2042
2042
2044
2046
2047
2047
2046
2043
2040
2039
2043
2051
2061
2066
2069
2072
2074
2075
2072
2064
2052
2041
2037
2042
2048
2054
2054
2051
2048
2048
2048
2048
2048
2049
2050
2052
2051
2050
2049
2048
2048
2049
2050
2050
2051
2051
2051
2051
2052
2052
2053
2054
2056
2056
2057
2058
2058
2058
2060
2061
2062
2062
2062
2061
2061
2063
2064
2064
2063
2060
2058
2057
2057
2056
2055
2053
2050
2048
2046
2044
2042
2041
2039
2038
2036
2036
2035
2035
2034
2035
2036
2036
2035
2034
2034
2035
2037
2039
2040
2040
2039
2038
2037
2039
2039
2040
2039
2039
2040
2040
2041
2041
2042
2043
2043
2043
2043
2043
2043
2043
2043
2044
2043
2043
2041
2041
2041
2043
2046
2047
2047
2046
2045
2044
2043
2045
2044
2044
2044
2044
2045
2046
2046
2047
2047
2047
2046
2046
2047
2048
2048
2050
2050
2048
2047
2045
2044
2044
2046
2048
2049
2049
2048
2048
2047
2047
2048
2049
2050
2048
2047
2048
2053
2063
2070
2074
2075
2076
2078
2079
2076
2066
2055
2047
2047
2050
2058
2062
2062
2060
2061
2063
2063
2062
2060
2059
2059
2060
2061
2061
2062
2063
2064
2065
2065
2065
2065
2066
2066
2067
2069
2070
2071
2071
2073
2074
2075
2075
2075
2076
2078
2080
2082
2084
2083
2083
2082
2081
2081
2082
2082
2082
2081
2080
2079
2078
2077
2076
2074
2071
2069
2067
2066
2064
2063
2061
2060
2060
2059
2058
2058
2058
2059
2060
2060
2060
2059
2058
2058
2059
2060
2061
2062
2062
2062
2062
2062
2061
2061
2062
2063
2063
2064
2064
2063
2063
2062
2062
2062
2061
2061
2061
2062
2063
2064
2065
2064
2063
2062
2062
2062
2063
2063
2063
2063
2062
2062
2062
2062
2063
2063
2063
2064
2064
2064
2063
2064
2063
2064
2064
2063
2063
2062
2064
2066
2068
2069
2068
2066
2063
2062
2062
2063
2064
2064
2064
2064
2064
2064
2064
2065
2066
2065
2063
2062
2065
2073
2082
2087
2090
2091
2093
2094
2092
2084
2072
2061
2057
2062
2069
2074
2076
2071
2069
2069
2069
2068
2068
2068
2069
2069
2069
2070
2070
2070
2070
2070
2070
2070
2071
2072
2073
2073
2073
2073
2073
2074
2076
2078
2080
2080
2080
2080
2080
2080
2082
2082
2082
2082
2083
2083
2084
2084
2083
2082
2081
2079
2078
2077
2076
2075
2073
2072
2070
2067
2064
2062
2060
2059
2059
2058
2058
2057
2056
2055
2054
2055
2055
2055
2054
2055
2055
2056
2056
2056
2056
2056
2056
2056
2056
2057
2058
2058
2058
2058
2057
2056
2056
2056
2056
2057
2058
2058
2057
2056
2055
2054
2054
2054
2054
2054
2053
2054
2054
2054
2054
2053
2053
2053
2053
2053
2054
2054
2053
2053
2053
2053
2052
2052
2052
2053
2055
2057
2058
2057
2055
2053
2052
2052
2052
2053
2053
2053
2053
2053
2053
2054
2054
2054
2054
2054
2051
2050
2050
2056
2066
2073
2076
2077
2077
2079
2081
2079
2071
2059
2049
2048
2051
2057
2062
2062
2058
2057
2058
2059
2059
2059
2058
2058
2058
2059
2059
2060
2060
2060
2060
2061
2062
2062
2063
2063
2063
2065
2067
2069
2071
2071
2071
2070
2071
2071
2073
2074
2075
2076
2077
2078
2079
2079
2079
2078
2078
2077
2076
2075
2074
2073
2071
2071
2069
2066
2063
2059
2058
2057
2058
2058
2057
2053
2050
2048
2048
2049
2051
2050
2050
2050
2049
2049
2049
2050
2050
2051
2052
2052
2052
2051
2051
2051
2052
2052
2052
2051
2051
2050
2051
2052
2053
2054
2053
2052
2050
2049
2049
2049
2049
2048
2048
2048
2048
2048
2048
2049
2049
2049
2049
2048
2048
2047
2047
2047
2047
2047
2047
2047
2047
2048
2048
2049
2049
2048
2046
2045
2044
2044
2045
2045
2045
2045
2045
2045
2045
2046
2047
2047
2045
2042
2041
2046
2056
2066
2072
2076
2076
2073
2068
2061
2051
2043
2038
2040
2047
2052
2056
2055
2050
2050
2050
2051
2051
2051
2051
2051
2051
2052
2053
2054
2055
2056
2057
2058
2059
2060
2061
2062
2063
2063
2064
2065
2067
2069
2072
2074
2075
2075
2075
2075
2076
2078
2079
2080
2081
2081
2082
2082
2082
2081
2081
2081
2080
2079
2078
2077
2076
2075
2073
2071
2068
2066
2064
2064
2064
2065
2065
2065
2063
2062
2062
2062
2062
2062
2063
2063
2063
2064
2064
2064
2064
2065
2065
2066
2067
2067
2067
2067
2068
2067
2067
2067
2066
2066
2067
2068
2069
2069
2068
2067
2066
2065
2066
2066
2066
2066
2066
2066
2066
2065
2064
2063
2063
2063
2064
2063
2063
2063
2063
2063
2063
2063
2063
2062
2061
2061
2062
2062
2063
2062
2060
2059
2059
2059
2060
2060
2061
2062
2061
2058
2056
2058
2066
2078
2086
2091
2092
2088
2083
2077
2068
2059
2051
2049
2054
2061
2067
2069
2067
2065
2066
2065
2064
2063
2062
2064
2065
2065
2064
2063
2063
2064
2067
2070
2070
2069
2067
2066
2066
2068
2070
2071
2071
2072
2072
2073
2073
2073
2075
2077
2079
2080
2079
2079
2078
2078
2078
2078
2078
2077
2076
2075
2074
2073
2071
2070
2069
2067
2065
2063
2060
2058
2056
2055
2055
2053
2051
2050
2049
2050
2051
2053
2053
2052
2050
2049
2049
2050
2051
2050
2050
2050
2050
2051
2051
2052
2052
2052
2052
2052
2051
2051
2051
2050
2051
2052
2052
2051
2049
2048
2048
2049
2050
2051
2051
2051
2050
2048
2048
2048
2048
2048
2048
2048
2048
2047
2047
2047
2048
2048
2048
2048
2048
2048
2047
2046
2048
2047
2047
2045
2045
2045
2047
2049
2051
2052
2050
2047
2043
2043
2049
2059
2067
2072
2076
2079
2081
2080
2073
2061
2048
2040
2042
2048
2056
2060
2058
2054
2054
2054
2053
2053
2053
2054
2055
2056
2057
2057
2056
2056
2056
2056
2057
2058
2058
2059
2060
2061
2062
2063
2064
2065
2065
2066
2066
2068
2068
2070
2070
2071
2071
2071
2071
2072
2072
2072
2072
2072
2071
2069
2067
2065
2064
2064
2062
2061
2059
2056
2055
2052
2050
2049
2048
2047
2047
2046
2046
2045
2045
2044
2044
2044
2044
2043
2043
2045
2046
2047
2048
2047
2046
2045
2044
2044
2045
2045
2046
2046
2046
2046
2046
2045
2045
2045
2045
2046
2046
2046
2045
2045
2044
2045
2044
2044
2045
2044
2044
2044
2045
2045
2046
2045
2044
2043
2042
2043
2044
2045
2046
2045
2045
2044
2043
2042
2042
2043
2043
2043
2043
2043
2043
2043
2043
2044
2045
2045
2043
2040
2042
2048
2058
2065
2070
2074
2077
2081
2082
2075
2061
2047
2037
2037
2044
2051
2055
2053
2049
2048
2049
2048
2048
2048
2048
2048
2050
2050
2050
2049
2049
2050
2051
2053
2055
2055
2054
2053
2053
2054
2056
2056
2057
2058
2059
2061
2062
2063
2064
2065
2065
2066
2066
2066
2066
2066
2065
2066
2066
2065
2063
2062
2060
2060
2059
2059
2057
2054
2051
2048
2046
2045
2043
2042
2041
2041
2040
2039
2039
2038
2038
2037
2037
2038
2038
2039
2039
2039
2040
2040
2039
2038
2037
2038
2039
2042
2044
2045
2044
2041
2039
2038
2039
2040
2040
2041
2040
2040
2041
2040
2040
2040
2040
2039
2039
2039
2039
2039
2039
2039
2039
2039
2038
2038
2037
2038
2040
2041
2041
2040
2039
2038
2038
2039
2040
2041
2041
2041
2039
2038
2038
2038
2039
2039
2038
2038
2038
2039
2040
2040
2041
2041
2038
2036
2035
2041
2050
2060
2065
2070
2072
2074
2074
2069
2059
2046
2036
2035
2042
2048
2053
2052
2048
2047
2047
2048
2048
2048
2048
2048
2048
2048
2048
2048
2048
2048
2048
2049
2051
2052
2052
2052
2051
2051
2051
2052
2054
2055
2056
2056
2057
2057
2058
2059
2060
2061
2061
2062
2063
2063
2063
2063
2063
2063
2062
2061
2061
2060
2059
2059
2059
2058
2056
2052
2050
2048
2047
2047
2046
2045
2044
2043
2043
2042
2042
2043
2043
2044
2044
2044
2044
2044
2043
2043
2044
2045
2045
2046
2045
2044
2045
2047
2049
2051
2051
2049
2048
2046
2045
2046
2046
2046
2045
2045
2045
2045
2045
2045
2045
2046
2046
2046
2046
2046
2045
2045
2046
2046
2047
2046
2046
2045
2046
2047
2047
2047
2046
2046
2046
2046
2047
2047
2046
2045
2045
2044
2044
2045
2045
2045
2045
2045
2045
2045
2045
2046
2046
2046
2043
2042
2045
2052
2062
2069
2074
2078
2080
2081
2077
2067
2053
2044
2039
2043
2049
2056
2057
2053
2051
2051
2051
2051
2050
2050
2050
2050
2051
2052
2053
2054
2054
2053
2053
2053
2054
2055
2057
2058
2058
2058
2057
2057
2058
2059
2061
2062
2063
2064
2065
2066
2066
2066
2066
2066
2066
2066
2065
2064
2062
2061
2061
2062
2062
2060
2057
2054
2052
2050
2049
2048
2045
2041
2039
2038
2037
2037
2036
2036
2036
2035
2035
2034
2033
2032
2032
2034
2035
2035
2035
2035
2035
2035
2036
2036
2036
2036
2037
2038
2040
2041
2041
2040
2040
2040
2039
2040
2040
2041
2041
2041
2040
2040
2040
2039
2040
2040
2041
2042
2042
2042
2042
2041
2042
2042
2042
2042
2042
2042
2043
2044
2045
2045
2045
2044
2043
2043
2043
2044
2045
2045
2046
2046
2046
2047
2048
2048
2050
2051
2050
2048
2048
2052
2062
2075
2084
2089
2090
2087
2081
2073
2063
2053
2048
2049
2056
2064
2068
2068
2064
2063
2064
2064
2065
2066
2067
2068
2069
2069
2070
2070
2070
2071
2071
2072
2073
2073
2074
2074
2073
2074
2076
2079
2081
2082
2082
2081
2082
2082
2084
2085
2085
2086
2086
2086
2086
2087
2086
2086
2085
2084
2083
2082
2080
2079
2078
2076
2075
2073
2070
2067
2064
2062
2061
2061
2060
2059
2057
2056
2055
2056
2057
2056
2056
2055
2054
2054
2055
2055
2055
2055
2054
2053
2053
2053
2053
2053
2053
2054
2053
2054
2052
2051
2051
2052
2054
2056
2056
2055
2053
2051
2049
2050
2049
2049
2049
2048
2048
2048
2048
2048
2048
2048
2048
2048
2048
2048
2048
2047
2048
2048
2048
2048
2048
2048
2048
2048
2049
2049
2048
2047
2046
2045
2046
2047
2047
2047
2048
2048
2048
2047
2046
2047
2053
2063
2070
2074
2078
2079
2080
2078
2070
2057
2045
2039
2043
2051
2059
2063
2060
2056
2054
2054
2054
2054
2055
2055
2055
2056
2056
2057
2057
2057
2057
2057
2057
2058
2059
2060
2060
2060
2061
2061
2062
2062
2063
2064
2066
2067
2069
2071
2071
2071
2070
2071
2071
2072
2072
2071
2071
2070
2069
2068
2067
2066
2066
2065
2064
2062
2059
2056
2054
2051
2050
2048
2047
2046
2045
2045
2045
2046
2046
2045
2044
2043
2042
2042
2043
2042
2042
2041
2041
2041
2042
2042
2042
2042
2042
2042
2042
2042
2042
2042
2042
2043
2043
2043
2042
2042
2042
2042
2044
2044
2043
2041
2040
2040
2040
2041
2041
2040
2039
2038
2037
2037
2037
2037
2037
2037
2037
2037
2037
2036
2036
2036
2036
2037
2037
2037
2036
2035
2036
2038
2040
2042
2041
2039
2036
2035
2034
2034
2034
2035
2034
2035
2036
2036
2037
2038
2037
2035
2033
2036
2044
2052
2057
2060
2064
2067
2071
2070
2062
2049
2037
2033
2036
2043
2048
2049
2046
2042
2043
2043
2044
2044
2044
2045
2045
2046
2046
2047
2047
2047
2047
2047
2047
2048
2048
2049
2050
2051
2051
2051
2051
2053
2055
2057
2058
2058
2058
2058
2058
2060
2061
2062
2063
2064
2064
2065
2065
2064
2064
2063
2062
2061
2060
2059
2058
2056
2055
2053
2050
2048
2046
2044
2043
2043
2043
2042
2041
2039
2038
2038
2038
2039
2039
2040
2040
2041
2041
2041
2041
2040
2040
2040
2040
2041
2041
2042
2042
2042
2042
2042
2041
2041
2041
2042
2044
2045
2045
2044
2043
2041
2040
2041
2041
2042
2042
2042
2041
2041
2042
2042
2042
2042
2042
2041
2041
2041
2042
2042
2044
2044
2044
2043
2043
2044
2045
2047
2048
2048
2048
2047
2048
2048
2048
2048
2048
2047
2048
2047
2047
2047
2047
2047
2047
2048
2048
2048
2049
2050
2048
2047
2047
2051
2060
2068
2072
2075
2078
2080
2081
2077
2066
2053
2045
2044
2049
2057
2062
2062
2059
2057
2058
2058
2059
2060
2060
2061
2061
2061
2061
2061
2061
2063
2063
2063
2063
2063
2064
2065
2068
2069
2069
2068
2067
2067
2068
2070
2071
2072
2073
2073
2074
2074
2076
2076
2077
2078
2078
2077
2077
2075
2074
2074
2073
2072
2071
2069
2066
2064
2062
2061
2059
2057
2055
2053
2051
2048
2048
2046
2047
2048
2049
2049
2048
2047
2046
2046
2047
2047
2048
2047
2047
2047
2047
2048
2048
2048
2048
2048
2048
2048
2048
2050
2050
2050
2049
2048
2048
2048
2049
2049
2048
2048
2047
2047
2048
2048
2048
2049
2048
2048
2047
2047
2047
2048
2048
2048
2047
2048
2047
2047
2047
2048
2050
2052
2053
2052
2050
2049
2048
2048
2048
2049
2050
2050
2051
2052
2052
2051
2051
2050
2049
2048
2048
2049
2050
2051
2052
2051
2050
2049
2048
2048
2048
2048
2051
2059
2070
2076
2077
2076
2074
2074
2072
2068
2059
2049
2045
2047
2053
2060
2064
2063
2060
2059
2060
2059
2059
2060
2060
2060
2060
2059
2058
2059
2061
2064
2066
2066
2065
2063
2062
2063
2064
2066
2067
2069
2071
2072
2073
2073
2073
2074
2075
2078
2080
2082
2083
2083
2083
2084
2084
2085
2085
2085
2085
2085
2086
2085
2084
2081
2079
2076
2075
2074
2074
2072
2071
2069
2068
2066
2066
2066
2067
2067
2068
2068
2068
2068
2068
2069
2070
2070
2070
2070
2070
2070
2072
2073
2074
2074
2073
2073
2073
2074
2075
2075
2075
2075
2075
2075
2075
2075
2074
2075
2075
2076
2076
2077
2077
2077
2076
2077
2077
2078
2078
2077
2077
2078
2079
2078
2079
2078
2077
2078
2078
2080
2080
2079
2078
2077
2077
2077
2078
2079
2081
2081
2082
2082
2082
2082
2083
2082
2081
2080
2082
2091
2102
2111
2117
2120
2119
2115
2106
2094
2082
2074
2074
2081
2090
2098
2099
2096
2094
2095
2097
2097
2098
2098
2098
2098
2099
2100
2101
2102
2104
2104
2104
2103
2103
2104
2107
2110
2111
2111
2110
2109
2108
2110
2112
2113
2114
2115
2115
2116
2118
2119
2120
2120
2119
2119
2118
2118
2117
2117
2116
2114
2113
2110
2106
2103
2100
2100
2100
2100
2099
2095
2092
2088
2086
2086
2085
2085
2084
2084
2084
2084
2083
2083
2082
2081
2081
2081
2081
2081
2081
2081
2082
2081
2081
2079
2078
2078
2079
2081
2083
2083
2082
2080
2078
2076
2076
2076
2076
2076
2076
2075
2075
2074
2073
2073
2072
2072
2072
2072
2071
2071
2071
2070
2070
2070
2069
2068
2067
2068
2069
2070
2069
2068
2065
2063
2062
2062
2063
2063
2063
2063
2062
2062
2062
2060
2058
2057
2059
2067
2075
2079
2082
2084
2087
2088
2085
2075
2060
2048
2046
2051
2060
2067
2067
2061
2056
2055
2055
2056
2056
2057
2057
2057
2057
2056
2056
2055
2056
2057
2057
2058
2058
2058
2059
2059
2060
2060
2061
2060
2061
2061
2063
2065
2066
2066
2065
2065
2065
2065
2067
2068
2068
2067
2066
2064
2063
2062
2061
2060
2059
2057
2055
2051
2049
2047
2043
2041
2038
2036
2034
2032
2031
2031
2031
2031
2032
2030
2029
2028
2027
2028
2027
2027
2026
2025
2025
2025
2026
2026
2027
2028
2028
2028
2028
2028
2028
2028
2028
2029
2030
2030
2029
2028
2028
2029
2031
2033
2034
2032
2031
2029
2029
2031
2031
2032
2031
2031
2031
2032
2032
2033
2033
2033
2033
2033
2034
2035
2036
2036
2036
2035
2035
2034
2034
2034
2035
2036
2037
2037
2037
2037
2037
2038
2039
2039
2037
2035
2038
2046
2056
2063
2068
2073
2077
2080
2079
2071
2056
2042
2034
2037
2045
2051
2054
2050
2048
2048
2049
2050
2051
2051
2050
2050
2049
2050
2051
2051
2052
2053
2054
2055
2055
2056
2057
2057
2058
2060
2060
2062
2063
2064
2066
2066
2068
2068
2069
2070
2072
2074
2076
2078
2078
2077
2076
2075
2076
2076
2076
2076
2076
2075
2074
2071
2070
2067
2066
2064
2062
2061
2059
2059
2058
2058
2057
2056
2056
2055
2055
2056
2058
2060
2061
2060
2059
2058
2057
2059
2059
2060
2061
2061
2062
2062
2062
2063
2063
2063
2064
2064
2064
2063
2063
2062
2064
2065
2066
2066
2064
2062
2062
2062
2064
2064
2064
2062
2061
2061
2062
2063
2064
2064
2064
2064
2064
2064
2064
2064
2063
2063
2064
2064
2064
2064
2065
2064
2064
2063
2062
2062
2062
2063
2065
2065
2064
2062
2061
2060
2061
2063
2064
2063
2061
2063
2070
2079
2086
2089
2090
2091
2094
2096
2092
2081
2068
2060
2059
2066
2073
2077
2074
2070
2070
2072
2074
2075
2074
2073
2071
2071
2072
2074
2074
2075
2076
2076
2077
2077
2077
2077
2077
2079
2080
2081
2082
2083
2083
2084
2085
2086
2087
2089
2088
2089
2089
2091
2093
2094
2094
2093
2090
2088
2087
2088
2088
2088
2086
2085
2083
2081
2079
2078
2076
2074
2072
2069
2067
2065
2063
2062
2062
2063
2063
2063
2062
2062
2061
2062
2062
2062
2062
2061
2061
2062
2062
2062
2062
2062
2061
2062
2062
2063
2064
2063
2062
2061
2060
2060
2061
2061
2061
2061
2061
2059
2058
2056
2056
2056
2057
2058
2059
2059
2058
2057
2056
2056
2055
2055
2055
2056
2056
2057
2057
2057
2056
2055
2054
2054
2053
2053
2053
2053
2052
2051
2051
2050
2051
2052
2054
2053
2051
2050
2052
2061
2071
2078
2084
2085
2083
2078
2069
2057
2046
2040
2041
2048
2056
2061
2059
2054
2052
2052
2052
2053
2053
2053
2053
2052
2053
2054
2056
2057
2057
2057
2056
2056
2056
2057
2058
2059
2060
2061
2062
2063
2064
2065
2067
2068
2069
2070
2071
2072
2072
2073
2073
2073
2073
2072
2072
2071
2070
2071
2071
2070
2068
2065
2062
2059
2056
2056
2054
2053
2051
2049
2048
2046
2045
2044
2044
2044
2044
2044
2044
2044
2044
2044
2044
2044
2044
2044
2045
2046
2047
2048
2048
2048
2047
2047
2047
2048
2049
2050
2050
2049
2049
2048
2049
2050
2050
2051
2051
2050
2050
2051
2051
2051
2050
2050
2049
2049
2048
2048
2048
2049
2050
2050
2051
2050
2048
2049
2048
2048
2047
2046
2045
2045
2046
2046
2047
2047
2047
2047
2047
2048
2048
2047
2044
2043
2046
2053
2062
2068
2071
2073
2074
2076
2074
2066
2053
2043
2039
2043
2050
2056
2057
2054
2051
2051
2052
2052
2053
2053
2054
2054
2053
2054
2054
2054
2055
2056
2056
2056
2057
2056
2057
2058
2061
2063
2064
2064
2064
2064
2064
2065
2066
2067
2068
2068
2069
2069
2070
2071
2071
2071
2070
2068
2067
2067
2066
2066
2065
2064
2061
2059
2056
2052
2050
2050
2051
2051
2051
2048
2046
2044
2042
2042
2042
2042
2043
2043
2043
2043
2043
2043
2043
2044
2044
2044
2044
2044
2045
2045
2046
2046
2046
2045
2044
2045
2046
2047
2048
2048
2048
2046
2044
2043
2043
2043
2043
2044
2044
2045
2045
2044
2044
2044
2043
2043
2043
2042
2042
2043
2043
2044
2045
2045
2043
2042
2041
2042
2043
2044
2044
2043
2042
2041
2040
2041
2041
2043
2044
2045
2043
2041
2041
2046
2055
2062
2066
2069
2072
2077
2080
2077
2066
2051
2041
2038
2043
2050
2056
2057
2054
2053
2052
2051
2051
2050
2051
2052
2052
2053
2054
2054
2054
2054
2054
2054
2055
2056
2057
2058
2058
2058
2059
2059
2060
2061
2061
2062
2063
2064
2066
2067
2068
2068
2068
2067
2067
2068
2069
2069
2069
2067
2067
2065
2064
2063
2061
2060
2058
2056
2054
2052
2049
2048
2046
2045
2044
2043
2043
2042
2042
2042
2043
2043
2043
2042
2041
2041
2042
2043
2043
2043
2043
2042
2043
2043
2044
2044
2045
2045
2045
2045
2045
2044
2044
2043
2043
2044
2044
2045
2043
2042
2042
2043
2045
2047
2047
2046
2044
2043
2042
2043
2043
2044
2043
2043
2043
2043
2043
2044
2044
2045
2046
2045
2045
2044
2043
2043
2044
2044
2044
2044
2044
2044
2044
2045
2046
2046
2047
2045
2042
2040
2043
2051
2062
2069
2071
2073
2075
2078
2080
2075
2062
2048
2038
2038
2045
2053
2057
2056
2052
2051
2051
2050
2050
2051
2052
2054
2054
2054
2053
2052
2052
2052
2053
2054
2055
2056
2057
2057
2058
2058
2058
2059
2059
2060
2061
2062
2063
2064
2066
2066
2066
2066
2066
2066
2067
2068
2070
2070
2069
2068
2067
2065
2064
2063
2062
2060
2058
2057
2055
2052
2050
2048
2046
2045
2044
2043
2042
2042
2042
2042
2042
2041
2040
2040
2040
2041
2043
2044
2045
2044
2043
2042
2042
2043
2044
2045
2045
2044
2044
2044
2044
2044
2044
2044
2044
2044
2044
2044
2044
2043
2043
2042
2042
2041
2040
2040
2041
2042
2043
2044
2043
2042
2041
2040
2041
2042
2042
2043
2043
2043
2042
2042
2041
2042
2042
2043
2043
2043
2042
2041
2040
2040
2040
2039
2039
2040
2040
2042
2043
2043
2044
2042
2039
2037
2037
2043
2052
2061
2065
2067
2069
2070
2072
2068
2058
2046
2035
2034
2039
2047
2051
2050
2047
2046
2046
2046
2046
2046
2047
2048
2048
2049
2048
2048
2048
2048
2048
2049
2049
2049
2050
2051
2052
2053
2053
2053
2053
2054
2055
2056
2058
2058
2059
2059
2060
2061
2062
2062
2062
2062
2062
2063
2064
2063
2062
2060
2059
2057
2056
2054
2052
2050
2048
2046
2044
2043
2041
2040
2039
2037
2036
2034
2034
2034
2034
2034
2035
2034
2034
2034
2034
2034
2035
2036
2037
2036
2036
2035
2035
2035
2036
2036
2036
2036
2036
2036
2037
2038
2039
2039
2038
2037
2036
2036
2036
2037
2037
2037
2037
2037
2036
2035
2035
2036
2037
2039
2039
2039
2037
2035
2034
2034
2034
2036
2036
2037
2036
2035
2034
2034
2034
2034
2034
2035
2035
2035
2036
2036
2037
2036
2036
2036
2034
2032
2032
2038
2048
2058
2064
2066
2066
2063
2060
2055
2046
2036
2029
2028
2034
2041
2046
2046
2043
2041
2041
2042
2042
2042
2043
2043
2044
2044
2044
2044
2044
2045
2047
2048
2048
2048
2048
2048
2048
2048
2050
2051
2052
2053
2054
2055
2056
2057
2058
2059
2060
2061
2061
2062
2062
2061
2061
2061
2060
2059
2058
2057
2057
2057
2057
2055
2053
2049
2046
2044
2042
2042
2040
2039
2038
2037
2036
2035
2034
2034
2034
2035
2035
2036
2036
2036
2035
2035
2035
2035
2035
2036
2036
2037
2038
2040
2041
2040
2039
2038
2037
2037
2039
2040
2040
2040
2039
2039
2038
2038
2038
2039
2039
2039
2039
2038
2038
2037
2036
2037
2036
2036
2036
2036
2037
2038
2040
2041
2041
2039
2037
2036
2035
2036
2036
2036
2036
2036
2037
2037
2038
2038
2039
2039
2039
2037
2034
2037
2045
2055
2064
2069
2070
2067
2063
2058
2050
2041
2033
2031
2035
2043
2048
2050
2048
2045
2045
2046
2046
2046
2046
2047
2047
2047
2047
2048
2048
2048
2048
2049
2049
2050
2052
2052
2053
2053
2053
2054
2056
2058
2060
2060
2060
2060
2060
2061
2063
2064
2064
2064
2064
2065
2066
2066
2065
2064
2063
2062
2061
2060
2059
2057
2056
2054
2052
2050
2048
2045
2044
2043
2044
2043
2043
2041
2040
2039
2038
2038
2038
2038
2038
2038
2038
2038
2039
2039
2039
2039
2039
2039
2039
2040
2041
2041
2042
2042
2041
2040
2040
2040
2042
2044
2045
2045
2043
2042
2040
2040
2041
2041
2040
2040
2040
2040
2041
2041
2040
2039
2039
2039
2040
2041
2042
2042
2041
2041
2039
2038
2038
2038
2038
2039
2041
2042
2043
2042
2041
2040
2040
2040
2038
2037
2039
2046
2054
2060
2063
2065
2068
2073
2074
2070
2058
2045
2036
2037
2043
2050
2053
2050
2047
2046
2047
2048
2049
2051
2051
2049
2048
2048
2048
2049
2050
2051
2051
2051
2052
2052
2052
2053
2054
2055
2056
2056
2057
2057
2059
2061
2063
2064
2064
2063
2062
2062
2065
2066
2068
2067
2065
2064
2063
2063
2063
2062
2061
2059
2058
2056
2054
2052
2050
2048
2047
2045
2044
2042
2041
2040
2039
2038
2038
2038
2038
2039
2039
2040
2041
2041
2040
2040
2039
2039
2040
2040
2041
2041
2041
2041
2041
2042
2043
2044
2044
2043
2043
2042
2042
2042
2042
2042
2042
2042
2042
2042
2041
2041
2041
2042
2043
2043
2042
2041
2040
2040
2041
2040
2040
2040
2040
2040
2041
2042
2043
2042
2042
2041
2040
2040
2040
2040
2040
2040
2041
2041
2041
2040
2039
2041
2042
2041
2040
2040
2045
2054
2061
2065
2069
2070
2073
2075
2070
2059
2047
2037
2035
2041
2048
2052
2051
2048
2047
2048
2048
2048
2049
2048
2048
2048
2048
2048
2050
2052
2052
2051
2051
2051
2051
2052
2053
2053
2054
2055
2056
2057
2058
2058
2059
2059
2060
2062
2063
2064
2065
2066
2067
2067
2067
2066
2065
2065
2065
2067
2068
2068
2066
2062
2059
2057
2055
2053
2051
2049
2048
2047
2046
2045
2044
2043
2042
2042
2041
2041
2041
2042
2042
2043
2042
2041
2041
2041
2041
2043
2046
2047
2047
2046
2044
2043
2042
2043
2043
2044
2045
2045
2044
2044
2044
2044
2044
2044
2044
2043
2042
2042
2043
2043
2043
2043
2042
2041
2040
2040
2041
2043
2045
2045
2044
2042
2041
2040
2041
2043
2044
2045
2045
2045
2044
2042
2041
2041
2040
2041
2041
2041
2042
2042
2041
2041
2042
2043
2043
2041
2039
2041
2048
2059
2066
2069
2070
2071
2074
2075
2070
2059
2047
2038
2038
2044
2051
2055
2052
2049
2048
2048
2048
2048
2048
2049
2049
2049
2049
2050
2050
2051
2052
2053
2054
2055
2055
2055
2054
2054
2055
2056
2058
2058
2059
2059
2060
2062
2064
2066
2067
2068
2068
2068
2068
2068
2069
2068
2068
2068
2067
2067
2066
2065
2064
2064
2063
2062
2059
2056
2053
2050
2049
2048
2047
2045
2044
2043
2042
2042
2042
2043
2044
2044
2043
2042
2041
2041
2042
2042
2044
2043
2043
2042
2042
2043
2045
2046
2047
2047
2047
2046
2045
2045
2046
2045
2045
2044
2045
2046
2047
2047
2047
2046
2045
2045
2044
2044
2044
2044
2044
2046
2046
2045
2043
2042
2042
2043
2045
2046
2045
2044
2042
2041
2040
2040
2039
2039
2039
2040
2040
2041
2041
2040
2040
2041
2040
2038
2037
2039
2048
2058
2067
2071
2072
2069
2065
2059
2051
2042
2036
2035
2040
2046
2050
2051
2048
2047
2047
2047
2048
2048
2048
2048
2048
2048
2048
2048
2048
2049
2050
2051
2051
2052
2053
2053
2053
2054
2055
2057
2060
2062
2063
2063
2062
2062
2063
2064
2066
2067
2068
2068
2068
2067
2067
2067
2067
2067
2066
2064
2063
2062
2061
2060
2057
2055
2052
2049
2047
2045
2044
2044
2044
2043
2042
2040
2038
2037
2037
2038
2038
2039
2038
2038
2038
2038
2038
2038
2039
2039
2040
2040
2040
2040
2039
2039
2040
2041
2041
2041
2041
2041
2042
2042
2043
2042
2041
2040
2039
2038
2039
2039
2038
2038
2038
2039
2039
2039
2039
2038
2037
2037
2038
2039
2040
2039
2038
2038
2036
2036
2035
2036
2036
2036
2037
2038
2039
2038
2037
2037
2037
2039
2037
2036
2035
2040
2048
2058
2063
2067
2069
2069
2069
2063
2053
2042
2033
2032
2038
2046
2050
2050
2047
2045
2046
2047
2047
2047
2047
2046
2046
2046
2047
2048
2048
2048
2048
2048
2049
2050
2051
2052
2053
2053
2053
2054
2055
2056
2056
2057
2059
2060
2061
2060
2060
2062
2065
2068
2069
2068
2066
2064
2063
2063
2063
2062
2060
2058
2057
2055
2054
2052
2049
2047
2045
2042
2041
2039
2038
2038
2037
2037
2037
2036
2035
2034
2034
2035
2038
2039
2038
2036
2034
2034
2035
2038
2039
2039
2038
2036
2036
2036
2038
2038
2039
2038
2038
2038
2038
2038
2038
2038
2040
2039
2039
2038
2037
2037
2038
2040
2042
2043
2042
2040
2038
2037
2037
2039
2039
2040
2040
2039
2039
2040
2040
2041
2041
2041
2040
2040
2040
2040
2040
2041
2041
2040
2040
2039
2039
2040
2043
2046
2047
2044
2041
2040
2045
2055
2063
2067
2070
2071
2071
2071
2066
2055
2044
2036
2036
2043
2050
2055
2054
2050
2049
2050
2049
2050
2049
2049
2049
2051
2053
2055
2055
2054
2052
2052
2051
2054
2055
2056
2057
2057
2058
2058
2058
2059
2060
2061
2062
2064
2065
2066
2067
2066
2067
2068
2069
2069
2068
2068
2069
2069
2070
2069
2067
2064
2062
2060
2059
2057
2055
2053
2050
2048
2047
2044
2043
2041
2040
2039
2039
2039
2039
2039
2038
2038
2038
2038
2038
2039
2039
2040
2041
2042
2042
2041
2040
2040
2040
2041
2042
2042
2043
2042
2041
2040
2040
2040
2041
2043
2043
2043
2041
2040
2039
2039
2040
2040
2040
2040
2039
2039
2040
2040
2042
2042
2041
2040
2039
2040
2041
2041
2041
2041
2040
2040
2040
2040
2041
2041
2042
2042
2042
2041
2040
2039
2038
2038
2039
2040
2040
2039
2039
2039
2040
2041
2043
2042
2039
2037
2037
2043
2053
2059
2061
2061
2060
2060
2060
2056
2048
2038
2031
2032
2040
2048
2052
2050
2047
2046
2047
2048
2047
2047
2047
2048
2048
2050
2051
2050
2049
2048
2048
2049
2050
2051
2051
2052
2053
2054
2055
2056
2056
2056
2057
2058
2059
2060
2062
2062
2064
2064
2064
2064
2063
2064
2065
2067
2069
2069
2068
2066
2063
2061
2060
2059
2057
2055
2053
2051
2049
2047
2045
2043
2042
2041
2040
2040
2040
2040
2039
2040
2039
2038
2036
2035
2035
2036
2038
2040
2040
2039
2037
2035
2034
2035
2035
2035
2035
2035
2035
2036
2037
2037
2038
2038
2038
2038
2037
2037
2036
2035
2034
2035
2034
2034
2033
2032
2032
2034
2035
2037
2037
2036
2035
2034
2033
2035
2036
2036
2037
2038
2038
2038
2038
2039
2040
2040
2040
2040
2040
2041
2041
2042
2041
2041
2040
2039
2039
2040
2041
2042
2043
2043
2042
2042
2042
2043
2045
2045
2043
2042
2044
2050
2059
2064
2066
2067
2067
2069
2069
2063
2053
2043
2038
2041
2048
2055
2058
2055
2052
2052
2053
2054
2055
2055
2054
2053
2054
2054
2055
2056
2056
2056
2056
2056
2057
2057
2058
2060
2061
2062
2062
2061
2061
2061
2062
2063
2064
2065
2065
2065
2066
2067
2069
2069
2068
2067
2066
2065
2065
2065
2064
2063
2062
2061
2059
2058
2056
2053
2051
2048
2046
2043
2041
2039
2038
2036
2036
2035
2034
2033
2032
2031
2032
2033
2033
2033
2032
2030
2030
2029
2030
2029
2029
2028
2028
2029
2029
2030
2030
2029
2028
2027
2027
2027
2027
2026
2025
2026
2025
2025
2024
2023
2023
2023
2024
2025
2024
2023
2022
2021
2020
2020
2020
2021
2020
2020
2020
2020
2020
2020
2020
2020
2019
2019
2019
2019
2019
2019
2020
2020
2019
2018
2017
2016
2018
2020
2021
2021
2020
2018
2017
2017
2018
2019
2018
2017
2016
2017
2017
2017
2017
2016
2016
2016
2016
2016
2017
2018
2018
2017
2015
2015
2020
2028
2034
2036
2036
2035
2035
2034
2031
2024
2014
2009
2010
2016
2024
2029
2028
2024
2023
2023
2024
2025
2025
2026
2026
2026
2027
2027
2026
2027
2026
2027
2027
2027
2028
2030
2033
2034
2035
2034
2033
2033
2033
2036
2037
2039
2040
2041
2041
2042
2043
2044
2045
2046
2047
2047
2047
2047
2047
2046
2046
2045
2044
2043
2042
2041
2040
2039
2038
2035
2032
2029
2026
2025
2025
2025
2025
2024
2024
2023
2023
2022
2023
2023
2024
2023
2023
2023
2025
2027
2028
2029
2027
2026
2024
2024
2025
2027
2028
2028
2028
2027
2026
2025
2024
2025
2026
2026
2026
2025
2024
2023
2024
2023
2023
2024
2024
2024
2024
2024
2024
2024
2025
2025
2025
2025
2025
2024
2024
2026
2027
2028
2028
2027
2027
2026
2027
2027
2028
2029
2029
2030
2030
2030
2030
2029
2029
2028
2028
2028
2028
2028
2028
2029
2029
2029
2031
2030
2028
2026
2028
2036
2047
2054
2057
2057
2053
2049
2046
2040
2032
2024
2022
2026
2034
2042
2045
2043
2039
2038
2039
2039
2040
2040
2040
2041
2041
2042
2042
2042
2043
2044
2045
2046
2046
2046
2047
2047
2048
2049
2049
2050
2051
2052
2053
2054
2055
2056
2057
2057
2058
2058
2059
2060
2061
2061
2061
2061
2059
2057
2056
2055
2055
2055
2055
2055
2052
2048
2046
2042
2039
2038
2036
2035
2034
2033
2033
2032
2032
2031
2030
2030
2030
2030
2030
2031
2031
2031
2031
2030
2030
2030
2030
2031
2032
2033
2034
2033
2032
2031
2031
2032
2033
2034
2034
2034
2033
2032
2032
2032
2032
2032
2032
2032
2032
2033
2033
2033
2033
2034
2033
2033
2031
2031
2031
2032
2034
2035
2035
2034
2032
2032
2032
2033
2033
2033
2033
2032
2032
2032
2031
2032
2032
2033
2034
2035
2036
2037
2038
2036
2035
2035
2041
2049
2057
2061
2064
2066
2067
2065
2059
2048
2038
2032
2035
2043
2051
2055
2054
2050
2049
2050
2050
2050
2051
2052
2052
2052
2052
2051
2051
2051
2052
2052
2052
2052
2053
2054
2056
2057
2057
2057
2056
2056
2057
2058
2059
2060
2061
2061
2062
2062
2063
2064
2064
2064
2065
2065
2065
2065
2065
2063
2063
2062
2062
2060
2060
2057
2056
2054
2053
2052
2049
2048
2046
2044
2044
2043
2043
2041
2041
2040
2040
2040
2040
2041
2041
2041
2041
2041
2042
2042
2042
2043
2044
2044
2044
2043
2043
2042
2043
2044
2045
2045
2044
2044
2043
2043
2044
2043
2043
2042
2042
2042
2042
2042
2041
2042
2042
2042
2042
2042
2042
2043
2042
2043
2043
2042
2039
2037
2036
2038
2040
2043
2044
2043
2040
2038
2035
2036
2037
2037
2038
2038
2038
2038
2038
2038
2038
2039
2038
2036
2034
2037
2044
2050
2055
2058
2062
2065
2066
2063
2053
2042
2033
2031
2036
2043
2048
2047
2043
2042
2042
2043
2043
2044
2044
2044
2044
2044
2043
2043
2044
2044
2045
2046
2046
2047
2047
2047
2047
2047
2047
2048
2050
2051
2052
2052
2052
2051
2052
2053
2055
2056
2057
2058
2058
2058
2058
2058
2057
2057
2056
2056
2056
2055
2055
2053
2051
2049
2047
2045
2043
2041
2040
2040
2040
2039
2039
2037
2036
2035
2034
2034
2034
2035
2035
2035
2035
2035
2035
2035
2036
2037
2037
2038
2038
2038
2038
2037
2037
2037
2037
2037
2037
2037
2037
2038
2038
2038
2036
2035
2034
2034
2035
2036
2036
2035
2035
2034
2034
2034
2034
2034
2034
2035
2035
2035
2035
2035
2034
2035
2034
2035
2035
2035
2036
2036
2037
2036
2035
2034
2033
2034
2034
2035
2035
2035
2035
2035
2035
2036
2036
2036
2035
2035
2040
2048
2053
2057
2059
2059
2058
2056
2050
2041
2032
2027
2030
2037
2046
2050
2048
2045
2044
2044
2045
2045
2045
2045
2045
2046
2046
2047
2047
2047
2048
2047
2048
2048
2048
2048
2049
2050
2051
2052
2053
2053
2053
2053
2055
2056
2057
2058
2057
2057
2057
2057
2059
2059
2059
2058
2058
2059
2059
2059
2058
2057
2056
2055
2053
2051
2050
2048
2046
2046
2044
2043
2041
2039
2037
2037
2038
2040
2041
2041
2040
2039
2036
2037
2036
2036
2037
2038
2039
2040
2041
2041
2040
2039
2039
2039
2039
2040
2041
2042
2043
2042
2041
2040
2038
2037
2038
2040
2041
2040
2039
2037
2037
2037
2038
2039
2038
2036
2036
2036
2037
2037
2037
2036
2036
2036
2036
2037
2038
2038
2037
2036
2035
2034
2034
2033
2034
2035
2036
2038
2038
2037
2036
2035
2035
2036
2035
2033
2033
2037
2045
2052
2054
2055
2053
2052
2051
2048
2042
2033
2027
2027
2033
2040
2045
2045
2041
2040
2040
2041
2043
2043
2043
2042
2041
2041
2041
2042
2043
2043
2044
2044
2044
2044
2045
2045
2045
2046
2047
2048
2048
2048
2049
2050
2051
2052
2052
2052
2051
2052
2053
2055
2057
2056
2055
2053
2052
2051
2052
2052
2051
2050
2049
2048
2048
2046
2044
2042
2040
2039
2037
2036
2034
2033
2031
2031
2030
2030
2029
2029
2029
2029
2030
2031
2031
2031
2030
2030
2030
2031
2032
2032
2032
2031
2031
2030
2030
2031
2032
2032
2032
2031
2031
2030
2030
2030
2029
2030
2029
2029
2029
2028
2028
2028
2029
2030
2029
2029
2028
2027
2028
2028
2029
2030
2030
2029
2028
2028
2028
2028
2027
2027
2026
2025
2026
2026
2027
2028
2028
2028
2028
2027
2025
2024
2026
2034
2045
2051
2053
2050
2045
2038
2032
2026
2020
2016
2017
2023
2031
2038
2041
2038
2035
2034
2035
2035
2036
2036
2036
2037
2038
2037
2037
2036
2036
2036
2039
2042
2044
2045
2044
2042
2041
2042
2043
2044
2046
2046
2047
2048
2048
2049
2050
2050
2051
2051
2052
2052
2052
2052
2053
2053
2052
2051
2049
2049
2048
2048
2048
2048
2047
2044
2042
2039
2037
2036
2034
2033
2032
2032
2032
2031
2031
2031
2031
2031
2030
2031
2031
2032
2032
2033
2034
2033
2033
2031
2031
2031
2033
2035
2037
2037
2037
2036
2035
2035
2034
2034
2034
2034
2035
2035
2035
2035
2034
2034
2034
2035
2035
2035
2035
2034
2033
2034
2034
2034
2034
2033
2033
2033
2034
2035
2035
2033
2032
2031
2031
2032
2033
2034
2034
2034
2034
2033
2031
2030
2033
2042
2052
2058
2058
2053
2044
2034
2028
2023
2020
2020
2024
2032
2040
2047
2048
2045
2042
2041
2041
2042
2043
2044
2045
2045
2045
2045
2046
2045
2046
2046
2047
2048
2048
2049
2049
2049
2049
2050
2052
2053
2054
2054
2055
2056
2058
2060
2060
2060
2060
2060
2060
2061
2061
2061
2061
2060
2060
2059
2058
2058
2057
2057
2056
2054
2052
2049
2048
2047
2046
2045
2044
2043
2042
2040
2040
2041
2041
2042
2041
2041
2041
2040
2041
2041
2041
2041
2041
2041
2041
2042
2042
2043
2044
2044
2044
2043
2043
2043
2044
2044
2044
2044
2044
2044
2043
2043
2044
2045
2045
2045
2045
2044
2043
2042
2043
2043
2044
2044
2044
2044
2044
2044
2044
2043
2042
2042
2041
2041
2042
2043
2043
2044
2044
2044
2044
2041
2038
2038
2043
2052
2061
2062
2058
2052
2047
2047
2047
2044
2040
2036
2037
2043
2050
2055
2055
2052
2050
2050
2051
2052
2052
2052
2053
2053
2053
2052
2051
2052
2052
2054
2056
2058
2058
2057
2056
2055
2056
2057
2058
2060
2060
2061
2062
2063
2064
2064
2065
2065
2066
2067
2067
2067
2067
2067
2067
2065
2065
2064
2063
2063
2064
2064
2063
2060
2057
2054
2051
2050
2048
2048
2047
2047
2046
2046
2045
2045
2044
2043
2043
2043
2044
2044
2044
2043
2043
2043
2043
2043
2043
2044
2044
2046
2047
2047
2046
2045
2044
2044
2043
2044
2044
2045
2045
2045
2044
2044
2044
2044
2044
2044
2044
2044
2044
2043
2043
2043
2044
2045
2044
2044
2042
2042
2042
2042
2043
2043
2042
2041
2041
2040
2041
2041
2042
2043
2042
2040
2038
2040
2046
2052
2055
2054
2051
2050
2052
2053
2050
2045
2038
2035
2037
2044
2049
2051
2050
2048
2048
2048
2048
2048
2048
2048
2048
2048
2048
2048
2048
2048
2049
2050
2051
2051
2051
2052
2053
2055
2056
2056
2056
2056
2056
2058
2058
2059
2060
2060
2062
2063
2064
2064
2063
2063
2063
2063
2063
2062
2061
2060
2060
2059
2059
2058
2056
2054
2052
2049
2048
2047
2046
2045
2044
2043
2043
2041
2040
2039
2040
2041
2042
2042
2042
2042
2041
2040
2040
2040
2040
2040
2040
2041
2042
2043
2043
2043
2042
2042
2042
2042
2042
2042
2041
2042
2043
2043
2042
2040
2038
2038
2039
2041
2043
2043
2042
2040
2038
2038
2039
2038
2039
2039
2039
2040
2040
2041
2041
2041
2040
2039
2038
2038
2038
2037
2038
2038
2038
2037
2037
2037
2037
2040
2042
2041
2039
2036
2038
2044
2052
2056
2057
2057
2056
2057
2057
2051
2043
2033
2029
2033
2040
2047
2049
2047
2044
2044
2045
2044
2044
2043
2044
2045
2046
2048
2048
2048
2047
2046
2045
2046
2047
2048
2048
2049
2050
2051
2051
2052
2052
2053
2053
2054
2055
2057
2058
2058
2059
2060
2060
2060
2059
2059
2059
2060
2061
2061
2060
2058
2056
2054
2053
2052
2050
2048
2047
2045
2043
2041
2039
2038
2037
2037
2036
2036
2036
2035
2035
2034
2035
2035
2035
2035
2034
2034
2035
2037
2038
2038
2037
2036
2035
2035
2036
2037
2037
2037
2036
2036
2036
2036
2036
2036
2036
2036
2036
2036
2036
2036
2035
2036
2035
2035
2034
2034
2034
2035
2035
2036
2035
2034
2034
2034
2035
2035
2035
2035
2034
2034
2034
2034
2034
2034
2034
2034
2034
2034
2034
2033
2032
2031
2032
2033
2033
2034
2035
2035
2035
2033
2032
2034
2040
2048
2055
2057
2057
2054
2052
2048
2044
2036
2029
2026
2029
2037
2044
2047
2046
2042
2041
2042
2042
2042
2043
2043
2043
2042
2042
2043
2044
2046
2047
2047
2046
2046
2046
2047
2048
2048
2049
2049
2050
2051
2052
2053
2054
2055
2055
2056
2056
2057
2058
2059
2060
2061
2062
2062
2061
2059
2057
2056
2057
2058
2058
2058
2056
2053
2048
2047
2044
2042
2041
2040
2039
2038
2037
2036
2035
2035
2034
2034
2034
2034
2034
2034
2035
2035
2035
2035
2034
2034
2034
2036
2037
2039
2039
2037
2036
2035
2035
2036
2037
2037
2037
2037
2037
2037
2037
2036
2036
2036
2035
2035
2036
2036
2036
2036
2036
2035
2035
2034
2034
2035
2037
2038
2039
2038
2037
2037
2035
2036
2036
2035
2035
2034
2035
2035
2035
2035
2035
2035
2035
2035
2035
2036
2037
2037
2035
2033
2034
2040
2050
2059
2064
2065
2061
2053
2045
2036
2027
2022
2022
2030
2039
2046
2048
2045
2042
2041
2042
2042
2043
2044
2044
2044
2044
2045
2045
2045
2046
2046
2046
2045
2045
2047
2048
2050
2052
2052
2051
2050
2050
2051
2054
2055
2056
2057
2057
2057
2058
2060
2062
2063
2063
2063
2063
2062
2062
2061
2060
2060
2059
2058
2056
2054
2051
2050
2048
2048
2046
2043
2040
2038
2037
2037
2037
2037
2037
2036
2036
2036
2036
2036
2036
2036
2036
2036
2036
2036
2037
2037
2037
2037
2038
2038
2039
2039
2040
2041
2041
2041
2041
2040
2040
2039
2040
2040
2040
2039
2039
2039
2039
2039
2039
2039
2039
2039
2039
2039
2038
2038
2038
2038
2038
2038
2038
2038
2039
2039
2040
2040
2040
2040
2038
2038
2037
2037
2037
2038
2038
2038
2038
2038
2039
2040
2038
2036
2037
2042
2051
2058
2060
2059
2054
2052
2049
2046
2039
2030
2025
2028
2037
2047
2052
2052
2048
2045
2044
2045
2045
2045
2046
2046
2047
2047
2048
2048
2048
2048
2048
2048
2048
2049
2051
2051
2053
2053
2053
2053
2053
2053
2055
2058
2060
2062
2062
2061
2061
2060
2061
2063
2063
2064
2063
2063
2063
2063
2063
2063
2062
2061
2059
2057
2055
2053
2051
2049
2048
2045
2043
2040
2039
2039
2040
2040
2040
2040
2039
2039
2039
2039
2039
2037
2037
2037
2038
2039
2039
2039
2038
2038
2039
2039
2040
2040
2041
2040
2040
2040
2039
2039
2038
2038
2038
2039
2041
2042
2041
2040
2038
2037
2036
2038
2038
2039
2038
2038
2037
2036
2036
2036
2036
2037
2037
2037
2038
2038
2038
2038
2038
2037
2037
2036
2036
2037
2038
2040
2041
2041
2039
2038
2038
2037
2038
2038
2038
2038
2037
2037
2037
2037
2037
2038
2038
2038
2038
2039
2039
2037
2035
2036
2041
2049
2056
2058
2058
2058
2058
2059
2056
2048
2038
2030
2029
2036
2044
2049
2049
2046
2044
2044
2045
2045
2046
2046
2047
2047
2047
2047
2046
2048
2048
2048
2048
2048
2048
2049
2050
2052
2053
2054
2053
2053
2053
2054
2056
2056
2057
2058
2058
2059
2060
2061
2062
2063
2064
2064
2064
2063
2063
2063
2063
2063
2062
2061
2059
2057
2054
2052
2051
2050
2048
2047
2044
2042
2040
2039
2038
2038
2037
2037
2037
2037
2038
2038
2038
2037
2037
2037
2037
2037
2037
2037
2037
2038
2039
2039
2039
2038
2037
2037
2039
2041
2042
2041
2040
2038
2036
2035
2036
2036
2036
2037
2037
2037
2037
2036
2036
2036
2036
2037
2036
2036
2036
2036
2037
2037
2036
2035
2034
2034
2034
2036
2037
2038
2038
2036
2035
2034
2035
2035
2036
2036
2036
2037
2037
2037
2037
2036
2036
2036
2036
2037
2037
2037
2037
2037
2037
2037
2037
2036
2036
2036
2037
2039
2041
2041
2040
2039
2037
2037
2037
2038
2038
2038
2038
2038
2038
2038
2037
2037
2037
2038
2039
2039
2037
2036
2037
2044
2053
2059
2059
2056
2053
2052
2052
2050
2045
2036
2030
2031
2037
2046
2049
2048
2045
2044
2044
2045
2045
2045
2045
2046
2047
2048
2048
2048
2047
2047
2048
2048
2048
2048
2048
2049
2050
2052
2054
2054
2053
2052
2052
2052
2055
2056
2057
2058
2058
2059
2060
2061
2061
2062
2063
2063
2063
2063
2062
2062
2061
2060
2060
2059
2057
2055
2053
2051
2049
2048
2046
2044
2041
2039
2038
2037
2037
2037
2037
2036
2035
2035
2035
2035
2035
2036
2036
2036
2036
2036
2036
2035
2036
2036
2037
2037
2037
2037
2038
2038
2039
2039
2038
2037
2036
2036
2036
2037
2036
2035
2035
2035
2035
2035
2035
2034
2034
2034
2034
2034
2034
2033
2033
2033
2034
2034
2034
2033
2033
2032
2033
2034
2034
2034
2034
2033
2033
2033
2033
2033
2033
2032
2032
2033
2033
2034
2034
2034
2034
2034
2033
2034
2034
2034
2034
2035
2035
2035
2034
2033
2033
2034
2035
2037
2038
2038
2036
2035
2034
2035
2035
2035
2036
2036
2036
2036
2036
2036
2036
2036
2037
2037
2037
2037
2036
2036
2036
2036
2035
2034
2033
2033
2034
2036
2038
2038
2038
2035
2032
2031
2038
2048
2058
2061
2059
2054
2049
2046
2043
2037
2031
2027
2028
2035
2042
2047
2046
2043
2042
2041
2041
2041
2041
2042
2043
2045
2045
2045
2044
2043
2042
2043
2044
2044
2045
2045
2046
2047
2048
2048
2048
2048
2048
2050
2051
2053
2054
2054
2055
2055
2055
2056
2056
2057
2059
2061
2062
2062
2061
2059
2058
2057
2057
2057
2057
2056
2055
2052
2050
2048
2045
2043
2041
2040
2038
2037
2036
2035
2035
2034
2033
2033
2032
2032
2032
2033
2034
2036
2036
2036
2035
2033
2033
2032
2034
2035
2036
2036
2036
2036
2036
2036
2036
2036
2036
2036
2035
2035
2035
2035
2034
2034
2034
2035
2035
2035
2034
2034
2034
2035
2034
2034
2033
2033
2033
2034
2034
2034
2033
2033
2032
2032
2033
2033
2034
2034
2035
2034
2034
2033
2033
2033
2033
2034
2033
2033
2033
2033
2035
2035
2036
2037
2037
2036
2035
2035
2035
2035
2034
2035
2035
2036
2037
2037
2036
2035
2034
2033
2034
2035
2037
2037
2036
2035
2034
2034
2035
2035
2034
2032
2032
2037
2048
2060
2068
2069
2063
2053
2043
2033
2026
2020
2019
2024
2032
2042
2048
2048
2045
2042
2041
2042
2042
2043
2043
2045
2045
2045
2044
2043
2043
2044
2046
2048
2049
2049
2048
2048
2048
2048
2049
2050
2051
2052
2053
2054
2055
2056
2057
2058
2058
2059
2060
2061
2062
2062
2064
2064
2064
2063
2061
2060
2060
2061
2063
2062
2060
2057
2053
2049
2048
2046
2044
2042
2040
2039
2038
2037
2036
2035
2034
2035
2034
2035
2035
2035
2036
2036
2036
2035
2035
2034
2034
2034
2036
2037
2038
2038
2037
2036
2035
2036
2037
2038
2039
2039
2038
2038
2038
2039
2039
2039
2039
2038
2037
2037
2037
2037
2037
2038
2036
2036
2035
2035
2036
2037
2039
2039
2039
2037
2036
2035
2035
2036
2037
2037
2037
2037
2036
2036
2036
2036
2036
2037
2038
2038
2038
2038
2037
2036
2036
2036
2036
2035
2035
2036
2037
2038
2039
2038
2038
2037
2034
2033
2035
2043
2054
2062
2064
2060
2053
2048
2043
2040
2035
2030
2027
2029
2037
2044
2048
2048
2045
2044
2044
2044
2046
2047
2048
2048
2048
2047
2046
2046
2046
2047
2048
2048
2048
2048
2049
2050
2051
2052
2052
2053
2054
2055
2056
2056
2057
2058
2059
2060
2061
2062
2064
2064
2065
2066
2066
2067
2067
2067
2067
2065
2065
2063
2062
2059
2058
2055
2053
2051
2049
2048
2046
2044
2042
2040
2039
2039
2038
2038
2039
2039
2039
2038
2038
2038
2038
2039
2040
2039
2039
2039
2039
2039
2040
2039
2039
2039
2039
2040
2040
2041
2041
2042
2042
2041
2041
2040
2040
2040
2040
2041
2041
2041
2039
2038
2037
2038
2039
2041
2041
2040
2039
2038
2037
2038
2038
2038
2038
2038
2038
2038
2038
2039
2039
2039
2038
2038
2038
2039
2040
2040
2041
2040
2039
2037
2035
2035
2035
2037
2038
2040
2040
2039
2038
2037
2037
2038
2039
2038
2036
2037
2042
2050
2057
2059
2057
2053
2051
2051
2049
2044
2036
2030
2030
2037
2045
2050
2051
2048
2048
2048
2048
2048
2048
2048
2047
2048
2048
2048
2049
2049
2049
2050
2051
2052
2053
2053
2052
2052
2052
2054
2055
2057
2057
2058
2058
2058
2057
2058
2059
2061
2064
2066
2067
2066
2064
2063
2063
2064
2065
2065
2065
2064
2063
2062
2060
2059
2058
2056
2054
2051
2049
2048
2046
2044
2043
2042
2041
2040
2039
2039
2040
2041
2042
2042
2041
2040
2039
2039
2040
2040
2041
2041
2041
2040
2040
2040
2040
2041
2041
2042
2042
2042
2041
2041
2040
2040
2041
2041
2040
2039
2039
2039
2041
2042
2042
2041
2040
2038
2038
2038
2039
2040
2040
2039
2039
2039
2038
2039
2039
2040
2040
2040
2040
2039
2039
2039
2039
2040
2041
2041
2040
2039
2039
2038
2039
2040
2040
2040
2039
2038
2038
2038
2038
2038
2039
2039
2038
2036
2036
2041
2049
2055
2057
2057
2057
2057
2057
2055
2048
2038
2030
2029
2034
2042
2048
2048
2046
2044
2044
2043
2044
2044
2044
2045
2045
2044
2044
2045
2046
2047
2048
2048
2048
2048
2048
2048
2048
2049
2050
2051
2052
2053
2053
2052
2053
2054
2056
2058
2059
2060
2060
2060
2060
2061
2061
2061
2061
2061
2061
2061
2060
2060
2059
2057
2056
2054
2052
2050
2048
2046
2045
2042
2040
2037
2035
2035
2035
2037
2038
2038
2037
2035
2034
2033
2034
2034
2034
2035
2035
2036
2036
2036
2036
2036
2036
2037
2037
2037
2037
2038
2038
2039
2038
2037
2036
2035
2035
2036
2037
2038
2039
2038
2036
2035
2034
2035
2035
2036
2036
2036
2035
2035
2035
2035
2035
2035
2035
2035
2035
2035
2035
2035
2035
2036
2035
2034
2034
2033
2035
2036
2038
2039
2039
2038
2037
2036
2035
2035
2033
2034
2034
2035
2035
2035
2034
2034
2035
2035
2034
2033
2035
2042
2049
2054
2055
2053
2051
2049
2048
2044
2037
2031
2028
2032
2038
2044
2046
2044
2041
2042
2042
2043
2043
2042
2042
2042
2043
2043
2044
2044
2044
2044
2044
2045
2045
2046
2046
2047
2047
2048
2048
2048
2050
2051
2051
2052
2052
2053
2054
2055
2057
2058
2058
2058
2059
2059
2059
2059
2059
2059
2058
2058
2057
2056
2055
2054
2052
2051
2049
2047
2044
2042
2041
2039
2038
2036
2035
2034
2034
2034
2034
2033
2033
2032
2032
2033
2033
2033
2034
2034
2034
2033
2033
2033
2033
2033
2034
2034
2035
2035
2034
2034
2034
2034
2034
2034
2034
2034
2033
2033
2033
2033
2033
2032
2032
2032
2032
2032
2032
2033
2033
2033
2032
2031
2031
2031
2032
2033
2032
2033
2033
2033
2032
2032
2032
2032
2033
2034
2035
2034
2033
2032
2031
2032
2032
2032
2032
2031
2032
2032
2034
2034
2032
2030
2030
2036
2046
2054
2057
2056
2052
2048
2043
2036
2029
2022
2020
2026
2036
2044
2047
2044
2038
2036
2037
2038
2038
2039
2039
2040
2040
2041
2041
2040
2041
2041
2042
2043
2043
2044
2045
2045
2046
2046
2045
2045
2045
2047
2050
2053
2054
2054
2053
2053
2053
2054
2056
2056
2057
2057
2057
2057
2057
2056
2055
2055
2054
2054
2053
2051
2049
2048
2046
2044
2042
2039
2037
2036
2034
2034
2034
2034
2033
2032
2030
2029
2029
2029
2030
2030
2030
2030
2030
2030
2030
2030
2030
2030
2031
2031
2031
2031
2031
2031
2031
2031
2031
2031
2030
2031
2031
2032
2032
2031
2030
2029
2029
2029
2030
2030
2030
2029
2029
2029
2029
2029
2028
2028
2028
2028
2029
2029
2030
2029
2028
2028
2027
2026
2025
2025
2025
2025
2026
2027
2027
2027
2026
2026
2026
2027
2028
2026
2024
2025
2032
2044
2051
2054
2051
2045
2036
2029
2022
2016
2012
2012
2019
2027
2034
2037
2035
2032
2033
2034
2035
2035
2034
2034
2034
2034
2035
2037
2037
2036
2036
2036
2036
2038
2039
2040
2041
2040
2041
2041
2041
2042
2043
2045
2046
2047
2047
2047
2047
2048
2049
2051
2052
2053
2052
2052
2051
2051
2051
2049
2048
2048
2047
2046
2045
2044
2042
2040
2037
2034
2032
2031
2030
2029
2028
2028
2028
2028
2026
2025
2024
2025
2026
2028
2029
2029
2028
2027
2027
2027
2028
2028
2028
2028
2029
2029
2030
2030
2030
2030
2029
2029
2029
2029
2030
2030
2031
2030
2030
2028
2026
2026
2027
2030
2032
2033
2032
2029
2027
2026
2026
2026
2026
2027
2029
2030
2031
2030
2029
2028
2027
2027
2027
2027
2027
2027
2027
2027
2028
2028
2028
2028
2029
2028
2028
2029
2034
2042
2048
2050
2049
2047
2044
2042
2040
2034
2027
2022
2023
2028
2036
2041
2041
2038
2037
2037
2038
2037
2037
2037
2037
2038
2037
2037
2037
2039
2041
2044
2044
2043
2041
2040
2040
2042
2043
2045
2046
2046
2047
2047
2047
2048
2048
2049
2050
2051
2052
2053
2054
2054
2053
2053
2052
2052
2053
2052
2053
2052
2051
2049
2047
2045
2043
2041
2040
2038
2037
2034
2033
2032
2032
2031
2030
2030
2029
2029
2029
2030
2030
2030
2029
2028
2028
2028
2028
2029
2030
2031
2032
2033
2033
2032
2031
2030
2030
2030
2031
2031
2031
2031
2030
2030
2030
2031
2030
2030
2030
2030
2030
2030
2030
2030
2030
2030
2030
2030
2030
2029
2028
2029
2030
2032
2032
2032
2030
2029
2029
2029
2030
2029
2029
2029
2029
2030
2030
2030
2029
2028
2029
2030
2030
2030
2030
2035
2042
2047
2048
2048
2046
2043
2041
2037
2029
2022
2019
2023
2033
2041
2046
2044
2040
2039
2041
2042
2042
2040
2037
2035
2037
2040
2044
2046
2046
2044
2043
2043
2044
2045
2046
2045
2045
2046
2048
2049
2051
2052
2052
2051
2051
2052
2052
2054
2055
2056
2056
2057
2058
2059
2059
2059
2057
2056
2056
2061
2064
2066
2067
2064
2060
2056
2052
2049
2046
2043
2041
2041
2044
2046
2047
2047
2045
2044
2042
2042
2042
2043
2043
2043
2042
2042
2042
2042
2042
2043
2044
2044
2043
2043
2043
2043
2043
2042
2041
2041
2043
2049
2054
2056
2054
2048
2042
2039
2039
2040
2041
2042
2042
2041
2040
2041
2040
2039
2039
2041
2042
2043
2043
2041
2040
2039
2038
2038
2037
2037
2037
2038
2039
2039
2039
2037
2036
2035
2036
2038
2038
2040
2041
2040
2038
2036
2037
2043
2050
2057
2061
2064
2067
2069
2068
2061
2049
2036
2027
2026
2031
2040
2044
2044
2042
2042
2042
2043
2045
2046
2046
2044
2041
2037
2034
2034
2035
2036
2037
2038
2039
2039
2039
2040
2040
2041
2041
2041
2042
2044
2044
2046
2047
2047
2048
2048
2049
2049
2049
2049
2050
2051
2051
2051
2051
2050
2049
2048
2048
2048
2047
2046
2044
2042
2041
2039
2038
2036
2034
2033
2031
2031
2030
2030
2031
2031
2032
2032
2031
2030
2030
2030
2031
2032
2033
2034
2035
2036
2036
2036
2036
2037
2038
2039
2040
2040
2040
2039
2039
2038
2039
2039
2040
2039
2039
2040
2041
2042
2043
2043
2042
2042
2042
2043
2045
2046
2048
2049
2051
2053
2056
2058
2059
2060
2061
2063
2064
2066
2068
2068
2067
2068
2067
2066
2066
2066
2066
2068
2071
2073
2075
2077
2078
2080
2081
2083
2083
2084
2091
2102
2112
2118
2123
2126
2127
2126
2121
2111
2099
2092
2094
2102
2112
2117
2116
2110
2106
2107
2108
2110
2112
2113
2111
2110
2109
2109
2109
2110
2110
2110
2111
2112
2114
2115
2115
2116
2116
2116
2117
2117
2117
2118
2118
2118
2117
2116
2115
2114
2116
2118
2120
2122
2122
2120
2118
2117
2115
2115
2115
2114
2113
2111
2110
2108
2105
2103
2100
2096
2093
2090
2087
2084
2082
2079
2078
2077
2075
2074
2072
2071
2072
2074
2077
2079
2079
2077
2074
2072
2071
2073
2074
2075
2075
2075
2074
2074
2073
2072
2071
2071
2071
2072
2072
2071
2071
2070
2071
2070
2071
2070
2070
2071
2072
2075
2077
2079
2079
2079
2080
2080
2082
2083
2083
2082
2082
2082
2081
2081
2081
2080
2079
2077
2075
2072
2069
2066
2064
2062
2062
2061
2060
2059
2058
2058
2060
2062
2061
2058
2057
2061
2071
2082
2088
2090
2088
2085
2082
2078
2070
2061
2056
2057
2065
2073
2078
2076
2071
2068
2067
2067
2066
2065
2063
2061
2059
2058
2058
2058
2058
2056
2054
2053
2052
2052
2052
2053
2053
2054
2054
2055
2056
2058
2060
2061
2062
2063
2065
2067
2069
2072
2074
2076
2077
2078
2079
2080
2082
2084
2086
2086
2086
2085
2084
2084
2085
2084
2083
2080
2078
2076
2075
2074
2074
2073
2072
2070
2069
2069
2069
2069
2068
2068
2067
2065
2061
2057
2053
2050
2048
2046
2043
2039
2034
2029
2025
2021
2018
2015
2011
2007
2003
1998
1994
1990
1986
1983
1980
1978
1976
1974
1973
1971
1970
1968
1966
1964
1961
1959
1959
1960
1961
1962
1962
1961
1961
1961
1961
1962
1961
1961
1961
1963
1964
1966
1967
1968
1969
1970
1971
1974
1976
1976
1975
1974
1979
1988
1999
2005
2005
2004
2002
2003
2003
1999
1990
1982
1980
1986
1996
2005
2008
2005
2002
2002
2004
2005
2006
2006
2006
2006
2006
2007
2007
2007
2005
2004
2000
1997
1993
1992
1992
1994
1997
1999
1999
1997
1995
1994
1993
1994
1995
1996
1997
1998
2000
2002
2003
2004
2004
2004
2003
2002
2001
2000
1999
1998
1998
1996
1995
1992
1991
1990
1989
1989
1989
1988
1986
1985
1984
1983
1983
1983
1983
1984
1987
1989
1991
1994
1996
1997
1997
1997
1998
2000
2005
2009
2013
2016
2016
2016
2015
2015
2016
2018
2021
2023
2024
2024
2022
2021
2022
2023
2024
2026
2026
2026
2027
2026
2027
2027
2028
2028
2028
2027
2025
2023
2022
2022
2022
2023
2024
2025
2025
2025
2025
2025
2025
2024
2023
2022
2022
2021
2022
2021
2021
2021
2021
2021
2021
2020
2017
2014
2014
2019
2028
2033
2034
2035
2036
2039
2040
2036
2024
2009
1999
1999
2006
2015
2020
2018
2013
2012
2012
2013
2013
2013
2013
2013
2014
2015
2016
2018
2019
2020
2020
2021
2021
2023
2024
2026
2027
2029
2030
2031
2031
2032
2034
2036
2039
2042
2044
2045
2044
2044
2044
2045
2046
2047
2047
2047
2046
2046
2045
2044
2043
2042
2040
2039
2037
2036
2034
2032
2030
2028
2026
2024
2022
2021
2021
2021
2021
2022
2021
2020
2019
2020
2021
2022
2024
2025
2026
2027
2027
2027
2027
2027
2026
2026
2026
2026
2026
2027
2027
2027
2028
2027
2027
2026
2025
2026
2027
2028
2028
2027
2026
2024
2024
2024
2024
2025
2026
2026
2026
2026
2026
2026
2026
2026
2026
2026
2026
2026
2026
2026
2025
2025
2025
2025
2025
2025
2025
2025
2027
2027
2026
2024
2021
2019
2018
2020
2021
2022
2022
2021
2021
2021
2020
2018
2017
2020
2028
2038
2043
2044
2041
2036
2033
2029
2023
2014
2006
2004
2010
2019
2027
2030
2026
2021
2020
2021
2022
2024
2025
2025
2026
2026
2026
2027
2027
2028
2029
2030
2031
2031
2032
2033
2033
2034
2035
2036
2036
2036
2036
2038
2040
2042
2043
2042
2041
2041
2041
2042
2043
2044
2044
2044
2044
2045
2045
2045
2045
2045
2045
2044
2043
2042
2040
2039
2037
2036
2035
2034
2034
2032
2032
2032
2032
2033
2033
2033
2033
2033
2034
2033
2033
2033
2032
2033
2033
2034
2034
2034
2033
2032
2032
2032
2032
2031
2030
2029
2027
2026
2024
2022
2020
2019
2019
2018
2018
2017
2016
2015
2014
2013
2013
2012
2012
2011
2011
2010
2010
2011
2011
2011
2010
2010
2009
2009
2009
2009
2009
2011
2011
2012
2012
2012
2011
2012
2012
2012
2012
2011
2010
2010
2009
2009
2008
2008
2007
2007
2009
2010
2008
2006
2005
2010
2020
2028
2031
2032
2030
2027
2025
2018
2008
1997
1991
1993
2002
2013
2019
2018
2012
2009
2008
2008
2009
2009
2009
2008
2008
2008
2009
2010
2010
2010
2010
2011
2012
2013
2014
2015
2015
2016
2016
2016
2017
2017
2018
2020
2022
2025
2026
2027
2026
2026
2025
2027
2028
2029
2029
2029
2028
2028
2028
2028
2028
2027
2027
2026
2024
2023
2021
2019
2018
2017
2015
2013
2011
2010
2010
2012
2015
2016
2015
2013
2011
2010
2010
2013
2013
2015
2016
2017
2017
2017
2018
2018
2020
2021
2023
2024
2025
2026
2026
2026
2027
2027
2028
2028
2028
2029
2031
2032
2034
2035
2035
2034
2034
2034
2036
2037
2038
2038
2039
2039
2040
2041
2041
2042
2042
2043
2044
2044
2044
2044
2044
2045
2047
2048
2048
2048
2048
2048
2048
2050
2051
2051
2050
2050
2050
2051
2053
2054
2055
2056
2056
2053
2051
2052
2060
2074
2085
2090
2089
2082
2072
2063
2054
2047
2043
2043
2049
2058
2066
2069
2067
2064
2064
2064
2064
2064
2063
2063
2062
2061
2061
2061
2061
2061
2062
2062
2062
2061
2061
2061
2061
2061
2062
2062
2063
2064
2065
2065
2065
2065
2066
2068
2069
2070
2070
2069
2069
2069
2069
2068
2068
2068
2067
2067
2066
2066
2065
2063
2061
2059
2057
2054
2053
2051
2050
2049
2048
2046
2044
2042
2041
2041
2042
2043
2044
2043
2042
2041
2041
2041
2042
2042
2042
2042
2042
2042
2042
2042
2044
2046
2047
2047
2045
2043
2042
2042
2043
2044
2044
2043
2042
2040
2041
2042
2043
2044
2043
2042
2041
2040
2041
2041
2040
2040
2040
2039
2039
2039
2039
2039
2040
2041
2041
2041
2040
2039
2039
2039
2038
2037
2036
2034
2032
2032
2031
2031
2031
2030
2026
2020
2017
2019
2027
2037
2042
2043
2041
2035
2029
2022
2012
2002
1996
1997
2004
2013
2019
2020
2016
2014
2014
2014
2014
2014
2015
2016
2019
2021
2021
2020
2019
2019
2020
2022
2024
2026
2027
2027
2028
2029
2030
2031
2032
2033
2034
2035
2037
2038
2040
2040
2041
2041
2042
2042
2042
2044
2045
2047
2048
2047
2046
2045
2045
2046
2046
2046
2045
2043
2041
2039
2037
2035
2034
2033
2033
2032
2032
2031
2031
2031
2031
2031
2031
2031
2030
2030
2031
2032
2034
2036
2036
2034
2033
2032
2032
2033
2034
2035
2035
2035
2035
2035
2035
2036
2036
2037
2037
2037
2037
2036
2036
2035
2036
2036
2036
2036
2036
2035
2036
2036
2037
2037
2037
2037
2036
2035
2037
2038
2039
2039
2039
2038
2038
2038
2039
2039
2038
2037
2036
2035
2035
2035
2035
2035
2034
2035
2035
2033
2032
2031
2036
2046
2053
2057
2058
2057
2056
2055
2050
2041
2030
2022
2022
2029
2038
2044
2045
2040
2037
2036
2035
2035
2034
2034
2034
2035
2035
2035
2033
2032
2031
2031
2032
2032
2032
2031
2030
2030
2030
2031
2031
2033
2033
2034
2035
2035
2036
2036
2037
2038
2038
2039
2039
2040
2041
2041
2041
2041
2039
2037
2035
2034
2033
2034
2034
2033
2030
2027
2024
2021
2020
2019
2017
2016
2015
2015
2015
2014
2014
2014
2014
2014
2014
2015
2016
2016
2016
2016
2016
2016
2015
2015
2015
2016
2018
2019
2020
2020
2019
2018
2017
2018
2020
2021
2023
2023
2024
2024
2024
2024
2025
2025
2026
2025
2026
2026
2027
2028
2029
2029
2029
2029
2029
2029
2030
2032
2034
2035
2035
2034
2033
2033
2033
2035
2036
2036
2035
2034
2034
2034
2033
2033
2033
2033
2033
2033
2033
2034
2034
2032
2031
2030
2035
2044
2051
2054
2056
2055
2053
2050
2046
2037
2026
2021
2022
2030
2039
2043
2043
2038
2036
2036
2036
2036
2036
2036
2036
2036
2037
2037
2038
2039
2039
2039
2039
2040
2040
2042
2044
2045
2046
2046
2045
2045
2045
2046
2048
2048
2048
2048
2048
2049
2049
2050
2051
2051
2052
2052
2051
2051
2050
2050
2049
2049
2048
2048
2046
2044
2042
2040
2039
2037
2034
2031
2029
2027
2025
2025
2024
2022
2021
2020
2019
2019
2019
2019
2020
2020
2020
2019
2018
2018
2017
2016
2016
2015
2013
2012
2010
2009
2008
2006
2006
2005
2003
2002
2001
2000
1999
1998
1996
1995
1994
1994
1993
1993
1993
1992
1991
1990
1989
1988
1987
1986
1986
1986
1985
1984
1983
1981
1981
1981
1982
1983
1982
1981
1980
1980
1981
1982
1981
1981
1980
1980
1980
1979
1980
1979
1979
1978
1978
1977
1977
1977
1978
1979
1977
1975
1975
1980
1990
1999
2003
2004
2001
1998
1992
1985
1976
1968
1966
1970
1979
1989
1995
1995
1992
1992
1993
1994
1995
1996
1997
1999
2000
1999
1997
1994
1990
1987
1985
1983
1981
1980
1978
1977
1977
1975
1972
1970
1968
1970
1972
1975
1979
1981
1982
1982
1984
1986
1988
1991
1993
1994
1995
1997
1998
1998
1999
2001
2000
2001
2001
2002
2003
2005
2006
2006
2004
2001
1999
1999
1999
2001
2002
2004
2005
2006
2006
2007
2009
2010
2012
2015
2017
2018
2020
2022
2024
2025
2027
2029
2031
2032
2034
2035
2038
2040
2042
2043
2043
2043
2043
2044
2045
2045
2046
2047
2048
2048
2048
2049
2050
2052
2053
2055
2056
2057
2058
2058
2059
2060
2061
2062
2062
2063
2064
2066
2066
2067
2068
2069
2071
2073
2074
2073
2071
2069
2069
2069
2071
2072
2072
2074
2075
2076
2077
2078
2077
2074
2073
2078
2089
2102
2109
2111
2107
2100
2091
2082
2074
2067
2064
2069
2078
2088
2094
2094
2091
2089
2089
2091
2092
2093
2094
2095
2096
2097
2098
2099
2099
2099
2099
2100
2101
2102
2103
2103
2104
2105
2107
2108
2109
2110
2110
2111
2112
2113
2115
2116
2118
2118
2119
2121
2121
2122
2122
2121
2120
2118
2117
2117
2116
2116
2115
2115
2113
2110
2107
2104
2102
2101
2100
2100
2098
2096
2094
2092
2091
2091
2091
2091
2092
2093
2094
2094
2094
2095
2095
2096
2096
2097
2098
2099
2099
2100
2100
2100
2100
2099
2099
2099
2101
2103
2105
2106
2105
2103
2102
2101
2102
2102
2102
2102
2101
2102
2102
2103
2103
2103
2102
2102
2101
2101
2102
2102
2103
2102
2103
2102
2102
2102
2102
2102
2102
2102
2102
2101
2100
2098
2097
2096
2096
2096
2096
2095
2095
2095
2093
2089
2086
2088
2095
2104
2108
2107
2105
2103
2104
2105
2098
2087
2072
2064
2066
2075
2085
2089
2085
2079
2077
2075
2074
2075
2074
2074
2073
2072
2071
2070
2069
2068
2068
2068
2068
2068
2068
2068
2067
2067
2067
2067
2067
2068
2069
2070
2072
2074
2074
2074
2073
2072
2072
2073
2074
2075
2075
2075
2074
2074
2073
2072
2072
2071
2070
2069
2068
2065
2063
2060
2058
2056
2053
2051
2049
2048
2047
2047
2047
2047
2046
2045
2044
2043
2042
2042
2042
2042
2042
2041
2042
2042
2042
2043
2043
2044
2044
2045
2045
2045
2044
2044
2045
2045
2046
2045
2045
2045
2046
2047
2047
2048
2047
2046
2045
2044
2045
2046
2046
2046
2046
2046
2046
2046
2046
2047
2047
2048
2048
2048
2048
2048
2048
2049
2049
2049
2049
2048
2048
2048
2048
2048
2049
2050
2050
2050
2050
2050
2051
2051
2049
2048
2048
2055
2066
2075
2077
2078
2076
2074
2071
2065
2054
2045
2039
2044
2052
2060
2064
2061
2057
2057
2058
2060
2061
2060
2059
2059
2059
2060
2061
2061
2061
2062
2062
2062
2062
2063
2063
2064
2064
2065
2066
2067
2068
2069
2070
2071
2071
2072
2072
2074
2076
2078
2081
2082
2083
2082
2081
2081
2082
2083
2083
2083
2082
2081
2079
2077
2075
2072
2069
2067
2064
2062
2060
2058
2057
2055
2054
2053
2051
2050
2048
2049
2050
2052
2053
2052
2050
2048
2048
2047
2048
2048
2049
2049
2049
2049
2050
2050
2050
2050
2049
2049
2048
2048
2048
2048
2047
2046
2045
2044
2043
2043
2044
2045
2047
2047
2047
2045
2044
2042
2042
2043
2044
2044
2044
2043
2043
2043
2043
2044
2044
2044
2044
2044
2044
2045
2045
2044
2045
2044
2043
2042
2042
2042
2044
2046
2047
2046
2045
2044
2043
2044
2045
2046
2043
2041
2043
2051
2063
2070
2073
2071
2066
2062
2059
2053
2045
2037
2034
2039
2048
2056
2060
2057
2054
2053
2055
2055
2055
2054
2054
2054
2055
2056
2056
2057
2057
2056
2056
2056
2057
2059
2060
2061
2061
2061
2062
2063
2064
2066
2067
2068
2069
2070
2071
2072
2074
2075
2077
2078
2079
2078
2078
2077
2077
2076
2076
2075
2074
2073
2072
2070
2068
2066
2063
2060
2058
2056
2054
2053
2052
2050
2049
2048
2048
2046
2047
2046
2047
2047
2048
2048
2048
2048
2048
2048
2048
2048
2047
2047
2047
2047
2048
2049
2050
2050
2050
2048
2048
2048
2048
2049
2048
2048
2048
2048
2047
2046
2047
2047
2048
2048
2048
2047
2046
2045
2045
2046
2046
2046
2046
2045
2045
2045
2046
2047
2047
2047
2046
2046
2045
2044
2044
2044
2044
2043
2043
2043
2042
2043
2044
2045
2047
2048
2047
2043
2040
2042
2052
2066
2076
2080
2076
2066
2055
2047
2040
2035
2033
2035
2041
2049
2056
2059
2056
2054
2054
2053
2053
2052
2053
2054
2056
2058
2058
2057
2056
2055
2054
2055
2057
2057
2058
2059
2059
2060
2060
2061
2061
2062
2063
2065
2066
2067
2068
2069
2070
2072
2072
2072
2072
2072
2073
2074
2076
2075
2074
2071
2068
2066
2065
2065
2064
2062
2059
2056
2053
2049
2048
2046
2044
2043
2042
2042
2042
2041
2040
2039
2039
2039
2039
2039
2040
2040
2040
2041
2041
2040
2040
2040
2040
2041
2042
2042
2042
2042
2042
2041
2041
2041
2041
2041
2042
2042
2042
2042
2042
2041
2040
2040
2040
2040
2039
2039
2039
2039
2039
2039
2039
2038
2037
2037
2037
2037
2038
2039
2039
2039
2039
2038
2038
2037
2036
2036
2036
2036
2036
2036
2036
2036
2036
2036
2037
2038
2038
2036
2035
2037
2047
2059
2065
2064
2059
2051
2048
2046
2043
2037
2030
2027
2031
2040
2048
2052
2049
2045
2045
2045
2046
2047
2048
2047
2048
2047
2047
2047
2047
2048
2049
2050
2051
2051
2050
2051
2052
2052
2053
2052
2053
2053
2055
2057
2059
2061
2062
2063
2062
2063
2062
2063
2063
2064
2064
2065
2065
2064
2062
2061
2060
2059
2059
2060
2058
2055
2051
2048
2045
2042
2040
2039
2037
2036
2035
2035
2034
2033
2033
2032
2032
2032
2032
2032
2032
2033
2033
2033
2033
2032
2031
2031
2032
2034
2036
2037
2036
2035
2034
2033
2034
2034
2034
2034
2033
2033
2033
2033
2033
2033
2033
2033
2032
2032
2032
2032
2032
2032
2033
2032
2031
2030
2029
2029
2031
2033
2034
2033
2031
2028
2027
2028
2030
2031
2032
2032
2031
2030
2029
2029
2028
2028
2029
2029
2030
2031
2031
2031
2031
2032
2032
2031
2028
2028
2032
2043
2055
2061
2060
2055
2050
2048
2046
2042
2034
2026
2024
2029
2038
2046
2048
2046
2043
2044
2045
2046
2046
2047
2047
2047
2048
2048
2048
2048
2048
2049
2051
2053
2054
2055
2054
2053
2053
2052
2054
2055
2057
2058
2059
2060
2060
2061
2061
2063
2064
2065
2066
2067
2067
2067
2066
2066
2066
2066
2066
2064
2063
2062
2061
2060
2059
2056
2052
2049
2047
2044
2043
2041
2039
2038
2037
2037
2036
2036
2036
2036
2036
2037
2038
2039
2040
2041
2042
2043
2044
2044
2044
2044
2045
2046
2048
2049
2049
2049
2048
2048
2048
2048
2048
2048
2048
2048
2049
2050
2050
2050
2049
2049
2049
2049
2050
2050
2051
2051
2051
2050
2050
2049
2050
2051
2052
2054
2055
2056
2056
2056
2056
2056
2056
2055
2056
2057
2059
2061
2062
2064
2064
2065
2065
2065
2065
2066
2067
2068
2068
2070
2071
2072
2072
2073
2075
2076
2075
2074
2075
2082
2093
2100
2102
2101
2098
2095
2093
2089
2080
2072
2067
2070
2078
2086
2090
2087
2082
2082
2082
2083
2083
2083
2082
2081
2079
2079
2079
2080
2081
2081
2080
2078
2077
2076
2076
2075
2074
2074
2073
2073
2074
2074
2074
2074
2074
2074
2074
2075
2076
2077
2077
2078
2078
2078
2076
2075
2073
2073
2073
2073
2072
2068
2063
2058
2055
2053
2050
2048
2044
2039
2035
2030
2024
2018
2011
2007
2005
2005
2006
2007
2007
2007
2007
2007
2006
2005
2005
2005
2007
2010
2013
2014
2012
2009
2006
2005
2005
2007
2009
2009
2009
2009
2009
2009
2009
2008
2008
2008
2008
2009
2009
2010
2010
2009
2009
2008
2008
2008
2008
2009
2010
2012
2012
2011
2010
2008
2007
2007
2008
2010
2011
2012
2012
2012
2011
2010
2010
2010
2010
2011
2012
2013
2012
2012
2012
2012
2012
2013
2014
2013
2011
2010
2015
2026
2038
2046
2048
2044
2037
2029
2021
2011
2003
1999
2002
2011
2020
2027
2028
2025
2024
2024
2025
2024
2024
2024
2026
2026
2027
2027
2027
2027
2028
2030
2031
2031
2031
2031
2032
2033
2035
2036
2037
2038
2039
2040
2042
2044
2047
2048
2049
2050
2051
2052
2053
2055
2057
2058
2057
2057
2056
2055
2055
2054
2055
2055
2054
2053
2051
2048
2046
2043
2041
2040
2038
2037
2036
2035
2035
2036
2036
2036
2036
2036
2035
2035
2035
2036
2036
2038
2038
2038
2038
2038
2038
2039
2040
2041
2042
2041
2041
2040
2039
2038
2038
2037
2037
2038
2038
2038
2038
2037
2037
2036
2036
2036
2037
2037
2038
2038
2039
2039
2039
2039
2039
2040
2042
2044
2047
2048
2049
2049
2048
2048
2051
2055
2061
2066
2070
2072
2072
2070
2069
2068
2068
2069
2069
2069
2069
2069
2069
2069
2069
2068
2068
2068
2066
2064
2065
2071
2082
2090
2090
2087
2082
2080
2080
2078
2072
2061
2053
2053
2060
2069
2075
2075
2070
2068
2068
2068
2069
2069
2069
2070
2069
2068
2068
2068
2068
2070
2072
2073
2074
2073
2071
2070
2069
2071
2072
2072
2073
2073
2073
2073
2073
2073
2074
2076
2077
2078
2079
2079
2078
2077
2078
2078
2077
2076
2074
2074
2073
2073
2073
2070
2067
2063
2060
2057
2054
2052
2050
2048
2047
2045
2044
2042
2042
2042
2041
2041
2041
2041
2041
2041
2041
2042
2042
2043
2043
2043
2043
2044
2045
2046
2046
2046
2045
2045
2045
2045
2045
2045
2045
2044
2044
2043
2043
2044
2044
2044
2043
2043
2042
2041
2041
2040
2040
2041
2042
2042
2041
2041
2040
2040
2041
2042
2042
2041
2040
2040
2040
2040
2040
2040
2040
2040
2041
2042
2043
2043
2042
2041
2041
2039
2039
2039
2039
2040
2041
2041
2041
2040
2040
2040
2042
2041
2040
2040
2043
2052
2062
2065
2065
2061
2058
2056
2053
2048
2040
2033
2032
2039
2048
2054
2056
2052
2050
2051
2051
2052
2053
2052
2052
2052
2052
2053
2054
2056
2057
2057
2056
2056
2056
2056
2056
2058
2059
2060
2062
2062
2063
2064
2064
2064
2065
2066
2067
2069
2071
2072
2073
2074
2074
2073
2073
2073
2074
2075
2075
2076
2075
2073
2070
2068
2065
2063
2062
2059
2057
2055
2054
2052
2050
2048
2048
2047
2047
2047
2047
2047
2047
2047
2047
2047
2046
2046
2046
2047
2048
2049
2050
2049
2048
2048
2047
2047
2048
2048
2048
2048
2048
2049
2048
2048
2048
2047
2047
2047
2047
2047
2047
2046
2045
2046
2045
2045
2045
2044
2045
2046
2047
2047
2046
2044
2042
2041
2041
2043
2043
2043
2043
2043
2043
2043
2043
2042
2042
2042
2043
2044
2045
2045
2044
2042
2042
2041
2040
2040
2039
2040
2041
2042
2042
2042
2042
2041
2040
2040
2037
2035
2036
2044
2055
2063
2065
2061
2054
2049
2048
2045
2040
2033
2029
2030
2036
2043
2048
2048
2043
2041
2041
2042
2043
2044
2045
2044
2044
2043
2042
2042
2043
2044
2044
2044
2045
2045
2046
2046
2047
2048
2048
2049
2049
2050
2051
2052
2053
2055
2056
2057
2058
2059
2060
2061
2062
2063
2063
2062
2061
2060
2059
2059
2059
2059
2058
2056
2054
2052
2050
2048
2047
2044
2041
2038
2035
2033
2032
2031
2032
2032
2032
2031
2030
2029
2030
2030
2030
2031
2030
2030
2029
2029
2029
2028
2027
2027
2027
2028
2028
2029
2029
2029
2029
2028
2028
2027
2027
2027
2027
2027
2027
2027
2026
2026
2026
2026
2027
2028
2028
2028
2027
2026
2025
2025
2025
2025
2026
2026
2025
2025
2026
2026
2026
2026
2026
2025
2025
2024
2024
2024
2024
2023
2023
2023
2022
2022
2023
2024
2025
2027
2025
2022
2020
2023
2033
2046
2053
2054
2050
2042
2034
2027
2020
2013
2010
2012
2019
2028
2036
2038
2034
2031
2031
2031
2031
2030
2030
2031
2033
2034
2035
2035
2034
2033
2033
2034
2035
2037
2037
2037
2037
2038
2039
2042
2044
2044
2044
2044
2044
2045
2046
2048
2048
2048
2049
2050
2050
2051
2051
2052
2053
2053
2052
2050
2048
2047
2045
2045
2043
2041
2039
2036
2034
2032
2030
2028
2026
2025
2024
2024
2024
2024
2024
2023
2023
2022
2022
2022
2023
2024
2025
2026
2026
2025
2025
2024
2024
2025
2026
2027
2028
2027
2027
2027
2027
2027
2027
2027
2028
2028
2028
2028
2027
2027
2026
2026
2026
2026
2027
2027
2027
2027
2028
2028
2027
2026
2025
2024
2024
2024
2024
2023
2024
2024
2024
2025
2024
2023
2023
2022
2022
2023
2023
2022
2022
2022
2022
2023
2023
2023
2024
2023
2022
2021
2024
2033
2045
2051
2053
2049
2044
2037
2032
2025
2017
2012
2011
2018
2027
2035
2038
2036
2032
2032
2032
2032
2033
2033
2034
2034
2034
2034
2034
2035
2036
2037
2038
2038
2038
2038
2038
2038
2040
2040
2041
2041
2043
2044
2045
2046
2047
2048
2048
2049
2049
2050
2050
2051
2052
2054
2054
2053
2052
2051
2049
2049
2049
2049
2048
2047
2044
2041
2038
2036
2034
2032
2030
2028
2027
2026
2025
2024
2023
2022
2022
2022
2022
2022
2023
2023
2024
2024
2024
2023
2022
2022
2023
2025
2026
2027
2027
2027
2025
2024
2024
2023
2023
2024
2024
2025
2026
2025
2025
2024
2024
2023
2023
2023
2023
2023
2023
2023
2024
2024
2024
2023
2022
2022
2023
2024
2025
2025
2024
2022
2022
2022
2024
2024
2024
2023
2023
2023
2023
2023
2023
2023
2024
2025
2025
2026
2026
2027
2027
2028
2026
2025
2028
2037
2048
2053
2055
2053
2051
2048
2045
2038
2028
2021
2019
2025
2035
2042
2045
2041
2038
2038
2039
2039
2040
2041
2042
2042
2043
2043
2043
2044
2044
2045
2046
2047
2048
2049
2050
2050
2049
2049
2049
2050
2052
2054
2055
2055
2056
2056
2057
2058
2060
2061
2062
2063
2064
2063
2063
2062
2062
2061
2061
2060
2059
2058
2057
2056
2055
2054
2052
2049
2047
2044
2042
2041
2041
2040
2040
2039
2038
2038
2038
2038
2039
2039
2039
2039
2039
2039
2039
2039
2039
2040
2040
2040
2040
2040
2041
2041
2042
2043
2042
2042
2041
2040
2040
2040
2041
2041
2041
2041
2041
2041
2041
2041
2041
2041
2041
2040
2040
2040
2041
2040
2041
2041
2040
2040
2040
2040
2041
2042
2042
2043
2042
2042
2041
2039
2039
2038
2037
2037
2038
2038
2039
2040
2040
2040
2040
2039
2040
2040
2038
2036
2038
2046
2055
2062
2063
2061
2058
2056
2055
2051
2043
2033
2027
2029
2037
2046
2050
2048
2045
2045
2045
2046
2046
2046
2046
2046
2046
2047
2047
2048
2048
2049
2050
2050
2051
2050
2050
2051
2052
2054
2056
2058
2058
2057
2057
2057
2058
2059
2061
2062
2063
2065
2065
2066
2066
2065
2065
2065
2065
2065
2065
2065
2064
2064
2063
2062
2060
2057
2055
2053
2052
2051
2049
2048
2044
2042
2040
2039
2040
2040
2040
2040
2040
2040
2040
2041
2040
2040
2041
2041
2042
2042
2043
2043
2042
2043
2042
2043
2042
2043
2043
2044
2045
2046
2046
2045
2044
2042
2041
2042
2042
2043
2043
2043
2043
2043
2042
2041
2041
2041
2042
2042
2043
2043
2043
2042
2042
2042
2042
2042
2042
2042
2042
2044
2046
2046
2046
2045
2043
2042
2042
2042
2042
2043
2043
2043
2043
2044
2044
2045
2045
2046
2046
2044
2043
2044
2050
2061
2069
2070
2069
2065
2061
2060
2056
2048
2041
2036
2038
2045
2052
2057
2056
2052
2052
2052
2052
2052
2052
2052
2053
2053
2054
2054
2054
2054
2055
2055
2055
2056
2056
2057
2057
2058
2059
2060
2062
2064
2065
2065
2065
2065
2066
2067
2069
2069
2070
2071
2071
2072
2073
2073
2073
2073
2073
2072
2071
2068
2067
2065
2065
2065
2064
2062
2059
2055
2052
2050
2049
2048
2047
2045
2043
2042
2042
2042
2041
2041
2041
2042
2042
2043
2043
2043
2043
2043
2043
2044
2044
2044
2044
2045
2046
2046
2045
2045
2045
2045
2046
2047
2047
2046
2045
2044
2044
2044
2043
2044
2044
2044
2044
2044
2044
2044
2044
2044
2043
2043
2043
2043
2043
2044
2044
2043
2043
2042
2042
2042
2044
2046
2047
2047
2046
2043
2042
2040
2041
2040
2041
2042
2042
2042
2043
2042
2043
2043
2043
2041
2039
2042
2049
2060
2067
2068
2067
2064
2062
2059
2052
2044
2035
2032
2037
2046
2052
2055
2052
2048
2048
2049
2049
2050
2050
2050
2051
2051
2050
2050
2051
2051
2052
2053
2053
2053
2053
2054
2055
2055
2055
2056
2057
2058
2060
2062
2062
2062
2061
2062
2062
2065
2066
2067
2068
2068
2068
2067
2067
2067
2066
2066
2066
2065
2065
2063
2061
2058
2056
2053
2051
2049
2048
2046
2046
2045
2044
2042
2040
2039
2038
2038
2038
2038
2038
2038
2038
2038
2038
2038
2038
2039
2039
2040
2041
2040
2040
2040
2040
2039
2040
2040
2040
2040
2039
2040
2041
2041
2041
2040
2039
2038
2038
2038
2038
2038
2038
2037
2037
2037
2037
2037
2037
2037
2037
2037
2036
2036
2036
2037
2037
2037
2036
2036
2037
2038
2039
2040
2040
2039
2038
2036
2036
2035
2035
2035
2035
2035
2035
2035
2036
2037
2038
2039
2037
2034
2034
2040
2051
2061
2066
2065
2061
2054
2048
2042
2033
2027
2026
2032
2042
2050
2053
2050
2046
2043
2044
2045
2045
2046
2047
2048
2048
2048
2048
2048
2048
2049
2049
2050
2050
2050
2051
2052
2054
2054
2055
2055
2055
2057
2058
2060
2062
2062
2063
2063
2064
2064
2065
2065
2066
2067
2066
2066
2066
2065
2065
2064
2063
2062
2060
2059
2058
2056
2054
2051
2048
2045
2042
2040
2040
2040
2040
2040
2038
2036
2034
2033
2033
2033
2034
2034
2035
2035
2035
2035
2035
2035
2035
2035
2035
2035
2036
2036
2037
2037
2037
2036
2035
2034
2034
2035
2037
2038
2039
2038
2036
2034
2033
2033
2034
2034
2034
2034
2034
2034
2034
2033
2033
2032
2032
2032
2032
2033
2034
2034
2034
2033
2031
2030
2029
2029
2030
2032
2033
2034
2034
2033
2032
2031
2031
2033
2032
2030
2031
2037
2047
2056
2058
2057
2051
2046
2042
2038
2031
2024
2020
2022
2030
2039
2044
2043
2039
2037
2039
2040
2041
2040
2039
2038
2038
2038
2039
2039
2039
2038
2037
2037
2038
2039
2040
2041
2042
2042
2042
2042
2043
2043
2044
2045
2047
2048
2049
2049
2050
2051
2052
2054
2054
2053
2052
2052
2051
2051
2051
2050
2049
2048
2046
2045
2043
2041
2039
2036
2034
2031
2029
2027
2026
2025
2025
2025
2024
2024
2023
2022
2022
2023
2024
2025
2025
2024
2023
2023
2024
2024
2025
2025
2024
2024
2024
2025
2025
2026
2027
2027
2027
2026
2026
2026
2026
2026
2027
2027
2027
2026
2025
2025
2026
2027
2027
2028
2027
2027
2026
2025
2025
2025
2025
2026
2025
2025
2025
2025
2025
2025
2025
2024
2024
2024
2025
2026
2027
2027
2027
2025
2024
2022
2022
2023
2024
2025
2025
2025
2024
2023
2022
2023
2024
2023
2020
2020
2024
2034
2045
2048
2048
2044
2038
2034
2031
2025
2017
2012
2012
2018
2027
2032
2033
2029
2027
2028
2029
2030
2030
2029
2028
2027
2028
2028
2029
2029
2029
2030
2030
2030
2030
2030
2031
2031
2032
2033
2034
2035
2036
2037
2037
2038
2038
2038
2039
2041
2043
2045
2046
2046
2046
2045
2044
2044
2045
2045
2045
2045
2044
2043
2042
2040
2038
2035
2033
2032
2030
2028
2026
2025
2023
2022
2020
2020
2019
2019
2019
2020
2021
2022
2022
2021
2020
2019
2017
2019
2020
2022
2024
2025
2025
2023
2022
2021
2022
2023
2024
2025
2025
2025
2024
2024
2024
2024
2024
2023
2023
2024
2025
2026
2027
2026
2025
2024
2023
2023
2024
2025
2025
2025
2025
2024
2024
2024
2025
2025
2025
2026
2027
2027
2027
2026
2025
2025
2026
2028
2029
2029
2029
2029
2030
2031
2031
2030
2029
2028
2027
2028
2029
2029
2029
2029
2029
2029
2026
2025
2028
2037
2047
2052
2052
2049
2046
2044
2041
2036
2028
2020
2017
2022
2031
2040
2044
2042
2038
2036
2036
2035
2035
2036
2037
2038
2038
2039
2039
2040
2040
2041
2041
2042
2042
2042
2042
2043
2044
2046
2048
2049
2050
2051
2052
2053
2056
2058
2060
2061
2061
2062
2062
2062
2063
2063
2063
2062
2063
2062
2062
2062
2061
2059
2058
2056
2054
2051
2048
2047
2044
2042
2041
2039
2036
2034
2032
2032
2032
2033
2034
2033
2031
2030
2030
2030
2030
2030
2030
2031
2031
2032
2032
2032
2032
2032
2032
2032
2032
2032
2033
2033
2034
2033
2032
2032
2032
2032
2033
2035
2036
2036
2036
2034
2033
2031
2031
2031
2031
2031
2031
2032
2031
2031
2030
2030
2031
2032
2033
2033
2033
2032
2032
2032
2032
2032
2032
2030
2030
2031
2033
2035
2036
2036
2034
2031
2030
2029
2029
2030
2030
2030
2030
2030
2030
2030
2030
2031
2031
2029
2027
2028
2035
2046
2052
2055
2055
2052
2048
2046
2041
2034
2026
2021
2023
2030
2037
2041
2039
2037
2036
2037
2037
2036
2036
2036
2036
2036
2037
2037
2038
2038
2039
2039
2039
2038
2039
2040
2040
2040
2040
2041
2042
2045
2047
2048
2047
2047
2046
2046
2048
2049
2049
2051
2051
2052
2052
2053
2053
2053
2053
2052
2052
2051
2050
2048
2047
2045
2044
2041
2039
2036
2033
2031
2030
2030
2029
2028
2025
2024
2023
2022
2023
2023
2023
2022
2022
2022
2023
2023
2024
2024
2025
2024
2024
2024
2024
2024
2025
2025
2026
2026
2025
2025
2025
2025
2026
2026
2025
2024
2023
2022
2022
2023
2023
2023
2022
2022
2022
2022
2023
2023
2022
2022
2022
2021
2020
2020
2020
2020
2021
2022
2022
2021
2021
2021
2021
2022
2023
2023
2022
2022
2022
2021
2022
2021
2020
2019
2020
2020
2021
2023
2023
2024
2023
2022
2021
2020
2020
2021
2021
2022
2022
2021
2020
2020
2020
2021
2023
2025
2024
2022
2020
2022
2031
2041
2045
2045
2041
2037
2034
2032
2027
2020
2013
2011
2015
2022
2029
2032
2030
2028
2029
2029
2029
2029
2029
2029
2030
2031
2032
2033
2033
2032
2032
2032
2032
2033
2033
2034
2035
2037
2038
2038
2039
2039
2039
2040
2041
2043
2044
2046
2047
2048
2049
2049
2050
2050
2051
2052
2053
2054
2055
2054
2053
2051
2049
2049
2048
2047
2046
2044
2041
2039
2037
2035
2033
2031
2029
2028
2027
2026
2026
2026
2026
2027
2026
2025
2025
2024
2025
2027
2029
2029
2029
2027
2026
2025
2025
2027
2028
2028
2029
2029
2028
2028
2027
2027
2027
2027
2028
2028
2028
2028
2027
2026
2027
2027
2027
2026
2026
2026
2026
2027
2027
2027
2026
2025
2025
2026
2027
2027
2027
2027
2026
2026
2025
2025
2025
2025
2026
2027
2027
2028
2028
2028
2027
2026
2026
2026
2025
2025
2024
2025
2026
2027
2027
2027
2027
2027
2028
2027
2026
2024
2026
2035
2046
2053
2056
2053
2047
2040
2035
2029
2023
2018
2017
2022
2029
2038
2041
2038
2033
2032
2032
2033
2036
2037
2037
2036
2035
2035
2035
2037
2038
2038
2038
2038
2039
2040
2041
2042
2043
2044
2044
2044
2044
2045
2047
2048
2049
2051
2052
2052
2053
2054
2055
2057
2058
2059
2059
2058
2058
2058
2058
2057
2055
2053
2052
2051
2050
2049
2048
2045
2042
2039
2036
2034
2032
2030
2031
2032
2033
2034
2033
2031
2029
2029
2030
2032
2033
2032
2031
2031
2030
2031
2031
2031
2032
2032
2033
2033
2033
2033
2033
2033
2034
2034
2034
2034
2033
2033
2033
2033
2032
2032
2031
2031
2031
2032
2033
2034
2033
2032
2031
2030
2030
2030
2031
2031
2031
2031
2032
2032
2032
2032
2032
2031
2031
2031
2031
2031
2031
2031
2031
2030
2031
2030
2030
2030
2032
2034
2035
2033
2030
2028
2032
2044
2057
2066
2069
2062
2051
2039
2028
2019
2014
2014
2020
2030
2039
2046
2046
2042
2040
2041
2042
2042
2042
2042
2043
2044
2045
2046
2047
2046
2045
2045
2045
2046
2047
2048
2048
2049
2049
2050
2050
2051
2052
2053
2054
2056
2057
2058
2059
2059
2060
2061
2061
2061
2061
2062
2063
2064
2064
2064
2062
2060
2058
2057
2056
2055
2052
2050
2048
2046
2044
2042
2040
2039
2037
2037
2036
2036
2035
2035
2035
2035
2035
2035
2035
2034
2035
2036
2036
2037
2037
2036
2035
2035
2035
2036
2037
2037
2038
2038
2038
2038
2038
2039
2039
2039
2039
2039
2039
2038
2037
2037
2037
2037
2037
2037
2036
2036
2036
2037
2039
2039
2038
2037
2035
2034
2034
2036
2036
2036
2036
2036
2035
2035
2034
2034
2034
2034
2034
2034
2034
2034
2035
2035
2036
2037
2037
2034
2033
2035
2044
2054
2058
2058
2056
2055
2057
2059
2056
2048
2036
2029
2030
2039
2048
2053
2051
2049
2049
2051
2052
2053
2054
2055
2055
2056
2057
2056
2055
2054
2054
2055
2057
2059
2061
2061
2060
2060
2060
2061
2063
2063
2064
2065
2066
2067
2068
2069
2070
2071
2071
2072
2073
2074
2075
2076
2076
2075
2074
2073
2071
2071
2070
2070
2069
2068
2066
2063
2060
2057
2055
2053
2051
2050
2049
2049
2049
2048
2048
2047
2047
2047
2047
2047
2048
2048
2048
2048
2048
2048
2048
2048
2048
2048
2048
2050
2051
2050
2050
2049
2048
2048
2049
2050
2050
2050
2049
2049
2049
2051
2052
2053
2054
2053
2053
2052
2052
2053
2052
2052
2052
2051
2050
2050
2050
2050
2052
2052
2052
2051
2050
2050
2050
2051
2051
2051
2051
2050
2050
2050
2050
2050
2049
2049
2049
2049
2049
2049
2049
2049
2049
2048
2047
2049
2057
2067
2073
2076
2076
2074
2072
2067
2058
2048
2040
2038
2044
2052
2058
2059
2055
2052
2052
2053
2053
2053
2054
2054
2054
2054
2055
2055
2055
2055
2055
2055
2055
2056
2058
2059
2060
2060
2059
2059
2059
2059
2061
2061
2062
2062
2063
2064
2065
2066
2068
2070
2071
2072
2072
2072
2071
2070
2069
2070
2069
2069
2067
2066
2065
2064
2063
2061
2058
2055
2052
2049
2048
2048
2046
2045
2044
2043
2043
2043
2043
2044
2044
2043
2043
2043
2042
2042
2042
2042
2043
2043
2044
2043
2043
2043
2043
2044
2044
2045
2044
2043
2043
2043
2044
2044
2043
2042
2042
2042
2042
2043
2043
2043
2042
2041
2040
2039
2040
2040
2040
2041
2041
2040
2038
2037
2036
2037
2039
2040
2041
2041
2040
2040
2039
2038
2038
2037
2037
2037
2037
2037
2037
2037
2037
2037
2037
2038
2038
2039
2038
2036
2036
2041
2049
2057
2060
2061
2058
2056
2054
2050
2043
2033
2026
2026
2033
2042
2048
2049
2046
2044
2045
2045
2045
2044
2044
2045
2045
2046
2046
2047
2047
2048
2048
2048
2047
2047
2048
2048
2050
2052
2053
2053
2053
2052
2052
2053
2054
2056
2057
2057
2058
2058
2059
2060
2061
2061
2062
2062
2061
2061
2061
2060
2059
2058
2057
2055
2053
2052
2050
2049
2049
2048
2045
2042
2038
2036
2034
2035
2035
2035
2035
2034
2033
2033
2032
2032
2032
2032
2032
2032
2032
2033
2032
2032
2033
2033
2033
2033
2033
2033
2034
2035
2036
2035
2034
2032
2031
2030
2031
2032
2033
2034
2033
2031
2029
2028
2028
2029
2030
2031
2030
2030
2030
2030
2029
2030
2029
2029
2029
2029
2030
2031
2032
2032
2032
2030
2028
2027
2027
2028
2029
2029
2029
2028
2028
2028
2028
2029
2030
2029
2027
2026
2030
2039
2048
2052
2053
2050
2046
2041
2035
2028
2021
2018
2021
2028
2036
2041
2041
2038
2035
2037
2037
2037
2037
2037
2038
2038
2039
2039
2040
2040
2040
2040
2039
2039
2040
2041
2043
2045
2045
2045
2044
2045
2046
2048
2049
2051
2051
2051
2051
2051
2054
2055
2056
2057
2057
2056
2057
2057
2057
2058
2057
2056
2055
2053
2052
2051
2050
2050
2048
2046
2043
2040
2037
2036
2037
2037
2037
2036
2034
2033
2031
2031
2031
2032
2032
2033
2033
2033
2033
2033
2033
2033
2034
2034
2035
2035
2036
2036
2037
2037
2037
2036
2036
2036
2036
2037
2038
2038
2038
2037
2036
2035
2035
2035
2036
2036
2036
2036
2036
2035
2035
2034
2033
2032
2032
2033
2035
2036
2036
2035
2034
2033
2032
2031
2031
2032
2033
2035
2035
2035
2034
2032
2032
2033
2034
2033
2031
2033
2040
2051
2059
2062
2059
2051
2044
2038
2032
2027
2023
2022
2027
2036
2043
2046
2043
2039
2039
2041
2042
2043
2043
2042
2042
2042
2041
2043
2043
2044
2044
2044
2044
2044
2045
2046
2047
2048
2048
2049
2050
2051
2052
2052
2052
2053
2053
2055
2056
2057
2059
2061
2062
2061
2060
2059
2057
2057
2058
2058
2058
2057
2056
2054
2052
2050
2048
2047
2045
2043
2042
2040
2038
2036
2034
2033
2033
2033
2033
2033
2032
2033
2033
2034
2034
2033
2032
2031
2032
2032
2034
2034
2034
2034
2034
2033
2033
2034
2035
2036
2036
2036
2035
2034
2034
2034
2035
2036
2036
2036
2035
2035
2035
2035
2035
2035
2034
2034
2033
2033
2034
2034
2034
2033
2034
2034
2035
2035
2035
2034
2033
2032
2032
2032
2032
2032
2033
2033
2034
2034
2034
2034
2033
2031
2030
2033
2042
2052
2059
2061
2058
2051
2046
2040
2034
2027
2022
2021
2027
2035
2043
2046
2044
2040
2040
2041
2041
2042
2042
2043
2044
2043
2043
2042
2042
2043
2045
2047
2047
2047
2047
2047
2047
2047
2048
2048
2049
2050
2052
2053
2054
2054
2055
2056
2057
2058
2059
2059
2060
2060
2061
2061
2061
2060
2059
2058
2058
2059
2059
2058
2056
2053
2050
2048
2046
2044
2043
2041
2040
2038
2037
2036
2035
2035
2034
2033
2033
2033
2034
2035
2036
2036
2036
2036
2035
2034
2034
2034
2036
2037
2039
2039
2038
2036
2036
2036
2037
2038
2038
2038
2038
2037
2037
2037
2037
2037
2037
2037
2037
2037
2036
2036
2036
2036
2035
2035
2034
2034
2035
2037
2039
2040
2039
2037
2035
2033
2032
2033
2033
2034
2034
2035
2036
2036
2036
2035
2036
2037
2036
2034
2033
2037
2045
2052
2057
2057
2056
2054
2053
2050
2046
2037
2030
2029
2034
2041
2047
2048
2045
2043
2043
2044
2044
2044
2044
2044
2044
2045
2046
2046
2046
2046
2047
2047
2048
2048
2048
2049
2050
2050
2051
2051
2053
2055
2056
2056
2056
2057
2057
2059
2060
2060
2061
2061
2061
2062
2062
2062
2062
2062
2062
2061
2061
2059
2058
2056
2054
2054
2051
2049
2047
2044
2042
2041
2042
2041
2040
2038
2037
2036
2035
2036
2036
2036
2035
2035
2035
2035
2036
2036
2036
2037
2037
2037
2037
2037
2038
2038
2039
2039
2039
2038
2038
2038
2038
2039
2040
2040
2039
2038
2038
2036
2038
2037
2037
2036
2036
2037
2038
2039
2039
2038
2037
2037
2036
2036
2037
2036
2036
2038
2039
2039
2038
2037
2036
2036
2037
2038
2039
2038
2037
2036
2036
2036
2037
2037
2038
2038
2039
2037
2035
2035
2042
2050
2057
2059
2059
2058
2059
2060
2058
2049
2038
2029
2028
2034
2043
2049
2050
2047
2046
2045
2044
2043
2044
2044
2045
2045
2045
2046
2046
2047
2047
2047
2047
2048
2048
2050
2051
2052
2052
2052
2053
2053
2053
2053
2054
2056
2058
2060
2061
2061
2061
2060
2060
2061
2061
2062
2063
2063
2062
2062
2062
2061
2061
2060
2058
2056
2054
2052
2050
2048
2047
2044
2042
2040
2039
2038
2038
2039
2039
2040
2039
2037
2036
2036
2036
2037
2038
2039
2039
2039
2038
2038
2038
2038
2038
2039
2039
2039
2039
2039
2039
2039
2039
2039
2039
2038
2038
2038
2039
2040
2040
2040
2039
2038
2037
2037
2038
2038
2038
2038
2037
2037
2036
2037
2037
2038
2038
2038
2038
2038
2038
2038
2037
2037
2037
2037
2037
2037
2038
2038
2039
2039
2039
2038
2037
2036
2036
2036
2037
2037
2037
2037
2037
2037
2038
2039
2039
2037
2036
2037
2044
2052
2057
2058
2057
2057
2056
2055
2050
2041
2032
2028
2032
2041
2048
2052
2049
2046
2045
2046
2046
2047
2047
2047
2047
2047
2048
2048
2048
2048
2048
2048
2049
2049
2050
2050
2051
2052
2053
2053
2053
2053
2054
2056
2057
2059
2060
2060
2061
2061
2062
2063
2063
2063
2064
2064
2065
2066
2066
2066
2065
2063
2062
2061
2060
2059
2056
2056
2054
2051
2048
2045
2043
2042
2042
2043
2043
2041
2039
2038
2037
2037
2038
2038
2038
2038
2039
2039
2040
2040
2040
2039
2039
2039
2040
2040
2041
2042
2043
2043
2043
2042
2041
2041
2041
2042
2043
2043
2043
2041
2040
2039
2039
2040
2040
2040
2040
2040
2040
2040
2039
2039
2039
2039
2039
2039
2040
2040
2040
2039
2040
2039
2039
2039
2039
2039
2039
2040
2041
2041
2041
2040
2039
2038
2038
2038
2038
2038
2038
2038
2038
2038
2038
2038
2038
2038
2039
2040
2039
2037
2035
2039
2046
2054
2058
2058
2056
2054
2054
2053
2048
2039
2030
2027
2031
2040
2048
2050
2048
2045
2045
2045
2045
2045
2046
2046
2047
2047
2047
2047
2047
2047
2048
2048
2048
2048
2048
2049
2050
2052
2053
2054
2053
2053
2053
2055
2056
2057
2057
2058
2059
2060
2060
2061
2061
2061
2062
2062
2063
2062
2062
2062
2061
2061
2060
2059
2057
2055
2054
2053
2052
2050
2048
2045
2042
2040
2039
2039
2039
2037
2037
2036
2036
2036
2036
2036
2037
2038
2038
2038
2038
2037
2037
2037
2037
2039
2039
2039
2038
2037
2038
2039
2041
