2064
2062
2059
2057
2058
2060
2064
2066
2066
2063
2060
2056
2056
2055
2056
2056
2057
2058
2059
2059
2060
2060
2060
2060
2060
2059
2058
2057
2057
2056
2055
2055
2054
2052
2050
2048
2049
2052
2057
2060
2059
2055
2051
2051
2060
2076
2093
2106
2112
2107
2090
2062
2029
1996
1976
1974
1989
2012
2034
2047
2049
2050
2051
2053
2052
2051
2050
2051
2056
2060
2064
2064
2061
2059
2056
2058
2058
2060
2061
2062
2063
2064
2065
2066
2067
2068
2069
2070
2072
2074
2076
2077
2081
2082
2083
2083
2081
2080
2082
2085
2089
2091
2089
2084
2079
2074
2072
2069
2065
2061
2057
2053
2050
2048
2045
2042
2041
2040
2039
2038
2037
2036
2035
2035
2035
2035
2034
2032
2030
2029
2031
2035
2039
2041
2040
2037
2034
2033
2034
2035
2037
2037
2038
2038
2038
2038
2038
2038
2039
2039
2040
2040
2039
2039
2037
2040
2040
2039
2036
2033
2032
2034
2039
2044
2045
2043
2039
2035
2032
2036
2036
2037
2037
2036
2036
2036
2036
2036
2036
2036
2037
2037
2037
2037
2036
2035
2037
2037
2038
2037
2035
2034
2035
2037
2040
2041
2039
2037
2035
2034
2037
2039
2041
2041
2042
2041
2042
2042
2042
2042
2041
2040
2039
2038
2038
2038
2038
2040
2041
2040
2039
2037
2035
2036
2038
2041
2046
2052
2064
2077
2088
2096
2095
2082
2059
2029
1998
1976
1970
1980
2001
2022
2038
2044
2044
2044
2045
2046
2048
2049
2051
2051
2050
2049
2050
2053
2056
2059
2060
2059
2058
2057
2057
2058
2060
2061
2062
2064
2065
2067
2069
2070
2071
2073
2075
2077
2079
2081
2084
2085
2086
2088
2088
2086
2084
2082
2082
2084
2085
2084
2080
2073
2067
2061
2057
2054
2051
2048
2046
2044
2045
2043
2041
2039
2037
2037
2038
2040
2040
2040
2037
2039
2038
2036
2037
2033
2032
2035
2040
2045
2044
2041
2037
2037
2040
2048
2049
2048
2045
2042
2040
2041
2042
2044
2043
2043
2043
2043
2043
2043
2043
2042
2044
2044
2044
2043
2040
2038
2038
2040
2044
2048
2048
2047
2044
2042
2041
2042
2042
2042
2042
2041
2041
2040
2040
2039
2039
2040
2041
2043
2044
2044
2044
2046
2047
2047
2045
2041
2038
2037
2040
2045
2048
2048
2047
2043
2041
2041
2043
2044
2045
2043
2043
2045
2052
2066
2084
2100
2112
2112
2098
2069
2033
1995
1970
1968
1981
2003
2022
2033
2038
2041
2048
2054
2057
2055
2052
2049
2048
2051
2053
2055
2055
2056
2056
2056
2057
2058
2059
2061
2062
2063
2064
2064
2065
2065
2067
2070
2072
2073
2073
2073
2076
2081
2087
2091
2092
2092
2090
2089
2091
2092
2092
2090
2088
2085
2081
2077
2073
2068
2062
2057
2052
2048
2046
2043
2040
2040
2038
2037
2033
2030
2028
2028
2032
2036
2039
2039
2037
2034
2031
2031
2032
2032
2032
2032
2032
2033
2033
2034
2034
2034
2035
2035
2036
2036
2037
2037
2037
2038
2039
2038
2037
2035
2035
2037
2039
2042
2042
2040
2037
2035
2034
2035
2036
2035
2034
2034
2034
2034
2034
2035
2035
2035
2036
2036
2037
2038
2039
2039
2039
2040
2037
2035
2032
2031
2033
2035
2039
2041
2040
2037
2036
2035
2035
2036
2036
2035
2037
2046
2060
2078
2093
2103
2101
2086
2058
2023
1988
1965
1958
1973
1995
2017
2031
2035
2033
2034
2039
2045
2048
2048
2047
2045
2043
2045
2046
2048
2048
2049
2050
2050
2051
2051
2052
2053
2055
2056
2057
2058
2059
2059
2063
2064
2066
2067
2067
2068
2070
2075
2081
2085
2087
2085
2083
2082
2082
2081
2080
2077
2074
2070
2065
2061
2055
2050
2046
2042
2038
2035
2033
2031
2029
2028
2027
2026
2025
2022
2020
2020
2022
2026
2029
2030
2028
2025
2022
2022
2023
2024
2026
2026
2026
2026
2026
2026
2027
2027
2028
2028
2029
2030
2030
2030
2028
2032
2032
2032
2029
2026
2024
2026
2032
2037
2040
2037
2033
2029
2026
2030
2030
2031
2030
2029
2029
2029
2029
2030
2030
2030
2030
2030
2029
2029
2028
2026
2028
2029
2029
2028
2026
2025
2028
2033
2038
2041
2040
2037
2033
2030
2032
2032
2032
2031
2031
2030
2031
2031
2032
2032
2033
2033
2031
2030
2032
2038
2050
2067
2079
2084
2080
2067
2048
2027
2005
1986
1976
1977
1989
2005
2020
2030
2034
2035
2036
2037
2038
2039
2040
2042
2043
2044
2045
2045
2046
2046
2047
2047
2049
2050
2051
2051
2049
2048
2050
2054
2059
2064
2065
2064
2063
2063
2065
2068
2070
2073
2074
2076
2078
2079
2080
2080
2079
2078
2077
2074
2072
2068
2065
2061
2057
2052
2048
2042
2037
2033
2032
2033
2036
2037
2035
2032
2029
2026
2025
2025
2026
2026
2026
2026
2027
2027
2026
2025
2024
2024
2025
2028
2030
2031
2029
2030
2029
2028
2027
2026
2024
2026
2029
2033
2036
2035
2033
2030
2027
2028
2028
2029
2030
2030
2030
2030
2030
2029
2029
2029
2029
2030
2030
2030
2030
2029
2030
2030
2030
2028
2026
2025
2025
2028
2032
2034
2034
2032
2029
2027
2028
2028
2027
2027
2026
2027
2028
2030
2031
2032
2033
2033
2033
2034
2034
2033
2033
2032
2032
2032
2030
2028
2026
2026
2029
2033
2036
2036
2035
2031
2028
2026
2028
2034
2048
2062
2075
2081
2081
2072
2058
2038
2012
1988
1972
1970
1983
2002
2020
2034
2036
2035
2032
2030
2030
2034
2040
2046
2049
2048
2046
2043
2041
2044
2045
2047
2047
2047
2048
2048
2049
2050
2052
2053
2054
2056
2057
2058
2060
2060
2064
2066
2068
2069
2069
2068
2071
2074
2079
2081
2080
2077
2073
2068
2067
2065
2062
2058
2054
2049
2046
2043
2040
2037
2031
2027
2024
2025
2030
2033
2034
2033
2029
2025
2021
2019
2017
2019
2022
2027
2031
2032
2029
2026
2024
2025
2026
2027
2027
2027
2027
2028
2028
2029
2029
2029
2029
2029
2029
2029
2030
2030
2030
2031
2032
2030
2029
2026
2026
2027
2030
2034
2034
2033
2031
2028
2028
2028
2029
2029
2029
2029
2029
2030
2030
2030
2030
2029
2030
2030
2030
2030
2030
2029
2030
2030
2029
2028
2026
2025
2027
2030
2034
2034
2033
2030
2028
2026
2026
2027
2028
2031
2034
2037
2039
2038
2039
2037
2036
2034
2032
2030
2031
2033
2034
2037
2035
2033
2030
2026
2026
2028
2031
2035
2039
2043
2051
2062
2071
2080
2081
2076
2063
2043
2017
1992
1976
1975
1989
2008
2026
2036
2038
2037
2037
2037
2041
2042
2043
2041
2038
2037
2038
2043
2049
2054
2054
2052
2049
2047
2048
2049
2050
2051
2052
2053
2055
2055
2057
2058
2060
2062
2064
2067
2068
2070
2070
2073
2077
2078
2077
2071
2067
2066
2070
2077
2082
2081
2073
2063
2054
2048
2048
2046
2044
2040
2037
2034
2032
2031
2030
2030
2029
2029
2029
2029
2028
2028
2027
2030
2028
2027
2024
2020
2020
2025
2033
2039
2041
2037
2032
2028
2026
2030
2030
2032
2032
2031
2031
2031
2031
2031
2032
2032
2032
2033
2033
2033
2033
2032
2033
2033
2033
2031
2028
2027
2027
2031
2036
2037
2036
2033
2030
2027
2028
2029
2031
2030
2031
2032
2032
2032
2032
2031
2031
2030
2030
2030
2031
2031
2031
2031
2032
2031
2029
2026
2024
2025
2030
2035
2040
2042
2040
2037
2035
2035
2036
2037
2036
2035
2034
2034
2033
2034
2033
2032
2031
2030
2031
2032
2033
2034
2033
2033
2032
2033
2038
2048
2061
2073
2084
2089
2085
2069
2044
2014
1989
1978
1985
2001
2019
2033
2038
2037
2036
2036
2038
2039
2040
2041
2042
2043
2044
2043
2046
2046
2045
2044
2043
2044
2047
2050
2054
2055
2054
2053
2053
2052
2056
2057
2058
2060
2061
2063
2064
2066
2066
2070
2071
2071
2071
2071
2071
2072
2071
2073
2071
2067
2060
2052
2048
2048
2047
2048
2048
2046
2041
2037
2032
2032
2030
2030
2030
2029
2030
2030
2029
2028
2027
2028
2028
2028
2028
2028
2028
2027
2029
2031
2032
2030
2025
2022
2024
2029
2037
2043
2043
2039
2033
2029
2028
2031
2032
2033
2033
2033
2033
2033
2033
2033
2034
2034
2034
2034
2034
2035
2035
2033
2036
2034
2033
2029
2026
2025
2029
2036
2042
2044
2041
2035
2031
2028
2031
2032
2033
2032
2032
2031
2030
2029
2029
2030
2032
2033
2035
2036
2037
2037
2037
2038
2037
2036
2033
2032
2032
2035
2039
2040
2039
2035
2031
2028
2028
2030
2030
2031
2029
2028
2030
2036
2048
2065
2078
2089
2089
2077
2052
2021
1989
1965
1959
1969
1990
2009
2022
2028
2028
2030
2036
2039
2040
2040
2037
2036
2037
2039
2041
2041
2042
2043
2044
2045
2046
2046
2047
2048
2048
2049
2051
2051
2052
2055
2057
2059
2060
2059
2058
2059
2064
2070
2076
2080
2081
2079
2077
2076
2075
2075
2075
2073
2071
2069
2066
2063
2059
2054
2050
2046
2043
2040
2038
2035
2036
2035
2034
2032
2029
2027
2027
2029
2033
2035
2034
2032
2029
2027
2028
2029
2030
2031
2031
2031
2032
2032
2032
2033
2033
2034
2035
2035
2034
2034
2034
2034
2034
2035
2035
2034
2032
2030
2030
2034
2038
2042
2042
2039
2036
2033
2032
2032
2034
2034
2034
2035
2035
2034
2034
2034
2034
2034
2033
2032
2030
2029
2028
2032
2035
2036
2035
2032
2031
2033
2036
2043
2045
2044
2041
2036
2033
2034
2034
2036
2036
2036
2035
2036
2035
2035
2036
2037
2037
2036
2035
2037
2045
2059
2079
2096
2108
2104
2084
2051
2014
1979
1957
1954
1968
1993
2018
2038
2046
2046
2043
2041
2040
2042
2045
2047
2047
2048
2048
2048
2050
2051
2052
2052
2053
2053
2055
2056
2057
2055
2054
2054
2058
2063
2068
2071
2071
2070
2070
2071
2074
2077
2080
2082
2084
2086
2087
2087
2088
2088
2088
2087
2085
2082
2079
2074
2068
2066
2061
2056
2049
2043
2039
2038
2041
2045
2046
2042
2037
2033
2029
2032
2032
2032
2032
2031
2031
2031
2031
2031
2031
2032
2032
2032
2033
2034
2034
2033
2035
2035
2035
2034
2033
2032
2033
2036
2039
2041
2041
2039
2036
2035
2036
2037
2037
2037
2037
2036
2036
2036
2036
2036
2035
2034
2034
2033
2034
2034
2035
2036
2038
2038
2037
2035
2034
2035
2038
2042
2045
2044
2041
2037
2035
2034
2035
2035
2036
2036
2036
2037
2038
2039
2039
2037
2037
2039
2048
2064
2083
2102
2113
2110
2090
2053
2010
1972
1953
1958
1980
2007
2028
2039
2040
2038
2039
2041
2044
2045
2046
2047
2048
2048
2049
2050
2051
2052
2053
2053
2054
2054
2056
2057
2058
2061
2060
2059
2059
2059
2062
2067
2073
2077
2078
2077
2077
2078
2081
2084
2087
2089
2090
2091
2091
2090
2089
2087
2085
2081
2080
2075
2069
2064
2057
2054
2051
2048
2044
2038
2033
2032
2034
2036
2040
2037
2034
2030
2027
2028
2028
2029
2030
2030
2030
2030
2030
2029
2030
2031
2031
2032
2032
2033
2033
2033
2035
2036
2036
2033
2031
2029
2031
2036
2042
2045
2044
2040
2036
2034
2034
2036
2036
2037
2036
2037
2036
2036
2035
2034
2034
2034
2034
2034
2035
2035
2035
2036
2037
2038
2037
2035
2033
2034
2036
2040
2042
2042
2039
2035
2031
2033
2034
2035
2036
2036
2037
2037
2036
2034
2034
2038
2048
2065
2083
2098
2106
2100
2081
2053
2017
1982
1960
1957
1973
2000
2027
2045
2048
2045
2041
2039
2039
2044
2045
2047
2047
2048
2048
2049
2050
2051
2052
2052
2053
2054
2054
2055
2056
2055
2058
2059
2061
2061
2061
2061
2063
2068
2074
2078
2080
2081
2081
2080
2083
2085
2086
2086
2087
2087
2086
2085
2082
2080
2075
2071
2065
2059
2054
2049
2046
2044
2042
2039
2034
2030
2027
2027
2030
2034
2037
2036
2033
2030
2028
2027
2028
2027
2028
2027
2028
2028
2029
2029
2030
2030
2030
2030
2030
2031
2031
2031
2032
2033
2034
2034
2033
2031
2031
2032
2035
2038
2039
2037
2035
2032
2031
2032
2033
2033
2032
2031
2030
2030
2030
2030
2031
2031
2032
2032
2033
2034
2035
2035
2035
2035
2034
2031
2029
2027
2029
2031
2035
2036
2035
2033
2032
2031
2032
2033
2032
2030
2031
2038
2051
2070
2086
2097
2098
2087
2064
2031
1996
1968
1955
1964
1985
2008
2026
2032
2031
2031
2035
2040
2045
2046
2045
2042
2041
2042
2043
2046
2047
2048
2048
2048
2048
2048
2049
2050
2051
2053
2055
2056
2057
2058
2060
2062
2064
2065
2065
2066
2069
2074
2080
2085
2087
2086
2083
2081
2081
2081
2080
2079
2075
2071
2066
2061
2056
2051
2047
2042
2039
2036
2033
2031
2029
2028
2028
2027
2025
2022
2019
2019
2022
2027
2031
2031
2028
2024
2020
2021
2022
2023
2025
2025
2025
2025
2025
2026
2026
2027
2027
2028
2029
2029
2029
2028
2029
2032
2031
2030
2027
2024
2024
2027
2033
2037
2038
2035
2030
2026
2024
2027
2027
2028
2028
2028
2028
2028
2027
2027
2026
2026
2025
2025
2025
2024
2025
2024
2027
2028
2028
2027
2026
2026
2028
2032
2035
2037
2035
2031
2028
2026
2027
2028
2029
2029
2030
2030
2030
2031
2030
2029
2027
2031
2039
2053
2067
2074
2077
2077
2073
2061
2042
2014
1987
1974
1979
1998
2020
2034
2038
2035
2032
2033
2035
2037
2038
2038
2039
2042
2043
2044
2042
2040
2040
2043
2048
2053
2055
2054
2050
2048
2048
2050
2051
2052
2053
2056
2060
2065
2067
2067
2067
2067
2068
2071
2073
2074
2075
2076
2076
2076
2075
2074
2072
2068
2065
2060
2056
2052
2049
2046
2043
2040
2036
2032
2028
2026
2027
2029
2032
2033
2031
2028
2025
2024
2024
2025
2025
2025
2025
2026
2027
2027
2027
2027
2027
2027
2028
2029
2029
2029
2028
2029
2029
2030
2030
2029
2027
2028
2029
2033
2036
2036
2034
2031
2028
2028
2029
2030
2031
2031
2032
2032
2031
2030
2030
2030
2030
2030
2030
2029
2028
2027
2028
2029
2030
2029
2028
2027
2029
2033
2038
2041
2041
2037
2034
2031
2031
2032
2032
2032
2031
2031
2031
2032
2032
2032
2033
2033
2033
2031
2032
2037
2048
2063
2077
2085
2087
2079
2065
2045
2021
1999
1983
1981
1990
2006
2022
2032
2035
2036
2037
2038
2040
2041
2041
2042
2043
2044
2045
2045
2047
2047
2048
2048
2048
2050
2050
2051
2049
2048
2048
2051
2058
2063
2067
2066
2064
2063
2062
2067
2069
2072
2073
2075
2076
2077
2078
2078
2078
2078
2077
2075
2073
2069
2065
2060
2057
2052
2048
2044
2039
2035
2033
2033
2035
2036
2035
2032
2029
2027
2027
2027
2027
2026
2027
2027
2027
2027
2026
2027
2027
2027
2028
2028
2028
2028
2028
2030
2031
2031
2029
2026
2024
2026
2030
2035
2039
2038
2036
2032
2030
2029
2031
2031
2032
2031
2031
2031
2031
2031
2032
2032
2032
2032
2031
2030
2030
2030
2031
2032
2032
2031
2029
2027
2028
2031
2035
2038
2037
2035
2032
2028
2029
2030
2031
2031
2031
2032
2033
2034
2033
2033
2031
2030
2030
2030
2031
2033
2034
2037
2038
2039
2037
2035
2033
2033
2036
2039
2043
2044
2041
2037
2035
2034
2034
2035
2035
2036
2036
2037
2038
2037
2035
2035
2040
2051
2068
2084
2097
2101
2093
2076
2047
2013
1983
1967
1969
1988
2011
2032
2044
2044
2042
2039
2039
2041
2042
2045
2046
2047
2048
2048
2048
2049
2050
2050
2050
2051
2052
2053
2055
2055
2057
2058
2059
2058
2057
2058
2061
2067
2073
2077
2078
2077
2076
2077
2081
2083
2085
2087
2087
2087
2086
2086
2085
2083
2080
2077
2073
2069
2064
2060
2055
2052
2049
2047
2044
2039
2035
2033
2034
2037
2040
2041
2039
2035
2032
2031
2032
2033
2033
2033
2033
2034
2034
2035
2035
2035
2035
2035
2036
2036
2037
2037
2037
2040
2039
2038
2036
2033
2033
2036
2041
2045
2046
2043
2040
2037
2035
2038
2038
2038
2038
2037
2037
2037
2037
2037
2037
2037
2037
2037
2037
2037
2037
2035
2037
2038
2038
2037
2035
2034
2034
2036
2039
2040
2039
2037
2034
2033
2036
2038
2040
2041
2041
2041
2041
2041
2041
2041
2040
2039
2039
2038
2039
2038
2038
2039
2039
2039
2038
2036
2034
2035
2038
2041
2045
2049
2059
2074
2091
2105
2110
2097
2067
2025
1981
1949
1939
1951
1977
2005
2026
2036
2039
2039
2042
2045
2047
2049
2051
2051
2051
2050
2050
2052
2055
2059
2061
2061
2059
2058
2058
2060
2062
2064
2065
2066
2068
2069
2071
2073
2074
2076
2078
2080
2083
2086
2090
2093
2096
2098
2099
2098
2097
2096
2097
2098
2100
2099
2094
2088
2080
2073
2068
2062
2057
2052
2048
2045
2042
2040
2038
2037
2036
2035
2034
2033
2033
2031
2032
2034
2033
2032
2030
2028
2028
2031
2034
2038
2041
2040
2038
2035
2034
2034
2035
2036
2037
2038
2038
2038
2037
2037
2038
2039
2039
2040
2040
2039
2039
2038
2039
2039
2039
2037
2034
2033
2034
2037
2041
2044
2043
2040
2038
2036
2037
2037
2038
2037
2036
2034
2034
2034
2034
2035
2036
2037
2038
2039
2040
2042
2042
2043
2043
2041
2037
2035
2032
2033
2034
2037
2039
2040
2043
2045
2045
2045
2043
2039
2035
2036
2042
2056
2074
2093
2105
2107
2091
2060
2019
1976
1944
1931
1943
1971
2001
2024
2034
2035
2034
2039
2048
2055
2059
2058
2055
2052
2051
2054
2055
2057
2057
2058
2059
2059
2060
2061
2063
2065
2066
2067
2068
2069
2070
2071
2076
2078
2079
2079
2079
2081
2085
2091
2098
2103
2105
2105
2103
2102
2103
2104
2103
2101
2098
2094
2090
2084
2079
2072
2065
2060
2054
2050
2048
2044
2041
2039
2039
2037
2035
2031
2029
2031
2036
2041
2044
2043
2039
2035
2032
2032
2034
2035
2036
2037
2037
2038
2038
2038
2039
2040
2041
2041
2041
2041
2041
2041
2040
2042
2043
2044
2043
2042
2042
2043
2045
2048
2048
2047
2045
2043
2043
2043
2044
2044
2042
2041
2040
2040
2041
2042
2042
2042
2043
2044
2045
2047
2048
2048
2048
2048
2048
2046
2044
2041
2041
2043
2046
2049
2049
2049
2048
2047
2048
2047
2046
2045
2048
2054
2069
2087
2102
2108
2102
2080
2045
2004
1969
1947
1945
1966
1994
2021
2038
2046
2048
2050
2057
2065
2068
2068
2066
2063
2062
2065
2066
2068
2069
2071
2072
2074
2075
2075
2076
2076
2078
2080
2082
2084
2086
2086
2088
2091
2094
2096
2098
2099
2102
2107
2113
2119
2122
2123
2124
2124
2126
2127
2127
2126
2124
2120
2116
2111
2105
2100
2094
2089
2084
2079
2075
2071
2069
2067
2066
2066
2064
2061
2058
2057
2058
2061
2065
2066
2064
2062
2060
2058
2059
2060
2060
2059
2059
2059
2059
2059
2059
2059
2059
2059
2059
2059
2058
2058
2056
2058
2057
2057
2054
2051
2050
2052
2056
2060
2062
2059
2055
2050
2047
2048
2047
2048
2047
2047
2048
2048
2048
2048
2049
2050
2050
2049
2048
2048
2047
2045
2046
2045
2044
2043
2040
2039
2039
2042
2046
2048
2047
2045
2041
2038
2041
2047
2059
2075
2088
2094
2090
2073
2045
2010
1977
1955
1950
1963
1988
2013
2031
2041
2044
2043
2043
2042
2042
2044
2048
2052
2057
2057
2056
2053
2051
2051
2053
2054
2055
2055
2056
2057
2057
2059
2060
2062
2063
2065
2066
2067
2069
2072
2075
2078
2081
2083
2083
2083
2085
2089
2094
2097
2097
2095
2091
2086
2083
2079
2075
2071
2066
2061
2055
2050
2046
2041
2037
2034
2032
2030
2029
2028
2026
2027
2027
2027
2024
2021
2018
2018
2022
2027
2032
2033
2031
2027
2024
2023
2025
2025
2026
2027
2027
2028
2029
2029
2030
2030
2030
2029
2029
2029
2030
2030
2029
2031
2031
2029
2028
2026
2024
2025
2028
2032
2035
2034
2031
2028
2026
2025
2025
2025
2027
2027
2027
2027
2027
2027
2026
2026
2025
2026
2025
2026
2026
2026
2028
2027
2026
2024
2022
2021
2023
2027
2031
2034
2033
2030
2028
2026
2026
2026
2027
2027
2027
2027
2027
2027
2027
2027
2027
2027
2027
2026
2025
2024
2025
2026
2029
2031
2032
2030
2028
2027
2029
2033
2037
2039
2037
2033
2030
2026
2027
2028
2028
2028
2029
2028
2028
2028
2029
2029
2028
2028
2029
2035
2047
2061
2072
2082
2083
2076
2059
2035
2007
1983
1971
1974
1990
2009
2023
2032
2030
2032
2032
2034
2036
2036
2038
2038
2039
2041
2042
2043
2043
2043
2043
2043
2045
2044
2048
2048
2048
2048
2046
2047
2049
2054
2060
2063
2063
2062
2061
2061
2064
2067
2068
2071
2072
2074
2075
2075
2076
2076
2075
2075
2073
2069
2064
2058
2052
2049
2048
2047
2044
2039
2034
2030
2029
2032
2034
2034
2031
2027
2024
2023
2022
2023
2024
2024
2024
2024
2024
2025
2025
2025
2025
2025
2024
2025
2025
2027
2027
2030
2030
2030
2027
2024
2024
2027
2033
2038
2039
2038
2033
2030
2027
2029
2030
2030
2030
2031
2032
2030
2027
2024
2023
2026
2031
2036
2037
2034
2030
2026
2025
2027
2028
2027
2024
2023
2024
2027
2032
2034
2034
2031
2028
2027
2028
2028
2029
2029
2029
2029
2029
2029
2029
2029
2029
2029
2029
2029
2029
2029
2028
2031
2031
2031
2030
2029
2026
2026
2029
2032
2035
2036
2034
2031
2029
2030
2031
2034
2033
2035
2033
2032
2032
2032
2033
2034
2034
2034
2033
2032
2031
2030
2030
2030
2030
2030
2027
2026
2027
2030
2034
2037
2039
2043
2051
2061
2072
2081
2087
2088
2079
2061
2034
2005
1986
1984
1997
2014
2029
2036
2036
2035
2035
2037
2039
2039
2039
2036
2034
2035
2039
2046
2051
2052
2050
2047
2043
2045
2047
2049
2050
2050
2050
2051
2052
2054
2055
2057
2058
2060
2062
2064
2066
2066
2069
2072
2074
2074
2071
2069
2068
2072
2076
2080
2079
2073
2065
2057
2051
2049
2046
2043
2039
2036
2033
2031
2029
2028
2027
2026
2025
2025
2024
2024
2024
2023
2025
2025
2025
2023
2020
2018
2020
2024
2030
2033
2033
2030
2027
2025
2025
2026
2027
2027
2028
2027
2028
2029
2030
2030
2030
2030
2029
2030
2030
2030
2030
2031
2032
2031
2029
2025
2022
2024
2030
2037
2041
2040
2035
2030
2025
2025
2028
2028
2029
2029
2028
2029
2028
2029
2028
2028
2029
2029
2029
2029
2029
2029
2029
2030
2031
2031
2029
2026
2026
2028
2031
2035
2036
2034
2030
2028
2027
2028
2029
2029
2028
2027
2027
2028
2028
2030
2033
2034
2035
2034
2034
2033
2033
2033
2035
2036
2034
2032
2029
2027
2028
2031
2035
2037
2036
2033
2031
2029
2031
2030
2029
2029
2032
2042
2055
2067
2074
2078
2078
2074
2063
2045
2020
1996
1981
1985
1999
2017
2030
2033
2029
2032
2035
2040
2043
2043
2042
2042
2043
2045
2045
2043
2041
2041
2041
2048
2049
2050
2050
2048
2047
2047
2048
2049
2052
2054
2056
2057
2059
2059
2060
2060
2063
2067
2073
2078
2080
2079
2077
2075
2075
2075
2075
2074
2070
2067
2063
2059
2055
2050
2047
2043
2040
2037
2034
2032
2030
2028
2028
2027
2026
2023
2021
2020
2022
2026
2029
2030
2028
2024
2022
2021
2023
2024
2025
2025
2025
2025
2025
2026
2026
2027
2027
2027
2028
2027
2028
2028
2027
2029
2029
2028
2027
2025
2025
2027
2031
2035
2036
2034
2030
2027
2024
2027
2027
2028
2028
2027
2027
2027
2027
2027
2027
2027
2027
2027
2027
2027
2027
2026
2028
2028
2028
2027
2025
2024
2025
2028
2032
2033
2032
2030
2028
2027
2028
2028
2029
2029
2028
2027
2027
2026
2026
2027
2028
2030
2032
2032
2033
2033
2033
2033
2033
2032
2031
2029
2027
2028
2031
2034
2036
2035
2032
2030
2028
2028
2029
2030
2030
2029
2027
2027
2033
2046
2061
2074
2082
2083
2078
2065
2047
2022
1996
1979
1975
1985
2001
2017
2029
2034
2037
2040
2041
2040
2038
2036
2038
2039
2041
2042
2043
2043
2044
2045
2045
2046
2047
2047
2048
2048
2049
2050
2052
2054
2056
2057
2057
2056
2056
2058
2063
2069
2075
2078
2077
2076
2075
2076
2077
2078
2078
2077
2075
2074
2072
2068
2064
2060
2055
2050
2046
2043
2040
2037
2034
2034
2031
2029
2026
2024
2021
2025
2027
2030
2031
2029
2027
2025
2025
2025
2024
2024
2023
2024
2024
2026
2026
2026
2026
2026
2027
2028
2028
2029
2029
2028
2030
2029
2030
2028
2026
2025
2027
2031
2034
2036
2035
2032
2030
2027
2028
2028
2029
2029
2029
2029
2030
2029
2029
2029
2028
2029
2029
2029
2029
2029
2029
2029
2029
2029
2029
2027
2025
2025
2027
2031
2035
2037
2035
2031
2029
2027
2029
2030
2030
2029
2027
2027
2028
2030
2032
2034
2035
2036
2036
2036
2036
2035
2034
2035
2035
2033
2031
2029
2029
2029
2031
2033
2035
2036
2038
2040
2038
2035
2032
2029
2033
2047
2064
2079
2089
2091
2084
2067
2043
2013
1986
1969
1968
1981
2003
2023
2034
2035
2032
2032
2035
2041
2048
2050
2049
2047
2044
2042
2043
2046
2046
2047
2048
2048
2048
2049
2050
2051
2053
2054
2055
2056
2058
2059
2061
2063
2064
2068
2069
2069
2070
2072
2076
2081
2084
2086
2084
2083
2081
2080
2079
2078
2076
2072
2069
2065
2061
2056
2051
2047
2042
2039
2037
2035
2033
2032
2031
2030
2030
2029
2028
2026
2026
2026
2028
2031
2032
2031
2028
2026
2025
2025
2027
2027
2027
2028
2029
2030
2030
2031
2030
2030
2031
2030
2031
2031
2032
2032
2033
2034
2032
2031
2029
2028
2030
2032
2036
2037
2036
2034
2031
2030
2030
2030
2031
2030
2030
2030
2030
2030
2030
2030
2030
2030
2030
2030
2030
2030
2030
2032
2032
2031
2030
2029
2028
2028
2032
2035
2035
2031
2025
2021
2020
2025
2033
2040
2043
2043
2041
2037
2036
2036
2035
2034
2032
2032
2031
2031
2032
2032
2032
2030
2030
2031
2033
2036
2038
2042
2048
2058
2072
2085
2093
2090
2075
2047
2013
1980
1959
1955
1968
1989
2011
2026
2033
2034
2036
2037
2038
2040
2040
2043
2044
2044
2045
2042
2042
2043
2046
2051
2056
2057
2056
2053
2051
2050
2053
2055
2057
2058
2060
2061
2063
2064
2066
2068
2070
2073
2076
2078
2080
2080
2082
2085
2086
2085
2081
2077
2075
2077
2080
2081
2078
2070
2060
2051
2046
2043
2041
2039
2035
2033
2031
2030
2029
2028
2028
2027
2027
2027
2027
2027
2027
2025
2026
2028
2027
2025
2022
2021
2024
2030
2036
2039
2036
2032
2028
2027
2028
2031
2031
2031
2031
2031
2032
2032
2033
2033
2032
2032
2032
2032
2031
2031
2031
2032
2032
2032
2030
2027
2026
2027
2031
2035
2037
2036
2033
2031
2029
2030
2030
2030
2031
2030
2029
2030
2029
2029
2029
2029
2029
2029
2031
2032
2033
2034
2035
2035
2034
2033
2030
2028
2028
2029
2033
2035
2035
2033
2031
2030
2028
2030
2031
2032
2030
2029
2030
2036
2049
2068
2086
2099
2101
2088
2059
2023
1985
1957
1949
1960
1981
2003
2019
2027
2030
2034
2039
2042
2043
2042
2040
2039
2041
2042
2044
2044
2045
2046
2047
2048
2048
2048
2049
2050
2051
2052
2054
2055
2056
2059
2061
2062
2062
2061
2062
2064
2069
2076
2081
2083
2082
2081
2079
2080
2080
2080
2080
2080
2078
2075
2072
2067
2063
2057
2052
2048
2043
2040
2037
2034
2032
2029
2028
2026
2025
2024
2024
2026
2028
2029
2029
2026
2025
2023
2023
2024
2026
2026
2026
2027
2027
2028
2029
2028
2029
2029
2029
2030
2030
2031
2031
2030
2032
2032
2032
2031
2029
2028
2030
2034
2038
2039
2037
2033
2030
2029
2030
2031
2031
2030
2030
2029
2029
2030
2030
2030
2030
2029
2029
2028
2027
2027
2025
2028
2028
2029
2029
2028
2029
2031
2035
2038
2039
2038
2034
2031
2028
2031
2030
2031
2030
2030
2030
2030
2031
2032
2032
2033
2032
2031
2032
2038
2050
2067
2086
2100
2104
2092
2064
2028
1991
1965
1959
1970
1990
2011
2026
2032
2034
2034
2036
2036
2038
2039
2040
2042
2043
2044
2045
2046
2046
2047
2047
2048
2048
2048
2051
2052
2052
2051
2050
2052
2056
2061
2065
2066
2065
2064
2064
2065
2069
2071
2074
2076
2077
2079
2081
2082
2082
2081
2080
2079
2077
2074
2070
2065
2061
2057
2052
2047
2040
2034
2032
2032
2034
2036
2034
2031
2027
2023
2022
2023
2024
2024
2024
2023
2023
2023
2023
2023
2023
2023
2024
2024
2024
2025
2026
2026
2028
2028
2027
2024
2021
2021
2025
2031
2037
2039
2037
2034
2030
2026
2028
2028
2027
2030
2030
2029
2027
2024
2023
2025
2030
2035
2036
2033
2029
2025
2023
2027
2028
2028
2026
2024
2023
2024
2029
2031
2031
2028
2025
2023
2024
2027
2028
2029
2029
2029
2030
2030
2032
2032
2031
2030
2029
2029
2028
2028
2029
2028
2029
2028
2029
2028
2026
2026
2025
2027
2032
2040
2054
2067
2078
2083
2082
2072
2054
2030
2000
1976
1964
1968
1986
2006
2023
2031
2032
2032
2032
2033
2034
2035
2038
2039
2039
2038
2037
2037
2039
2044
2048
2049
2048
2046
2044
2043
2045
2047
2048
2049
2051
2053
2054
2055
2057
2059
2061
2063
2066
2068
2070
2071
2071
2075
2075
2075
2073
2071
2069
2069
2070
2070
2068
2062
2054
2048
2041
2040
2037
2034
2031
2028
2026
2025
2024
2023
2023
2023
2023
2022
2022
2021
2021
2020
2023
2023
2022
2021
2020
2019
2021
2025
2030
2032
2031
2029
2026
2024
2025
2025
2026
2027
2027
2027
2028
2028
2028
2028
2027
2028
2027
2028
2028
2028
2028
2028
2028
2027
2026
2025
2023
2024
2027
2030
2032
2032
2030
2027
2025
2024
2024
2025
2026
2026
2026
2026
2025
2024
2024
2024
2025
2026
2027
2028
2029
2030
2031
2032
2033
2032
2030
2028
2028
2030
2033
2036
2036
2034
2031
2029
2029
2030
2032
2032
2032
2031
2029
2031
2038
2052
2071
2086
2096
2093
2077
2049
2017
1982
1958
1949
1955
1974
1995
2013
2028
2036
2044
2048
2049
2047
2044
2041
2042
2046
2046
2048
2048
2049
2050
2051
2052
2053
2054
2055
2056
2057
2058
2060
2061
2063
2064
2065
2066
2067
2068
2070
2076
2081
2085
2085
2085
2085
2086
2089
2090
2090
2089
2087
2085
2082
2080
2076
2072
2067
2061
2056
2051
2047
2043
2039
2037
2033
2031
2029
2026
2025
2024
2026
2028
2029
2029
2027
2025
2023
2023
2024
2025
2025
2024
2025
2025
2025
2026
2026
2026
2027
2027
2028
2028
2029
2028
2028
2028
2029
2028
2026
2025
2025
2026
2031
2034
2035
2033
2030
2027
2026
2027
2028
2029
2028
2028
2027
2026
2025
2025
2024
2024
2025
2025
2026
2027
2027
2027
2030
2030
2031
2029
2027
2026
2027
2030
2032
2033
2031
2028
2026
2024
2028
2028
2029
2029
2028
2026
2025
2027
2035
2048
2064
2076
2083
2081
2071
2052
2027
1999
1974
1962
1965
1981
2001
2020
2031
2036
2037
2037
2037
2036
2036
2038
2038
2040
2040
2041
2041
2042
2043
2044
2045
2046
2047
2048
2048
2048
2049
2051
2052
2055
2055
2054
2053
2054
2058
2065
2071
2076
2077
2076
2074
2072
2074
2076
2077
2077
2076
2075
2073
2070
2067
2063
2058
2054
2049
2045
2041
2037
2033
2031
2030
2029
2027
2023
2020
2020
2023
2027
2030
2030
2027
2024
2020
2020
2021
2022
2023
2023
2024
2024
2025
2025
2025
2025
2025
2026
2026
2027
2027
2028
2027
2030
2030
2028
2025
2021
2020
2024
2030
2037
2039
2036
2031
2027
2024
2026
2027
2027
2027
2027
2027
2027
2027
2027
2028
2027
2027
2027
2027
2027
2027
2027
2029
2029
2028
2026
2024
2023
2024
2028
2031
2032
2030
2027
2025
2026
2029
2032
2034
2035
2034
2032
2031
2029
2030
2029
2029
2029
2029
2029
2029
2029
2029
2030
2030
2031
2030
2027
2024
2027
2037
2053
2071
2082
2085
2080
2068
2050
2028
2002
1978
1965
1968
1984
2005
2023
2032
2034
2033
2034
2036
2038
2038
2039
2040
2041
2043
2042
2041
2040
2041
2044
2048
2052
2053
2051
2048
2048
2048
2049
2052
2054
2055
2056
2058
2060
2061
2063
2065
2067
2069
2071
2073
2074
2075
2074
2076
2075
2075
2073
2070
2067
2065
2065
2064
2060
2054
2048
2042
2037
2037
2034
2033
2031
2029
2028
2027
2026
2026
2026
2025
2025
2025
2024
2024
2024
2024
2025
2026
2026
2025
2025
2025
2026
2025
2026
2026
2028
2031
2034
2036
2035
2030
2026
2024
2025
2026
2028
2028
2028
2029
2028
2029
2028
2028
2028
2028
2028
2028
2029
2029
2027
2025
2024
2024
2027
2031
2034
2033
2031
2028
2026
2024
2026
2026
2026
2026
2026
2027
2027
2027
2027
2027
2026
2025
2025
2025
2026
2027
2029
2031
2033
2033
2032
2030
2030
2031
2033
2036
2036
2034
2031
2029
2027
2027
2028
2029
2030
2031
2031
2032
2030
2029
2028
2032
2044
2059
2074
2083
2085
2076
2062
2039
2009
1980
1961
1958
1974
2000
2026
2042
2044
2039
2036
2033
2037
2038
2040
2041
2041
2042
2043
2044
2045
2046
2046
2046
2046
2048
2048
2049
2049
2051
2052
2053
2053
2053
2054
2056
2060
2065
2069
2070
2070
2069
2068
2070
2072
2073
2075
2076
2076
2075
2075
2073
2071
2068
2065
2062
2057
2053
2049
2046
2044
2040
2037
2033
2030
2028
2028
2031
2034
2035
2034
2031
2029
2025
2027
2027
2028
2028
2027
2028
2028
2028
2029
2028
2029
2029
2030
2031
2031
2031
2029
2031
2031
2031
2030
2028
2027
2027
2030
2035
2038
2039
2036
2032
2030
2029
2030
2031
2032
2031
2031
2030
2030
2030
2030
2030
2030
2030
2031
2031
2030
2029
2029
2031
2030
2029
2027
2025
2025
2028
2032
2035
2035
2032
2028
2025
2024
2027
2028
2030
2030
2031
2032
2033
2034
2034
2034
2033
2033
2033
2032
2032
2031
2030
2031
2031
2031
2029
2027
2027
2030
2034
2037
2037
2035
2037
2046
2061
2077
2086
2089
2079
2061
2036
2006
1980
1964
1965
1979
2001
2020
2032
2036
2036
2037
2037
2040
2040
2040
2039
2038
2040
2044
2048
2051
2051
2049
2048
2047
2047
2048
2049
2050
2051
2051
2053
2054
2055
2057
2059
2061
2062
2064
2065
2067
2069
2071
2073
2075
2075
2074
2073
2073
2075
2077
2078
2076
2072
2065
2060
2054
2051
2048
2045
2042
2039
2037
2035
2033
2032
2030
2029
2028
2028
2027
2027
2027
2026
2028
2027
2026
2025
2022
2022
2024
2029
2035
2039
2038
2035
2031
2027
2029
2029
2029
2031
2031
2032
2032
2032
2032
2032
2032
2032
2032
2032
2032
2032
2032
2033
2033
2032
2031
2029
2028
2029
2031
2034
2037
2036
2034
2030
2028
2028
2029
2031
2032
2032
2031
2030
2030
2029
2031
2030
2030
2030
2029
2029
2029
2029
2030
2031
2033
2033
2033
2034
2034
2036
2039
2040
2040
2037
2034
2032
2031
2032
2032
2033
2033
2033
2033
2033
2034
2034
2034
2033
2033
2038
2049
2066
2081
2091
2093
2083
2062
2031
1998
1971
1960
1969
1990
2013
2029
2034
2032
2030
2033
2038
2044
2046
2047
2046
2045
2046
2047
2048
2048
2049
2049
2050
2051
2051
2051
2054
2055
2055
2054
2053
2053
2057
2062
2068
2072
2071
2070
2069
2068
2073
2075
2077
2078
2078
2079
2080
2080
2080
2078
2077
2075
2072
2069
2065
2061
2055
2053
2050
2047
2042
2037
2034
2033
2035
2039
2041
2039
2035
2031
2028
2028
2028
2029
2029
2029
2029
2029
2030
2030
2030
2030
2032
2032
2033
2034
2033
2033
2032
2034
2033
2032
2030
2028
2029
2034
2039
2043
2043
2040
2036
2031
2030
2032
2031
2033
2032
2032
2032
2032
2032
2032
2032
2032
2032
2032
2032
2031
2031
2032
2033
2034
2033
2029
2025
2025
2027
2032
2037
2039
2038
2034
2030
2030
2031
2033
2035
2036
2037
2036
2035
2034
2034
2033
2033
2033
2033
2032
2032
2032
2032
2036
2036
2035
2030
2025
2028
2042
2065
2089
2107
2110
2098
2072
2038
2004
1973
1957
1959
1976
2000
2020
2032
2036
2035
2036
2037
2038
2040
2041
2042
2043
2045
2045
2045
2045
2043
2043
2046
2049
2055
2058
2058
2056
2052
2050
2051
2052
2056
2059
2060
2059
2058
2059
2064
2072
2078
2081
2081
2077
2075
2075
2077
2079
2079
2078
2074
2070
2066
2064
2064
2065
2063
2059
2051
2046
2039
2036
2035
2034
2034
2032
2031
2030
2029
2028
2028
2028
2028
2027
2027
2028
2028
2028
2028
2029
2029
2030
2027
2026
2025
2028
2033
2037
2039
2038
2034
2031
2029
2031
2033
2034
2033
2032
2031
2031
2031
2031
2032
2031
2031
2031
2031
2031
2030
2029
2031
2031
2031
2029
2027
2026
2028
2032
2036
2038
2036
2033
2030
2028
2030
2030
2030
2029
2027
2028
2028
2029
2030
2031
2032
2033
2034
2035
2035
2035
2033
2034
2034
2033
2031
2028
2027
2027
2031
2036
2040
2040
2037
2034
2031
2030
2029
2031
2038
2051
2069
2086
2098
2098
2083
2054
2018
1983
1959
1953
1965
1987
2009
2028
2035
2035
2033
2033
2034
2039
2045
2050
2051
2049
2046
2044
2043
2045
2046
2048
2048
2048
2049
2049
2051
2051
2053
2054
2055
2056
2057
2059
2060
2061
2064
2066
2070
2071
2072
2074
2074
2077
2079
2080
2079
2077
2074
2071
2071
2070
2068
2065
2061
2057
2053
2048
2046
2042
2038
2036
2034
2033
2032
2031
2029
2031
2030
2029
2027
2024
2023
2025
2029
2034
2036
2035
2032
2029
2026
2028
2029
2029
2031
2031
2032
2032
2032
2032
2032
2032
2032
2032
2032
2032
2033
2033
2034
2034
2033
2032
2030
2029
2030
2033
2035
2038
2036
2034
2030
2028
2028
2030
2032
2034
2034
2032
2030
2030
2029
2031
2030
2030
2030
2029
2028
2028
2027
2028
2028
2028
2027
2027
2027
2029
2034
2038
2040
2040
2037
2033
2030
2030
2030
2031
2031
2031
2031
2031
2031
2032
2032
2032
2033
2031
2031
2032
2038
2050
2069
2084
2095
2093
2076
2049
2017
1986
1967
1962
1972
1990
2009
2025
2033
2034
2036
2037
2038
2039
2041
2042
2042
2043
2044
2044
2045
2046
2047
2048
2048
2048
2050
2050
2050
2049
2049
2051
2055
2060
2064
2066
2066
2065
2064
2064
2068
2071
2074
2075
2077
2078
2078
2079
2079
2079
2078
2077
2075
2073
2070
2066
2062
2060
2055
2050
2045
2039
2036
2036
2038
2040
2039
2036
2032
2030
2029
2030
2030
2029
2029
2028
2028
2028
2028
2028
2029
2030
2030
2030
2031
2031
2031
2031
2032
2033
2033
2033
2031
2029
2029
2032
2035
2037
2038
2035
2033
2031
2031
2031
2031
2032
2031
2031
2031
2031
2032
2031
2031
2031
2030
2031
2030
2030
2031
2029
2032
2031
2030
2028
2026
2026
2029
2034
2037
2038
2035
2032
2030
2027
2030
2030
2029
2028
2027
2028
2029
2030
2032
2033
2034
2035
2035
2036
2036
2036
2034
2035
2035
2034
2031
2029
2028
2029
2033
2037
2039
2038
2036
2033
2030
2030
2030
2035
2046
2062
2079
2092
2096
2087
2066
2036
2002
1974
1959
1963
1980
2002
2023
2037
2039
2037
2035
2034
2036
2042
2048
2049
2052
2048
2046
2044
2043
2046
2048
2051
2053
2054
2053
2052
2052
2053
2055
2056
2057
2058
2060
2062
2063
2065
2067
2069
2070
2070
2072
2073
2077
2081
2084
2085
2083
2081
2078
2077
2075
2074
2071
2067
2063
2059
2055
2052
2048
2045
2042
2040
2038
2037
2036
2034
2033
2033
2033
2032
2030
2029
2028
2029
2033
2035
2036
2035
2033
2031
2030
2031
2033
2034
2034
2034
2034
2035
2035
2035
2036
2036
2036
2037
2037
2037
2036
2035
2037
2037
2037
2036
2034
2034
2034
2037
2039
2041
2040
2038
2036
2033
2035
2035
2036
2036
2035
2035
2035
2034
2035
2035
2036
2036
2036
2036
2035
2034
2033
2034
2034
2033
2032
2030
2031
2033
2037
2041
2044
2043
2042
2041
2040
2040
2040
2038
2037
2036
2035
2036
2036
2036
2036
2037
2037
2037
2038
2038
2037
2036
2038
2043
2055
2073
2090
2105
2110
2102
2076
2038
1997
1965
1953
1961
1984
2007
2026
2035
2036
2038
2040
2042
2043
2044
2045
2046
2047
2048
2048
2049
2048
2051
2051
2052
2052
2050
2049
2051
2055
2060
2065
2066
2065
2062
2060
2061
2064
2067
2070
2072
2074
2076
2078
2080
2082
2084
2084
2086
2086
2086
2085
2083
2080
2080
2077
2072
2067
2058
2050
2047
2047
2049
2050
2048
2043
2036
2029
2028
2027
2026
2028
2027
2026
2026
2026
2026
2026
2026
2026
2026
2027
2027
2027
2028
2029
2030
2029
2027
2025
2024
2026
2031
2036
2038
2038
2035
2032
2029
2028
2029
2030
2032
2033
2033
2031
2031
2030
2030
2031
2030
2029
2029
2029
2030
2030
2031
2030
2031
2029
2027
2025
2024
2027
2031
2035
2036
2034
2030
2027
2025
2026
2027
2028
2027
2026
2027
2027
2028
2029
2030
2031
2033
2033
2034
2034
2034
2033
2031
2031
2030
2028
2027
2026
2027
2031
2034
2035
2034
2032
2030
2028
2028
2028
2031
2039
2053
2072
2089
2101
2100
2083
2053
2015
1979
1955
1950
1964
1986
2010
2025
2032
2031
2031
2032
2035
2039
2043
2045
2044
2043
2041
2040
2043
2044
2046
2047
2047
2047
2048
2048
2049
2050
2051
2052
2053
2055
2056
2057
2058
2062
2064
2066
2067
2067
2068
2071
2076
2081
2084
2084
2082
2081
2080
2080
2079
2076
2073
2069
2065
2060
2055
2050
2046
2041
2038
2034
2032
2030
2028
2026
2025
2024
2024
2023
2022
2021
2021
2023
2026
2028
2029
2027
2025
2023
2023
2023
2023
2025
2025
2026
2027
2028
2028
2028
2028
2029
2029
2030
2029
2030
2030
2029
2032
2031
2031
2028
2027
2027
2029
2034
2037
2038
2035
2031
2029
2026
2028
2028
2029
2028
2029
2029
2029
2029
2029
2029
2029
2028
2028
2028
2028
2027
2025
2027
2027
2027
2027
2025
2025
2028
2032
2037
2040
2039
2036
2033
2029
2029
2029
2029
2029
2029
2030
2030
2030
2030
2031
2031
2032
2030
2029
2028
2033
2044
2062
2080
2093
2097
2087
2063
2032
1999
1973
1961
1965
1981
2001
2017
2027
2031
2030
2033
2036
2039
2041
2041
2041
2041
2042
2042
2044
2045
2045
2047
2046
2048
2048
2049
2048
2048
2049
2051
2055
2060
2063
2064
2062
2062
2061
2064
2067
2070
2073
2075
2077
2079
2080
2082
2082
2082
2082
2082
2081
2079
2076
2072
2068
2063
2057
2053
2048
2042
2038
2035
2036
2036
2036
2034
2031
2028
2026
2025
2026
2027
2026
2026
2026
2025
2025
2024
2024
2025
2025
2026
2026
2026
2026
2026
2028
2028
2028
2027
2025
2025
2028
2033
2036
2037
2036
2033
2031
2030
2033
2033
2034
2033
2032
2032
2032
2032
2032
2032
2032
2033
2032
2032
2032
2031
2031
2031
2034
2032
2031
2027
2025
2027
2032
2038
2040
2039
2034
2029
2026
2026
2029
2028
2028
2027
2028
2029
2030
2031
2032
2033
2034
2034
2034
2033
2032
2031
2030
2032
2031
2031
2028
2025
2024
2027
2033
2038
2040
2037
2031
2027
2030
2042
2058
2073
2080
2079
2070
2057
2040
2019
1995
1976
1967
1974
1992
2013
2029
2036
2037
2038
2038
2039
2039
2039
2041
2044
2048
2049
2048
2048
2047
2047
2048
2049
2050
2051
2052
2052
2053
2054
2055
2056
2058
2060
2061
2063
2065
2067
2069
2071
2073
2075
2075
2075
2076
2079
2082
2087
2089
2087
2084
2079
2075
2072
2069
2065
2060
2056
2052
2048
2045
2042
2039
2036
2035
2033
2033
2032
2031
2030
2030
2030
2029
2028
2027
2026
2027
2030
2032
2034
2033
2032
2030
2028
2030
2030
2029
2029
2029
2030
2031
2034
2034
2033
2032
2031
2031
2029
2032
2033
2032
2033
2032
2033
2032
2030
2030
2029
2031
2034
2036
2036
2034
2032
2029
2029
2031
2033
2032
2029
2027
2026
2029
2035
2039
2041
2038
2034
2031
2029
2030
2031
2032
2032
2032
2032
2030
2030
2030
2031
2034
2035
2035
2033
2031
2030
2030
2032
2035
2036
2037
2037
2037
2037
2036
2036
2035
2034
2034
2034
2034
2033
2033
2032
2034
2034
2034
2033
2032
2030
2030
2032
2039
2049
2063
2075
2082
2082
2079
2067
2049
2026
1999
1979
1971
1979
1997
2017
2032
2039
2038
2038
2039
2040
2040
2042
2045
2046
2045
2043
2041
2041
2046
2052
2056
2057
2054
2050
2049
2048
2052
2054
2055
2055
2056
2058
2059
2061
2063
2065
2067
2069
2071
2072
2074
2075
2077
2081
2081
2080
2077
2074
2073
2076
2080
2082
2078
2070
2061
2053
2048
2047
2043
2041
2038
2036
2035
2033
2032
2031
2030
2029
2029
2028
2028
2027
2027
2028
2028
2029
2028
2026
2024
2025
2027
2031
2035
2035
2034
2031
2029
2028
2029
2030
2030
2031
2031
2031
2031
2031
2031
2031
2031
2032
2031
2032
2032
2032
2031
2032
2033
2032
2031
2029
2027
2027
2029
2034
2038
2038
2036
2033
2029
2029
2030
2031
2031
2031
2031
2031
2031
2031
2031
2031
2031
2031
2031
2031
2031
2031
2033
2033
2032
2031
2029
2028
2029
2031
2035
2036
2036
2034
2033
2032
2033
2036
2036
2036
2035
2034
2034
2034
2035
2035
2035
2033
2032
2032
2032
2034
2033
2033
2034
2035
2033
2031
2029
2031
2041
2058
2077
2089
2092
2086
2071
2049
2024
1996
1976
1967
1976
1994
2015
2031
2037
2037
2037
2038
2040
2041
2043
2043
2044
2045
2046
2046
2045
2045
2045
2048
2051
2054
2056
2055
2053
2052
2052
2054
2056
2058
2059
2061
2062
2064
2065
2067
2069
2071
2073
2075
2077
2079
2080
2080
2082
2082
2082
2079
2076
2073
2072
2071
2070
2068
2062
2056
2049
2044
2042
2040
2038
2036
2034
2033
2032
2031
2031
2030
2030
2029
2030
2030
2030
2030
2028
2030
2031
2030
2029
2027
2026
2027
2031
2034
2037
2037
2035
2034
2033
2033
2034
2033
2034
2034
2034
2035
2035
2035
2036
2035
2035
2035
2035
2035
2035
2034
2035
2035
2035
2034
2033
2032
2031
2033
2036
2037
2037
2035
2033
2032
2032
2032
2032
2033
2033
2033
2033
2033
2033
2033
2034
2034
2034
2034
2032
2031
2030
2030
2033
2034
2035
2034
2032
2032
2034
2039
2043
2045
2043
2040
2036
2032
2034
2034
2034
2034
2035
2035
2036
2036
2037
2037
2036
2035
2034
2036
2045
2060
2077
2097
2108
2106
2087
2053
2013
1978
1958
1959
1976
1998
2018
2030
2034
2036
2038
2040
2042
2043
2045
2047
2048
2048
2048
2049
2049
2050
2051
2052
2053
2052
2055
2057
2057
2056
2054
2053
2055
2060
2067
2072
2073
2072
2070
2070
2071
2076
2077
2083
2085
2087
2088
2089
2089
2091
2092
2092
2090
2088
2084
2081
2075
2074
2068
2062
2055
2048
2044
2041
2041
2042
2042
2040
2035
2032
2028
2029
2029
2030
2030
2029
2029
2028
2027
2028
2028
2029
2030
2030
2030
2030
2030
2031
2031
2032
2032
2034
2033
2032
2031
2032
2036
2039
2041
2041
2039
2036
2034
2035
2036
2037
2036
2035
2035
2034
2033
2033
2033
2033
2033
2033
2033
2032
2032
2030
2031
2031
2030
2028
2027
2028
2031
2035
2038
2040
2039
2037
2036
2034
2036
2035
2035
2033
2032
2032
2032
2032
2033
2034
2034
2034
2034
2035
2034
2033
2031
2034
2041
2052
2070
2086
2099
2104
2096
2071
2032
1989
1955
1942
1950
1976
2004
2023
2034
2036
2037
2040
2042
2043
2044
2046
2047
2048
2048
2049
2050
2051
2052
2053
2053
2054
2053
2052
2053
2056
2060
2064
2066
2065
2065
2065
2066
2069
2071
2074
2075
2077
2080
2083
2086
2088
2090
2091
2092
2094
2094
2092
2088
2083
2083
2082
2082
2078
2069
2059
2051
2048
2048
2048
2045
2039
2034
2029
2030
2029
2028
2028
2028
2028
2028
2028
2028
2028
2028
2027
2027
2028
2029
2029
2028
2031
2031
2031
2030
2028
2027
2029
2034
2038
2041
2040
2037
2034
2032
2033
2034
2034
2034
2034
2035
2035
2035
2034
2034
2034
2034
2034
2034
2033
2033
2032
2034
2035
2034
2032
2029
2026
2027
2031
2035
2038
2037
2033
2030
2028
2028
2031
2032
2033
2035
2036
2036
2035
2033
2032
2032
2033
2036
2036
2035
2034
2032
2032
2033
2034
2033
2033
2033
2031
2032
2034
2041
2051
2064
2077
2083
2084
2079
2067
2048
2022
1995
1974
1967
1977
1997
2018
2033
2040
2040
2040
2041
2042
2043
2044
2045
2045
2045
2045
2045
2047
2050
2053
2055
2055
2053
2052
2051
2053
2055
2057
2057
2059
2060
2061
2063
2064
2066
2068
2070
2073
2075
2077
2079
2079
2083
2085
2086
2084
2082
2081
2081
2082
2082
2081
2075
2068
2061
2054
2051
2048
2045
2042
2039
2036
2034
2032
2031
2031
2030
2029
2029
2028
2027
2027
2026
2028
2029
2028
2027
2025
2024
2025
2028
2032
2035
2035
2033
2032
2031
2032
2033
2032
2033
2032
2033
2033
2033
2033
2033
2033
2033
2033
2033
2033
2032
2031
2033
2033
2033
2032
2029
2028
2029
2032
2036
2038
2038
2034
2031
2029
2028
2028
2028
2029
2029
2030
2031
2032
2033
2034
2035
2035
2035
2035
2034
2034
2034
2032
2034
2033
2032
2030
2027
2027
2028
2033
2038
2042
2040
2036
2031
2030
2041
2057
2073
2086
2090
2085
2070
2048
2019
1990
1967
1957
1965
1986
2009
2027
2036
2039
2039
2039
2038
2037
2038
2042
2048
2052
2054
2053
2050
2048
2047
2049
2050
2051
2052
2053
2054
2055
2056
2058
2059
2060
2060
2060
2060
2062
2067
2071
2077
2082
2082
2080
2076
2075
2077
2084
2092
2097
2096
2090
2082
2075
2071
2070
2066
2063
2056
2054
2048
2045
2040
2036
2034
2034
2035
2035
2035
2033
2030
2029
2028
2030
2028
2027
2025
2024
2026
2030
2034
2035
2033
2030
2026
2026
2027
2028
2030
2031
2032
2032
2032
2032
2032
2032
2032
2032
2032
2032
2033
2033
2032
2033
2032
2032
2029
2027
2027
2030
2035
2039
2041
2038
2034
2031
2028
2030
2032
2033
2032
2031
2031
2031
2031
2032
2032
2032
2032
2032
2031
2030
2029
2028
2030
2031
2032
2031
2030
2030
2033
2037
2042
2044
2042
2038
2034
2030
2032
2032
2034
2034
2033
2034
2034
2034
2035
2035
2036
2035
2033
2033
2038
2049
2065
2080
2088
2087
2077
2057
2033
2006
1984
1973
1974
1987
2006
2023
2035
2038
2038
2037
2039
2040
2042
2043
2045
2045
2046
2046
2047
2048
2048
2048
2048
2049
2050
2052
2053
2053
2051
2050
2051
2055
2060
2066
2068
2067
2065
2065
2066
2069
2071
2074
2075
2076
2078
2079
2080
2080
2080
2079
2076
2074
2071
2069
2066
2061
2059
2053
2048
2043
2036
2032
2033
2036
2041
2042
2039
2035
2031
2025
2027
2027
2028
2028
2028
2028
2028
2028
2029
2029
2029
2030
2030
2030
2030
2031
2030
2032
2033
2033
2030
2027
2026
2028
2032
2038
2041
2040
2036
2033
2030
2032
2032
2033
2032
2032
2032
2032
2032
2031
2031
2031
2031
2031
2032
2031
2031
2030
2031
2032
2031
2030
2026
2023
2024
2028
2034
2038
2038
2034
2029
2025
2025
2027
2029
2030
2032
2033
2035
2036
2035
2035
2033
2032
2033
2035
2036
2036
2034
2032
2031
2033
2032
2031
2030
2029
2032
2036
2038
2038
2035
2037
2045
2061
2076
2088
2091
2083
2064
2039
2009
1982
1966
1967
1982
2004
2023
2035
2038
2037
2037
2038
2040
2041
2040
2039
2040
2043
2048
2050
2054
2053
2051
2048
2044
2044
2047
2050
2056
2061
2062
2060
2057
2055
2056
2058
2062
2064
2065
2067
2069
2070
2072
2075
2076
2076
2075
2075
2076
2079
2082
2083
2079
2074
2068
2063
2061
2059
2057
2052
2048
2043
2039
2036
2035
2035
2033
2032
2032
2031
2030
2030
2029
2030
2031
2031
2030
2027
2026
2026
2030
2034
2037
2037
2034
2032
2031
2032
2034
2033
2034
2034
2034
2035
2035
2034
2034
2035
2035
2035
2035
2035
2035
2035
2034
2037
2036
2035
2031
2029
2028
2031
2037
2041
2042
2039
2035
2032
2030
2032
2031
2031
2030
2030
2031
2032
2033
2034
2035
2036
2037
2037
2037
2037
2037
2035
2037
2036
2035
2033
2029
2029
2031
2036
2041
2042
2041
2038
2036
2032
2033
2033
2039
2052
2072
2092
2108
2111
2098
2069
2029
1990
1960
1951
1961
1984
2007
2027
2037
2038
2036
2035
2036
2040
2045
2051
2054
2053
2050
2048
2047
2049
2050
2052
2052
2053
2054
2055
2056
2057
2058
2059
2060
2061
2062
2064
2066
2067
2070
2072
2074
2075
2075
2076
2079
2083
2089
2093
2093
2091
2087
2084
2083
2082
2080
2076
2072
2067
2064
2059
2053
2048
2044
2041
2040
2040
2040
2038
2036
2034
2033
2033
2032
2030
2028
2028
2030
2032
2035
2035
2034
2032
2031
2031
2031
2032
2033
2033
2034
2034
2034
2034
2034
2034
2034
2035
2035
2035
2035
2035
2034
2034
2035
2034
2033
2031
2030
2031
2033
2036
2037
2035
2032
2030
2029
2030
2032
2034
2035
2035
2035
2035
2035
2034
2034
2033
2033
2033
2032
2032
2032
2031
2032
2032
2033
2033
2032
2032
2031
2033
2038
2048
2064
2081
2098
2107
2104
2082
2046
2003
1966
1948
1950
1970
1996
2018
2032
2037
2038
2038
2040
2041
2041
2045
2046
2047
2046
2044
2044
2045
2048
2053
2056
2057
2056
2054
2054
2055
2057
2058
2059
2060
2061
2062
2064
2066
2069
2071
2073
2075
2077
2079
2081
2084
2085
2089
2089
2088
2085
2081
2079
2080
2083
2085
2082
2076
2067
2058
2051
2048
2044
2041
2039
2036
2034
2032
2031
2030
2030
2030
2029
2028
2028
2027
2027
2028
2029
2029
2029
2028
2026
2025
2026
2030
2034
2037
2037
2036
2033
2030
2031
2031
2032
2032
2033
2033
2033
2033
2034
2034
2033
2033
2032
2032
2032
2033
2031
2032
2033
2030
2028
2025
2023
2025
2030
2038
2043
2044
2041
2037
2032
2031
2031
2029
2031
2031
2031
2031
2031
2031
2031
2031
2032
2032
2032
2031
2030
2032
2043
2059
2077
2092
2100
2094
2075
2047
2012
1980
1960
1957
1970
1991
2013
2027
2033
2035
2036
2038
2039
2041
2042
2042
2042
2042
2043
2045
2048
2049
2050
2050
2049
2049
2049
2048
2050
2050
2053
2057
2061
2063
2062
2062
2061
2063
2066
2069
2072
2073
2075
2076
2078
2080
2081
2083
2084
2083
2083
2081
2079
2075
2072
2068
2064
2058
2052
2047
2042
2038
2039
2039
2038
2035
2031
2028
2026
2026
2027
2027
2027
2027
2026
2026
2026
2026
2026
2027
2027
2028
2028
2029
2028
2028
2028
2029
2030
2029
2029
2029
2030
2032
2034
2035
2034
2032
2031
2029
2030
2031
2032
2031
2031
2031
2030
2030
2030
2030
2030
2029
2028
2027
2027
2027
2026
2029
2030
2030
2030
2028
2028
2030
2033
2036
2037
2036
2034
2031
2030
2030
2030
2030
2030
2029
2030
2030
2031
2031
2031
2030
2029
2031
2040
2054
2070
2081
2087
2087
2075
2055
2026
1994
1970
1963
1975
1998
2019
2032
2036
2034
2032
2035
2036
2038
2039
2040
2041
2042
2043
2044
2045
2045
2046
2046
2046
2046
2047
2048
2050
2051
2052
2052
2050
2051
2054
2059
2064
2067
2068
2067
2067
2067
2071
2073
2076
2077
2078
2078
2078
2078
2077
2075
2073
2072
2069
2064
2056
2048
2043
2045
2048
2050
2047
2037
2027
2023
2024
2031
2037
2036
2033
2029
2024
2026
2025
2024
2026
2026
2026
2027
2027
2027
2028
2028
2028
2029
2029
2030
2030
2030
2031
2032
2031
2030
2028
2026
2026
2029
2032
2036
2036
2034
2032
2029
2029
2029
2029
2030
2031
2031
2030
2030
2029
2029
2029
2027
2026
2025
2025
2026
2026
2029
2029
2028
2027
2025
2025
2028
2032
2036
2037
2037
2033
2030
2027
2027
2028
2028
2028
2028
2029
2029
2029
2030
2030
2030
2029
2028
2029
2034
2048
2061
2072
2079
2079
2073
2057
2035
2007
1981
1968
1971
1988
2009
2025
2032
2032
2031
2033
2036
2037
2038
2039
2039
2040
2040
2041
2042
2043
2044
2045
2046
2046
2046
2048
2048
2049
2048
2048
2049
2052
2057
2061
2063
2063
2061
2062
2062
2065
2067
2070
2070
2071
2073
2073
2074
2074
2074
2073
2071
2068
2065
2062
2058
2052
2049
2046
2042
2037
2032
2028
2027
2028
2030
2032
2032
2030
2028
2025
2024
2024
2023
2024
2023
2023
2024
2024
2025
2026
2026
2026
2026
2026
2026
2027
2027
2027
2029
2030
2029
2026
2022
2022
2025
2031
2037
2038
2035
2031
2027
2026
2027
2028
2028
2028
2028
2028
2028
2028
2028
2028
2028
2028
2028
2028
2027
2027
2026
2027
2027
2026
2024
2022
2022
2024
2028
2033
2034
2034
2033
2031
2030
2031
2031
2031
2030
2029
2029
2029
2029
2029
2029
2029
2030
2030
2031
2032
2032
2029
2030
2032
2039
2052
2064
2073
2080
2081
2076
2059
2032
1999
1973
1960
1969
1989
2010
2028
2035
2035
2035
2036
2037
2038
2039
2040
2041
2042
2043
2044
2044
2045
2046
2047
2046
2044
2043
2046
2048
2054
2058
2059
2057
2054
2053
2054
2058
2062
2063
2065
2066
2068
2070
2072
2074
2075
2076
2076
2076
2076
2076
2077
2076
2074
2071
2064
2058
2052
2048
2048
2047
2047
2045
2041
2036
2032
2030
2031
2031
2033
2033
2033
2033
2032
2032
2032
2032
2033
2033
2033
2033
2033
2034
2035
2035
2036
2035
2033
2032
2033
2035
2038
2041
2042
2041
2039
2037
2037
2037
2039
2039
2039
2038
2038
2037
2037
2037
2037
2037
2038
2038
2037
2037
2037
2036
2037
2037
2037
2034
2033
2032
2033
2035
2038
2040
2039
2038
2038
2037
2039
2039
2039
2038
2037
2037
2036
2037
2037
2037
2037
2037
2037
2036
2037
2038
2038
2040
2039
2038
2039
2046
2061
2081
2102
2115
2113
2093
2056
2015
1978
1958
1959
1977
2001
2022
2035
2040
2040
2042
2044
2046
2048
2048
2049
2049
2050
2050
2052
2053
2053
2054
2051
2050
2052
2056
2061
2065
2067
2066
2064
2061
2063
2065
2066
2069
2071
2073
2074
2076
2079
2082
2085
2087
2089
2090
2090
2090
2088
2089
2090
2088
2084
2079
2072
2068
2065
2064
2062
2057
2051
2045
2040
2037
2036
2036
2034
2033
2032
2031
2032
2033
2034
2033
2032
2031
2030
2030
2031
2033
2033
2036
2037
2035
2033
2029
2027
2029
2035
2043
2047
2047
2043
2038
2034
2035
2036
2037
2038
2038
2037
2037
2037
2036
2036
2036
2036
2036
2037
2037
2036
2034
2034
2035
2034
2033
2031
2029
2031
2035
2040
2044
2044
2042
2039
2037
2036
2036
2036
2036
2036
2036
2035
2035
2035
2035
2035
2036
2037
2038
2038
2038
2036
2038
2043
2055
2072
2089
2100
2102
2090
2064
2027
1985
1952
1937
1944
1970
2000
2025
2038
2041
2041
2043
2045
2046
2047
2048
2050
2052
2054
2055
2055
2055
2055
2056
2058
2059
2058
2058
2058
2061
2065
2069
2071
2071
2070
2069
2070
2072
2075
2079
2081
2084
2086
2088
2090
2092
2094
2096
2097
2098
2097
2097
2095
2093
2090
2086
2082
2075
2068
2062
2056
2052
2050
2048
2046
2040
2033
2026
2026
2029
2035
2039
2039
2036
2030
2026
2025
2026
2030
2030
2029
2029
2029
2029
2028
2030
2031
2032
2031
2029
2029
2030
2033
2037
2038
2038
2036
2034
2033
2034
2035
2035
2035
2035
2035
2034
2034
2033
2033
2032
2032
2032
2032
2032
2032
2032
2033
2035
2036
2036
2035
2033
2032
2033
2035
2037
2037
2035
2033
2031
2030
2032
2031
2032
2031
2031
2032
2033
2032
2031
2034
2041
2055
2074
2089
2097
2093
2074
2044
2004
1966
1940
1932
1946
1974
2005
2028
2039
2039
2038
2037
2038
2042
2044
2045
2045
2046
2046
2047
2048
2048
2049
2050
2052
2052
2054
2055
2057
2056
2059
2061
2061
2061
2059
2058
2060
2066
2075
2081
2084
2083
2082
2080
2082
2085
2086
2089
2088
2089
2088
2087
2085
2082
2078
2073
2068
2063
2058
2053
2048
2044
2041
2036
2032
2027
2024
2024
2027
2031
2033
2032
2029
2025
2023
2022
2024
2024
2024
2025
2025
2026
2027
2027
2028
2028
2029
2029
2029
2028
2028
2028
2030
2032
2034
2034
2030
2028
2027
2029
2033
2036
2036
2034
2032
2029
2029
2029
2029
2030
2030
2029
2029
2028
2027
2027
2027
2028
2029
2030
2031
2031
2031
2032
2033
2034
2033
2031
2028
2027
2029
2032
2035
2035
2033
2030
2028
2028
2028
2030
2031
2032
2030
2029
2030
2036
2048
2066
2082
2091
2092
2081
2058
2027
1992
1963
1948
1953
1972
1996
2018
2032
2038
2039
2041
2041
2040
2040
2040
2042
2044
2045
2045
2045
2046
2046
2047
2048
2049
2050
2051
2052
2052
2053
2055
2055
2058
2060
2061
2061
2060
2061
2065
2071
2078
2082
2083
2082
2081
2081
2083
2084
2084
2083
2081
2079
2077
2074
2070
2066
2061
2056
2051
2047
2042
2039
2036
2034
2034
2032
2030
2025
2021
2020
2022
2028
2033
2034
2031
2027
2024
2022
2025
2024
2026
2026
2026
2027
2027
2028
2029
2029
2029
2029
2029
2029
2029
2029
2029
2033
2033
2032
2028
2024
2023
2026
2032
2037
2039
2037
2032
2028
2025
2026
2027
2027
2027
2027
2027
2028
2029
2029
2028
2028
2028
2027
2027
2028
2028
2028
2028
2029
2029
2027
2024
2022
2022
2025
2029
2032
2032
2031
2029
2027
2028
2030
2031
2031
2032
2032
2031
2031
2030
2029
2029
2029
2028
2028
2028
2029
2028
2030
2031
2031
2029
2025
2024
2029
2043
2062
2078
2082
2076
2063
2048
2029
2007
1982
1963
1955
1963
1985
2008
2027
2036
2037
2036
2038
2039
2041
2041
2042
2043
2045
2048
2048
2048
2047
2046
2048
2049
2055
2056
2055
2054
2052
2052
2054
2056
2058
2059
2060
2061
2062
2064
2065
2067
2070
2072
2074
2075
2075
2076
2076
2076
2076
2076
2073
2070
2067
2064
2064
2062
2060
2055
2048
2043
2039
2036
2036
2035
2033
2032
2031
2030
2030
2029
2029
2029
2028
2028
2028
2029
2029
2029
2029
2029
2030
2029
2028
2027
2028
2030
2032
2034
2034
2033
2031
2030
2030
2031
2031
2031
2030
2031
2030
2030
2031
2031
2031
2031
2031
2031
2031
2031
2029
2030
2030
2030
2028
2026
2026
2027
2030
2034
2035
2035
2033
2030
2029
2029
2030
2030
2030
2029
2029
2029
2029
2030
2030
2031
2031
2031
2030
2030
2030
2030
2031
2033
2031
2029
2025
2023
2025
2031
2038
2044
2045
2041
2037
2034
2033
2036
2034
2034
2032
2032
2031
2031
2031
2031
2032
2032
2032
2032
2032
2033
2032
2030
2032
2034
2041
2050
2062
2070
2075
2075
2069
2053
2030
2001
1976
1961
1965
1982
2005
2024
2035
2039
2039
2040
2041
2042
2043
2044
2045
2046
2047
2048
2049
2050
2051
2051
2049
2048
2048
2051
2056
2060
2063
2062
2061
2059
2059
2060
2062
2064
2065
2067
2069
2071
2073
2074
2076
2078
2079
2077
2075
2073
2072
2074
2079
2081
2078
2070
2059
2050
2047
2048
2050
2050
2047
2043
2038
2034
2033
2032
2032
2032
2031
2031
2030
2030
2030
2029
2030
2030
2031
2031
2033
2032
2032
2031
2030
2030
2031
2032
2033
2032
2033
2034
2035
2035
2035
2033
2031
2031
2032
2033
2033
2033
2033
2033
2032
2033
2032
2032
2032
2033
2035
2036
2035
2035
2034
2033
2032
2032
2031
2029
2029
2029
2032
2034
2035
2033
2031
2029
2028
2029
2030
2031
2031
2031
2031
2031
2031
2031
2031
2031
2030
2029
2029
2030
2031
2034
2036
2037
2038
2036
2035
2034
2034
2035
2036
2038
2037
2034
2033
2031
2031
2031
2032
2032
2032
2033
2033
2033
2031
2031
2034
2043
2057
2071
2080
2081
2073
2060
2040
2013
1987
1967
1961
1970
1992
2016
2032
2038
2038
2037
2038
2041
2042
2042
2043
2044
2044
2045
2046
2047
2048
2048
2048
2048
2049
2050
2051
2053
2054
2055
2055
2056
2056
2055
2055
2057
2060
2064
2068
2072
2074
2075
2075
2076
2075
2077
2078
2078
2077
2076
2074
2072
2069
2066
2063
2059
2055
2051
2048
2043
2043
2040
2037
2033
2029
2027
2028
2032
2036
2038
2036
2033
2030
2026
2027
2026
2028
2028
2029
2029
2029
2029
2029
2030
2030
2031
2032
2032
2032
2031
2031
2033
2033
2033
2031
2028
2026
2027
2031
2036
2039
2039
2035
2032
2029
2030
2030
2031
2031
2031
2031
2031
2031
2030
2030
2030
2029
2029
2030
2030
2031
2030
2031
2032
2032
2030
2026
2023
2024
2028
2035
2039
2039
2034
2029
2026
2025
2029
2032
2034
2035
2035
2035
2035
2035
2035
2034
2033
2033
2032
2032
2031
2031
2032
2032
2032
2030
2028
2028
2030
2033
2036
2039
2043
2050
2063
2076
2087
2091
2083
2064
2036
2004
1975
1960
1962
1978
2001
2020
2033
2036
2036
2037
2038
2039
2043
2043
2043
2040
2038
2039
2043
2050
2056
2058
2056
2051
2048
2046
2049
2050
2053
2053
2054
2055
2057
2058
2060
2062
2063
2065
2066
2068
2070
2072
2074
2075
2076
2076
2075
2073
2072
2072
2074
2076
2074
2070
2064
2057
2052
2048
2046
2045
2042
2039
2037
2034
2033
2032
2031
2031
2031
2030
2029
2029
2029
2028
2029
2029
2029
2028
2026
2026
2027
2030
2035
2036
2036
2033
2031
2030
2030
2031
2031
2031
2030
2030
2031
2032
2032
2032
2031
2031
2030
2030
2030
2031
2032
2032
2032
2031
2030
2027
2026
2026
2029
2032
2035
2036
2034
2031
2028
2027
2028
2028
2029
2029
2029
2030
2030
2030
2029
2029
2027
2026
2026
2026
2028
2030
2031
2035
2035
2036
2033
2029
2028
2029
2034
2038
2039
2038
2034
2031
2028
2030
2029
2030
2030
2032
2032
2033
2032
2031
2032
2040
2054
2072
2089
2101
2099
2081
2050
2012
1976
1951
1946
1959
1984
2011
2032
2042
2042
2039
2037
2035
2037
2039
2040
2041
2042
2043
2044
2045
2046
2046
2047
2047
2048
2049
2050
2051
2051
2053
2056
2056
2056
2053
2052
2053
2059
2068
2074
2077
2074
2071
2070
2070
2074
2076
2077
2077
2076
2075
2074
2072
2070
2067
2063
2059
2055
2052
2050
2048
2047
2043
2039
2034
2028
2024
2023
2025
2029
2032
2034
2032
2029
2026
2025
2027
2027
2029
2029
2029
2029
2029
2030
2030
2030
2030
2030
2030
2030
2030
2031
2030
2033
2032
2031
2028
2025
2025
2027
2033
2038
2039
2037
2032
2029
2026
2030
2030
2031
2030
2029
2028
2028
2028
2028
2028
2028
2029
2029
2030
2030
2029
2028
2027
2027
2027
2026
2025
2024
2025
2028
2031
2033
2035
2034
2033
2032
2032
2031
2031
2029
2028
2029
2029
2029
2029
2029
2030
2030
2030
2030
2031
2030
2028
2029
2031
2040
2053
2070
2087
2097
2097
2081
2051
2011
1971
1946
1945
1965
1995
2022
2037
2039
2035
2033
2033
2036
2038
2039
2039
2040
2040
2041
2041
2042
2044
2046
2046
2046
2044
2043
2044
2048
2053
2057
2058
2057
2055
2054
2056
2058
2060
2062
2064
2066
2068
2070
2071
2073
2073
2074
2074
2074
2074
2073
2070
2068
2069
2066
2061
2055
2048
2045
2045
2047
2048
2046
2040
2035
2030
2028
2030
2030
2029
2028
2027
2027
2027
2027
2027
2027
2028
2028
2029
2029
2029
2029
2028
2030
2030
2030
2028
2025
2024
2025
2030
2035
2038
2037
2034
2031
2028
2029
2029
2030
2030
2030
2030
2030
2030
2030
2030
2030
2030
2030
2030
2030
2030
2030
2031
2032
2031
2027
2023
2019
2020
2025
2032
2036
2036
2033
2030
2028
2029
2031
2033
2033
2033
2033
2032
2031
2029
2029
2028
2028
2029
2030
2031
2032
2032
2033
2033
2032
2030
2028
2030
2039
2057
2079
2098
2107
2098
2073
2036
1996
1966
1952
1960
1980
2003
2022
2033
2036
2035
2036
2037
2038
2040
2040
2041
2043
2042
2046
2046
2046
2043
2041
2042
2045
2052
2058
2061
2059
2054
2051
2049
2053
2055
2058
2060
2061
2063
2064
2065
2067
2069
2071
2073
2074
2075
2075
2075
2074
2074
2073
2072
2068
2064
2060
2057
2055
2054
2052
2048
2045
2040
2035
2034
2033
2033
2032
2031
2030
2029
2028
2028
2028
2029
2029
2029
2029
2029
2029
2029
2030
2031
2031
2031
2029
2029
2029
2031
2034
2035
2035
2034
2032
2031
2030
2031
2032
2031
2032
2032
2032
2031
2030
2031
2031
2031
2031
2030
2030
2030
2030
2031
2031
2031
2030
2028
2026
2026
2028
2030
2032
2033
2032
2030
2029
2030
2031
2032
2034
2035
2035
2035
2034
2033
2032
2031
2031
2031
2031
2031
2031
2031
2030
2033
2034
2034
2031
2027
2026
2031
2047
2066
2086
2100
2105
2096
2072
2041
2002
1971
1956
1961
1981
2005
2024
2034
2035
2035
2036
2037
2038
2039
2040
2039
2042
2043
2044
2042
2041
2040
2042
2047
2051
2054
2054
2052
2049
2048
2050
2052
2053
2054
2055
2057
2058
2060
2061
2063
2064
2066
2067
2069
2070
2071
2071
2071
2073
2071
2069
2064
2060
2058
2060
2062
2063
2058
2051
2045
2038
2035
2034
2033
2032
2031
2031
2030
2029
2028
2028
2028
2028
2028
2028
2028
2028
2028
2029
2030
2030
2030
2027
2025
2025
2028
2032
2037
2039
2037
2034
2030
2029
2031
2031
2032
2032
2031
2031
2031
2032
2031
2031
2031
2031
2031
2030
2031
2031
2031
2034
2032
2030
2026
2023
2023
2026
2033
2038
2039
2037
2033
2030
2028
2032
2033
2036
2036
2035
2034
2033
2032
2031
2030
2030
2030
2031
2031
2031
2031
2032
2033
2034
2033
2030
2028
2030
2041
2059
2078
2095
2103
2097
2076
2042
2004
1971
1955
1959
1978
2003
2023
2034
2036
2036
2037
2037
2039
2039
2040
2041
2041
2044
2045
2045
2044
2042
2042
2045
2048
2053
2055
2055
2054
2052
2051
2053
2055
2057
2058
2060
2061
2063
2065
2067
2070
2071
2072
2073
2074
2076
2076
2077
2077
2078
2076
2074
2071
2067
2065
2065
2064
2063
2060
2054
2048
2044
2041
2040
2038
2037
2035
2034
2033
2033
2032
2032
2032
2032
2033
2033
2033
2033
2033
2032
2035
2035
2035
2033
2032
2031
2033
2038
2042
2044
2043
2040
2038
2035
2037
2036
2037
2037
2037
2037
2037
2036
2036
2036
2037
2037
2037
2036
2035
2035
2033
2036
2036
2037
2035
2032
2031
2033
2038
2044
2048
2047
2044
2040
2037
2037
2037
2037
2037
2037
2037
2037
2037
2037
2037
2037
2038
2039
2039
2039
2039
2042
2052
2071
2091
2108
2113
2099
2067
2024
1979
1946
1933
1942
1966
1995
2019
2034
2039
2041
2045
2047
2048
2049
2050
2053
2055
2054
2052
2050
2050
2056
2064
2071
2073
2071
2064
2061
2059
2060
2065
2069
2073
2078
2080
2080
2079
2078
2080
2082
2084
2089
2091
2093
2094
2096
2097
2098
2099
2099
2099
2097
2095
2091
2086
2084
2079
2073
2065
2057
2051
2049
2051
2053
2052
2048
2042
2036
2031
2034
2034
2034
2034
2033
2033
2033
2033
2034
2034
2035
2036
2036
2036
2036
2036
2036
2037
2037
2037
2036
2036
2036
2036
2039
2041
2042
2041
2039
2037
2035
2035
2035
2036
2036
2036
2037
2037
2038
2040
2041
2042
2042
2040
2038
2036
2035
2034
2035
2035
2035
2035
2033
2033
2033
2035
2037
2039
2039
2037
2034
2035
2041
2053
2071
2087
2098
2095
2074
2038
1993
1954
1931
1932
1952
1982
2009
2028
2036
2039
2041
2043
2044
2042
2042
2043
2047
2052
2056
2057
2056
2054
2052
2053
2055
2056
2057
2058
2059
2060
2061
2063
2064
2066
2068
2069
2071
2073
2075
2076
2079
2084
2086
2087
2086
2084
2085
2088
2094
2097
2097
2093
2087
2081
2075
2073
2068
2063
2057
2051
2048
2044
2041
2038
2035
2033
2031
2030
2030
2029
2029
2028
2030
2030
2029
2027
2024
2023
2026
2031
2036
2038
2037
2034
2031
2030
2031
2031
2032
2032
2032
2033
2034
2034
2034
2034
2034
2033
2032
2032
2032
2032
2033
2034
2036
2035
2033
2030
2029
2031
2037
2043
2045
2043
2038
2033
2030
2029
2030
2031
2031
2031
2031
2031
2032
2032
2032
2031
2030
2032
2039
2053
2070
2082
2088
2083
2066
2038
2003
1971
1949
1947
1963
1990
2016
2033
2041
2040
2038
2039
2040
2042
2044
2046
2046
2046
2047
2048
2048
2050
2051
2052
2052
2054
2054
2054
2058
2058
2059
2057
2056
2058
2061
2069
2076
2080
2079
2077
2074
2073
2078
2080
2084
2086
2086
2086
2085
2084
2082
2080
2078
2075
2071
2066
2062
2056
2051
2048
2043
2040
2036
2033
2031
2030
2031
2032
2033
2032
2030
2028
2026
2026
2026
2027
2027
2027
2028
2028
2028
2028
2028
2029
2030
2031
2031
2031
2032
2031
2031
2032
2032
2032
2030
2029
2030
2031
2033
2034
2034
2032
2030
2029
2029
2031
2031
2031
2031
2032
2033
2033
2033
2033
2032
2031
2029
2028
2028
2028
2028
2028
2029
2029
2028
2026
2026
2027
2029
2031
2032
2037
2045
2057
2071
2079
2082
2075
2058
2033
2003
1975
1956
1953
1967
1991
2014
2029
2035
2035
2035
2036
2036
2041
2042
2043
2042
2041
2042
2044
2048
2053
2056
2056
2054
2053
2051
2054
2053
2054
2055
2057
2059
2061
2062
2064
2064
2065
2066
2067
2069
2072
2074
2076
2080
2082
2082
2080
2077
2075
2075
2077
2079
2078
2073
2066
2058
2050
2047
2043
2040
2037
2034
2032
2031
2029
2028
2027
2027
2026
2026
2026
2026
2026
2025
2025
2027
2027
2026
2024
2022
2024
2028
2033
2036
2036
2033
2030
2028
2028
2030
2030
2030
2031
2031
2031
2031
2030
2030
2030
2030
2030
2029
2029
2029
2029
2030
2030
2029
2028
2025
2022
2025
2028
2031
2033
2032
2028
2026
2024
2027
2028
2028
2028
2028
2028
2031
2032
2033
2033
2033
2032
2032
2031
2030
2030
2030
2028
2031
2030
2028
2025
2023
2024
2028
2035
2039
2039
2035
2034
2041
2054
2075
2086
2091
2082
2062
2034
2001
1970
1951
1950
1965
1990
2013
2029
2035
2035
2036
2038
2039
2041
2040
2040
2041
2044
2048
2050
2052
2051
2049
2049
2048
2050
2051
2052
2053
2053
2055
2056
2058
2060
2062
2064
2065
2066
2068
2070
2072
2074
2077
2079
2081
2080
2079
2079
2080
2083
2085
2084
2080
2075
2068
2062
2059
2056
2052
2047
2043
2039
2037
2035
2033
2031
2029
2029
2028
2028
2028
2028
2029
2028
2029
2028
2028
2026
2024
2025
2028
2032
2033
2032
2029
2027
2029
2033
2038
2039
2037
2032
2029
2029
2031
2033
2033
2033
2033
2033
2033
2032
2032
2032
2031
2034
2033
2032
2030
2028
2027
2029
2033
2036
2037
2035
2031
2029
2027
2030
2029
2029
2029
2028
2028
2029
2029
2029
2029
2029
2029
2029
2028
2028
2027
2026
2029
2030
2031
2031
2029
2029
2030
2034
2038
2041
2040
2036
2033
2029
2029
2029
2031
2030
2031
2031
2032
2032
2033
2033
2033
2032
2031
2032
2040
2053
2070
2084
2092
2087
2071
2045
2013
1983
1963
1959
1970
1990
2010
2026
2034
2036
2038
2039
2041
2042
2044
2045
2047
2047
2048
2048
2049
2051
2051
2052
2053
2054
2055
2056
2058
2057
2056
2055
2055
2059
2064
2069
2072
2072
2071
2071
2071
2075
2077
2080
2081
2083
2083
2083
2084
2083
2083
2083
2082
2079
2075
2071
2066
2059
2057
2052
2048
2042
2036
2033
2034
2038
2043
2044
2041
2035
2031
2027
2030
2030
2031
2031
2030
2030
2029
2029
2030
2031
2031
2032
2032
2033
2032
2032
2032
2033
2034
2035
2035
2034
2034
2034
2035
2036
2038
2037
2036
2035
2033
2034
2035
2035
2035
2034
2034
2033
2033
2033
2033
2032
2032
2032
2032
2032
2033
2034
2035
2036
2038
2037
2036
2035
2034
2034
2036
2036
2035
2034
2031
2030
2030
2031
2033
2034
2037
2038
2037
2034
2032
2036
2048
2066
2082
2092
2092
2079
2055
2026
1995
1968
1953
1955
1973
1998
2022
2039
2045
2044
2043
2041
2041
2042
2044
2046
2048
2048
2048
2049
2049
2051
2052
2053
2053
2054
2054
2055
2056
2056
2058
2062
2063
2063
2061
2060
2061
2066
2074
2080
2083
2082
2081
2081
2081
2086
2086
2086
2085
2084
2083
2081
2078
2075
2071
2066
2061
2056
2050
2047
2042
2039
2038
2036
2034
2030
2026
2025
2026
2030
2034
2036
2034
2031
2028
2026
2027
2027
2028
2027
2027
2028
2029
2030
2030
2031
2031
2031
2031
2032
2032
2033
2033
2034
2035
2034
2032
2029
2026
2028
2033
2038
2042
2040
2036
2031
2028
2027
2029
2031
2032
2032
2033
2033
2033
2034
2035
2035
2035
2035
2034
2033
2033
2032
2032
2032
2032
2031
2030
2029
2029
2032
2035
2036
2035
2033
2037
2048
2064
2078
2083
2080
2070
2055
2036
2012
1988
1970
1967
1981
2002
2023
2036
2041
2040
2039
2043
2043
2044
2043
2042
2043
2046
2052
2057
2060
2058
2053
2050
2048
2051
2052
2056
2056
2057
2058
2058
2059
2061
2062
2065
2067
2069
2071
2072
2074
2075
2078
2079
2081
2081
2081
2080
2080
2080
2080
2080
2077
2072
2067
2061
2056
2052
2049
2046
2043
2041
2039
2036
2034
2032
2030
2030
2030
2030
2030
2030
2029
2029
2029
2029
2028
2027
2027
2028
2030
2033
2035
2035
2034
2032
2031
2030
2032
2033
2032
2033
2032
2032
2033
2033
2033
2033
2033
2033
2032
2032
2032
2033
2033
2033
2034
2032
2031
2030
2030
2032
2034
2036
2036
2034
2032
2031
2030
2030
2030
2030
2029
2028
2029
2029
2030
2031
2031
2032
2034
2035
2036
2036
2036
2034
2034
2033
2031
2029
2027
2028
2029
2034
2037
2038
2036
2033
2032
2028
2030
2031
2039
2053
2071
2086
2096
2093
2077
2048
2012
1976
1951
1943
1954
1978
2002
2024
2036
2038
2038
2034
2032
2032
2039
2048
2055
2058
2056
2050
2046
2045
2047
2048
2052
2051
2052
2054
2055
2056
2057
2058
2059
2060
2061
2063
2065
2067
2070
2072
2073
2074
2074
2075
2077
2081
2085
2089
2089
2087
2083
2080
2078
2076
2073
2070
2066
2061
2056
2052
2048
2045
2042
2039
2037
2035
2033
2032
2031
2032
2031
2031
2030
2028
2027
2027
2030
2033
2035
2034
2031
2030
2028
2030
2033
2034
2034
2033
2032
2032
2033
2035
2035
2033
2031
2029
2030
2033
2038
2040
2041
2039
2035
2031
2028
2028
2030
2031
2035
2037
2038
2036
2033
2031
2030
2031
2031
2032
2032
2032
2032
2030
2028
2027
2029
2031
2034
2036
2035
2034
2033
2032
2033
2032
2032
2030
2028
2029
2032
2036
2041
2043
2043
2040
2036
2034
2034
2034
2035
2034
2034
2034
2033
2033
2034
2034
2035
2035
2035
2034
2033
2033
2037
2048
2066
2085
2101
2108
2101
2076
2039
1995
1956
1936
1940
1964
1994
2019
2034
2037
2037
2040
2042
2044
2046
2047
2048
2048
2049
2051
2051
2053
2053
2054
2055
2057
2058
2059
2058
2057
2057
2060
2065
2070
2072
2072
2070
2070
2071
2074
2078
2081
2082
2084
2086
2088
2090
2091
2093
2094
2094
2094
2091
2090
2087
2083
2081
2076
2072
2063
2055
2049
2046
2046
2047
2046
2043
2038
2033
2029
2031
2030
2031
2030
2029
2029
2029
2029
2029
2029
2029
2030
2030
2031
2032
2033
2032
2035
2035
2034
2034
2030
2028
2029
2034
2040
2045
2045
2043
2038
2033
2033
2032
2033
2035
2035
2036
2036
2035
2035
2034
2034
2034
2034
2034
2034
2034
2033
2032
2034
2034
2033
2029
2026
2025
2029
2034
2039
2040
2036
2032
2030
2030
2033
2035
2036
2037
2038
2039
2040
2039
2038
2037
2036
2036
2035
2036
2036
2037
2036
2039
2039
2039
2036
2033
2032
2036
2045
2059
2075
2090
2101
2106
2097
2074
2034
1988
1947
1927
1932
1957
1990
2018
2035
2041
2042
2043
2046
2048
2050
2052
2055
2057
2058
2057
2056
2055
2057
2062
2067
2070
2071
2069
2066
2065
2066
2068
2071
2073
2074
2076
2078
2079
2081
2083
2086
2089
2092
2096
2099
2101
2103
2105
2107
2109
2109
2107
2106
2106
2107
2108
2106
2099
2090
2081
2073
2068
2064
2060
2056
2053
2051
2049
2048
2046
2044
2042
2042
2043
2044
2045
2046
2046
2045
2045
2045
2045
2044
2043
2044
2047
2050
2054
2054
2053
2050
2049
2048
2049
2051
2051
2051
2050
2050
2051
2052
2053
2052
2051
2050
2051
2052
2052
2052
2052
2051
2048
2047
2046
2046
2048
2051
2054
2056
2056
2055
2055
2054
2055
2055
2053
2051
2050
2050
2051
2052
2051
2050
2048
2047
2048
2049
2050
2051
2049
2050
2053
2058
2068
2083
2099
2113
2120
2109
2079
2033
1984
1949
1939
1955
1989
2022
2046
2059
2064
2066
2069
2073
2077
2080
2083
2086
2088
2089
2091
2092
2094
2098
2099
2100
2099
2097
2097
2100
2106
2114
2119
2120
2118
2116
2114
2116
2118
2122
2127
2129
2132
2135
2137
2140
2143
2146
2147
2148
2148
2148
2148
2147
2145
2143
2136
2128
2117
2107
2101
2099
2100
2099
2094
2086
2078
2073
2071
2072
2071
2070
2068
2066
2065
2065
2064
2065
2064
2064
2064
2063
2064
2064
2064
2063
2064
2063
2062
2059
2056
2055
2058
2064
2068
2071
2067
2062
2057
2053
2055
2056
2057
2056
2054
2053
2052
2051
2051
2051
2051
2051
2052
2053
2053
2053
2051
2050
2049
2048
2046
2044
2044
2044
2047
2048
2048
2046
2043
2041
2040
2041
2042
2042
2042
2045
2053
2067
2085
2098
2101
2086
2053
2008
1963
1933
1925
1940
1969
2000
2023
2034
2038
2037
2039
2042
2045
2047
2048
2047
2046
2046
2046
2046
2045
2043
2044
2046
2048
2050
2051
2052
2052
2052
2053
2054
2055
2057
2058
2060
2063
2065
2067
2068
2070
2073
2076
2081
2084
2086
2086
2084
2083
2082
2082
2080
2077
2073
2068
2062
2056
2050
2045
2039
2034
2029
2025
2022
2020
2019
2017
2017
2016
2014
2013
2013
2013
2016
2016
2016
2015
2013
2012
2013
2013
2014
2013
2014
2014
2016
2017
2017
2018
2018
2018
2018
2018
2019
2019
2020
2020
2019
2020
2020
2019
2015
2015
2016
2019
2019
2017
2015
2014
2017
2023
2026
2028
2023
2016
2010
2009
2010
2014
2013
2014
2014
2015
2015
2016
2017
2018
2018
2017
2019
2019
2019
2017
2011
2007
2007
2011
2020
2027
2030
2027
2020
2015
2013
2013
2014
2018
2024
2037
2054
2069
2078
2077
2061
2034
1996
1959
1932
1923
1934
1960
1986
2007
2017
2019
2018
2020
2024
2029
2034
2035
2035
2033
2032
2033
2034
2036
2037
2038
2039
2039
2040
2041
2042
2044
2045
2046
2048
2048
2050
2052
2055
2057
2059
2059
2060
2061
2064
2069
2074
2078
2079
2077
2075
2072
2073
2073
2072
2070
2067
2062
2057
2051
2047
2041
2036
2033
2030
2027
2024
2021
2019
2017
2017
2016
2015
2012
2011
2011
2014
2017
2019
2020
2017
2014
2013
2012
2014
2016
2017
2017
2017
2017
2018
2018
2019
2019
2020
2021
2021
2021
2021
2020
2020
2021
2021
2021
2019
2018
2017
2018
2021
2023
2024
2023
2021
2019
2018
2019
2020
2020
2020
2019
2019
2019
2020
2021
2021
2021
2020
2020
2019
2020
2020
2020
2022
2022
2020
2018
2017
2017
2020
2024
2027
2026
2024
2021
2019
2019
2021
2023
2022
2022
2022
2022
2022
2023
2024
2024
2024
2023
2021
2020
2020
2020
2022
2023
2026
2028
2028
2027
2025
2025
2027
2029
2031
2031
2029
2027
2025
2024
2023
2024
2024
2024
2025
2026
2027
2027
2026
2024
2024
2028
2038
2052
2067
2076
2079
2077
2066
2047
2019
1989
1965
1957
1968
1990
2013
2028
2033
2031
2029
2032
2034
2035
2037
2038
2039
2040
2041
2042
2042
2043
2044
2045
2045
2046
2047
2047
2050
2051
2052
2051
2050
2049
2051
2056
2063
2068
2070
2069
2067
2065
2067
2069
2071
2074
2075
2076
2077
2076
2076
2074
2072
2070
2067
2063
2060
2055
2051
2047
2043
2039
2035
2030
2026
2025
2026
2029
2031
2030
2028
2024
2022
2021
2021
2022
2023
2023
2023
2024
2024
2024
2025
2025
2025
2026
2026
2027
2027
2028
2027
2029
2029
2027
2026
2024
2025
2029
2032
2034
2036
2033
2030
2026
2024
2026
2027
2029
2030
2029
2028
2027
2026
2025
2027
2027
2026
2027
2026
2027
2027
2026
2027
2028
2027
2025
2023
2023
2025
2029
2033
2034
2032
2028
2026
2024
2027
2028
2028
2028
2028
2027
2027
2027
2026
2025
2025
2026
2028
2030
2032
2033
2032
2034
2033
2033
2031
2029
2027
2028
2032
2036
2038
2036
2032
2028
2026
2027
2029
2030
2030
2030
2028
2027
2027
2032
2043
2058
2072
2082
2086
2084
2072
2052
2025
1996
1975
1969
1979
1998
2018
2032
2038
2038
2039
2039
2038
2038
2038
2040
2041
2042
2043
2044
2045
2045
2046
2046
2047
2048
2048
2049
2049
2050
2050
2053
2055
2056
2057
2056
2056
2059
2063
2069
2073
2075
2075
2074
2074
2075
2077
2077
2078
2077
2076
2075
2073
2071
2068
2064
2060
2054
2049
2045
2040
2038
2033
2032
2030
2027
2025
2022
2021
2021
2023
2026
2028
2028
2025
2024
2020
2020
2020
2019
2021
2022
2023
2023
2023
2024
2024
2024
2025
2025
2025
2025
2025
2025
2027
2027
2026
2024
2022
2022
2024
2029
2033
2034
2032
2029
2026
2025
2026
2026
2026
2026
2025
2025
2026
2026
2026
2026
2025
2025
2025
2025
2025
2025
2025
2025
2027
2025
2024
2022
2021
2022
2027
2032
2034
2033
2029
2026
2023
2023
2025
2025
2026
2026
2027
2026
2026
2025
2024
2024
2024
2026
2027
2029
2031
2032
2032
2031
2031
2030
2028
2027
2027
2028
2031
2032
2032
2031
2028
2025
2023
2024
2026
2029
2031
2031
2029
2026
2027
2034
2047
2062
2071
2075
2073
2068
2057
2039
2019
1994
1977
1973
1983
2001
2019
2034
2040
2041
2040
2037
2035
2033
2037
2038
2040
2040
2040
2041
2043
2044
2043
2042
2040
2040
2044
2048
2052
2054
2052
2049
2048
2049
2050
2053
2054
2056
2059
2062
2064
2065
2065
2067
2069
2071
2072
2072
2071
2070
2070
2068
2067
2064
2061
2057
2053
2049
2046
2042
2039
2035
2033
2030
2029
2028
2026
2025
2025
2026
2029
2030
2030
2028
2026
2025
2024
2024
2025
2024
2024
2024
2025
2026
2027
2028
2028
2028
2027
2026
2027
2026
2027
2028
2029
2029
2029
2027
2026
2025
2027
2029
2031
2032
2031
2029
2027
2026
2026
2026
2027
2027
2027
2027
2027
2027
2026
2027
2027
2026
2026
2025
2025
2024
2023
2026
2027
2027
2025
2023
2023
2024
2027
2031
2033
2032
2030
2028
2025
2026
2025
2024
2024
2025
2026
2028
2030
2032
2033
2033
2032
2031
2030
2028
2027
2026
2027
2031
2031
2031
2026
2022
2021
2026
2034
2040
2042
2038
2032
2026
2024
2029
2038
2053
2066
2076
2081
2078
2067
2048
2022
1995
1974
1967
1975
1995
2015
2029
2036
2035
2034
2032
2031
2033
2037
2042
2047
2047
2045
2042
2041
2041
2042
2043
2045
2046
2047
2048
2048
2049
2050
2051
2052
2054
2055
2057
2058
2059
2061
2063
2065
2065
2065
2066
2068
2073
2076
2079
2079
2076
2073
2070
2069
2067
2064
2061
2058
2054
2050
2046
2042
2038
2035
2033
2031
2029
2028
2028
2027
2026
2027
2026
2025
2023
2021
2021
2023
2027
2031
2032
2030
2027
2025
2024
2025
2027
2027
2027
2027
2028
2028
2028
2029
2029
2029
2029
2029
2029
2029
2029
2029
2030
2030
2030
2028
2026
2026
2027
2030
2033
2034
2033
2030
2028
2027
2028
2029
2029
2029
2028
2028
2028
2028
2028
2029
2029
2030
2030
2030
2030
2031
2031
2031
2032
2031
2029
2027
2027
2030
2034
2040
2041
2041
2038
2036
2035
2035
2037
2036
2036
2036
2035
2035
2036
2035
2035
2034
2033
2033
2033
2035
2034
2033
2032
2034
2043
2055
2067
2074
2078
2078
2071
2060
2041
2016
1993
1981
1984
2001
2019
2035
2040
2039
2039
2040
2041
2042
2044
2044
2045
2045
2045
2046
2047
2047
2049
2050
2051
2049
2048
2048
2049
2054
2059
2062
2062
2060
2059
2057
2061
2063
2065
2066
2068
2070
2072
2073
2074
2075
2077
2078
2078
2078
2077
2075
2072
2072
2070
2066
2062
2054
2048
2046
2046
2048
2048
2047
2043
2037
2032
2030
2029
2029
2030
2030
2030
2030
2030
2030
2030
2029
2029
2028
2028
2029
2030
2031
2032
2033
2033
2032
2030
2028
2029
2031
2035
2038
2037
2035
2032
2030
2030
2032
2033
2034
2033
2033
2032
2032
2032
2032
2031
2031
2031
2031
2031
2031
2031
2030
2032
2032
2030
2029
2027
2027
2029
2033
2035
2035
2032
2029
2028
2026
2029
2029
2030
2032
2035
2039
2040
2040
2038
2036
2035
2035
2037
2036
2035
2035
2034
2035
2036
2037
2035
2034
2034
2036
2038
2041
2044
2048
2058
2071
2079
2087
2088
2080
2063
2040
2012
1987
1974
1978
1995
2016
2034
2043
2043
2042
2043
2043
2046
2047
2047
2047
2045
2045
2047
2051
2056
2059
2058
2055
2052
2051
2052
2054
2055
2056
2057
2058
2059
2060
2061
2063
2065
2067
2069
2071
2073
2075
2076
2078
2080
2081
2081
2080
2078
2077
2076
2077
2077
2076
2072
2066
2060
2055
2051
2048
2045
2042
2040
2038
2037
2036
2035
2034
2033
2032
2032
2032
2032
2032
2032
2032
2033
2033
2031
2030
2030
2031
2034
2037
2039
2039
2037
2034
2032
2033
2033
2034
2035
2035
2036
2036
2036
2036
2036
2035
2034
2034
2033
2033
2033
2032
2035
2034
2033
2033
2031
2030
2030
2033
2036
2038
2038
2036
2034
2029
2029
2028
2027
2029
2030
2031
2033
2034
2034
2035
2035
2035
2035
2035
2035
2034
2033
2034
2034
2033
2029
2028
2028
2029
2032
2034
2036
2037
2038
2038
2037
2041
2048
2062
2075
2088
2092
2085
2065
2036
2003
1973
1956
1958
1976
2001
2022
2035
2037
2037
2037
2037
2037
2036
2037
2041
2046
2050
2051
2050
2048
2046
2044
2046
2046
2048
2048
2049
2051
2052
2053
2054
2055
2056
2057
2058
2060
2063
2064
2067
2069
2070
2071
2071
2072
2072
2075
2079
2081
2081
2077
2073
2069
2066
2064
2061
2056
2051
2048
2044
2043
2041
2038
2035
2032
2030
2028
2028
2027
2027
2025
2027
2027
2025
2023
2020
2020
2023
2029
2035
2037
2035
2030
2027
2024
2026
2030
2030
2031
2031
2031
2031
2031
2031
2031
2031
2032
2032
2032
2031
2031
2030
2031
2031
2031
2030
2029
2028
2028
2029
2031
2033
2032
2031
2030
2028
2028
2028
2028
2026
2025
2026
2026
2027
2028
2029
2030
2031
2032
2033
2034
2035
2034
2033
2032
2031
2030
2028
2027
2027
2029
2032
2034
2035
2034
2033
2032
2031
2031
2033
2041
2055
2072
2090
2102
2102
2086
2055
2015
1975
1948
1943
1957
1983
2008
2026
2034
2033
2032
2032
2033
2037
2041
2044
2046
2046
2044
2043
2042
2043
2045
2047
2047
2048
2048
2050
2051
2052
2053
2053
2054
2056
2057
2059
2062
2062
2066
2067
2069
2069
2069
2070
2074
2079
2083
2085
2084
2081
2078
2074
2075
2074
2071
2067
2062
2058
2054
2050
2047
2043
2039
2036
2033
2031
2030
2029
2028
2029
2030
2029
2029
2023
2019
2017
2021
2029
2037
2041
2039
2033
2028
2025
2027
2028
2031
2031
2032
2032
2032
2032
2031
2031
2031
2031
2032
2032
2032
2033
2033
2032
2032
2032
2030
2029
2029
2030
2033
2034
2033
2032
2030
2028
2029
2029
2031
2032
2033
2034
2035
2035
2034
2033
2032
2030
2030
2030
2030
2031
2031
2031
2031
2030
2031
2031
2030
2029
2029
2030
2035
2047
2061
2079
2094
2103
2099
2076
2042
1999
1963
1945
1949
1970
1997
2019
2031
2034
2035
2036
2038
2040
2040
2043
2044
2046
2045
2045
2045
2047
2050
2054
2057
2057
2055
2053
2052
2053
2056
2058
2059
2059
2061
2062
2064
2066
2069
2070
2072
2075
2077
2079
2080
2081
2082
2084
2085
2084
2083
2080
2078
2078
2078
2077
2074
2068
2061
2053
2048
2044
2041
2038
2035
2034
2032
2030
2030
2029
2028
2028
2027
2027
2027
2026
2025
2025
2026
2026
2026
2026
2026
2028
2031
2035
2035
2033
2032
2029
2029
2029
2031
2031
2030
2031
2030
2030
2030
2030
2030
2030
2029
2029
2028
2029
2029
2030
2030
2031
2032
2032
2031
2030
2030
2031
2033
2034
2033
2031
2028
2026
2024
2025
2026
2028
2027
2028
2029
2030
2029
2028
2027
2031
2043
2060
2079
2095
2100
2084
2052
2007
1961
1929
1920
1936
1965
1998
2022
2035
2036
2035
2035
2034
2037
2039
2041
2042
2044
2045
2047
2047
2048
2048
2049
2050
2051
2052
2053
2054
2054
2058
2060
2061
2060
2058
2058
2060
2067
2075
2081
2083
2082
2081
2080
2082
2085
2087
2089
2089
2089
2088
2087
2086
2084
2081
2078
2073
2067
2061
2055
2049
2047
2043
2040
2035
2028
2022
2020
2024
2032
2038
2039
2034
2028
2023
2023
2024
2027
2029
2028
2028
2028
2028
2028
2028
2029
2029
2030
2031
2032
2032
2032
2030
2031
2031
2030
2028
2026
2027
2029
2033
2037
2038
2035
2033
2031
2030
2034
2035
2038
2035
2032
2030
2027
2028
2029
2032
2033
2032
2030
2029
2028
2026
2028
2030
2031
2030
2027
2027
2033
2048
2071
2091
2103
2096
2069
2029
1983
1947
1928
1931
1951
1980
2006
2024
2032
2034
2035
2037
2039
2041
2042
2043
2044
2044
2047
2048
2049
2048
2047
2045
2047
2051
2057
2062
2062
2060
2057
2055
2057
2060
2062
2063
2066
2069
2072
2072
2071
2071
2074
2080
2088
2093
2093
2090
2086
2083
2083
2083
2081
2075
2069
2065
2063
2062
2060
2054
2047
2039
2034
2030
2029
2028
2027
2025
2024
2024
2023
2024
2023
2023
2022
2022
2022
2023
2023
2024
2025
2026
2027
2027
2025
2022
2021
2023
2028
2033
2036
2036
2033
2029
2026
2026
2027
2027
2027
2026
2026
2026
2027
2027
2028
2028
2028
2029
2030
2031
2031
2030
2030
2029
2028
2025
2023
2022
2024
2029
2033
2035
2033
2030
2027
2024
2026
2025
2025
2027
2037
2052
2070
2084
2091
2086
2068
2040
2005
1973
1954
1953
1967
1993
2015
2028
2030
2026
2025
2029
2036
2044
2048
2048
2046
2041
2038
2041
2042
2044
2046
2046
2047
2048
2048
2048
2049
2050
2051
2053
2054
2055
2057
2058
2061
2063
2064
2066
2065
2065
2068
2073
2080
2085
2085
2082
2077
2072
2070
2069
2067
2066
2063
2059
2055
2049
2044
2039
2035
2032
2030
2028
2026
2024
2023
2021
2022
2021
2020
2018
2016
2017
2020
2024
2028
2029
2027
2024
2021
2019
2021
2022
2025
2025
2024
2024
2023
2023
2024
2027
2029
2030
2028
2027
2026
2025
2025
2027
2027
2027
2024
2022
2021
2023
2027
2031
2032
2029
2025
2021
2019
2021
2022
2024
2024
2024
2025
2026
2027
2027
2028
2028
2027
2027
2026
2025
2024
2023
2025
2026
2026
2025
2022
2020
2022
2026
2031
2033
2032
2033
2038
2049
2063
2074
2078
2075
2063
2045
2018
1989
1967
1960
1971
1992
2015
2030
2036
2034
2031
2029
2030
2032
2033
2034
2034
2035
2037
2041
2044
2045
2044
2042
2042
2042
2044
2046
2046
2048
2048
2049
2051
2052
2054
2056
2057
2059
2061
2062
2064
2066
2068
2070
2072
2072
2071
2070
2069
2071
2072
2072
2071
2066
2060
2055
2049
2046
2042
2038
2034
2031
2030
2028
2027
2026
2025
2023
2022
2022
2022
2023
2022
2022
2023
2023
2023
2022
2020
2020
2020
2023
2027
2029
2029
2027
2025
2024
2024
2025
2026
2026
2027
2027
2027
2027
2027
2027
2027
2027
2027
2027
2026
2027
2026
2027
2029
2027
2026
2023
2021
2022
2025
2031
2033
2033
2030
2027
2024
2024
2025
2025
2026
2026
2026
2026
2026
2026
2026
2026
2026
2027
2027
2027
2028
2028
2028
2029
2027
2025
2023
2020
2022
2027
2033
2039
2039
2037
2032
2029
2029
2029
2031
2031
2031
2031
2030
2030
2029
2029
2029
2029
2029
2029
2030
2031
2030
2030
2028
2028
2032
2042
2056
2068
2078
2082
2079
2068
2048
2023
1996
1977
1973
1982
2001
2017
2032
2035
2033
2033
2033
2035
2038
2041
2043
2043
2043
2042
2040
2044
2046
2045
2044
2042
2041
2043
2048
2054
2059
2059
2057
2054
2051
2054
2057
2058
2061
2062
2063
2065
2067
2068
2070
2071
2073
2073
2074
2074
2073
2071
2071
2069
2067
2063
2058
2053
2049
2047
2046
2045
2043
2039
2035
2031
2029
2029
2028
2028
2027
2027
2027
2027
2026
2026
2026
2026
2027
2027
2027
2028
2028
2028
2029
2029
2029
2028
2027
2028
2029
2033
2035
2037
2036
2033
2031
2029
2030
2029
2031
2031
2030
2030
2030
2030
2031
2031
2030
2030
2029
2030
2030
2030
2030
2031
2031
2030
2029
2028
2028
2030
2032
2033
2034
2032
2030
2029
2029
2030
2031
2031
2031
2030
2031
2031
2032
2031
2031
2029
2028
2029
2029
2030
2032
2033
2036
2035
2035
2034
2033
2035
2036
2038
2039
2037
2034
2032
2032
2030
2032
2032
2032
2032
2033
2034
2034
2032
2030
2030
2035
2048
2061
2073
2079
2081
2074
2064
2046
2021
1995
1976
1972
1985
2007
2029
2043
2045
2041
2038
2036
2037
2039
2041
2043
2044
2045
2045
2046
2047
2047
2048
2048
2048
2049
2050
2051
2052
2053
2054
2056
2055
2055
2054
2056
2059
2063
2068
2071
2074
2076
2078
2078
2076
2075
2073
2074
2075
2076
2075
2073
2071
2068
2064
2061
2057
2053
2049
2046
2041
2041
2038
2035
2031
2028
2026
2028
2033
2037
2038
2035
2031
2027
2025
2027
2029
2029
2029
2030
2030
2030
2031
2031
2031
2031
2032
2032
2032
2032
2032
2032
2033
2034
2034
2032
2031
2030
2031
2034
2037
2039
2037
2035
2032
2031
2032
2033
2034
2033
2033
2032
2032
2032
2032
2033
2032
2032
2032
2032
2031
2031
2030
2031
2031
2032
2031
2030
2029
2029
2032
2034
2036
2036
2034
2032
2031
2031
2032
2033
2033
2032
2031
2030
2029
2030
2031
2034
2035
2037
2037
2037
2037
2036
2037
2037
2038
2037
2034
2033
2032
2033
2036
2038
2038
2037
2035
2034
2034
2035
2035
2033
2032
2035
2044
2058
2071
2079
2082
2079
2070
2054
2034
2008
1987
1978
1986
2003
2020
2034
2037
2037
2039
2043
2046
2046
2045
2043
2043
2043
2046
2047
2047
2048
2048
2048
2049
2050
2051
2051
2052
2053
2054
2055
2056
2057
2058
2061
2063
2063
2064
2063
2064
2066
2071
2076
2080
2081
2080
2078
2075
2075
2075
2073
2073
2070
2067
2064
2060
2056
2052
2048
2045
2042
2040
2037
2036
2033
2034
2034
2033
2032
2028
2026
2026
2028
2033
2037
2038
2036
2033
2030
2029
2029
2030
2032
2032
2033
2033
2033
2033
2033
2033
2033
2033
2034
2034
2034
2034
2033
2036
2035
2035
2033
2030
2029
2032
2037
2042
2043
2041
2036
2032
2031
2031
2031
2032
2033
2033
2032
2033
2033
2033
2032
2032
2032
2033
2034
2034
2034
2033
2035
2035
2034
2031
2028
2027
2030
2036
2041
2043
2040
2036
2032
2030
2032
2032
2032
2031
2031
2033
2035
2036
2036
2035
2035
2037
2039
2041
2042
2040
2036
2035
2035
2035
2034
2032
2031
2033
2036
2039
2041
2040
2038
2035
2032
2032
2037
2047
2061
2074
2085
2090
2086
2072
2050
2024
1997
1979
1976
1988
2007
2025
2037
2040
2040
2039
2039
2039
2041
2044
2047
2049
2049
2048
2047
2046
2047
2048
2048
2048
2048
2050
2051
2052
2053
2054
2056
2057
2059
2060
2061
2062
2063
2065
2067
2069
2070
2071
2072
2073
2076
2080
2082
2081
2079
2075
2073
2071
2069
2067
2063
2060
2056
2052
2048
2045
2042
2039
2037
2035
2034
2033
2031
2031
2029
2030
2029
2028
2028
2027
2028
2030
2031
2032
2032
2031
2030
2030
2030
2032
2032
2032
2032
2032
2033
2033
2034
2033
2033
2033
2033
2034
2033
2034
2033
2033
2034
2034
2034
2032
2030
2030
2031
2034
2037
2038
2037
2035
2032
2030
2030
2031
2031
2031
2032
2032
2032
2031
2031
2031
2031
2031
2031
2031
2031
2032
2031
2033
2033
2032
2031
2028
2027
2029
2032
2037
2039
2038
2034
2030
2028
2030
2032
2035
2036
2037
2037
2038
2038
2037
2037
2036
2035
2034
2034
2033
2033
2033
2033
2035
2034
2034
2032
2031
2031
2033
2035
2038
2043
2052
2065
2077
2086
2089
2081
2064
2040
2010
1984
1971
1973
1989
2010
2027
2037
2038
2038
2038
2038
2041
2042
2042
2042
2041
2041
2042
2047
2050
2054
2054
2051
2049
2047
2048
2050
2051
2053
2054
2056
2057
2058
2059
2059
2060
2061
2064
2067
2071
2074
2074
2074
2077
2078
2077
2076
2073
2070
2071
2075
2079
2080
2075
2067
2059
2051
2048
2046
2042
2041
2037
2035
2033
2032
2031
2030
2030
2030
2030
2030
2029
2029
2028
2029
2029
2028
2027
2026
2025
2027
2031
2035
2037
2036
2033
2031
2030
2030
2032
2032
2033
2032
2033
2033
2033
2033
2033
2033
2033
2033
2033
2032
2033
2032
2034
2034
2033
2032
2029
2029
2030
2033
2037
2038
2037
2033
2031
2029
2031
2031
2031
2032
2032
2032
2030
2027
2026
2026
2030
2036
2040
2040
2036
2032
2029
2028
2029
2031
2029
2028
2027
2027
2030
2034
2038
2040
2038
2037
2035
2034
2034
2034
2034
2033
2033
2032
2032
2032
2032
2032
2032
2032
2033
2033
2034
2033
2032
2032
2035
2045
2058
2072
2084
2091
2088
2074
2049
2018
1988
1970
1968
1983
2005
2024
2035
2038
2038
2039
2039
2041
2042
2042
2043
2043
2044
2045
2047
2047
2048
2049
2048
2048
2046
2046
2048
2052
2058
2061
2061
2060
2059
2059
2060
2062
2064
2065
2068
2070
2072
2074
2075
2076
2077
2078
2079
2080
2080
2079
2078
2076
2075
2070
2066
2060
2055
2051
2050
2050
2049
2047
2042
2038
2035
2033
2032
2031
2031
2030
2030
2030
2030
2029
2029
2029
2029
2030
2031
2032
2032
2033
2033
2034
2035
2034
2033
2032
2031
2033
2037
2040
2041
2039
2037
2034
2032
2034
2035
2036
2036
2036
2035
2034
2036
2035
2034
2033
2032
2033
2034
2037
2037
2034
2035
2033
2032
2029
2029
2027
2029
2035
2040
2043
2041
2037
2033
2030
2032
2033
2033
2032
2032
2031
2032
2033
2034
2036
2037
2038
2039
2039
2039
2039
2038
2038
2038
2037
2035
2034
2033
2033
2036
2039
2042
2041
2039
2037
2035
2035
2035
2036
2041
2052
2070
2090
2108
2116
2107
2080
2040
1997
1964
1952
1961
1984
2010
2030
2039
2040
2037
2037
2039
2044
2048
2052
2053
2051
2049
2048
2048
2051
2051
2053
2053
2054
2055
2056
2057
2058
2059
2060
2061
2063
2064
2065
2065
2068
2070
2072
2073
2074
2075
2077
2082
2088
2092
2093
2092
2089
2087
2086
2087
2086
2085
2082
2078
2074
2068
2063
2058
2053
2048
2045
2042
2038
2037
2035
2034
2035
2034
2032
2028
2026
2027
2029
2034
2037
2037
2035
2032
2030
2029
2030
2031
2032
2032
2033
2033
2034
2035
2035
2035
2035
2035
2035
2035
2036
2036
2035
2037
2038
2037
2034
2032
2030
2032
2036
2040
2042
2041
2037
2034
2032
2033
2033
2034
2033
2033
2033
2033
2032
2032
2031
2030
2030
2031
2032
2033
2034
2035
2037
2038
2037
2036
2033
2031
2031
2034
2038
2040
2039
2037
2034
2033
2034
2034
2034
2035
2035
2035
2034
2035
2042
2055
2075
2094
2109
2110
2094
2061
2019
1978
1951
1946
1960
1984
2008
2026
2036
2041
2045
2047
2047
2046
2044
2044
2047
2048
2049
2049
2050
2051
2051
2053
2053
2053
2053
2053
2055
2057
2060
2062
2061
2063
2064
2065
2065
2065
2065
2068
2075
2083
2090
2092
2090
2088
2085
2086
2088
2088
2090
2089
2087
2085
2083
2079
2075
2070
2064
2059
2053
2048
2044
2040
2037
2036
2033
2031
2028
2026
2026
2028
2031
2033
2032
2030
2028
2026
2025
2028
2028
2029
2028
2029
2029
2030
2030
2030
2031
2031
2032
2032
2033
2033
2033
2034
2034
2034
2033
2031
2030
2031
2034
2037
2039
2038
2035
2032
2031
2031
2032
2032
2033
2032
2032
2031
2030
2030
2030
2030
2031
2031
2031
2032
2032
2033
2034
2035
2036
2036
2034
2032
2031
2032
2034
2036
2037
2035
2034
2032
2032
2032
2033
2034
2032
2031
2032
2039
2052
2069
2086
2098
2100
2090
2065
2033
1998
1970
1959
1966
1986
2007
2024
2033
2036
2038
2042
2045
2045
2044
2043
2042
2044
2046
2046
2047
2048
2048
2048
2049
2050
2050
2051
2052
2053
2055
2057
2059
2058
2061
2062
2062
2062
2062
2063
2067
2072
2079
2083
2084
2083
2081
2080
2081
2081
2081
2080
2078
2076
2073
2069
2064
2059
2054
2048
2045
2040
2037
2034
2033
2031
2031
2028
2027
2024
2021
2021
2024
2027
2030
2030
2029
2026
2024
2024
2024
2024
2025
2025
2026
2027
2027
2027
2027
2027
2028
2028
2029
2029
2030
2030
2031
2031
2031
2030
2029
2029
2030
2031
2032
2032
2032
2033
2036
2038
2037
2035
2030
2027
2027
2028
2030
2030
2030
2029
2030
2030
2029
2029
2028
2029
2030
2031
2034
2033
2031
2026
2022
2020
2024
2030
2036
2040
2039
2035
2032
2030
2033
2035
2036
2036
2035
2034
2033
2032
2031
2031
2031
2032
2032
2032
2033
2033
2034
2035
2034
2032
2032
2037
2048
2063
2075
2081
2082
2077
2067
2052
2032
2008
1989
1983
1992
2008
2026
2036
2039
2038
2037
2038
2039
2041
2041
2042
2043
2044
2045
2047
2047
2046
2044
2043
2044
2048
2053
2056
2056
2054
2052
2050
2051
2054
2055
2058
2059
2060
2062
2064
2066
2068
2070
2071
2072
2073
2073
2074
2074
2074
2073
2072
2070
2066
2061
2056
2053
2052
2050
2048
2044
2039
2035
2031
2030
2029
2029
2028
2027
2027
2026
2026
2026
2026
2026
2026
2026
2026
2026
2026
2027
2028
2028
2028
2026
2024
2024
2026
2029
2033
2034
2033
2031
2029
2027
2028
2029
2029
2029
2030
2030
2030
2030
2030
2030
2030
2030
2030
2030
2029
2030
2029
2030
2031
2030
2028
2026
2024
2025
2028
2033
2036
2036
2033
2030
2027
2027
2028
2029
2029
2029
2030
2030
2030
2030
2030
2030
2029
2028
2028
2028
2029
2031
2032
2035
2034
2034
2032
2031
2031
2033
2037
2039
2038
2036
2034
2032
2032
2032
2031
2032
2031
2032
2033
2034
2033
2031
2031
2035
2047
2060
2072
2079
2081
2079
2071
2056
2034
2007
1985
1977
1987
2007
2028
2041
2042
2039
2036
2035
2038
2040
2041
2042
2043
2043
2044
2045
2045
2045
2048
2052
2050
2046
2042
2039
2042
2054
2065
2070
2065
2055
2048
2047
2054
2067
2072
2074
2072
2069
2066
2069
2071
2072
2075
2075
2075
2075
2074
2072
2070
2068
2065
2062
2058
2054
2050
2046
2043
2040
2037
2034
2031
2028
2027
2029
2031
2034
2033
2031
2029
2026
2026
2027
2027
2028
2027
2028
2027
2028
2029
2029
2030
2030
2030
2029
2030
2031
2031
2032
2033
2032
2031
2029
2029
2029
2032
2035
2037
2037
2034
2032
2031
2030
2031
2031
2032
2031
2031
2031
2031
2031
2031
2031
2031
2031
2031
2031
2031
2030
2031
2032
2032
2031
2029
2027
2028
2031
2034
2037
2037
2035
2032
2029
2030
2032
2032
2032
2030
2028
2028
2029
2033
2036
2037
2036
2034
2032
2031
2032
2032
2032
2035
2036
2036
2035
2033
2034
2036
2040
2044
2045
2043
2038
2034
2031
2032
2033
2034
2033
2033
2033
2034
2034
2035
2034
2033
2031
2032
2039
2051
2066
2076
2085
2086
2080
2065
2042
2014
1991
1981
1986
2003
2021
2033
2038
2037
2037
2038
2040
2041
2042
2043
2044
2045
2046
2046
2047
2047
2048
2048
2049
2049
2050
2052
2054
2053
2053
2051
2050
2052
2056
2062
2067
2069
2068
2067
2066
2066
2069
2070
2073
2074
2076
2077
2077
2076
2076
2075
2073
2072
2069
2066
2063
2059
2055
2051
2048
2043
2039
2034
2031
2032
2035
2038
2039
2036
2032
2028
2025
2027
2028
2029
2029
2029
2029
2029
2029
2029
2030
2030
2032
2031
2031
2030
2030
2030
2034
2037
2037
2034
2029
2026
2027
2032
2041
2044
2043
2037
2033
2030
2032
2034
2035
2034
2033
2032
2033
2033
2034
2034
2033
2033
2033
2032
2033
2032
2031
2032
2033
2033
2031
2029
2028
2029
2032
2036
2040
2039
2037
2034
2031
2032
2033
2034
2034
2034
2034
2033
2033
2033
2033
2034
2035
2035
2035
2034
2034
2033
2032
2033
2033
2033
2032
2031
2033
2037
2043
2046
2047
2045
2040
2037
2034
2035
2034
2035
2035
2034
2034
2034
2034
2035
2035
2035
2036
2036
2035
2033
2034
2041
2054
2073
2087
2096
2094
2082
2060
2033
2003
1979
1967
1972
1989
2010
2027
2038
2040
2040
2039
2037
2036
2039
2045
2051
2056
2055
2052
2048
2045
2047
2048
2051
2052
2053
2051
2049
2050
2052
2058
2064
2068
2068
2065
2063
2062
2065
2069
2071
2073
2075
2076
2078
2080
2082
2083
2083
2083
2082
2082
2081
2080
2077
2075
2072
2067
2060
2054
2048
2046
2045
2046
2046
2044
2039
2035
2031
2031
2031
2032
2031
2029
2029
2029
2029
2030
2030
2030
2029
2030
2030
2031
2031
2032
2033
2034
2034
2034
2032
2030
2030
2033
2037
2041
2042
2040
2038
2036
2035
2034
2034
2035
2035
2035
2035
2034
2034
2034
2034
2034
2034
2034
2034
2034
2033
2033
2036
2035
2033
2029
2026
2024
2028
2035
2043
2046
2045
2040
2033
2028
2028
2028
2030
2030
2031
2031
2030
2029
2030
2030
2032
2034
2036
2037
2038
2037
2036
2038
2039
2039
2037
2033
2031
2033
2036
2041
2042
2039
2036
2032
2031
2033
2034
2036
2036
2035
2033
2034
2040
2053
2072
2091
2106
2109
2095
2064
2024
1982
1955
1947
1960
1984
2008
2026
2035
2040
2043
2046
2046
2045
2044
2043
2046
2047
2048
2049
2049
2051
2051
2052
2053
2053
2054
2055
2056
2056
2057
2059
2060
2063
2066
2065
2066
2064
2065
2068
2074
2082
2086
2088
2087
2086
2085
2086
2089
2090
2090
2090
2089
2087
2084
2081
2077
2073
2067
2062
2056
2051
2047
2043
2040
2037
2036
2034
2031
2029
2027
2028
2030
2032
2033
2032
2030
2028
2027
2028
2029
2030
2029
2030
2030
2030
2031
2031
2032
2032
2032
2033
2032
2033
2033
2033
2035
2034
2035
2033
2032
2032
2033
2036
2039
2039
2037
2035
2033
2031
2032
2033
2033
2033
2033
2033
2033
2032
2032
2032
2031
2032
2032
2032
2032
2032
2031
2031
2032
2031
2030
2028
2027
2028
2030
2033
2035
2034
2032
2031
2031
2032
2034
2036
2036
2035
2035
2035
2034
2034
2033
2033
2032
2031
2031
2031
2031
2032
2032
2033
2033
2033
2030
2027
2026
2030
2042
2059
2076
2089
2096
2093
2080
2056
2024
1993
1969
1961
1971
1991
2013
2028
2036
2035
2035
2037
2038
2039
2040
2040
2044
2045
2045
2042
2040
2039
2042
2048
2054
2056
2055
2051
2048
2048
2050
2052
2054
2055
2056
2058
2059
2060
2062
2064
2066
2068
2070
2072
2074
2075
2075
2077
2078
2078
2075
2072
2070
2069
2070
2071
2068
2062
2054
2048
2041
2039
2037
2035
2032
2030
2028
2027
2027
2026
2026
2025
2025
2025
2025
2025
2025
2024
2025
2026
2026
2024
2022
2021
2022
2026
2030
2033
2033
2031
2028
2027
2028
2029
2030
2030
2030
2030
2030
2030
2030
2030
2030
2031
2031
2031
2031
2031
2031
2030
2031
2030
2030
2028
2027
2027
2028
2031
2032
2032
2031
2029
2028
2028
2028
2029
2028
2029
2029
2029
2029
2029
2029
2029
2029
2029
2029
2029
2028
2028
2029
2031
2030
2030
2027
2024
2023
2025
2029
2033
2035
2035
2034
2032
2031
2032
2032
2033
2033
2033
2032
2032
2031
2031
2031
2031
2031
2031
2031
2030
2031
2031
2033
2033
2030
2027
2029
2038
2054
2072
2083
2086
2082
2072
2058
2037
2015
1993
1980
1983
1998
2016
2031
2038
2037
2036
2037
2038
2039
2040
2041
2042
2042
2045
2047
2046
2045
2042
2042
2045
2049
2054
2057
2056
2054
2052
2051
2053
2054
2056
2058
2059
2061
2063
2065
2067
2068
2070
2071
2073
2075
2076
2076
2077
2077
2077
2075
2073
2069
2065
2062
2062
2061
2059
2054
2048
2042
2036
2035
2033
2031
2031
2030
2029
2028
2028
2028
2027
2027
2027
2027
2027
2028
2028
2028
2028
2029
2029
2029
2027
2027
2026
2028
2032
2035
2036
2034
2032
2030
2028
2030
2031
2032
2032
2032
2032
2031
2032
2031
2032
2032
2033
2032
2031
2031
2029
2031
2033
2034
2033
2031
2029
2029
2031
2034
2035
2034
2032
2030
2029
2030
2032
2032
2032
2032
2032
2031
2031
2031
2032
2032
2032
2033
2033
2033
2032
2032
2030
2030
2031
2030
2030
2030
2031
2033
2037
2041
2043
2043
2040
2038
2035
2035
2035
2034
2034
2033
2033
2033
2033
2033
2034
2034
2034
2034
2034
2033
2032
2032
2037
2048
2064
2075
2080
2080
2075
2067
2054
2034
2009
1987
1979
1987
2003
2024
2036
2039
2038
2038
2039
2040
2042
2042
2043
2044
2046
2046
2047
2047
2048
2048
2049
2050
2051
2050
2049
2049
2051
2055
2058
2060
2060
2060
2060
2060
2064
2066
2069
2070
2071
2073
2075
2077
2078
2079
2079
2079
2079
2078
2077
2076
2072
2071
2067
2063
2056
2049
2045
2043
2045
2046
2046
2042
2038
2034
2030
2031
2031
2030
2030
2030
2030
2030
2030
2030
2030
2030
2030
2030
2030
2031
2031
2031
2032
2033
2033
2032
2031
2030
2031
2034
2038
2041
2040
2038
2036
2034
2034
2036
2036
2036
2036
2036
2036
2036
2036
2036
2036
2036
2035
2035
2035
2036
2036
2037
2037
2036
2034
2032
2030
2031
2034
2038
2041
2041
2038
2035
2032
2032
2032
2033
2034
2034
2034
2033
2033
2031
2031
2032
2034
2036
2039
2040
2041
2040
2040
2041
2040
2039
2036
2034
2034
2037
2040
2042
2042
2039
2036
2034
2034
2036
2037
2038
2037
2036
2036
2040
2050
2068
2086
2101
2109
2103
2083
2051
2015
1982
1966
1968
1984
2005
2023
2034
2039
2042
2046
2048
2047
2045
2044
2043
2046
2048
2048
2049
2050
2050
2051
2052
2052
2053
2054
2056
2057
2058
2059
2060
2061
2063
2065
2067
2066
2065
2065
2068
2075
2083
2088
2089
2086
2084
2083
2084
2086
2088
2088
2087
2085
2083
2080
2077
2073
2069
2064
2059
2054
2050
2046
2043
2041
2040
2037
2035
2032
2029
2029
2031
2035
2037
2037
2035
2031
2029
2029
2030
2031
2031
2032
2032
2033
2033
2034
2035
2035
2035
2035
2036
2036
2036
2037
2036
2039
2038
2037
2035
2032
2032
2034
2038
2043
2044
2043
2040
2037
2034
2036
2036
2036
2035
2035
2035
2035
2036
2036
2035
2035
2035
2034
2034
2034
2033
2033
2033
2034
2035
2035
2035
2036
2039
2042
2046
2046
2045
2041
2038
2036
2036
2037
2037
2037
2037
2037
2037
2037
2038
2039
2039
2039
2038
2037
2041
2051
2068
2088
2108
2117
2111
2086
2048
2005
1970
1955
1961
1981
2005
2026
2037
2041
2042
2044
2045
2046
2048
2049
2050
2051
2052
2053
2053
2054
2055
2056
2057
2058
2058
2060
2060
2060
2059
2058
2059
2064
2069
2074
2077
2077
2076
2076
2078
2081
2083
2087
2089
2091
2092
2094
2095
2096
2097
2097
2097
2095
2093
2090
2085
2080
2077
2071
2065
2057
2050
2045
2043
2044
2045
2045
2041
2037
2033
2030
2031
2032
2033
2032
2032
2031
2030
2031
2030
2031
2031
2031
2033
2033
2033
2031
2030
2033
2035
2037
2037
2033
2030
2030
2034
2040
2045
2045
2041
2037
2033
2034
2036
2035
2037
2036
2036
2036
2036
2036
2035
2035
2035
2035
2035
2035
2035
2034
2035
2036
2035
2033
2029
2027
2028
2031
2036
2040
2040
2037
2035
2033
2034
2037
2038
2038
2037
2036
2036
2035
2035
2034
2034
2034
2034
2035
2035
2035
2035
2036
2037
2035
2033
2033
2040
2056
2076
2095
2108
2108
2093
2064
2029
1995
1970
1963
1973
1995
2017
2032
2039
2039
2039
2039
2040
2041
2043
2045
2046
2047
2048
2048
2049
2049
2048
2047
2047
2049
2054
2058
2061
2060
2058
2055
2056
2057
2060
2062
2063
2065
2066
2068
2071
2073
2075
2077
2079
2080
2081
2082
2083
2083
2084
2083
2081
2078
2072
2068
2065
2063
2061
2056
2051
2045
2039
2034
2032
2032
2031
2028
2025
2022
2022
2024
2030
2033
2033
2030
2026
2022
2022
2023
2024
2025
2026
2025
2024
2022
2022
2024
2028
2033
2035
2034
2031
2029
2028
2029
2030
2031
2031
2031
2032
2032
2031
2031
2031
2031
2030
2031
2031
2031
2032
2032
2031
2032
2031
2030
2028
2026
2026
2028
2032
2035
2035
2034
2031
2029
2029
2029
2028
2029
2029
2029
2029
2029
2029
2029
2029
2029
2029
2029
2029
2029
2029
2028
2031
2030
2029
2027
2024
2021
2023
2027
2031
2034
2034
2033
2032
2031
2033
2033
2034
2034
2034
2033
2032
2032
2031
2031
2031
2031
2030
2032
2032
2030
2028
2031
2032
2033
2030
2027
2027
2035
2053
2073
2086
2091
2088
2079
2063
2045
2020
1995
1981
1982
1996
2014
2030
2036
2036
2036
2037
2038
2039
2039
2040
2040
2042
2044
2045
2044
2041
2040
2041
2045
2049
2053
2054
2052
2050
2048
2049
2052
2054
2055
2056
2057
2059
2061
2063
2065
2067
2069
2071
2072
2073
2074
2075
2075
2076
2076
2075
2072
2069
2066
2064
2063
2060
2056
2051
2045
2041
2037
2035
2033
2031
2030
2029
2028
2028
2027
2027
2026
2026
2026
2025
2025
2025
2026
2026
2027
2028
2027
2026
2025
2025
2027
2030
2033
2034
2033
2031
2030
2029
2030
2030
2032
2031
2031
2031
2031
2031
2031
2032
2032
2032
2032
2031
2032
2031
2031
2031
2031
2032
2030
2028
2027
2028
2031
2034
2035
2035
2032
2030
2028
2029
2030
2030
2031
2031
2031
2031
2032
2032
2032
2031
2032
2031
2032
2031
2032
2031
2032
2033
2032
2031
2029
2029
2030
2033
2036
2037
2035
2033
2031
2029
2030
2030
2029
2030
2032
2034
2036
2037
2037
2037
2036
2036
2036
2036
2036
2036
2036
2036
2035
2034
2033
2030
2029
2030
2033
2037
2041
2040
2037
2032
2030
2036
2047
2060
2071
2077
2080
2079
2075
2064
2046
2021
1997
1986
1991
2007
2024
2036
2040
2040
2039
2038
2037
2036
2038
2042
2047
2050
2051
2049
2048
2046
2046
2048
2048
2050
2050
2051
2052
2053
2053
2054
2055
2056
2058
2059
2062
2063
2064
2063
2065
2067
2069
2071
2072
2073
2075
2078
2081
2082
2081
2077
2072
2068
2067
2065
2062
2058
2054
2049
2046
2042
2039
2037
2036
2034
2034
2033
2032
2030
2029
2029
2029
2030
2027
2024
2022
2023
2027
2033
2036
2035
2032
2029
2027
2028
2029
2031
2031
2030
2030
2030
2031
2031
2031
2031
2032
2032
2032
2032
2032
2032
2032
2033
2033
2033
2031
2029
2029
2030
2034
2037
2037
2035
2032
2030
2030
2032
2032
2032
2032
2031
2032
2032
2032
2033
2032
2032
2032
2031
2032
2031
2032
2031
2034
2033
2032
2030
2027
2027
2029
2033
2037
2039
2038
2035
2033
2030
2033
2032
2033
2033
2033
2033
2033
2033
2032
2031
2031
2031
2032
2034
2036
2038
2039
2039
