1970
1968
1967
1968
1969
1970
1971
1972
1972
1973
1974
1974
1974
1974
1974
1975
1976
1977
1978
1978
1977
1977
1976
1976
1977
1978
1980
1982
1984
1986
1987
1988
1989
1990
1991
1993
1996
1998
2000
2002
2005
2007
2009
2011
2013
2014
2016
2017
2017
2017
2016
2014
2011
2007
2003
2000
1997
1995
1992
1989
1986
1983
1980
1979
1978
1978
1978
1978
1978
1978
1977
1977
1977
1977
1977
1977
1978
1978
1979
1979
1979
1979
1979
1979
1979
1980
1981
1981
1982
1981
1981
1980
1980
1981
1981
1982
1983
1983
1983
1983
1983
1982
1982
1982
1982
1982
1982
1982
1982
1982
1982
1982
1981
1981
1981
1981
1981
1981
1981
1981
1982
1981
1981
1981
1981
1981
1981
1982
1982
1982
1982
1982
1982
1982
1982
1981
1980
1980
1981
1983
1986
1989
1991
1991
1991
1989
1988
1987
1986
1985
1984
1982
1980
1979
1980
1980
1981
1982
1982
1982
1982
1982
1981
1980
1978
1977
1980
1988
2002
2025
2053
2081
2093
2080
2040
1984
1935
1910
1915
1939
1965
1981
1985
1982
1979
1979
1979
1981
1981
1981
1981
1981
1981
1981
1981
1982
1983
1984
1985
1985
1985
1985
1984
1984
1984
1984
1985
1986
1987
1988
1989
1989
1990
1991
1992
1993
1994
1996
1997
1999
2001
2003
2005
2007
2010
2013
2016
2018
2020
2021
2022
2022
2022
2021
2021
2020
2018
2015
2012
2008
2003
1999
1995
1992
1989
1987
1985
1983
1981
1980
1979
1978
1978
1978
1978
1978
1979
1979
1979
1979
1979
1978
1978
1978
1978
1979
1980
1981
1981
1981
1981
1980
1979
1979
1979
1980
1980
1981
1981
1981
1981
1980
1980
1980
1980
1981
1982
1983
1983
1982
1981
1981
1980
1980
1981
1981
1982
1983
1984
1984
1985
1985
1985
1985
1985
1984
1984
1985
1985
1985
1984
1983
1983
1982
1982
1983
1984
1984
1984
1984
1984
1984
1984
1984
1984
1984
1984
1984
1984
1984
1984
1984
1985
1987
1989
1991
1993
1993
1993
1991
1990
1988
1986
1984
1984
1983
1984
1984
1985
1985
1985
1984
1984
1984
1985
1986
1987
1986
1985
1986
1990
2001
2019
2045
2069
2085
2078
2048
1999
1951
1920
1916
1933
1959
1981
1992
1994
1993
1991
1990
1989
1987
1986
1985
1984
1985
1986
1987
1988
1989
1988
1986
1985
1985
1986
1987
1989
1990
1990
1990
1990
1991
1992
1993
1995
1997
1998
2000
2001
2002
2003
2003
2003
2004
2005
2008
2011
2014
2018
2022
2025
2027
2028
2027
2025
2024
2025
2026
2027
2025
2021
2016
2011
2008
2006
2003
1999
1995
1991
1988
1987
1986
1985
1983
1981
1980
1979
1979
1979
1980
1980
1980
1979
1978
1978
1978
1979
1980
1981
1981
1980
1979
1977
1977
1976
1978
1980
1982
1983
1983
1981
1980
1979
1980
1982
1982
1982
1981
1979
1977
1975
1975
1974
1974
1975
1976
1976
1977
1978
1978
1979
1979
1979
1979
1979
1979
1980
1980
1980
1980
1978
1977
1977
1977
1980
1983
1986
1989
1990
1990
1988
1985
1982
1980
1979
1980
1980
1981
1981
1981
1981
1981
1980
1981
1981
1983
1984
1985
1984
1983
1981
1982
1987
2000
2022
2051
2082
2100
2094
2057
2002
1948
1914
1911
1931
1959
1982
1991
1991
1989
1987
1985
1985
1986
1988
1991
1994
1997
1999
1999
1999
1997
1994
1991
1990
1991
1994
1997
1998
1998
1996
1996
1998
2002
2004
2004
2002
1999
1999
2003
2010
2018
2024
2025
2023
2020
2018
2020
2025
2029
2032
2032
2031
2031
2032
2033
2033
2033
2032
2029
2026
2023
2020
2018
2015
2012
2008
2004
2002
2001
2000
1998
1997
1996
1996
1997
1997
1996
1993
1991
1990
1990
1992
1993
1994
1993
1992
1992
1993
1994
1994
1994
1994
1994
1993
1991
1988
1986
1984
1985
1986
1986
1984
1979
1974
1969
1966
1966
1968
1970
1970
1968
1966
1965
1967
1972
1976
1977
1973
1967
1962
1959
1959
1961
1961
1960
1957
1953
1950
1949
1950
1953
1956
1956
1953
1949
1947
1948
1953
1959
1963
1964
1963
1962
1961
1961
1960
1959
1956
1954
1952
1951
1950
1949
1949
1951
1954
1956
1954
1951
1948
1945
1944
1944
1947
1953
1968
1995
2032
2064
2077
2057
2008
1947
1897
1878
1888
1913
1937
1949
1949
1945
1942
1942
1943
1943
1943
1942
1942
1943
1945
1946
1947
1948
1948
1949
1949
1950
1950
1951
1951
1952
1951
1950
1949
1949
1950
1953
1955
1956
1956
1956
1956
1959
1962
1966
1969
1970
1970
1969
1969
1971
1974
1978
1983
1987
1990
1992
1992
1991
1990
1989
1987
1984
1981
1976
1973
1970
1969
1967
1964
1960
1955
1951
1949
1950
1950
1951
1951
1950
1949
1948
1947
1946
1945
1946
1948
1951
1953
1953
1952
1950
1949
1950
1952
1955
1956
1956
1955
1954
1953
1953
1953
1956
1959
1961
1962
1961
1959
1958
1957
1956
1955
1954
1955
1957
1960
1962
1963
1962
1960
1958
1957
1956
1957
1957
1958
1959
1959
1959
1959
1959
1959
1960
1960
1961
1961
1961
1962
1964
1965
1965
1964
1961
1957
1955
1955
1957
1959
1960
1959
1959
1958
1958
1958
1958
1958
1959
1960
1958
1955
1952
1954
1965
1987
2020
2054
2079
2078
2047
1992
1936
1899
1891
1908
1936
1958
1969
1969
1965
1960
1957
1955
1956
1958
1960
1960
1959
1959
1959
1960
1961
1963
1964
1966
1967
1968
1966
1964
1963
1964
1965
1967
1968
1970
1971
1972
1972
1970
1969
1970
1973
1977
1980
1982
1981
1981
1983
1988
1993
1997
1999
1999
1999
2000
2003
2006
2008
2008
2005
2002
1999
1996
1993
1990
1987
1983
1980
1978
1976
1974
1973
1971
1968
1966
1964
1964
1965
1966
1967
1966
1965
1965
1965
1966
1967
1968
1968
1969
1970
1970
1969
1968
1967
1968
1971
1973
1973
1972
1970
1968
1967
1969
1970
1972
1973
1972
1972
1971
1970
1969
1969
1969
1969
1968
1968
1967
1967
1968
1968
1968
1967
1965
1964
1964
1964
1964
1965
1965
1966
1966
1965
1964
1963
1963
1965
1967
1969
1971
1972
1972
1970
1967
1964
1963
1963
1964
1965
1964
1962
1960
1959
1960
1963
1966
1967
1967
1965
1962
1960
1958
1958
1962
1972
1990
2017
2048
2072
2077
2053
2006
1950
1907
1893
1906
1931
1954
1963
1961
1957
1956
1956
1958
1958
1957
1957
1959
1961
1963
1963
1962
1962
1961
1961
1962
1961
1961
1961
1961
1961
1962
1964
1965
1965
1965
1963
1964
1966
1969
1973
1975
1976
1976
1977
1979
1981
1983
1983
1984
1986
1990
1993
1996
1997
1999
2001
2003
2006
2008
2008
2007
2002
1997
1990
1985
1982
1979
1978
1976
1972
1968
1965
1963
1963
1964
1965
1964
1964
1964
1964
1964
1963
1962
1962
1963
1964
1966
1967
1967
1966
1965
1964
1965
1966
1966
1967
1967
1968
1969
1970
1970
1970
1970
1969
1968
1968
1967
1968
1969
1971
1971
1970
1968
1967
1967
1970
1972
1973
1973
1973
1973
1974
1975
1975
1973
1972
1971
1972
1974
1976
1976
1976
1975
1975
1975
1976
1976
1978
1980
1982
1983
1983
1981
1980
1979
1979
1979
1979
1977
1975
1973
1973
1974
1975
1976
1976
1976
1976
1976
1977
1976
1975
1973
1970
1969
1970
1977
1990
2011
2038
2066
2083
2078
2048
1997
1946
1914
1909
1927
1953
1974
1982
1980
1975
1973
1973
1975
1977
1978
1979
1980
1981
1981
1982
1982
1981
1980
1979
1979
1979
1980
1983
1986
1989
1990
1990
1989
1988
1989
1990
1991
1991
1991
1990
1991
1993
1996
1998
2000
2001
2002
2004
2006
2008
2011
2014
2017
2019
2021
2023
2023
2023
2023
2023
2023
2023
2021
2017
2013
2008
2003
1999
1995
1991
1988
1986
1985
1985
1986
1986
1986
1986
1985
1984
1983
1983
1985
1986
1988
1988
1987
1984
1981
1980
1981
1983
1986
1987
1987
1987
1987
1987
1987
1986
1984
1981
1980
1980
1982
1986
1989
1991
1989
1986
1983
1982
1983
1986
1989
1990
1988
1985
1983
1982
1983
1984
1986
1987
1988
1989
1989
1987
1984
1981
1979
1978
1979
1979
1980
1982
1984
1984
1983
1980
1978
1978
1980
1982
1985
1987
1989
1989
1988
1986
1983
1981
1982
1982
1982
1981
1979
1979
1980
1982
1983
1983
1981
1981
1981
1982
1983
1981
1978
1974
1972
1974
1981
1995
2017
2047
2074
2087
2076
2038
1986
1939
1914
1916
1936
1961
1978
1984
1983
1980
1978
1978
1980
1982
1983
1983
1983
1982
1980
1980
1980
1981
1983
1986
1988
1989
1988
1987
1986
1986
1987
1989
1989
1989
1988
1989
1990
1992
1993
1994
1995
1996
1997
1999
2001
2003
2005
2009
2012
2016
2018
2018
2018
2019
2020
2021
2021
2021
2021
2021
2021
2022
2021
2018
2013
2006
2000
1996
1993
1991
1990
1989
1988
1986
1985
1983
1981
1978
1977
1978
1979
1981
1983
1984
1984
1984
1983
1981
1981
1982
1984
1986
1986
1984
1981
1980
1979
1980
1983
1986
1988
1989
1988
1985
1983
1981
1981
1982
1984
1984
1984
1984
1983
1984
1986
1989
1991
1990
1986
1980
1976
1975
1978
1982
1985
1987
1986
1985
1983
1982
1981
1980
1981
1983
1986
1987
1986
1984
1981
1981
1982
1984
1987
1988
1989
1990
1991
1991
1989
1987
1985
1984
1983
1983
1983
1982
1982
1983
1984
1984
1984
1982
1981
1979
1978
1977
1977
1978
1979
1981
1981
1980
1978
1980
1985
1996
2012
2032
2049
2056
2045
2012
1967
1926
1903
1904
1921
1944
1961
1969
1970
1968
1966
1964
1963
1963
1964
1966
1969
1971
1973
1974
1976
1978
1982
1985
1985
1984
1982
1980
1979
1979
1982
1985
1987
1988
1988
1987
1988
1989
1991
1993
1994
1994
1995
1998
2001
2004
2005
2005
2003
2003
2005
2009
2012
2015
2017
2018
2019
2020
2021
2019
2017
2013
2010
2008
2007
2004
2001
1996
1991
1989
1988
1988
1987
1983
1978
1972
1969
1969
1971
1974
1976
1977
1976
1974
1972
1971
1971
1971
1971
1971
1972
1973
1975
1976
1975
1972
1970
1968
1967
1967
1967
1966
1964
1964
1964
1965
1967
1969
1970
1970
1969
1968
1967
1968
1969
1970
1971
1971
1971
1971
1971
1972
1972
1971
1972
1972
1972
1972
1971
1970
1969
1968
1967
1966
1966
1967
1969
1969
1969
1969
1968
1968
1969
1971
1973
1976
1978
1980
1980
1978
1976
1974
1973
1972
1971
1970
1968
1966
1964
1964
1965
1967
1969
1970
1970
1968
1966
1964
1962
1961
1962
1968
1978
1996
2021
2048
2065
2065
2040
1995
1946
1911
1901
1914
1937
1959
1970
1972
1969
1965
1962
1961
1961
1963
1965
1966
1967
1967
1967
1968
1969
1970
1971
1972
1974
1975
1976
1976
1975
1974
1973
1974
1974
1973
1971
1969
1968
1969
1972
1974
1976
1977
1977
1977
1979
1981
1984
1986
1988
1990
1992
1995
1999
2002
2004
2005
2005
2004
2004
2004
2004
2002
2000
1996
1992
1987
1981
1975
1971
1968
1967
1965
1964
1961
1959
1958
1957
1957
1958
1959
1960
1962
1965
1968
1970
1970
1968
1964
1962
1961
1962
1964
1966
1967
1968
1969
1970
1971
1972
1974
1975
1976
1978
1978
1978
1977
1976
1977
1977
1979
1979
1980
1980
1980
1980
1980
1979
1979
1979
1979
1980
1981
1982
1983
1983
1983
1982
1982
1983
1983
1984
1983
1982
1981
1980
1981
1983
1987
1991
1994
1996
1996
1993
1989
1984
1982
1981
1981
1982
1983
1984
1984
1983
1982
1982
1983
1983
1983
1983
1982
1980
1978
1978
1982
1992
2011
2039
2070
2094
2095
2067
2018
1962
1924
1914
1929
1955
1977
1986
1985
1981
1978
1978
1980
1981
1980
1980
1980
1983
1985
1987
1985
1981
1977
1974
1974
1975
1977
1978
1979
1980
1982
1984
1986
1989
1991
1991
1990
1988
1987
1987
1990
1994
1995
1995
1994
1993
1995
1999
2004
2007
2008
2008
2007
2006
2006
2007
2010
2012
2015
2015
2014
2012
2007
2003
1998
1994
1991
1987
1983
1979
1977
1975
1975
1975
1972
1969
1967
1968
1971
1974
1975
1972
1968
1964
1964
1967
1971
1973
1972
1971
1970
1971
1973
1975
1976
1975
1975
1977
1979
1981
1980
1978
1975
1973
1973
1976
1980
1983
1983
1980
1977
1975
1976
1979
1982
1982
1979
1974
1970
1970
1972
1975
1977
1976
1971
1968
1966
1967
1969
1971
1973
1974
1976
1976
1975
1973
1970
1969
1970
1975
1981
1985
1986
1985
1982
1979
1978
1978
1979
1978
1976
1974
1971
1969
1968
1969
1972
1974
1976
1975
1974
1974
1974
1974
1972
1970
1969
1973
1983
2001
2027
2055
2075
2075
2048
1999
1947
1912
1906
1923
1948
1966
1972
1970
1966
1966
1968
1970
1972
1973
1975
1976
1976
1975
1972
1970
1968
1970
1974
1978
1980
1979
1976
1973
1972
1973
1976
1978
1980
1981
1981
1980
1978
1977
1977
1977
1979
1980
1982
1983
1984
1986
1989
1991
1993
1994
1995
1995
1996
1998
2000
2002
2002
2002
2000
1998
1996
1993
1991
1989
1986
1983
1981
1977
1972
1968
1966
1965
1966
1968
1968
1967
1964
1961
1959
1958
1957
1957
1959
1960
1962
1963
1962
1961
1960
1961
1962
1963
1965
1966
1967
1967
1968
1967
1966
1965
1965
1964
1964
1964
1965
1966
1967
1967
1967
1966
1965
1966
1966
1966
1967
1967
1967
1966
1966
1966
1966
1965
1966
1966
1966
1966
1966
1966
1965
1965
1965
1966
1966
1967
1966
1966
1966
1967
1970
1973
1976
1977
1978
1977
1976
1974
1972
1970
1969
1969
1969
1969
1969
1968
1968
1967
1968
1968
1969
1970
1971
1971
1970
1967
1964
1966
1973
1989
2013
2041
2064
2072
2055
2016
1966
1925
1907
1914
1936
1959
1972
1976
1974
1972
1972
1974
1977
1978
1978
1977
1974
1973
1973
1976
1980
1982
1982
1980
1977
1976
1976
1978
1980
1982
1982
1983
1984
1984
1984
1984
1984
1985
1987
1989
1991
1991
1991
1990
1991
1994
1998
2002
2006
2008
2009
2011
2014
2018
2021
2023
2024
2024
2024
2024
2023
2022
2020
2017
2014
2010
2006
2002
1999
1997
1996
1995
1994
1992
1989
1986
1985
1986
1987
1988
1989
1989
1989
1990
1990
1989
1988
1987
1987
1987
1989
1990
1991
1990
1989
1987
1985
1984
1985
1986
1987
1987
1987
1987
1986
1986
1985
1985
1986
1987
1987
1986
1985
1985
1985
1985
1985
1984
1982
1981
1981
1982
1982
1982
1982
1981
1981
1981
1980
1979
1979
1980
1982
1983
1982
1981
1979
1978
1979
1982
1985
1988
1990
1990
1989
1986
1983
1980
1978
1979
1980
1983
1984
1983
1979
1975
1971
1970
1971
1974
1978
1979
1978
1975
1972
1971
1975
1984
2002
2027
2052
2069
2066
2038
1990
1942
1912
1908
1926
1950
1967
1972
1969
1965
1964
1965
1967
1968
1968
1969
1970
1971
1970
1969
1969
1969
1971
1973
1974
1973
1972
1972
1972
1973
1973
1973
1973
1973
1973
1975
1976
1977
1977
1977
1977
1978
1980
1982
1985
1987
1988
1989
1989
1989
1991
1994
1999
2004
2006
2007
2006
2004
2003
2003
2003
2003
2000
1996
1991
1987
1983
1980
1977
1975
1972
1970
1969
1969
1969
1969
1968
1967
1965
1965
1965
1966
1967
1968
1969
1970
1971
1970
1968
1966
1962
1960
1961
1963
1966
1967
1966
1965
1963
1963
1963
1963
1963
1963
1964
1965
1966
1966
1965
1963
1962
1960
1959
1958
1959
1962
1965
1967
1968
1967
1966
1964
1964
1964
1965
1966
1967
1966
1964
1961
1959
1957
1957
1959
1961
1962
1963
1962
1960
1959
1960
1962
1965
1967
1969
1970
1970
1968
1965
1962
1960
1958
1956
1955
1954
1953
1953
1954
1954
1955
1955
1955
1956
1958
1959
1960
1960
1962
1967
1977
1993
2015
2038
2052
2048
2022
1978
1934
1906
1902
1917
1939
1958
1967
1969
1968
1967
1967
1966
1966
1966
1966
1966
1966
1966
1966
1968
1969
1969
1968
1966
1965
1964
1965
1969
1972
1975
1974
1972
1969
1968
1969
1971
1973
1974
1974
1975
1977
1979
1980
1980
1981
1983
1986
1989
1992
1994
1996
1997
1999
2001
2001
2001
2001
2000
2000
2000
2000
1999
1996
1991
1986
1982
1979
1977
1975
1974
1971
1969
1967
1965
1964
1964
1965
1966
1968
1969
1969
1967
1966
1964
1963
1962
1961
1961
1961
1962
1964
1966
1967
1967
1967
1966
1965
1965
1965
1965
1966
1965
1964
1963
1962
1961
1960
1960
1959
1958
1957
1957
1958
1959
1960
1960
1959
1957
1956
1956
1957
1959
1960
1961
1960
1960
1960
1960
1961
1962
1963
1962
1961
1960
1961
1963
1968
1972
1975
1977
1978
1977
1976
1974
1971
1968
1965
1964
1965
1967
1969
1971
1971
1970
1968
1967
1967
1968
1970
1972
1973
1971
1966
1961
1959
1965
1982
2008
2037
2056
2055
2029
1982
1930
1893
1881
1893
1917
1941
1954
1957
1955
1952
1949
1948
1948
1948
1949
1950
1951
1952
1952
1953
1953
1953
1954
1955
1956
1957
1956
1956
1955
1955
1954
1955
1956
1956
1957
1958
1960
1962
1964
1965
1965
1966
1967
1970
1974
1978
1982
1986
1989
1990
1990
1989
1990
1992
1995
1999
2002
2004
2003
2001
1997
1994
1990
1987
1984
1982
1980
1977
1975
1972
1970
1967
1965
1963
1962
1961
1961
1960
1960
1960
1959
1959
1959
1960
1962
1963
1963
1963
1962
1961
1961
1961
1961
1962
1963
1964
1965
1966
1966
1966
1966
1965
1965
1965
1966
1968
1969
1970
1970
1969
1968
1967
1967
1967
1968
1968
1967
1966
1965
1965
1966
1967
1969
1971
1973
1975
1977
1977
1976
1975
1972
1970
1968
1967
1966
1966
1967
1967
1968
1968
1968
1967
1967
1968
1969
1970
1970
1969
1967
1965
1967
1975
1992
2018
2048
2070
2074
2051
2007
1953
1911
1893
1901
1925
1951
1968
1974
1974
1973
1972
1972
1973
1973
1974
1975
1976
1976
1976
1976
1976
1977
1978
1979
1980
1980
1980
1981
1981
1982
1982
1982
1982
1983
1984
1985
1986
1988
1989
1990
1991
1992
1993
1995
1997
2000
2003
2006
2009
2012
2014
2016
2017
2019
2020
2021
2023
2023
2023
2023
2020
2017
2012
2007
2001
1997
1993
1989
1987
1984
1981
1979
1978
1977
1976
1976
1976
1977
1977
1976
1974
1972
1971
1970
1970
1971
1971
1972
1972
1973
1973
1972
1969
1966
1964
1963
1963
1963
1965
1966
1968
1970
1973
1976
1978
1979
1978
1978
1976
1976
1976
1976
1976
1976
1976
1977
1977
1977
1976
1975
1975
1975
1975
1976
1977
1979
1981
1982
1981
1978
1975
1972
1969
1967
1965
1964
1964
1965
1966
1967
1968
1969
1969
1969
1969
1970
1970
1969
1968
1969
1974
1986
2007
2037
2068
2088
2085
2051
1998
1944
1909
1903
1920
1945
1965
1973
1973
1971
1969
1968
1968
1969
1970
1971
1972
1973
1973
1974
1974
1974
1974
1974
1975
1976
1978
1979
1980
1980
1980
1980
1981
1981
1981
1981
1980
1980
1981
1983
1985
1988
1990
1993
1996
2000
2003
2007
2012
2016
2020
2022
2025
2026
2028
2030
2032
2032
2032
2031
2029
2027
2025
2021
2016
2011
2007
2003
2001
2000
1999
1997
1995
1992
1990
1989
1990
1990
1992
1992
1993
1992
1990
1987
1985
1984
1985
1987
1990
1992
1992
1991
1989
1988
1988
1988
1988
1988
1987
1985
1984
1984
1986
1988
1990
1990
1990
1988
1987
1988
1990
1992
1994
1994
1992
1988
1985
1984
1982
1981
1978
1975
1974
1977
1983
1989
1995
1997
1997
1997
1997
1997
1995
1992
1988
1987
1989
1990
1991
1989
1984
1981
1979
1979
1981
1983
1983
1982
1981
1981
1981
1980
1979
1978
1980
1987
2002
2028
2063
2096
2112
2098
2054
1996
1945
1920
1925
1947
1971
1985
1988
1985
1983
1982
1982
1982
1982
1983
1984
1985
1985
1985
1985
1985
1985
1986
1987
1988
1988
1987
1985
1984
1984
1984
1984
1984
1985
1986
1987
1988
1988
1988
1988
1988
1989
1991
1994
1997
1999
2001
2002
2003
2006
2009
2012
2013
2014
2014
2016
2018
2020
2021
2019
2016
2012
2008
2005
2003
2001
1998
1994
1990
1987
1984
1983
1982
1981
1980
1979
1978
1978
1979
1979
1978
1977
1975
1974
1974
1974
1975
1976
1976
1976
1975
1974
1974
1973
1974
1975
1976
1978
1979
1980
1980
1979
1978
1978
1978
1978
1978
1977
1976
1975
1974
1973
1973
1974
1974
1975
1976
1977
1978
1978
1978
1978
1977
1976
1976
1976
1976
1976
1975
1974
1974
1976
1979
1982
1986
1987
1987
1985
1982
1980
1977
1975
1974
1973
1973
1974
1975
1976
1977
1976
1974
1972
1971
1972
1973
1974
1973
1971
1969
1970
1977
1995
2026
2062
2090
2094
2066
2014
1957
1919
1909
1924
1948
1967
1975
1974
1972
1970
1969
1968
1967
1966
1966
1967
1969
1971
1972
1972
1972
1971
1970
1970
1970
1970
1971
1972
1972
1973
1973
1973
1973
1973
1973
1973
1974
1976
1977
1979
1980
1981
1981
1982
1984
1986
1989
1992
1995
1998
2000
2003
2005
2006
2007
2008
2009
2009
2009
2008
2006
2005
2003
2000
1996
1992
1987
1984
1981
1978
1977
1975
1973
1972
1971
1971
1972
1973
1974
1975
1974
1974
1974
1974
1975
1975
1974
1973
1972
1973
1974
1974
1974
1974
1973
1973
1973
1974
1975
1975
1976
1976
1976
1975
1976
1977
1978
1980
1980
1980
1979
1979
1979
1979
1980
1981
1981
1982
1982
1982
1982
1982
1981
1980
1978
1977
1977
1978
1979
1981
1983
1985
1988
1990
1991
1991
1989
1986
1984
1982
1981
1980
1978
1976
1975
1974
1974
1974
1974
1974
1973
1972
1971
1971
1970
1968
1966
1968
1975
1992
2021
2056
2087
2097
2075
2027
1967
1920
1901
1909
1934
1958
1971
1972
1969
1966
1964
1964
1965
1966
1966
1966
1966
1966
1967
1968
1970
1971
1972
1972
1971
1971
1970
1971
1971
1972
1973
1973
1974
1974
1975
1976
1977
1978
1979
1980
1981
1982
1984
1986
1988
1989
1991
1992
1994
1997
2001
2005
2009
2012
2015
2017
2019
2020
2019
2018
2015
2012
2008
2004
1999
1994
1990
1985
1982
1979
1976
1974
1973
1973
1972
1971
1970
1969
1969
1968
1968
1968
1968
1968
1968
1969
1969
1969
1970
1970
1971
1972
1973
1973
1974
1974
1974
1973
1973
1973
1973
1974
1975
1974
1974
1973
1973
1974
1975
1976
1977
1977
1976
1975
1974
1974
1973
1973
1974
1974
1975
1977
1979
1980
1981
1981
1979
1976
1974
1973
1972
1973
1973
1974
1973
1972
1971
1970
1970
1970
1971
1972
1973
1974
1973
1971
1968
1966
1971
1984
2009
2044
2077
2096
2087
2047
1987
1930
1896
1893
1915
1943
1965
1975
1975
1972
1970
1969
1970
1971
1972
1973
1975
1975
1976
1975
1974
1973
1973
1975
1976
1978
1979
1979
1978
1978
1978
1978
1979
1979
1980
1981
1981
1982
1984
1985
1987
1989
1990
1991
1992
1995
1998
2002
2005
2008
2010
2012
2014
2016
2018
2021
2023
2024
2024
2022
2019
2015
2011
2007
2002
1997
1994
1990
1987
1983
1980
1978
1976
1975
1974
1975
1976
1977
1978
1976
1973
1969
1965
1962
1962
1963
1965
1965
1964
1963
1961
1961
1962
1964
1967
1968
1968
1967
1967
1966
1966
1967
1969
1969
1969
1968
1966
1963
1961
1960
1960
1960
1960
1960
1961
1962
1963
1964
1965
1965
1964
1963
1962
1962
1964
1967
1971
1974
1977
1979
1979
1979
1978
1976
1973
1971
1970
1970
1970
1971
1971
1972
1972
1973
1974
1973
1973
1974
1976
1977
1977
1974
1970
1968
1970
1980
2003
2040
2079
2108
2108
2072
2013
1952
1914
1909
1929
1957
1976
1982
1980
1977
1976
1977
1979
1980
1981
1981
1982
1982
1981
1980
1979
1979
1980
1981
1982
1983
1983
1982
1982
1981
1981
1982
1984
1986
1987
1987
1986
1984
1983
1983
1985
1987
1989
1990
1992
1993
1995
1997
1999
2001
2003
2005
2006
2008
2010
2011
2012
2012
2011
2010
2007
2004
2000
1996
1993
1990
1986
1982
1977
1972
1968
1966
1965
1965
1964
1964
1964
1964
1964
1964
1965
1965
1966
1967
1968
1968
1967
1966
1966
1967
1968
1970
1973
1974
1975
1976
1975
1975
1974
1973
1972
1972
1973
1974
1975
1976
1977
1977
1976
1976
1977
1978
1979
1978
1976
1975
1973
1974
1974
1975
1975
1974
1973
1974
1974
1975
1976
1977
1977
1977
1979
1982
1986
1989
1990
1988
1985
1980
1976
1974
1973
1974
1975
1976
1976
1976
1976
1976
1976
1975
1976
1976
1977
1976
1975
1973
1973
1978
1988
2007
2034
2061
2078
2072
2040
1989
1940
1910
1908
1927
1953
1972
1981
1981
1978
1976
1975
1974
1973
1973
1973
1973
1975
1977
1978
1978
1977
1976
1976
1978
1980
1981
1982
1983
1982
1982
1982
1982
1982
1982
1982
1983
1985
1988
1991
1993
1996
1997
1998
1999
1999
1999
2001
2003
2006
2009
2012
2014
2015
2016
2017
2018
2020
2021
2021
2020
2018
2015
2011
2007
2003
2000
1997
1994
1992
1990
1990
1989
1988
1986
1984
1983
1983
1982
1982
1982
1982
1982
1981
1981
1981
1981
1981
1981
1981
1980
1978
1977
1977
1977
1979
1982
1985
1987
1988
1987
1986
1985
1984
1984
1983
1983
1983
1984
1984
1985
1985
1984
1983
1982
1982
1982
1983
1985
1986
1986
1986
1985
1985
1984
1983
1982
1981
1980
1980
1980
1982
1983
1985
1988
1990
1993
1994
1994
1993
1990
1987
1984
1983
1982
1983
1983
1983
1984
1984
1985
1985
1985
1984
1983
1983
1983
1981
1980
1981
1985
1995
2013
2039
2066
2085
2083
2055
2008
1958
1925
1918
1934
1958
1977
1985
1984
1980
1977
1977
1979
1980
1981
1981
1981
1980
1981
1983
1985
1986
1986
1985
1984
1983
1982
1982
1982
1982
1983
1985
1986
1988
1989
1989
1990
1990
1991
1991
1992
1993
1995
1997
1999
2000
2001
2002
2004
2007
2010
2013
2015
2017
2019
2020
2021
2021
2020
2019
2019
2018
2016
2013
2009
2004
1999
1996
1994
1993
1992
1990
1989
1987
1985
1984
1982
1982
1982
1983
1983
1984
1984
1983
1983
1983
1982
1982
1982
1983
1984
1984
1984
1984
1983
1983
1983
1983
1983
1983
1983
1984
1984
1985
1984
1983
1981
1979
1979
1982
1985
1987
1989
1989
1987
1986
1985
1984
1984
1984
1984
1985
1985
1986
1986
1985
1985
1984
1983
1983
1982
1980
1979
1978
1979
1981
1983
1984
1983
1980
1978
1976
1974
1974
1973
1972
1972
1972
1972
1973
1975
1976
1977
1977
1977
1976
1974
1972
1971
1974
1983
2001
2027
2056
2078
2081
2058
2012
1957
1914
1898
1908
1934
1961
1977
1981
1978
1975
1974
1975
1976
1977
1977
1978
1978
1979
1981
1982
1983
1983
1983
1983
1983
1984
1984
1984
1985
1985
1986
1987
1987
1988
1988
1988
1989
1990
1992
1993
1994
1995
1995
1996
1999
2002
2005
2009
2011
2014
2016
2018
2020
2022
2023
2024
2025
2025
2025
2023
2021
2019
2016
2012
2008
2002
1996
1991
1987
1984
1983
1982
1983
1983
1983
1982
1981
1979
1978
1976
1976
1977
1978
1979
1980
1980
1980
1979
1979
1978
1978
1978
1979
1980
1981
1982
1982
1982
1982
1982
1981
1981
1981
1982
1982
1982
1981
1980
1979
1979
1980
1981
1981
1981
1981
1982
1982
1982
1981
1980
1979
1978
1978
1978
1980
1982
1984
1986
1987
1987
1986
1982
1978
1975
1972
1971
1972
1974
1975
1976
1977
1977
1977
1978
1977
1977
1975
1973
1971
1969
1967
1968
1973
1985
2005
2032
2057
2072
2065
2033
1983
1932
1899
1892
1907
1933
1955
1966
1968
1966
1965
1966
1967
1967
1967
1966
1966
1967
1968
1969
1971
1972
1973
1974
1975
1975
1976
1975
1975
1975
1975
1976
1978
1980
1981
1982
1982
1982
1982
1983
1985
1987
1989
1991
1992
1994
1996
1999
2001
2004
2006
2008
2011
2014
2016
2017
2017
2016
2015
2014
2013
2011
2009
2006
2001
1997
1992
1987
1984
1981
1980
1978
1977
1976
1975
1975
1974
1974
1974
1974
1974
1974
1973
1974
1974
1975
1976
1975
1974
1973
1972
1972
1973
1976
1978
1979
1980
1980
1980
1980
1981
1981
1982
1982
1982
1982
1982
1982
1982
1980
1979
1979
1979
1980
1981
1981
1981
1980
1979
1979
1979
1980
1982
1982
1982
1983
1983
1983
1983
1982
1982
1980
1979
1979
1979
1979
1980
1981
1981
1981
1980
1979
1978
1977
1977
1978
1979
1980
1980
1979
1978
1978
1979
1981
1982
1984
1984
1984
1982
1979
1976
1973
1974
1979
1991
2014
2047
2080
2099
2093
2056
2003
1952
1923
1922
1941
1966
1982
1986
1985
1981
1980
1980
1981
1982
1981
1980
1978
1978
1978
1978
1979
1979
1980
1980
1980
1981
1980
1980
1979
1979
1980
1981
1983
1984
1986
1987
1987
1988
1988
1988
1989
1990
1993
1995
1997
1999
2001
2002
2004
2006
2008
2009
2011
2012
2014
2015
2014
2014
2014
2014
2016
2016
2013
2009
2003
1997
1993
1991
1990
1989
1988
1988
1987
1987
1987
1986
1985
1983
1982
1981
1982
1983
1985
1986
1987
1986
1984
1982
1982
1982
1983
1985
1987
1989
1989
1989
1989
1989
1989
1989
1989
1989
1989
1990
1990
1990
1988
1987
1985
1985
1985
1986
1986
1986
1985
1985
1984
1984
1984
1984
1985
1985
1985
1984
1983
1981
1980
1980
1980
1980
1981
1981
1981
1981
1980
1980
1979
1978
1978
1978
1979
1980
1980
1981
1982
1984
1986
1987
1988
1989
1988
1986
1984
1982
1980
1979
1977
1976
1975
1975
1976
1976
1977
1977
1977
1976
1976
1977
1976
1975
1973
1973
1975
1982
1994
2014
2041
2067
2081
2073
2040
1992
1948
1924
1925
1942
1963
1976
1979
1977
1975
1975
1976
1977
1977
1977
1976
1976
1976
1976
1977
1978
1979
1979
1980
1981
1981
1980
1978
1978
1978
1979
1980
1982
1983
1984
1984
1984
1984
1985
1986
1987
1989
1989
1990
1991
1993
1995
1997
1998
2000
2001
2004
2006
2008
2009
2009
2008
2007
2006
2006
2006
2005
2003
2000
1997
1993
1990
1986
1984
1982
1982
1981
1980
1980
1979
1978
1977
1977
1976
1976
1976
1976
1977
1977
1977
1977
1976
1977
1977
1978
1979
1980
1980
1979
1978
1978
1978
1979
1979
1980
1981
1981
1980
1979
1978
1978
1978
1978
1978
1978
1979
1979
1980
1981
1981
1980
1980
1979
1979
1979
1979
1980
1980
1980
1980
1979
1978
1978
1978
1978
1978
1978
1978
1978
1978
1978
1978
1978
1978
1978
1979
1979
1979
1979
1978
1978
1978
1978
1978
1978
1979
1979
1979
1979
1979
1979
1978
1978
1978
1978
1978
1979
1979
1979
1979
1979
1978
1979
1980
1983
1986
1989
1990
1989
1986
1983
1980
1979
1979
1978
1978
1977
1977
1977
1977
1977
1978
1978
1977
1977
1977
1977
1977
1976
1974
1975
1979
1991
2012
2039
2064
2074
2059
2021
1972
1930
1911
1916
1935
1955
1967
1969
1967
1965
1964
1964
1964
1964
1963
1963
1964
1965
1966
1968
1970
1973
1974
1975
1975
1975
1975
1976
1977
1977
1977
1977
1977
1979
1981
1983
1984
1984
1983
1982
1982
1983
1985
1987
1990
1992
1994
1994
1994
1994
1993
1994
1995
1997
2000
2001
2002
2002
2002
2001
2001
2001
2001
2000
1998
1995
1993
1990
1988
1985
1983
1981
1980
1978
1977
1977
1977
1977
1977
1977
1976
1975
1974
1974
1975
1975
1976
1977
1977
1977
1976
1974
1974
1973
1974
1975
1976
1977
1977
1977
1977
1976
1976
1975
1974
1974
1974
1973
1973
1973
1973
1972
1971
1970
1970
1969
1969
1970
1971
1971
1972
1971
1970
1969
1969
1969
1969
1970
1971
1972
1972
1971
1970
1969
1969
1968
1969
1969
1969
1969
1969
1969
1969
1969
1970
1971
1972
1973
1973
1973
1973
1973
1972
1971
1969
1968
1968
1968
1967
1966
1964
1962
1961
1963
1966
1969
1972
1974
1973
1971
1968
1966
1965
1965
1964
1964
1963
1963
1963
1964
1964
1965
1965
1965
1966
1967
1967
1968
1967
1966
1967
1972
1984
2004
2031
2055
2067
2057
2024
1976
1932
1908
1909
1929
1953
1970
1975
1974
1971
1968
1967
1968
1968
1967
1967
1966
1966
1967
1968
1968
1968
1967
1966
1966
1968
1969
1970
1969
1969
1968
1968
1968
1969
1970
1971
1972
1973
1974
1974
1975
1976
1977
1978
1980
1981
1982
1983
1985
1987
1989
1992
1993
1994
1994
1995
1996
1997
1997
1997
1996
1994
1992
1989
1986
1982
1979
1977
1975
1973
1971
1969
1967
1966
1967
1968
1970
1971
1972
1972
1971
1971
1971
1970
1970
1970
1969
1970
1970
1970
1971
1971
1971
1971
1972
1972
1973
1974
1974
1975
1974
1974
1974
1975
1975
1975
1975
1974
1974
1973
1972
1971
1970
1969
1967
1967
1967
1967
1968
1969
1969
1969
1968
1967
1966
1965
1965
1965
1965
1965
1965
1965
1965
1965
1964
1964
1965
1965
1966
1966
1965
1966
1966
1968
1970
1972
1974
1976
1976
1975
1974
1972
1970
1968
1966
1965
1964
1964
1965
1965
1965
1965
1964
1963
1963
1964
1965
1966
1966
1964
1962
1963
1970
1984
2006
2033
2053
2057
2038
1996
1948
1909
1893
1901
1923
1947
1962
1967
1967
1965
1964
1964
1964
1964
1965
1965
1966
1967
1968
1969
1970
1971
1971
1972
1973
1973
1974
1974
1974
1975
1975
1976
1976
1976
1977
1977
1978
1980
1981
1983
1984
1986
1987
1989
1991
1993
1996
1998
2000
2002
2004
2006
2008
2009
2011
2012
2013
2014
2015
2015
2014
2012
2008
2003
1999
1995
1992
1989
1986
1984
1982
1980
1978
1976
1975
1973
1973
1973
1973
1974
1973
1973
1973
1974
1975
1976
1977
1977
1977
1976
1975
1974
1974
1974
1974
1975
1975
1975
1976
1977
1978
1978
1976
1974
1972
1972
1972
1974
1974
1974
1973
1972
1971
1970
1970
1971
1973
1976
1978
1979
1979
1978
1977
1975
1974
1973
1972
1972
1973
1975
1976
1976
1976
1976
1975
1975
1975
1975
1975
1976
1977
1978
1978
1977
1977
1979
1982
1986
1990
1992
1992
1991
1988
1984
1981
1979
1977
1977
1977
1977
1977
1977
1976
1975
1974
1975
1977
1981
1984
1984
1982
1976
1972
1971
1976
1987
2004
2028
2050
2064
2059
2032
1987
1942
1913
1910
1927
1951
1971
1979
1980
1977
1975
1975
1976
1978
1979
1980
1981
1980
1979
1977
1976
1974
1972
1971
1970
1970
1971
1973
1976
1978
1979
1979
1979
1979
1981
1983
1985
1986
1985
1984
1983
1983
1986
1990
1994
1997
2000
2003
2004
2005
2006
2007
2010
2015
2020
2023
2025
2023
2020
2015
2012
2009
2008
2008
2007
2006
2003
1999
1996
1993
1990
1988
1987
1986
1986
1985
1985
1984
1984
1985
1986
1987
1988
1986
1982
1978
1976
1976
1979
1983
1986
1987
1987
1985
1983
1982
1980
1980
1979
1979
1979
1978
1978
1978
1980
1984
1987
1988
1987
1983
1979
1975
1974
1975
1977
1977
1976
1972
1969
1966
1964
1963
1962
1961
1960
1958
1957
1956
1954
1953
1952
1951
1952
1953
1956
1959
1961
1960
1957
1955
1954
1956
1960
1966
1972
1976
1979
1979
1977
1975
1974
1974
1973
1972
1970
1968
1966
1966
1967
1969
1971
1972
1971
1970
1969
1969
1969
1968
1965
1962
1960
1964
1974
1992
2016
2038
2049
2045
2019
1979
1938
1909
1902
1913
1933
1950
1958
1958
1956
1953
1953
1954
1956
1956
1955
1953
1952
1952
1954
1955
1954
1951
1947
1944
1943
1944
1947
1949
1950
1951
1952
1952
1952
1952
1952
1952
1953
1954
1956
1957
1957
1957
1958
1960
1963
1965
1968
1970
1972
1975
1978
1981
1982
1982
1981
1982
1982
1982
1982
1981
1979
1977
1975
1972
1968
1965
1962
1958
1954
1951
1947
1945
1944
1944
1944
1944
1944
1943
1943
1943
1942
1941
1940
1939
1937
1937
1937
1937
1937
1937
1937
1937
1937
1938
1938
1937
1937
1937
1937
1938
1938
1938
1937
1935
1935
1935
1936
1937
1938
1938
1937
1937
1938
1939
1941
1942
1942
1941
1939
1938
1937
1937
1937
1937
1936
1935
1934
1935
1937
1939
1938
1935
1931
1928
1926
1927
1928
1929
1929
1929
1930
1931
1933
1934
1934
1934
1934
1933
1932
1933
1934
1936
1936
1934
1932
1932
1937
1952
1976
2005
2027
2033
2016
1977
1929
1889
1869
1874
1894
1917
1933
1940
1940
1939
1939
1940
1941
1941
1941
1941
1941
1942
1944
1945
1946
1947
1947
1947
1948
1948
1948
1949
1950
1951
1951
1952
1953
1953
1953
1952
1951
1950
1949
1950
1951
1952
1953
1954
1956
1958
1960
1961
1963
1967
1971
1976
1979
1982
1983
1983
1984
1985
1986
1985
1984
1982
1979
1976
1971
1967
1963
1960
1957
1956
1954
1953
1951
1950
1948
1947
1946
1945
1945
1945
1945
1946
1948
1949
1950
1950
1949
1949
1949
1949
1951
1952
1953
1953
1952
1951
1951
1951
1951
1953
1954
1955
1955
1954
1954
1953
1953
1953
1953
1953
1954
1955
1956
1957
1957
1957
1957
1955
1954
1954
1954
1955
1956
1957
1957
1956
1955
1953
1952
1952
1952
1953
1955
1957
1960
1962
1963
1964
1964
1964
1963
1962
1961
1960
1960
1959
1958
1957
1956
1957
1958
1959
1961
1963
1963
1963
1962
1960
1957
1955
1956
1960
1968
1984
2007
2034
2055
2060
2042
2000
1949
1910
1894
1904
1927
1951
1964
1966
1965
1964
1964
1965
1966
1967
1966
1966
1966
1966
1966
1966
1967
1968
1970
1971
1972
1972
1971
1970
1969
1969
1970
1971
1973
1974
1974
1972
1971
1971
1972
1974
1976
1977
1978
1979
1980
1980
1982
1984
1986
1990
1992
1994
1995
1995
1995
1996
1997
1998
1998
1999
1998
1996
1994
1990
1986
1983
1979
1976
1974
1973
1972
1970
1967
1966
1965
1964
1965
1965
1964
1964
1964
1965
1965
1965
1965
1965
1965
1966
1967
1968
1968
1967
1966
1965
1965
1966
1966
1967
1967
1968
1969
1971
1972
1973
1972
1971
1969
1968
1968
1969
1970
1971
1971
1971
1970
1970
1971
1971
1971
1971
1971
1971
1972
1972
1973
1974
1973
1971
1970
1970
1971
1973
1974
1974
1972
1970
1969
1970
1973
1976
1979
1981
1981
1980
1978
1976
1974
1972
1971
1970
1970
1969
1969
1970
1971
1971
1972
1971
1971
1971
1972
1973
1972
1970
1968
1968
1973
1985
2006
2033
2057
2069
2056
2021
1972
1929
1907
1911
1931
1954
1969
1973
1970
1967
1966
1967
1968
1970
1971
1971
1971
1971
1971
1972
1972
1972
1972
1971
1971
1971
1972
1974
1976
1977
1977
1975
1974
1975
1976
1978
1981
1982
1983
1982
1982
1982
1983
1984
1986
1989
1992
1994
1996
1998
1999
1999
2001
2002
2003
2004
2005
2006
2006
2006
2004
2002
1999
1996
1992
1988
1985
1983
1982
1982
1982
1982
1981
1978
1976
1975
1976
1977
1980
1981
1982
1981
1981
1980
1978
1977
1978
1980
1982
1983
1982
1981
1980
1980
1980
1981
1982
1982
1983
1983
1984
1984
1984
1984
1984
1984
1984
1984
1984
1984
1985
1985
1984
1982
1981
1981
1983
1985
1986
1985
1984
1983
1983
1982
1981
1980
1979
1978
1978
1978
1978
1977
1977
1975
1975
1974
1975
1976
1977
1978
1978
1977
1975
1974
1973
1974
1976
1979
1981
1983
1984
1985
1984
1983
1980
1978
1976
1975
1975
1975
1975
1975
1975
1975
1976
1976
1976
1976
1976
1977
1977
1976
1974
1972
1973
1979
1993
2014
2041
2066
2078
2068
2034
1986
1942
1917
1918
1937
1960
1977
1983
1982
1979
1977
1976
1976
1977
1979
1981
1982
1983
1983
1981
1980
1979
1979
1981
1982
1984
1984
1984
1983
1982
1982
1982
1983
1984
1986
1986
1987
1987
1988
1988
1990
1991
1993
1994
1994
1995
1996
1998
2001
2004
2007
2009
2010
2011
2013
2014
2016
2017
2018
2017
2016
2013
2010
2007
2004
2003
2000
1996
1992
1987
1982
1980
1979
1980
1981
1983
1983
1983
1983
1982
1982
1982
1982
1982
1983
1984
1983
1982
1981
1980
1980
1981
1982
1983
1984
1984
1985
1985
1985
1985
1985
1985
1985
1985
1985
1984
1984
1984
1984
1984
1984
1983
1984
1984
1985
1985
1985
1985
1984
1984
1985
1985
1985
1985
1985
1985
1985
1985
1985
1984
1985
1986
1986
1987
1987
1987
1986
1985
1984
1983
1983
1983
1985
1986
1986
1987
1987
1988
1988
1987
1985
1984
1985
1988
1992
1995
1996
1996
1994
1993
1991
1989
1987
1986
1986
1985
1985
1985
1985
1985
1985
1984
1983
1983
1984
1985
1987
1988
1986
1984
1983
1986
1995
2011
2036
2061
2079
2078
2054
2012
1966
1935
1927
1940
1961
1980
1988
1989
1986
1985
1984
1985
1986
1986
1987
1988
1988
1988
1988
1987
1987
1988
1988
1989
1989
1990
1990
1991
1991
1991
1989
1988
1988
1988
1990
1992
1995
1996
1997
1996
1996
1997
1998
2000
2003
2004
2005
2006
2007
2009
2010
2013
2016
2018
2020
2021
2021
2021
2021
2020
2018
2015
2012
2009
2006
2004
2002
1999
1996
1994
1991
1988
1986
1984
1983
1983
1983
1984
1984
1984
1984
1983
1983
1982
1981
1981
1981
1980
1979
1979
1978
1979
1980
1981
1982
1982
1981
1981
1982
1982
1983
1982
1982
1982
1982
1982
1983
1983
1982
1981
1980
1980
1980
1981
1982
1982
1982
1981
1980
1979
1977
1976
1975
1975
1976
1977
1978
1979
1978
1976
1973
1970
1968
1967
1968
1968
1969
1969
1968
1967
1967
1967
1967
1968
1969
1969
1969
1969
1969
1969
1967
1965
1963
1963
1965
1967
1970
1971
1972
1974
1975
1976
1976
1975
1974
1974
1973
1972
1971
1969
1967
1966
1965
1965
1966
1966
1966
1966
1965
1965
1964
1964
1964
1964
1966
1970
1980
1997
2020
2043
2056
2050
2022
1977
1931
1902
1897
1912
1936
1957
1967
1968
1966
1963
1962
1962
1962
1961
1960
1960
1962
1963
1965
1965
1966
1966
1966
1967
1967
1968
1968
1969
1969
1970
1970
1969
1969
1969
1969
1971
1974
1977
1978
1979
1978
1977
1977
1977
1978
1980
1982
1985
1988
1989
1989
1990
1992
1995
1998
1999
1998
1995
1991
1988
1987
1987
1987
1985
1982
1977
1972
1968
1966
1965
1965
1964
1964
1963
1961
1959
1958
1956
1956
1957
1958
1958
1958
1956
1956
1956
1958
1960
1961
1961
1961
1961
1961
1961
1960
1959
1957
1957
1958
1960
1962
1962
1962
1960
1959
1958
1959
1960
1961
1962
1963
1963
1963
1964
1965
1965
1964
1962
1961
1960
1960
1961
1961
1960
1959
1959
1959
1960
1961
1963
1964
1965
1965
1964
1963
1961
1960
1960
1961
1962
1964
1966
1967
1968
1968
1967
1965
1963
1961
1960
1959
1958
1957
1956
1955
1955
1953
1952
1952
1951
1952
1953
1954
1956
1956
1956
1953
1951
1952
1959
1974
1997
2025
2048
2058
2045
2008
1959
1914
1889
1889
1909
1933
1952
1960
1960
1959
1959
1960
1962
1963
1963
1963
1963
1964
1964
1965
1965
1965
1965
1966
1967
1967
1967
1966
1966
1966
1968
1969
1971
1971
1970
1969
1968
1968
1969
1971
1973
1975
1977
1980
1982
1984
1985
1986
1986
1988
1990
1994
1998
2002
2004
2006
2007
2008
2007
2006
2005
2004
2002
2001
1998
1993
1988
1983
1978
1973
1969
1966
1965
1964
1963
1964
1964
1964
1963
1962
1962
1962
1962
1962
1961
1961
1962
1963
1964
1964
1963
1962
1962
1964
1965
1966
1966
1966
1965
1966
1967
1967
1968
1969
1969
1968
1968
1967
1967
1967
1968
1968
1969
1969
1970
1971
1972
1971
1970
1969
1968
1967
1968
1969
1971
1972
1971
1970
1968
1967
1966
1966
1966
1968
1970
1972
1975
1976
1977
1977
1976
1974
1973
1972
1971
1971
1971
1969
1967
1966
1965
1965
1966
1967
1968
1968
1969
1970
1970
1968
1966
1964
1966
1973
1988
2011
2039
2060
2068
2051
2012
1961
1917
1895
1899
1921
1946
1964
1971
1971
1969
1968
1968
1968
1968
1968
1967
1968
1970
1973
1974
1975
1974
1974
1974
1974
1975
1976
1977
1978
1979
1980
1979
1979
1980
1982
1984
1986
1986
1986
1986
1986
1986
1987
1988
1991
1993
1996
1998
1999
2001
2003
2006
2009
2013
2016
2017
2017
2016
2015
2014
2013
2012
2010
2007
2003
1999
1995
1991
1987
1984
1982
1981
1980
1980
1979
1979
1979
1978
1977
1976
1976
1977
1978
1980
1980
1980
1979
1979
1979
1979
1978
1977
1976
1975
1976
1977
1977
1978
1978
1978
1979
1979
1980
1980
1980
1979
1978
1977
1977
1978
1979
1981
1982
1981
1979
1977
1975
1973
1974
1976
1979
1980
1980
1979
1978
1978
1979
1981
1980
1979
1977
1978
1979
1982
1983
1983
1983
1982
1982
1982
1983
1985
1987
1991
1997
2004
2011
2016
2020
2022
2024
2025
2027
2029
2030
2031
2032
2033
2033
2033
2033
2033
2033
2033
2032
2030
2028
2025
2023
2022
2022
2025
2033
2048
2073
2103
2128
2134
2113
2068
2014
1970
1953
1962
1985
2007
2018
2018
2014
2010
2008
2007
2007
2008
2009
2010
2009
2007
2004
2002
2002
2004
2006
2006
2004
2000
1995
1992
1991
1991
1991
1992
1992
1991
1990
1990
1990
1991
1992
1993
1995
1997
1999
2002
2005
2008
2010
2010
2009
2008
2008
2009
2011
2013
2014
2014
2014
2014
2013
2012
2011
2007
2003
1998
1994
1990
1989
1988
1987
1986
1985
1984
1983
1982
1982
1981
1980
1978
1977
1976
1976
1976
1976
1976
1975
1974
1974
1975
1977
1980
1982
1983
1982
1982
1981
1981
1982
1983
1985
1987
1990
1992
1992
1991
1988
1986
1985
1984
1985
1986
1988
1990
1991
1991
1990
1988
1987
1988
1990
1991
1992
1991
1989
1987
1985
1985
1985
1986
1987
1988
1989
1989
1989
1989
1989
1989
1989
1990
1990
1990
1989
1990
1991
1992
1994
1995
1996
1996
1996
1996
1995
1995
1996
1998
2000
2003
2004
2004
2004
2004
2005
2005
2004
2002
2001
1999
1998
1997
1996
1995
1994
1994
1994
1994
1994
1995
1997
1998
1999
1998
1995
1992
1992
1999
2013
2034
2058
2080
2089
2078
2046
2001
1959
1935
1935
1953
1976
1993
1998
1995
1991
1991
1993
1997
2001
2002
2003
2002
2001
2001
2001
2001
2002
2003
2005
2007
2010
2012
2013
2013
2012
2011
2011
2012
2013
2014
2015
2015
2016
2017
2019
2019
2018
2018
2019
2021
2025
2028
2030
2031
2032
2033
2036
2039
2042
2045
2046
2046
2046
2045
2045
2044
2042
2040
2037
2034
2030
2025
2019
2013
2010
2009
2010
2010
2009
2006
2002
1999
1997
1996
1996
1996
1996
1996
1996
1996
1995
1994
1992
1991
1992
1994
1996
1997
1996
1996
1997
1999
2001
2003
2005
2005
2005
2005
2003
2001
1999
1998
1997
1998
2000
2002
2004
2005
2005
2004
2002
2000
1998
1997
1997
1997
1998
1997
1997
1996
1996
1996
1996
1997
1996
1996
1995
1994
1994
1994
1994
1993
1992
1992
1992
1993
1994
1996
1997
1997
1997
1997
1997
1997
1997
1998
1998
1998
1996
1995
1994
1994
1995
1995
1995
1994
1994
1994
1994
1995
1996
1995
1995
1995
1995
1996
1997
1998
1998
1998
1998
1997
1997
1999
2001
2002
2003
2002
2000
1997
1996
1995
1995
1995
1995
1996
1998
2001
2006
2010
2012
2014
2014
2014
2015
2015
2015
2018
2025
2039
2060
2089
2116
2128
2117
2080
2029
1981
1952
1950
1968
1992
2009
2016
2017
2015
2015
2016
2017
2018
2018
2017
2015
2014
2014
2015
2017
2018
2020
2020
2021
2022
2023
2025
2026
2027
2027
2027
2027
2028
2028
2029
2030
2030
2031
2032
2033
2034
2035
2036
2038
2039
2040
2042
2044
2046
2049
2053
2056
2059
2060
2061
2061
2062
2063
2063
2063
2062
2060
2056
2052
2047
2040
2035
2030
2027
2025
2023
2021
2019
2016
2013
2011
2009
2009
2010
2011
2012
2012
2011
2010
2008
2008
2007
2008
2008
2008
2009
2010
2011
2010
2010
2009
2009
2009
2011
2013
2014
2014
2013
2012
2011
2011
2012
2013
2014
2014
2014
2014
2014
2014
2013
2012
2011
2011
2011
2012
2013
2013
2012
2011
2010
2009
2009
2009
2010
2010
2010
2010
2010
2010
2009
2009
2009
2010
2011
2012
2013
2013
2012
2011
2010
2009
2008
2007
2008
2008
2008
2009
2009
2008
2007
2006
2005
2002
2000
1998
1996
1994
1992
1989
1986
1985
1985
1986
1987
1987
1986
1985
1984
1983
1983
1983
1982
1982
1980
1979
1981
1987
1999
2020
2050
2082
2103
2098
2064
2011
1959
1927
1923
1942
1966
1984
1989
1988
1985
1983
1983
1983
1983
1984
1984
1984
1985
1985
1986
1986
1987
1988
1989
1989
1989
1989
1989
1990
1991
1991
1991
1991
1991
1991
1991
1992
1993
1994
1995
1996
1997
1999
2001
2003
2004
2006
2007
2009
2012
2015
2018
2021
2023
2024
2024
2024
2025
2026
2027
2027
2025
2022
2018
2014
2009
2004
2000
1997
1995
1994
1994
1994
1992
1990
1987
1985
1985
1985
1986
1987
1988
1988
1988
1987
1986
1985
1984
1984
1985
1987
1989
1990
1991
1990
1989
1988
1988
1989
1990
1991
1992
1991
1991
1991
1991
1991
1991
1991
1990
1989
1989
1990
1990
1991
1990
1990
1989
1989
1989
1990
1990
1990
1989
1989
1988
1988
1988
1989
1990
1991
1991
1991
1991
1990
1989
1989
1989
1989
1989
1989
1989
1989
1988
1988
1988
1988
1988
1988
1989
1990
1991
1990
1990
1990
1989
1989
1988
1989
1989
1990
1989
1988
1987
1986
1986
1986
1986
1986
1986
1987
1988
1988
1988
1987
1986
1987
1988
1990
1992
1994
1995
1995
1994
1991
1988
1986
1984
1984
1984
1985
1985
1984
1984
1984
1984
1984
1985
1985
1986
1986
1985
1983
1981
1980
1983
1992
2007
2032
2062
2088
2097
2078
2036
1983
1941
1925
1934
1956
1977
1987
1987
1984
1982
1982
1982
1982
1982
1983
1984
1985
1986
1987
1987
1986
1985
1984
1984
1985
1986
1987
1987
1988
1988
1989
1989
1989
1989
1990
1990
1991
1992
1993
1993
1994
1995
1996
1997
1998
2000
2001
2003
2005
2007
2010
2012
2014
2015
2017
2018
2020
2021
2021
2020
2018
2015
2012
2009
2006
2002
1998
1994
1991
1988
1986
1984
1982
1980
1979
1978
1978
1978
1979
1979
1978
1977
1975
1974
1973
1973
1972
1973
1973
1973
1973
1973
1973
1973
1973
1973
1973
1973
1973
1973
1973
1972
1972
1972
1972
1973
1974
1974
1974
1974
1974
1973
1973
1973
1973
1973
1973
1973
1973
1974
1974
1974
1973
1973
1972
1972
1973
1973
1973
1973
1973
1972
1972
1971
1970
1971
1972
1974
1975
1976
1975
1973
1972
1971
1971
1972
1973
1974
1974
1974
1974
1972
1971
1971
1971
1971
1971
1972
1973
1973
1973
1973
1972
1972
1971
1972
1972
1973
1973
1973
1972
1970
1969
1968
1969
1969
1971
1971
1972
1972
1971
1971
1970
1970
1970
1969
1969
1970
1971
1972
1971
1969
1968
1969
1972
1977
1981
1983
1983
1981
1980
1977
1975
1973
1972
1972
1973
1973
1972
1971
1970
1969
1968
1969
1969
1969
1970
1970
1970
1969
1967
1964
1963
1967
1977
1996
2024
2055
2077
2078
2050
2002
1949
1913
1905
1920
1945
1965
1973
1972
1968
1965
1963
1963
1965
1966
1968
1970
1970
1970
1970
1969
1968
1968
1968
1969
1970
1971
1971
1971
1971
1972
1973
1974
1975
1977
1978
1979
1979
1978
1978
1978
1979
1981
1982
1983
1984
1986
1987
1988
1990
1992
1994
1997
1999
2002
2004
2006
2008
2008
2008
2006
2005
2003
2002
2000
1997
1992
1987
1982
1977
1972
1969
1967
1966
1966
1966
1966
1964
1962
1960
1959
1959
1960
1960
1960
1960
1960
1960
1961
1961
1961
1960
1959
1960
1961
1961
1962
1961
1960
1959
1959
1959
1959
1958
1958
1957
1958
1958
1958
1957
1956
1956
1957
1957
1958
1958
1958
1956
1955
1954
1953
1953
1953
1953
1953
1953
1952
1952
1952
1952
1952
1952
1952
1952
1953
1954
1955
1955
1953
1951
1949
1949
1949
1950
1951
1949
1947
1945
1944
1944
1945
1944
1944
1943
1943
1943
1943
1943
1944
1944
1944
1943
1942
1941
1941
1941
1942
1944
1945
1946
1946
1947
1947
1949
1951
1954
1957
1958
1957
1954
1950
1946
1943
1942
1943
1944
1946
1947
1948
1948
1947
1946
1946
1946
1947
1948
1948
1946
1943
1944
1951
1967
1993
2026
2052
2062
2046
2003
1948
1901
1877
1881
1904
1930
1949
1956
1955
1952
1950
1949
1948
1949
1950
1952
1954
1956
1956
1956
1955
1954
1954
1954
1954
1954
1955
1957
1959
1960
1960
1960
1960
1961
1961
1962
1963
1965
1966
1967
1968
1969
1970
1971
1972
1974
1976
1979
1982
1986
1989
1992
1995
1997
1999
2002
2004
2006
2007
2008
2007
2005
2002
1998
1993
1987
1981
1976
1972
1969
1967
1965
1963
1960
1958
1956
1954
1953
1954
1955
1956
1957
1957
1956
1955
1954
1953
1954
1955
1956
1957
1957
1957
1957
1956
1956
1957
1958
1959
1960
1960
1959
1958
1958
1958
1958
1958
1959
1959
1959
1958
1957
1956
1956
1956
1957
1958
1959
1959
1959
1959
1958
1958
1957
1957
1957
1958
1959
1960
1960
1960
1959
1958
1957
1957
1957
1958
1958
1959
1959
1959
1959
1958
1958
1958
1958
1958
1959
1960
1961
1961
1961
1961
1960
1959
1960
1961
1962
1963
1962
1962
1961
1960
1960
1961
1962
1963
1963
1963
1963
1965
1967
1969
1971
1973
1974
1974
1973
1971
1969
1967
1965
1963
1961
1960
1961
1962
1964
1965
1966
1966
1964
1964
1963
1964
1964
1964
1965
1968
1976
1992
2019
2051
2079
2088
2067
2022
1966
1922
1905
1915
1938
1959
1969
1970
1967
1964
1963
1963
1963
1963
1963
1963
1964
1965
1967
1969
1970
1970
1970
1970
1970
1971
1972
1973
1973
1973
1973
1973
1974
1975
1976
1977
1977
1978
1979
1980
1981
1981
1982
1984
1985
1986
1987
1989
1991
1994
1997
2000
2003
2006
2008
2010
2011
2011
2012
2012
2012
2012
2009
2006
2001
1996
1991
1987
1984
1982
1980
1979
1977
1975
1973
1972
1972
1972
1972
1973
1973
1973
1973
1972
1972
1971
1970
1971
1971
1972
1973
1974
1974
1974
1974
1973
1973
1973
1973
1973
1973
1974
1975
1975
1975
1975
1975
1974
1973
1973
1973
1973
1974
1975
1975
1974
1973
1973
1973
1974
1975
1975
1975
1975
1974
1974
1973
1973
1974
1974
1975
1975
1975
1975
1975
1975
1975
1975
1975
1976
1976
1977
1976
1976
1975
1975
1975
1976
1977
1977
1977
1977
1977
1977
1977
1977
1976
1976
1976
1977
1977
1978
1978
1978
1977
1977
1976
1976
1977
1978
1979
1979
1979
1978
1978
1978
1978
1979
1979
1979
1980
1980
1980
1980
1979
1978
1977
1979
1981
1984
1987
1989
1989
1987
1984
1982
1980
1979
1979
1979
1979
1979
1978
1978
1977
1977
1977
1978
1979
1980
1981
1981
1981
1979
1980
1984
1995
2016
2046
2077
2096
2089
2054
2001
1949
1919
1917
1936
1960
1977
1982
1981
1978
1977
1976
1976
1976
1977
1978
1979
1981
1983
1983
1983
1983
1982
1981
1981
1981
1983
1984
1986
1986
1986
1984
1983
1982
1982
1984
1985
1987
1988
1989
1990
1990
1991
1992
1992
1994
1995
1998
2001
2004
2007
2009
2011
2013
2015
2017
2019
2020
2021
2022
2021
2019
2017
2014
2011
2008
2005
2001
1998
1995
1992
1989
1986
1984
1983
1982
1982
1982
1982
1981
1981
1980
1979
1978
1978
1978
1979
1979
1980
1980
1981
1981
1982
1982
1981
1981
1981
1981
1982
1983
1984
1984
1984
1983
1982
1982
1982
1983
1984
1984
1984
1983
1982
1982
1983
1983
1983
1983
1982
1982
1982
1982
1981
1980
1980
1979
1980
1981
1982
1982
1982
1982
1981
1981
1980
1980
1980
1980
1980
1981
1981
1980
1980
1979
1979
1979
1979
1980
1981
1982
1982
1982
1981
1980
1979
1979
1981
1982
1982
1982
1981
1980
1980
1980
1980
1981
1982
1982
1982
1983
1982
1982
1982
1981
1981
1981
1982
1982
1983
1983
1983
1982
1982
1982
1982
1983
1984
1984
1985
1985
1985
1984
1983
1982
1982
1982
1983
1985
1988
1990
1992
1993
1992
1990
1988
1986
1985
1984
1984
1984
1984
1983
1982
1982
1982
1982
1983
1983
1984
1984
1983
1982
1979
1979
1983
1993
2011
2038
2067
2090
2092
2066
2020
1967
1928
1917
1931
1955
1977
1987
1987
1983
1980
1979
1980
1981
1982
1983
1983
1984
1984
1984
1984
1984
1984
1983
1984
1985
1986
1987
1987
1986
1986
1986
1987
1988
1989
1990
1991
1991
1991
1991
1991
1991
1992
1994
1997
2000
2002
2003
2004
2005
2007
2009
2011
2014
2016
2019
2021
2022
2023
2022
2021
2020
2019
2017
2016
2014
2011
2008
2003
1999
1994
1990
1988
1986
1985
1984
1983
1981
1980
1978
1977
1976
1976
1976
1977
1977
1978
1978
1978
1977
1976
1976
1977
1978
1979
1979
1979
1978
1977
1977
1977
1977
1978
1978
1978
1978
1978
1978
1978
1978
1978
1978
1978
1978
1978
1979
1979
1979
1979
1978
1978
1978
1978
1978
1979
1979
1979
1979
1978
1978
1977
1977
1977
1978
1978
1978
1978
1978
1978
1977
1976
1976
1976
1976
1977
1978
1978
1978
1977
1977
1976
1976
1975
1975
1975
1975
1976
1976
1976
1977
1976
1976
1976
1976
1976
1977
1978
1979
1979
1977
1976
1975
1975
1976
1977
1978
1978
1977
1976
1976
1975
1975
1975
1975
1976
1976
1976
1976
1975
1975
1974
1974
1975
1976
1977
1979
1980
1982
1983
1985
1985
1984
1983
1981
1978
1977
1976
1976
1976
1976
1975
1973
1973
1973
1973
1974
1975
1976
1976
1976
1974
1972
1971
1974
1984
2002
2030
2058
2077
2073
2044
1995
1945
1911
1905
1921
1947
1968
1978
1979
1976
1973
1972
1972
1974
1975
1977
1978
1978
1977
1977
1976
1976
1977
1977
1978
1977
1977
1976
1976
1976
1977
1977
1978
1979
1979
1981
1982
1983
1984
1983
1983
1983
1985
1987
1990
1992
1993
1994
1994
1995
1997
2000
2004
2008
2011
2015
2017
2018
2018
2017
2015
2014
2013
2013
2012
2009
2004
1998
1993
1989
1986
1983
1979
1976
1973
1971
1971
1970
1970
1968
1966
1965
1964
1965
1966
1967
1967
1967
1966
1965
1965
1965
1965
1966
1967
1967
1967
1966
1966
1966
1966
1966
1966
1967
1968
1969
1970
1970
1969
1969
1968
1968
1967
1968
1968
1969
1970
1970
1970
1968
1967
1966
1966
1967
1968
1969
1969
1969
1968
1967
1968
1968
1968
1967
1966
1964
1963
1964
1964
1965
1966
1965
1964
1964
1963
1964
1965
1966
1967
1968
1968
1967
1968
1968
1968
1969
1969
1969
1969
1969
1969
1969
1969
1968
1967
1965
1964
1963
1963
1965
1966
1968
1970
1972
1974
1974
1972
1970
1967
1965
1965
1965
1967
1968
1969
1969
1969
1967
1966
1965
1965
1967
1969
1970
1970
1967
1965
1968
1977
1997
2025
2055
2076
2074
2047
1998
1946
1908
1897
1910
1935
1958
1970
1973
1971
1969
1969
1970
1971
1972
1972
1972
1972
1973
1974
1975
1975
1975
1976
1976
1976
1976
1977
1977
1978
1979
1979
1980
1980
1981
1981
1982
1983
1984
1985
1986
1986
1987
1988
1989
1991
1993
1996
1999
2002
2006
2009
2012
2015
2017
2020
2023
2026
2027
2028
2027
2025
2023
2019
2016
2011
2007
2003
1999
1995
1992
1988
1985
1982
1980
1978
1977
1975
1975
1975
1976
1977
1977
1977
1976
1975
1974
1974
1974
1975
1975
1976
1975
1975
1974
1973
1974
1974
1976
1977
1978
1979
1979
1978
1977
1977
1977
1977
1978
1979
1979
1978
1978
1977
1977
1977
1978
1977
1977
1977
1977
1978
1979
1978
1977
1976
1976
1976
1976
1977
1977
1977
1977
1977
1978
1978
1978
1978
1978
1978
1978
1979
1979
1979
1979
1978
1977
1976
1976
1976
1977
1977
1978
1977
1976
1976
1976
1976
1977
1977
1977
1977
1976
1976
1976
1976
1976
1977
1977
1978
1979
1978
1978
1977
1976
1974
1974
1974
1975
1978
1981
1985
1987
1987
1985
1983
1980
1979
1978
1978
1978
1977
1976
1976
1975
1975
1975
1975
1975
1976
1976
1976
1977
1976
1974
1972
1974
1981
1995
2018
2048
2076
2089
2076
2036
1981
1934
1911
1915
1938
1963
1977
1980
1976
1972
1971
1971
1973
1974
1975
1976
1976
1976
1977
1977
1978
1977
1977
1977
1977
1978
1979
1980
1980
1979
1979
1980
1980
1982
1982
1983
1983
1983
1983
1984
1986
1987
1989
1991
1993
1994
1995
1997
1999
2001
2004
2006
2009
2011
2014
2016
2017
2017
2016
2016
2015
2014
2013
2011
2009
2006
2002
1997
1993
1989
1985
1982
1980
1978
1978
1978
1977
1976
1975
1974
1973
1973
1973
1974
1975
1976
1975
1974
1973
1972
1971
1971
1971
1972
1972
1972
1972
1971
1971
1970
1970
1970
1971
1972
1973
1973
1973
1973
1972
1971
1971
1971
1971
1972
1972
1971
1971
1970
1969
1969
1969
1970
1970
1971
1972
1972
1972
1971
1971
1971
1970
1970
1971
1972
1973
1973
1973
1973
1972
1971
1970
1969
1969
1970
1972
1973
1974
1974
1973
1971
1969
1969
1969
1970
1971
1972
1972
1971
1970
1969
1968
1969
1971
1972
1972
1972
1972
1971
1971
1971
1970
1970
1970
1970
1970
1971
1971
1971
1971
1971
1970
1970
1972
1974
1978
1981
1982
1982
1980
1978
1976
1974
1973
1973
1974
1974
1973
1973
1972
1971
1971
1972
1973
1973
1974
1974
1974
1973
1971
1971
1975
1985
2003
2029
2057
2077
2076
2049
2001
1949
1913
1905
1921
1947
1969
1979
1979
1976
1973
1971
1972
1972
1972
1972
1973
1975
1976
1977
1977
1977
1977
1976
1977
1977
1978
1978
1978
1978
1978
1978
1979
1979
1980
1980
1980
1981
1983
1984
1985
1986
1986
1987
1988
1990
1992
1995
1997
2000
2002
2004
2006
2008
2010
2012
2014
2016
2018
2018
2018
2017
2015
2012
2009
2006
2002
1998
1994
1990
1986
1983
1980
1978
1976
1975
1975
1974
1974
1973
1972
1971
1970
1970
1970
1970
1971
1972
1972
1972
1971
1970
1969
1969
1970
1971
1972
1972
1972
1972
1972
1971
1971
1971
1971
1971
1972
1973
1973
1973
1972
1971
1970
1970
1970
1970
1971
1971
1971
1970
1969
1969
1968
1968
1968
1968
1968
1969
1969
1970
1969
1968
1967
1966
1966
1966
1967
1967
1967
1967
1967
1967
1967
1967
1966
1965
1965
1965
1964
1964
1964
1964
1963
1964
1964
1964
1965
1965
1965
1965
1964
1964
1964
1964
1964
1965
1966
1966
1966
1966
1965
1965
1965
1966
1966
1968
1969
1969
1969
1969
1968
1967
1966
1965
1965
1966
1968
1970
1972
1974
1975
1975
1974
1973
1971
1970
1969
1968
1967
1966
1965
1963
1962
1961
1961
1961
1961
1962
1963
1965
1965
1964
1962
1960
1961
1968
1983
2007
2037
2061
2069
2051
2010
1958
1915
1896
1903
1925
1948
1962
1965
1962
1959
1958
1958
1959
1960
1960
1961
1961
1961
1962
1963
1964
1965
1965
1966
1966
1965
1965
1965
1965
1965
1966
1967
1967
1968
1968
1969
1970
1971
1973
1974
1974
1975
1976
1977
1978
1980
1982
1983
1985
1987
1989
1992
1995
1999
2003
2005
2006
2006
2006
2006
2006
2006
2004
2002
1998
1994
1989
1985
1982
1979
1977
1974
1972
1969
1967
1965
1962
1960
1959
1958
1958
1959
1960
1961
1962
1962
1961
1960
1960
1960
1960
1960
1960
1960
1960
1961
1962
1963
1963
1963
1963
1963
1964
1965
1966
1967
1967
1967
1966
1965
1965
1966
1967
1967
1968
1969
1969
1969
1969
1968
1967
1966
1967
1967
1968
1967
1966
1965
1964
1965
1966
1967
1967
1968
1968
1968
1967
1967
1966
1967
1967
1966
1964
1961
1958
1957
1957
1957
1957
1957
1956
1957
1958
1959
1960
1961
1961
1960
1959
1958
1957
1957
1958
1960
1963
1965
1967
1968
1968
1966
1965
1963
1961
1960
1960
1959
1958
1957
1956
1956
1956
1957
1958
1959
1960
1961
1961
1960
1958
1956
1954
1957
1966
1984
2012
2044
2067
2070
2047
2000
1945
1903
1887
1897
1922
1947
1962
1967
1964
1961
1959
1959
1960
1962
1963
1964
1965
1965
1965
1965
1965
1965
1966
1968
1969
1970
1970
1970
1969
1968
1968
1969
1971
1972
1973
1974
1975
1976
1976
1977
1978
1980
1982
1984
1987
1990
1992
1993
1995
1996
1998
2001
2005
2008
2011
2014
2015
2016
2017
2018
2018
2017
2016
2013
2010
2005
2001
1995
1990
1985
1981
1978
1976
1975
1974
1973
1972
1971
1969
1969
1968
1969
1970
1970
1971
1971
1971
1971
1970
1970
1970
1970
1971
1972
1972
1973
1972
1972
1972
1972
1972
1972
1973
1973
1973
1973
1973
1973
1973
1973
1973
1973
1974
1974
1975
1975
1974
1974
1973
1972
1972
1973
1974
1974
1974
1974
1974
1974
1974
1974
1974
1974
1975
1976
1976
1976
1975
1975
1974
1974
1974
1974
1974
1975
1976
1976
1976
1976
1975
1974
1974
1974
1975
1976
1976
1975
1975
1974
1973
1972
1973
1973
1973
1973
1972
1972
1973
1975
1977
1980
1983
1984
1984
1983
1980
1977
1975
1974
1974
1974
1975
1975
1976
1976
1976
1976
1976
1975
1975
1975
1975
1975
1973
1972
1972
1977
1988
2007
2035
2064
2084
2081
2050
2000
1948
1915
1909
1926
1950
1969
1975
1974
1971
1970
1971
1972
1973
1973
1974
1974
1975
1976
1976
1977
1977
1977
1977
1978
1978
1978
1978
1979
1979
1979
1979
1979
1979
1980
1981
1982
1984
1986
1988
1989
1990
1991
1992
1993
1994
1995
1997
1999
2002
2005
2008
2011
2013
2014
2015
2016
2017
2018
2019
2019
2019
2017
2014
2010
2005
2001
1997
1993
1990
1987
1986
1984
1983
1980
1978
1976
1976
1976
1977
1978
1978
1978
1977
1977
1976
1975
1975
1974
1973
1974
1975
1976
1977
1977
1977
1976
1977
1977
1977
1977
1977
1977
1977
1978
1979
1979
1978
1977
1976
1974
1974
1974
1974
1975
1975
1975
1975
1975
1975
1975
1975
1975
1974
1973
1973
1972
1972
1972
1972
1973
1974
1974
1975
1975
1975
1975
1975
1975
1975
1975
1975
1975
1975
1976
1977
1977
1977
1977
1976
1976
1977
1978
1979
1979
1978
1977
1976
1976
1976
1976
1976
1977
1977
1978
1978
1977
1977
1977
1977
1978
1979
1979
1978
1977
1976
1975
1975
1975
1975
1976
1978
1981
1984
1987
1988
1989
1988
1986
1984
1982
1981
1980
1979
1979
1978
1977
1976
1976
1976
1978
1979
1980
1980
1979
1978
1978
1977
1976
1977
1981
1991
2009
2035
2062
2081
2080
2053
2007
1958
1924
1915
1928
1952
1971
1980
1980
1977
1976
1976
1977
1978
1979
1979
1979
1979
1978
1978
1978
1979
1980
1982
1982
1982
1982
1982
1982
1982
1983
1984
1984
1984
1984
1984
1985
1987
1988
1989
1990
1991
1992
1993
1995
1997
1998
1999
2000
2002
2003
2006
2009
2012
2015
2017
2018
2019
2020
2021
2021
2021
2020
2018
2015
2012
2007
2002
1997
1993
1989
1987
1986
1985
1985
1984
1982
1980
1979
1978
1977
1977
1977
1978
1978
1978
1978
1978
1977
1977
1976
1976
1977
1978
1979
1980
1980
1979
1978
1977
1977
1978
1979
1979
1979
1978
1977
1977
1978
1979
1979
1979
1978
1978
1979
1979
1980
1981
1980
1980
1979
1979
1979
1979
1979
1979
1979
1978
1978
1977
1978
1979
1979
1979
1979
1978
1977
1977
1977
1978
1978
1978
1978
1978
1978
1978
1978
1978
1976
1975
1975
1975
1976
1978
1979
1979
1979
1979
1978
1978
1979
1979
1979
1978
1976
1974
1972
1971
1970
1970
1971
1973
1974
1976
1977
1976
1975
1975
1975
1975
1977
1978
1980
1983
1985
1986
1986
1983
1980
1976
1972
1971
1970
1970
1971
1970
1970
1970
1970
1970
1970
1970
1970
1970
1970
1970
1968
1966
1965
1969
1979
1997
2024
2052
2073
2075
2050
2004
1952
1912
1898
1909
1933
1955
1967
1969
1966
1963
1963
1964
1966
1967
1967
1967
1968
1968
1968
1968
1968
1968
1968
1969
1969
1970
1970
1971
1972
1972
1972
1973
1974
1975
1976
1976
1976
1975
1975
1975
1976
1977
1978
1980
1981
1983
1986
1990
1992
1995
1996
1998
2000
2003
2006
2008
2010
2011
2012
2012
2012
2011
2009
2006
2003
1998
1993
1987
1982
1976
1972
1969
1967
1966
1964
1962
1961
1960
1959
1959
1959
1959
1959
1959
1960
1961
1960
1959
1958
1957
1957
1957
1957
1957
1957
1958
1959
1960
1961
1961
1960
1960
1960
1961
1963
1964
1964
1964
1964
1963
1962
1962
1962
1962
1964
1964
1964
1964
1963
1962
1962
1963
1964
1965
1965
1964
1964
1964
1964
1964
1964
1963
1963
1964
1965
1965
1965
1965
1964
1965
1965
1966
1966
1966
1966
1966
1966
1966
1967
1969
1971
1973
1976
1977
1978
1977
1976
1975
1974
1973
1971
1970
1968
1968
1968
1969
1970
1971
1972
1972
1971
1971
1972
1974
1975
1974
1972
1969
1971
1979
1997
2025
2056
2079
2081
2055
2008
1954
1913
1897
1907
1931
1956
1972
1978
1977
1975
1973
1973
1974
1974
1975
1976
1977
1978
1979
1980
1981
1981
1981
1981
1980
1981
1981
1982
1983
1985
1985
1986
1986
1986
1986
1987
1988
1988
1989
1991
1993
1994
1995
1996
1997
1999
2001
2004
2007
2011
2014
2018
2020
2023
2025
2027
2029
2031
2032
2032
2031
2030
2027
2024
2020
2015
2011
2006
2001
1997
1994
1992
1989
1987
1985
1983
1983
1984
1985
1985
1985
1984
1983
1982
1982
1983
1984
1984
1985
1985
1985
1985
1985
1985
1985
1985
1986
1988
1989
1989
1989
1989
1989
1989
1989
1990
1990
1990
1990
1989
1989
1989
1989
1989
1989
1989
1989
1990
1990
1990
1990
1989
1988
1988
1988
1989
1990
1990
1990
1989
1988
1987
1987
1987
1987
1988
1989
1989
1989
1988
1988
1988
1988
1987
1988
1988
1989
1990
1991
1990
1989
1988
1987
1987
1990
1993
1996
1998
1999
1998
1996
1993
1990
1987
1985
1985
1985
1985
1986
1986
1986
1986
1986
1986
1986
1986
1987
1987
1987
1985
1983
1982
1986
1996
2016
2045
2078
2102
2103
2074
2022
1965
1926
1916
1931
1957
1978
1987
1986
1983
1981
1981
1981
1981
1981
1981
1982
1983
1984
1985
1985
1985
1985
1984
1985
1985
1986
1986
1987
1988
1989
1990
1990
1990
1990
1990
1991
1992
1994
1995
1996
1997
1998
1999
2001
2002
2003
2004
2007
2010
2013
2016
2019
2021
2022
2023
2025
2026
2028
2029
2028
2027
2024
2021
2018
2014
2011
2007
2003
1999
1996
1994
1992
1990
1989
1987
1986
1985
1985
1985
1984
1983
1983
1983
1983
1983
1983
1982
1983
1983
1984
1985
1985
1984
1984
1983
1984
1984
1985
1985
1985
1985
1984
1984
1984
1984
1984
1984
1985
1985
1984
1984
1983
1983
1983
1984
1985
1985
1985
1985
1984
1983
1982
1982
1982
1982
1983
1983
1983
1983
1982
1982
1981
1981
1980
1980
1981
1981
1981
1981
1981
1981
1980
1980
1980
1979
1979
1979
1980
1980
1981
1981
1981
1980
1979
1978
1978
1979
1980
1980
1979
1978
1978
1978
1979
1981
1985
1988
1989
1989
1988
1985
1983
1981
1980
1980
1980
1980
1980
1980
1980
1979
1979
1978
1978
1977
1977
1977
1977
1976
1974
1971
1970
1972
1981
1997
2022
2052
2079
2087
2067
2023
1969
1926
1910
1920
1945
1968
1980
1981
1977
1973
1972
1971
1972
1971
1972
1972
1973
1973
1973
1972
1971
1971
1973
1975
1978
1980
1980
1979
1978
1977
1977
1978
1979
1979
1980
1980
1981
1982
1983
1983
1983
1984
1985
1986
1988
1990
1992
1994
1995
1996
1997
1999
2002
2004
2007
2010
2013
2015
2016
2017
2017
2016
2014
2011
2008
2003
1998
1993
1989
1985
1982
1980
1978
1977
1977
1977
1977
1976
1975
1973
1971
1970
1970
1970
1971
1973
1975
1977
1978
1979
1979
1979
1980
1981
1981
1981
1981
1981
1980
1980
1980
1980
1980
1981
1982
1983
1983
1982
1981
1980
1978
1977
1977
1978
1980
1982
1983
1983
1982
1981
1979
1978
1977
1977
1977
1978
1978
1978
1978
1977
1977
1977
1978
1979
1980
1979
1977
1974
1974
1975
1978
1980
1980
1978
1976
1974
1974
1975
1977
1977
1977
1976
1975
1975
1975
1975
1975
1974
1974
1974
1975
1976
1978
1978
1978
1978
1978
1979
1980
1982
1985
1987
1990
1992
1992
1990
1988
1987
1984
1983
1981
1980
1979
1979
1978
1978
1977
1977
1978
1980
1980
1980
1981
1981
1982
1983
1983
1983
1985
1991
2003
2024
2049
2073
2083
2068
2030
1980
1936
1916
1922
1944
1969
1985
1988
1985
1981
1980
1981
1982
1982
1982
1983
1984
1987
1989
1990
1989
1987
1986
1986
1986
1987
1987
1987
1986
1986
1987
1989
1991
1993
1993
1992
1991
1990
1990
1992
1994
1997
1999
2000
2001
2003
2005
2008
2011
2014
2017
2020
2023
2026
2028
2029
2030
2030
2031
2031
2031
2030
2028
2025
2022
2019
2016
2013
2010
2008
2005
2001
1997
1993
1989
1988
1988
1990
1991
1991
1990
1988
1986
1985
1984
1984
1985
1987
1990
1992
1994
1993
1993
1993
1993
1994
1995
1995
1995
1994
1993
1993
1993
1993
1993
1992
1992
1992
1993
1996
1998
1999
1998
1997
1996
1996
1997
1998
1997
1996
1995
1994
1993
1993
1994
1994
1994
1994
1994
1993
1992
1990
1987
1985
1984
1984
1984
1985
1986
1987
1988
1987
1986
1985
1984
1984
1984
1984
1984
1985
1985
1985
1985
1986
1988
1993
1998
2003
2004
2001
1997
1992
1989
1987
1986
1985
1984
1985
1986
1987
1988
1988
1987
1985
1984
1983
1984
1985
1986
1984
1981
1980
1983
1996
2019
2050
2082
2099
2091
2055
2001
1948
1913
1907
1923
1949
1970
1982
1985
1984
1983
1982
1981
1980
1980
1980
1981
1983
1986
1989
1992
1993
1992
1990
1989
1988
1990
1992
1994
1994
1992
1990
1989
1989
1990
1991
1992
1992
1992
1994
1997
2001
2002
2002
2001
2001
2001
2004
2008
2012
2016
2019
2023
2025
2027
2029
2029
2031
2033
2034
2035
2034
2030
2026
2022
2019
2016
2013
2010
2005
2000
1995
1991
1988
1987
1987
1986
1986
1985
1984
1983
1983
1982
1982
1982
1983
1984
1986
1986
1985
1984
1982
1981
1980
1980
1980
1980
1981
1983
1985
1986
1986
1985
1984
1984
1985
1986
1986
1985
1984
1984
1985
1987
1988
1988
1987
1986
1985
1985
1984
1984
1982
1980
1977
1975
1974
1975
1976
1978
1979
1978
1977
1974
1973
1972
1973
1974
1975
1976
1976
1976
1976
1977
1978
1979
1979
1979
1980
1981
1983
1985
1987
1989
1990
1990
1988
1986
1982
1979
1977
1977
1978
1979
1979
1979
1978
1976
1974
1972
1971
1972
1974
1975
1975
1975
1975
1974
1975
1979
1989
2007
2036
2067
2090
2090
2060
2008
1952
1915
1906
1923
1949
1970
1979
1978
1975
1975
1976
1979
1980
1979
1979
1978
1978
1977
1977
1977
1977
1979
1981
1983
1984
1984
1984
1984
1985
1986
1987
1988
1988
1989
1988
1987
1985
1983
1982
1983
1985
1988
1990
1990
1990
1991
1992
1993
1995
1997
1998
2001
2003
2006
2008
2010
2010
2009
2007
2005
2003
2001
1999
1995
1990
1985
1981
1977
1974
1972
1969
1966
1963
1960
1957
1955
1954
1955
1956
1957
1958
1958
1958
1958
1959
1960
1959
1958
1956
1955
1954
1955
1956
1957
1958
1958
1957
1956
1955
1954
1955
1957
1958
1959
1959
1958
1956
1955
1954
1954
1955
1956
1958
1959
1959
1958
1956
1955
1954
1955
1957
1959
1960
1961
1960
1959
1957
1956
1957
1958
1959
1960
1962
1962
1963
1962
1961
1961
1960
1960
1960
1961
1963
1965
1966
1967
1967
1964
1962
1960
1958
1959
1960
1962
1963
1962
1959
1957
1957
1958
1961
1963
1965
1966
1967
1969
1971
1972
1973
1973
1973
1972
1970
1968
1966
1965
1964
1964
1965
1967
1969
1971
1971
1970
1968
1967
1967
1970
1971
1971
1968
1965
1967
1975
1993
2020
2050
2075
2082
2061
2018
1965
1922
1905
1913
1935
1957
1971
1974
1973
1971
1971
1971
1971
1971
1970
1970
1970
1970
1970
1969
1968
1969
1971
1974
1976
1977
1976
1976
1976
1977
1978
1979
1979
1979
1979
1979
1979
1980
1980
1982
1984
1986
1988
1990
1992
1992
1991
1991
1992
1995
1999
2003
2007
2010
2012
2013
2012
2012
2011
2011
2012
2013
2012
2009
2003
1997
1992
1989
1988
1987
1985
1982
1979
1977
1976
1975
1974
1972
1972
1972
1973
1974
1973
1971
1967
1963
1962
1964
1967
1970
1970
1970
1968
1968
1967
1967
1966
1965
1966
1968
1970
1970
1969
1966
1965
1966
1968
1971
1973
1973
1973
1973
1974
1974
1973
1972
1972
1973
1974
1975
1976
1976
1975
1974
1975
1976
1977
1978
1979
1978
1978
1976
1974
1971
1970
1970
1972
1974
1975
1976
1976
1975
1975
1975
1974
1974
1974
1974
1974
1974
1975
1977
1980
1983
1983
1981
1977
1973
1971
1973
1977
1980
1982
1981
1979
1978
1977
1978
1979
1978
1977
1975
1974
1974
1975
1977
1979
1980
1979
1977
1975
1976
1979
1983
1985
1986
1987
1987
1987
1987
1986
1984
1981
1979
1976
1976
1976
1976
1977
1977
1977
1976
1977
1978
1978
1978
1977
1976
1976
1975
1975
1977
1982
1994
2014
2042
2068
2083
2073
2038
1986
1938
1912
1912
1933
1957
1974
1980
1978
1975
1973
1974
1975
1977
1978
1979
1978
1977
1977
1977
1977
1978
1978
1978
1979
1979
1980
1980
1981
1982
1984
1984
1983
1981
1978
1976
1976
1977
1980
1983
1986
1988
1989
1990
1990
1991
1991
1992
1994
1998
2001
2005
2007
2008
2007
2007
2008
2010
2014
2017
2018
2016
2012
2006
2002
1999
1998
1998
1997
1995
1992
1989
1986
1984
1983
1983
1983
1983
1983
1983
1982
1980
1978
1977
1976
1974
1973
1974
1976
1979
1982
1983
1983
1981
1979
1978
1976
1976
1976
1976
1977
1978
1979
1979
1979
1978
1977
1978
1978
1979
1979
1979
1979
1979
1979
1978
1976
1974
1972
1972
1973
1975
1976
1976
1977
1976
1976
1975
1975
1975
1975
1976
1977
1978
1980
1980
1978
1976
1974
1974
1975
1979
1981
1983
1983
1983
1983
1984
1985
1986
1985
1985
1985
1985
1986
1985
1985
1985
1986
1988
1989
1989
1989
1988
1988
1989
1990
1990
1989
1988
1986
1986
1987
1988
1988
1988
1987
1987
1989
1990
1990
1989
1988
1986
1987
1988
1989
1990
1990
1990
1990
1991
1991
1990
1988
1986
1985
1985
1986
1987
1987
1986
1984
1982
1981
1981
1980
1980
1980
1981
1981
1981
1980
1977
1973
1972
1976
1987
2007
2035
2064
2085
2084
2054
2004
1950
1911
1901
1915
1941
1964
1975
1977
1975
1973
1973
1973
1975
1976
1977
1978
1979
1979
1979
1978
1978
1979
1979
1980
1982
1983
1984
1985
1985
1984
1983
1984
1985
1986
1988
1989
1988
1988
1988
1989
1991
1992
1994
1995
1996
1998
2001
2003
2006
2008
2011
2013
2016
2020
2023
2026
2028
2029
2028
2027
2025
2022
2018
2014
2011
2007
2004
2001
1996
1991
1987
1984
1981
1979
1979
1979
1979
1980
1981
1981
1979
1976
1973
1971
1970
1971
1972
1974
1974
1973
1971
1970
1970
1970
1972
1974
1975
1975
1976
1976
1976
1975
1973
1972
1972
1974
1975
1976
1977
1977
1977
1977
1977
1978
1979
1979
1979
1979
1978
1979
1979
1980
1980
1980
1980
1980
1980
1980
1981
1980
1978
1976
1974
1973
1974
1975
1976
1977
1976
1975
1973
1972
1971
1971
1972
1974
1975
1977
1978
1979
1979
1978
1977
1974
1972
1971
1972
1974
1978
1981
1984
1986
1987
1988
1987
1985
1981
1978
1975
1974
1973
1973
1973
1974
1975
1975
1975
1975
1974
1974
1973
1973
1973
1973
1972
1971
1972
1977
1990
2014
2046
2075
2090
2078
2038
1982
1930
1899
1897
1916
1942
1963
1973
1975
1974
1973
1973
1974
1974
1974
1974
1975
1976
1978
1979
1979
1979
1978
1977
1977
1976
1976
1977
1978
1978
1979
1980
1981
1982
1982
1982
1982
1983
1983
1985
1986
1988
1990
1991
1992
1994
1995
1997
2000
2002
2006
2009
2012
2015
2017
2019
2021
2023
2025
2027
2028
2027
2025
2021
2016
2011
2006
2002
1999
1996
1993
1989
1986
1982
1979
1977
1976
1975
1975
1975
1974
1974
1973
1973
1972
1973
1973
1974
1975
1976
1976
1977
1978
1977
1977
1976
1975
1976
1976
1977
1978
1978
1977
1977
1977
1978
1979
1979
1979
1979
1979
1979
1980
1980
1979
1978
1977
1977
1976
1976
1977
1977
1978
1978
1977
1976
1975
1975
1976
1977
1977
1977
1977
1976
1976
1977
1977
1977
1977
1977
1976
1975
1974
1973
1973
1973
1972
1972
1972
1972
1973
1974
1974
1973
1973
1974
1976
1979
1981
1984
1984
1983
1981
1979
1977
1975
1973
1972
1971
1972
1973
1974
1975
1975
1973
1972
1971
1971
1971
1971
1970
1969
1969
1974
1984
2003
2032
2064
2089
2092
2064
2013
1955
1912
1899
1913
1939
1962
1974
1975
1972
1971
1970
1971
1972
1972
1972
1972
1973
1973
1973
1974
1974
1975
1976
1977
1977
1977
1977
1977
1978
1979
1980
1980
1980
1980
1981
1982
1983
1984
1985
1985
1986
1986
1987
1989
1991
1994
1997
2000
2003
2006
2009
2012
2014
2017
2018
2019
2020
2022
2023
2024
2024
2022
2019
2015
2010
2006
2001
1998
1994
1991
1989
1986
1983
1980
1978
1977
1977
1978
1978
1978
1978
1977
1976
1974
1973
1972
1972
1973
1975
1976
1977
1976
1975
1975
1974
1975
1975
1976
1976
1977
1978
1979
1980
1980
1979
1978
1977
1978
1979
1981
1982
1982
1982
1981
1980
1979
1979
1980
1981
1981
1981
1981
1980
1978
1977
1977
1978
1979
1980
1981
1980
1979
1978
1977
1977
1977
1978
1979
1980
1981
1981
1981
1981
1981
1980
1979
1978
1978
1979
1979
1979
1979
1978
1977
1976
1975
1975
1977
1979
1982
1985
1987
1988
1988
1987
1985
1983
1981
1979
1978
1978
1977
1976
1975
1974
1973
1974
1974
1976
1977
1977
1978
1978
1977
1975
1973
1972
1977
1987
2007
2035
2066
2088
2088
2058
2007
1950
1911
1901
1917
1945
1969
1979
1978
1974
1972
1972
1974
1975
1974
1974
1974
1974
1974
1975
1976
1976
1976
1977
1977
1978
1978
1978
1977
1977
1977
1977
1979
1980
1982
1982
1982
1981
1981
1981
1982
1984
1986
1988
1989
1991
1993
1995
1996
1998
1999
2002
2004
2007
2010
2013
2014
2015
2016
2017
2018
2018
2018
2016
2012
2009
2004
2000
1995
1990
1985
1982
1979
1978
1977
1977
1977
1976
1975
1973
1972
1971
1971
1972
1973
1974
1974
1973
1972
1972
1972
1973
1974
1974
1974
1973
1973
1973
1973
1973
1974
1975
1975
1975
1975
1975
1975
1975
1974
1974
1974
1973
1973
1973
1974
1975
1977
1977
1977
1975
1974
1974
1974
1975
1975
1975
1974
1973
1972
1972
1972
1973
1974
1975
1975
1975
1975
1975
1975
1974
1974
1974
1974
1975
1975
1976
1976
1975
1974
1973
1973
1973
1975
1976
1977
1977
1977
1976
1975
1976
1976
1977
1977
1978
1979
1978
1977
1976
1976
1977
1980
1983
1985
1987
1987
1986
1984
1982
1981
1979
1978
1977
1976
1975
1974
1974
1975
1975
1975
1974
1974
1974
1975
1976
1977
1976
1974
1973
1975
1983
1999
2024
2053
2079
2086
2064
2019
1963
1919
1902
1914
1939
1963
1977
1978
1976
1974
1973
1974
1974
1974
1974
1974
1976
1977
1979
1979
1979
1979
1978
1978
1978
1978
1978
1979
1980
1980
1981
1981
1981
1981
1981
1983
1984
1986
1986
1987
1987
1987
1988
1990
1992
1994
1996
1997
1999
2001
2004
2007
2010
2012
2013
2015
2016
2018
2019
2020
2019
2018
2015
2013
2009
2005
2001
1997
1994
1990
1987
1984
1981
1979
1977
1976
1976
1976
1975
1974
1973
1973
1972
1972
1972
1972
1973
1974
1975
1975
1975
1974
1973
1973
1973
1974
1975
1975
1976
1977
1977
1976
1976
1976
1976
1977
1978
1978
1977
1977
1976
1975
1975
1976
1976
1976
1976
1976
1976
1977
1977
1976
1976
1976
1976
1976
1976
1976
1976
1976
1976
1976
1976
1975
1975
1975
1975
1976
1976
1976
1975
1974
1974
1974
1975
1976
1976
1976
1976
1975
1975
1974
1974
1974
1975
1975
1975
1975
1975
1975
1975
1975
1975
1974
1974
1974
1974
1975
1976
1977
1977
1976
1975
1974
1974
1974
1976
1978
1980
1982
1983
1985
1985
1985
1984
1982
1980
1978
1976
1975
1974
1974
1973
1974
1974
1974
1974
1974
1973
1973
1973
1973
1972
1970
1968
1967
1971
1979
1996
2021
2049
2072
2076
2054
2009
1956
1915
1900
1911
1935
1958
1970
1972
1969
1967
1966
1968
1970
1971
1971
1971
1970
1970
1970
1970
1971
1972
1972
1972
1972
1972
1972
1973
1974
1974
1974
1975
1975
1975
1975
1975
1974
1974
1975
1976
1978
1981
1983
1984
1984
1985
1986
1987
1989
1992
1995
1998
2001
2003
2005
2007
2008
2009
2010
2009
2009
2008
2007
2005
2003
1999
1994
1988
1983
1979
1976
1974
1972
1970
1968
1967
1965
1964
1963
1963
1963
1963
1964
1965
1965
1964
1963
1962
1962
1962
1963
1963
1964
1964
1965
1965
1964
1964
1963
1963
1964
1965
1966
1967
1966
1964
1962
1962
1962
1963
1964
1965
1965
1964
1963
1962
1962
1961
1960
1960
1960
1961
1961
1961
1961
1960
1959
1958
1957
1957
1958
1959
1959
1958
1957
1956
1956
1956
1956
1956
1956
1956
1956
1956
1957
1957
1957
1956
1956
1955
1956
1956
1956
1957
1956
1955
1954
1954
1954
1954
1954
1954
1955
1955
1955
1954
1954
1953
1952
1951
1952
1954
1957
1961
1963
1964
1962
1959
1958
1957
1958
1959
1959
1958
1956
1953
1952
1951
1952
1952
1953
1953
1952
1951
1950
1949
1948
1946
1944
1945
1950
1962
1982
2010
2041
2060
2058
2028
1977
1922
1884
1875
1890
1917
1941
1952
1954
1950
1947
1946
1948
1950
1953
1954
1955
1955
1954
1954
1954
1954
1954
1956
1957
1958
1958
1957
1956
1956
1957
1958
1959
1960
1960
1961
1962
1963
1964
1965
1965
1966
1967
1969
1971
1973
1974
1976
1978
1981
1984
1987
1990
1993
1996
1999
2001
2003
2004
2005
2006
2007
2007
2006
2004
2000
1996
1991
1986
1981
1977
1973
1970
1969
1967
1966
1965
1963
1962
1961
1960
1960
1960
1961
1962
1963
1963
1962
1961
1961
1961
1962
1963
1963
1963
1963
1964
1965
1965
1965
1965
1965
1965
1966
1967
1968
1969
1969
1968
1967
1966
1966
1967
1967
1968
1968
1967
1967
1966
1966
1966
1966
1967
1968
1969
1969
1969
1968
1967
1966
1966
1966
1966
1967
1967
1967
1968
1968
1968
1968
1968
1967
1967
1968
1968
1968
1968
1968
1967
1968
1968
1969
1970
1969
1969
1968
1968
1969
1970
1972
1974
1977
1979
1980
1979
1977
1975
1973
1970
1969
1967
1966
1965
1966
1967
1968
1969
1969
1968
1967
1967
1969
1970
1970
1969
1966
1965
1970
1984
2008
2041
2071
2087
2075
2036
1980
1927
1898
1897
1919
1946
1966
1973
1972
1969
1967
1967
1968
1969
1969
1969
1969
1970
1971
1971
1971
1971
1971
1971
1971
1971
1972
1973
1973
1974
1974
1974
1974
1973
1973
1973
1974
1976
1977
1979
1980
1981
1982
1982
1983
1984
1986
1989
1992
1996
1999
2003
2005
2007
2009
2011
2013
2016
2017
2018
2017
2015
2013
2010
2007
2004
2000
1996
1991
1986
1981
1977
1974
1972
1970
1969
1968
1967
1967
1967
1968
1969
1969
1968
1967
1966
1966
1966
1967
1968
1969
1970
1970
1970
1969
1969
1969
1970
1971
1972
1972
1973
1973
1972
1972
1972
1972
1972
1972
1973
1973
1974
1974
1975
1975
1975
1975
1975
1975
1975
1975
1975
1975
1974
1974
1974
1974
1975
1976
1977
1977
1976
1975
1974
1974
1975
1975
1975
1975
1975
1976
1977
1977
1977
1977
1976
1975
1975
1976
1976
1977
1977
1977
1978
1978
1978
1979
1978
1978
1978
1978
1978
1978
1978
1978
1978
1978
1978
1978
1977
1977
1977
1977
1978
1980
1982
1985
1987
1988
1988
1987
1985
1983
1981
1979
1978
1977
1977
1977
1978
1978
1977
1977
1976
1976
1977
1978
1979
1979
1978
1976
1976
1979
1989
2009
2038
2068
2090
2090
2061
2011
1956
1919
1909
1925
1951
1973
1982
1982
1979
1978
1978
1979
1980
1981
1981
1981
1981
1982
1982
1983
1983
1983
1983
1983
1984
1984
1985
1985
1986
1987
1988
1988
1988
1988
1988
1989
1990
1991
1992
1993
1994
1996
1997
1999
2000
2001
2003
2005
2007
2010
2012
2015
2017
2019
2022
2024
2026
2026
2026
2026
2025
2024
2023
2020
2017
2012
2008
2004
2000
1996
1993
1990
1986
1984
1982
1981
1981
1981
1981
1980
1979
1979
1979
1979
1979
1979
1979
1979
1980
1981
1982
1981
1981
1980
1980
1981
1982
1982
1982
1981
1981
1982
1982
1983
1983
1982
1982
1982
1982
1982
1982
1983
1983
1983
1984
1984
1984
1984
1983
1983
1983
1982
1982
1982
1981
1981
1981
1982
1982
1982
1982
1981
1980
1980
1980
1980
1980
1981
1982
1982
1981
1981
1980
1980
1980
1980
1980
1981
1981
1981
1981
1981
1980
1980
1980
1980
1981
1981
1982
1982
1981
1981
1980
1980
1980
1980
1981
1981
1982
1982
1981
1981
1980
1979
1979
1980
1980
1981
1981
1982
1984
1985
1986
1987
1988
1988
1987
1987
1985
1984
1982
1980
1979
1978
1978
1978
1978
1979
1979
1979
1978
1978
1977
1977
1977
1976
1974
1975
1979
1989
2007
2035
2063
2084
2083
2053
2004
1951
1915
1906
1921
1947
1969
1980
1980
1977
1974
1973
1973
1973
1974
1975
1976
1976
1976
1976
1976
1977
1978
1978
1978
1978
1978
1978
1979
1980
1981
1982
1983
1983
1982
1982
1981
1981
1982
1984
1986
1988
1990
1991
1992
1992
1993
1995
1997
1999
2002
2005
2009
2012
2014
2016
2017
2018
2019
2020
2021
2022
2022
2020
2017
2013
2007
2003
1999
1996
1993
1991
1988
1985
1983
1980
1978
1976
1975
1975
1975
1975
1976
1976
1975
1975
1975
1975
1975
1976
1977
1977
1978
1977
1977
1976
1976
1976
1976
1977
1978
1978
1979
1979
1978
1978
1977
1977
1977
1977
1978
1979
1979
1980
1980
1980
1980
1979
1978
1977
1977
1978
1979
1980
1980
1980
1979
1978
1978
1978
1978
1978
1978
1978
1978
1978
1978
1978
1977
1977
1977
1978
1979
1979
1979
1978
1977
1977
1977
1978
1978
1978
1978
1978
1979
1979
1979
1978
1978
1977
1978
1979
1980
1981
1981
1980
1978
1977
1977
1977
1978
1979
1980
1981
1981
1981
1982
1984
1985
1987
1988
1988
1987
1986
1983
1981
1979
1978
1978
1978
1978
1978
1978
1978
1978
1978
1978
1978
1978
1978
1978
1976
1974
1975
1981
1994
2017
2046
2072
2085
2072
2035
1981
1933
1908
1910
1932
1958
1976
1982
1980
1977
1976
1976
1977
1977
1977
1976
1976
1977
1978
1978
1979
1978
1977
1976
1976
1977
1978
1979
1980
1980
1979
1979
1979
1979
1979
1980
1980
1981
1982
1983
1985
1986
1987
1987
1987
1989
1992
1995
1999
2001
2003
2004
2005
2007
2009
2012
2014
2016
2017
2018
2019
2019
2018
2016
2012
2008
2003
1998
1995
1991
1989
1986
1983
1980
1978
1976
1974
1972
1971
1970
1970
1970
1970
1970
1969
1968
1968
1969
1970
1972
1972
1972
1972
1971
1971
1972
1972
1973
1973
1973
1972
1973
1973
1973
1973
1972
1972
1971
1971
1972
1973
1974
1975
1974
1973
1972
1972
1974
1975
1976
1976
1976
1976
1976
1976
1975
1974
1974
1973
1974
1974
1975
1976
1976
1975
1974
1973
1973
1973
1974
1976
1977
1977
1976
1974
1973
1973
1973
1974
1975
1976
1977
1977
1977
1975
1974
1973
1973
1975
1977
1979
1981
1983
1984
1985
1985
1983
1981
1979
1977
1976
1975
1975
1974
1974
1973
1973
1973
1974
1974
1974
1973
1973
1972
1972
1971
1969
1966
1965
1970
1984
2008
2040
2069
2084
2074
2038
1983
1929
1895
1889
1905
1931
1954
1966
1969
1968
1966
1965
1966
1967
1967
1966
1966
1966
1966
1968
1970
1971
1972
1973
1972
1972
1972
1972
1973
1973
1973
1974
1975
1976
1977
1978
1978
1978
1979
1979
1981
1982
1984
1985
1986
1987
1989
1991
1993
1995
1997
1999
2002
2006
2011
2014
2016
2017
2017
2018
2019
2020
2019
2018
2015
2012
2008
2003
1998
1992
1986
1982
1979
1977
1976
1974
1973
1971
1970
1970
1970
1971
1971
1971
1971
1971
1971
1971
1971
1971
1970
1970
1970
1971
1971
1972
1972
1972
1972
1973
1973
1974
1975
1976
1977
1977
1976
1975
1975
1976
1977
1979
1980
1980
1980
1979
1978
1978
1978
1978
1979
1980
1981
1981
1980
1979
1977
1976
1975
1976
1978
1980
1981
1981
1981
1980
1979
1978
1978
1977
1977
1978
1979
1980
1981
1981
1980
1979
1978
1977
1977
1977
1977
1977
1977
1978
1980
1982
1985
1987
1989
1989
1988
1987
1986
1985
1984
1982
1979
1977
1976
1976
1977
1978
1979
1978
1978
1977
1977
1977
1977
1977
1976
1975
1975
1979
1988
2006
2034
2066
2091
2094
2067
2016
1958
1915
1902
1916
1942
1966
1978
1980
1978
1976
1976
1977
1978
1978
1978
1978
1979
1979
1980
1980
1980
1981
1981
1981
1982
1982
1983
1983
1983
1984
1984
1984
1984
1984
1984
1985
1987
1989
1991
1992
1993
1994
1994
1995
1996
1998
2000
2002
2005
2008
2011
2014
2016
2018
2020
2022
2024
2025
2027
2027
2026
2025
2022
2019
2014
2010
2005
2002
1998
1994
1990
1987
1985
1983
1981
1980
1979
1978
1978
1978
1978
1978
1977
1977
1976
1976
1976
1978
1978
1978
1978
1978
1978
1978
1978
1978
1978
1978
1978
1978
1979
1979
1979
1978
1978
1978
1978
1978
1980
1981
1981
1981
1980
1978
1977
1977
1978
1979
1980
1981
1981
1981
1980
1979
1978
1978
1978
1978
1979
1979
1980
1980
1980
1980
1979
1979
1978
1978
1978
1978
1977
1978
1978
1979
1980
1980
1980
1980
1980
1980
1980
1979
1979
1979
1978
1978
1978
1978
1978
1979
1979
1980
1979
1978
1977
1977
1978
1981
1985
1987
1989
1989
1988
1987
1985
1983
1981
1979
1979
1978
1978
1977
1976
1975
1975
1974
1975
1976
1976
1976
1977
1977
1976
1974
1972
1971
1975
1985
2005
2033
2063
2085
2086
2059
2010
1954
1914
1902
1916
1943
1967
1979
1980
1977
1973
1972
1972
1973
1974
1974
1976
1976
1976
1976
1976
1976
1976
1977
1978
1979
1979
1980
1980
1981
1981
1981
1981
1981
1981
1982
1984
1985
1986
1986
1986
1987
1988
1989
1991
1993
1995
1996
1997
1998
2001
2004
2007
2011
2014
2017
2018
2019
2020
2020
2019
2019
2018
2016
2014
2011
2008
2003
1999
1994
1990
1987
1984
1982
1981
1980
1979
1978
1976
1975
1974
1974
1973
1974
1974
1975
1976
1977
1977
1976
1975
1974
1974
1975
1976
1977
1977
1977
1976
1976
1975
1976
1976
1977
1977
1978
1978
1978
1978
1978
1978
1977
1977
1976
1976
1977
1978
1979
1979
1978
1977
1977
1977
1977
1978
1978
1977
1976
1976
1975
1975
1975
1975
1975
1975
1975
1976
1976
1976
1975
1975
1974
1974
1974
1975
1975
1976
1976
1976
1976
1976
1976
1976
1976
1976
1976
1976
1975
1975
1975
1975
1975
1975
1975
1975
1975
1975
1974
1973
1972
1972
1973
1976
1979
1981
1983
1984
1984
1983
1982
1979
1977
1975
1974
1974
1973
1973
1972
1972
1971
1971
1971
1970
1969
1969
1970
1972
1973
1971
1969
1967
1971
1983
2004
2033
2060
2076
2070
2038
1988
1937
1905
1901
1920
1946
1966
1975
1975
1972
1970
1970
1971
1972
1973
1973
1974
1975
1975
1976
1976
1976
1976
1976
1977
1977
1977
1978
1979
1980
1981
1981
1982
1982
1983
1984
1984
1985
1985
1985
1986
1987
1988
1990
1992
1994
1996
1998
1999
2001
2003
2006
2009
2012
2014
2016
2017
2019
2021
2022
2022
2022
2021
2019
2017
2013
2009
2005
2001
1996
1992
1988
1985
1981
1979
1978
1978
1978
1978
1978
1977
1976
1976
1976
1976
1976
1975
1975
1975
1975
1976
1976
1976
1975
1975
1975
1976
1977
1977
1978
1977
1977
1976
1976
1976
1976
1976
1977
1977
1977
1977
1977
1977
1977
1977
1978
1978
1978
1977
1977
1976
1975
1975
1975
1975
1977
1978
1978
1978
1977
1976
1975
1975
1976
1976
1976
1976
1976
1976
1975
1975
1974
1974
1974
1974
1974
1975
1975
1975
1975
1974
1973
1972
1972
1973
1975
1976
1977
1977
1976
1976
1976
1975
1975
1975
1975
1975
1975
1975
1974
1973
1972
1972
1973
1974
1976
1978
1980
1982
1983
1983
1982
1980
1979
1977
1976
1975
1974
1973
1972
1972
1971
1972
1973
1974
1975
1975
1975
1975
1975
1974
1972
1968
1966
1969
1980
2000
2029
2059
2079
2077
2048
1999
1944
1904
1891
1904
1930
1954
1968
1972
1969
1966
1965
1966
1967
1968
1968
1967
1965
1964
1964
1965
1966
1967
1969
1970
1969
1969
1968
1968
1968
1969
1970
1971
1972
1972
1973
1973
1974
1974
1974
1974
1975
1977
1980
1982
1984
1986
1987
1988
1990
1992
1994
1996
1998
2000
2004
2007
2010
2011
2011
2011
2010
2010
2009
2006
2002
1997
1993
1989
1985
1981
1977
1973
1970
1967
1965
1963
1961
1960
1959
1959
1959
1959
1959
1959
1959
1959
1959
1959
1958
1958
1957
1958
1958
1960
1961
1961
1962
1961
1961
1961
1961
1961
1962
1963
1963
1963
1963
1963
1963
1963
1962
1962
1963
1964
1966
1966
1966
1965
1964
1963
1963
1964
1964
1965
1966
1966
1966
1965
1965
1964
1964
1965
1966
1966
1966
1966
1966
1965
1965
1964
1964
1965
1966
1967
1968
1968
1967
1966
1965
1965
1968
1971
1974
1976
1978
1978
1977
1975
1973
1971
1970
1969
1968
1968
1968
1968
1969
1969
1968
1967
1967
1968
1969
1970
1970
1970
1968
1965
1963
1966
1975
1994
2023
2055
2080
2085
2062
2014
1955
1909
1890
1899
1924
1952
1969
1975
1973
1971
1969
1968
1969
1970
1972
1973
1973
1974
1974
1973
1973
1974
1975
1977
1978
1979
1979
1979
1979
1979
1979
1980
1981
1982
1983
1984
1985
1986
1986
1987
1988
1989
1991
1993
1995
1998
2000
2003
2005
2008
2010
2012
2015
2019
2022
2025
2027
2028
2029
2029
2029
2028
2026
2023
2019
2016
2011
2006
2000
1994
1989
1985
1983
1981
1980
1979
1978
1977
1976
1975
1975
1974
1974
1974
1974
1974
1975
1975
1975
1975
1975
1975
1975
1975
1976
1976
1977
1977
1977
1977
1976
1975
1975
1976
1978
1979
1979
1979
1979
1978
1978
1979
1979
1980
1980
1980
1980
1980
1980
1980
1980
1979
1978
1978
1978
1979
1980
1980
1980
1980
1980
1979
1979
1979
1980
1980
1980
1981
1981
1980
1980
1979
1979
1979
1979
1980
1980
1980
1980
1979
1979
1978
1978
1979
1979
1980
1980
1980
1980
1981
1983
1985
1987
1989
1989
1988
1987
1985
1983
1982
1980
1979
1978
1977
1977
1977
1978
1978
1978
1978
1977
1977
1977
1978
1978
1976
1974
1973
1977
1986
2003
2030
2061
2087
2093
2070
2023
1965
1920
1902
1913
1939
1965
1978
1981
1978
1975
1974
1974
1976
1976
1977
1976
1976
1976
1976
1977
1978
1979
1979
1978
1977
1977
1978
1980
1981
1982
1982
1982
1981
1981
1981
1982
1983
1984
1986
1988
1988
1989
1990
1991
1993
1996
1998
2000
2002
2004
2006
2008
2010
2012
2015
2017
2020
2022
2022
2022
2021
2020
2017
2014
2011
2007
2003
2000
1996
1992
1989
1986
1982
1979
1976
1975
1974
1975
1976
1976
1976
1975
1974
1972
1972
1972
1973
1974
1975
1975
1975
1974
1973
1972
1972
1972
1973
1975
1976
1976
1976
1975
1974
1973
1974
1974
1975
1976
1977
1977
1977
1977
1976
1975
1974
1975
1976
1977
1977
1977
1977
1976
1975
1975
1975
1975
1976
1976
1976
1975
1975
1975
1975
1975
1974
1973
1973
1974
1974
1975
1975
1975
1975
1975
1974
1974
1975
1975
1976
1977
1976
1976
1975
1974
1974
1975
1976
1976
1976
1976
1976
1976
1976
1976
1976
1976
1976
1976
1977
1977
1977
1977
1976
1975
1975
1976
1978
1981
1984
1985
1986
1985
1984
1981
1979
1977
1976
1975
1975
1975
1975
1975
1974
1973
1973
1972
1973
1974
1976
1978
1979
1977
1974
1971
1971
1978
1993
2016
2046
2073
2086
2073
2034
1979
1930
1904
1906
1929
1957
1975
1980
1977
1972
1969
1968
1969
1970
1971
1972
1972
1971
1972
1972
1973
1973
1974
1974
1974
1975
1976
1978
1980
1980
1979
1978
1977
1978
1980
1982
1983
1984
1983
1983
1983
1985
1987
1989
1991
1993
1994
1995
1996
1998
1999
2001
2004
2007
2010
2013
2016
2017
2017
2017
2016
2015
2015
2014
2012
2010
2006
2002
1996
1991
1987
1984
1982
1980
1979
1978
1977
1976
1975
1974
1973
1973
1973
1973
1974
1974
1974
1973
1972
1971
1971
1972
1973
1974
1976
1978
1978
1978
1976
1974
1973
1974
1976
1977
1978
1979
1979
1979
1978
1977
1976
1975
1975
1976
1977
1977
1978
1978
1978
1976
1974
1973
1973
1974
1975
1975
1975
1975
1975
1975
1975
1975
1975
1975
1976
1976
1976
1976
1976
1975
1975
1974
1974
1975
1975
1976
1975
1975
1975
1974
1974
1974
1974
1974
1974
1975
1976
1976
1976
1975
1974
1973
1973
1974
1975
1976
1976
1975
1974
1973
1973
1974
1975
1975
1975
1975
1974
1973
1973
1975
1977
1979
1981
1983
1984
1984
1983
1982
1980
1978
1976
1974
1974
1974
1974
1974
1974
1974
1972
1971
1970
1969
1970
1971
1971
1969
1967
1966
1969
1979
1999
2027
2056
2076
2074
2044
1994
1940
1904
1895
1911
1938
1961
1972
1973
1970
1968
1967
1968
1969
1969
1969
1969
1969
1969
1970
1971
1972
1972
1972
1971
1971
1971
1972
1974
1975
1977
1977
1976
1975
1974
1973
1973
1975
1977
1980
1981
1983
1983
1983
1983
1983
1984
1987
1990
1992
1995
1998
2002
2004
2007
2008
2010
2012
2014
2016
2018
2018
2017
2014
2011
2007
2003
1998
1993
1988
1983
1979
1975
1972
1970
1968
1967
1965
1965
1965
1965
1964
1963
1960
1958
1957
1957
1958
1959
1960
1961
1962
1963
1963
1962
1960
1960
1960
1961
1963
1965
1965
1965
1964
1964
1964
1965
1965
1966
1966
1966
1966
1966
1965
1963
1961
1961
1962
1963
1964
1964
1962
1961
1959
1959
1960
1960
1961
1961
1961
1959
1958
1957
1957
1957
1958
1959
1960
1960
1960
1961
1962
1962
1961
1961
1960
1961
1963
1966
1968
1970
1971
1972
1972
1972
1970
1969
1967
1965
1965
1964
1964
1963
1963
1962
1961
1961
1961
1961
1962
1963
1963
1963
1963
1962
1960
1957
1958
1966
1983
2011
2045
2071
2078
2057
2011
1952
1904
1881
1886
1911
1938
1957
1964
1964
1962
1962
1962
1964
1964
1964
1964
1964
1965
1965
1966
1967
1967
1967
1967
1968
1968
1968
1968
1968
1968
1968
1969
1970
1971
1972
1973
1974
1974
1973
1974
1975
1978
1981
1983
1985
1987
1988
1989
1990
1992
1995
1999
2003
2008
2012
2014
2016
2018
2018
2019
2019
2019
2017
2015
2012
2008
2003
1998
1992
1987
1983
1978
1975
1973
1971
1969
1969
1968
1967
1966
1966
1967
1968
1970
1971
1971
1970
1969
1969
1968
1968
1969
1969
1970
1971
1971
1972
1972
1972
1972
1973
1973
1974
1974
1975
1975
1975
1975
1975
1975
1975
1976
1977
1978
1978
1978
1977
1977
1977
1978
1978
1979
1979
1978
1978
1978
1978
1978
1978
1978
1978
1977
1978
1979
1979
1980
1980
1979
1978
1978
1977
1977
1978
1980
1983
1986
1988
1989
1989
1988
1986
1985
1984
1983
1982
1981
1979
1978
1978
1979
1980
1981
1980
1980
1979
1980
1981
1981
1981
1979
1977
1975
1977
1985
2003
2031
2064
2091
2096
2070
2020
1960
1915
1899
1912
1940
1965
1978
1979
1976
1974
1975
1977
1980
1981
1981
1980
1980
1981
1982
1983
1983
1984
1984
1984
1984
1984
1984
1983
1984
1985
1987
1988
1988
1989
1989
1990
1990
1991
1992
1993
1994
1995
1997
1999
2000
2001
2002
2003
2006
2010
2014
2017
2020
2022
2024
2025
2026
2027
2029
2029
2029
2027
2025
2022
2019
2015
2010
2005
1999
1995
1992
1989
1988
1986
1985
1984
1982
1981
1979
1978
1978
1979
1980
1981
1981
1980
1979
1978
1978
1978
1979
1980
1980
1981
1982
1982
1982
1982
1981
1981
1981
1981
1980
1979
1979
1978
1978
1977
1977
1978
1978
1980
1981
1982
1982
1981
1981
1980
1979
1978
1977
1977
1978
1980
1981
1981
1981
1981
1980
1979
1979
1980
1980
1981
1980
1979
1978
1977
1977
1977
1978
1979
1980
1981
1981
1980
1980
1979
1978
1977
1978
1980
1983
1986
1988
1989
1989
1986
1984
1981
1980
1979
1978
1977
1976
1975
1974
1974
1974
1975
1975
1976
1976
1976
1977
1977
1976
1974
1972
1971
1976
1987
2008
2037
2068
2091
2090
2060
2008
1952
1913
1904
1920
1947
1970
1979
1978
1975
1973
1973
1974
1975
1975
1976
1976
1977
1978
1977
1977
1977
1977
1978
1980
1981
1982
1982
1981
1981
1981
1981
1982
1983
1984
1984
1984
1985
1986
1987
1988
1989
1990
1991
1992
1994
1996
1998
2000
2002
2005
2007
2010
2013
2016
2018
2019
2020
2020
2020
2020
2021
2020
2019
2016
2012
2008
2003
1998
1994
1989
1986
1983
1981
1980
1979
1978
1978
1976
1975
1974
1974
1974
1975
1975
1976
1976
1976
1975
1974
1974
1974
1974
1975
1976
1976
1976
1976
1976
1976
1976
1976
1976
1977
1978
1979
1979
1978
1978
1978
1977
1976
1976
1976
1977
1978
1978
1978
1977
1976
1976
1976
1976
1976
1977
1977
1978
1977
1976
1976
1976
1977
1977
1977
1977
1976
1976
1975
1975
1975
1975
1975
1975
1976
1976
1976
1976
1976
1976
1976
1975
1975
1975
1976
1976
1976
1976
1975
1975
1975
1974
1974
1974
1975
1976
1977
1977
1976
1975
1974
1975
1977
1980
1982
1985
1986
1985
1983
1980
1976
1974
1973
1974
1975
1975
1975
1974
1972
1972
1972
1972
1972
1973
1973
1973
1973
1971
1969
1967
1969
1976
1990
2013
2041
2067
2080
2068
2030
1976
1928
1903
1906
1928
1954
1971
1976
1974
1970
1968
1968
1969
1970
1971
1972
1973
1973
1973
1974
1974
1974
1975
1975
1975
1976
1977
1977
1978
1978
1977
1977
1977
1978
1979
1981
1983
1983
1984
1984
1984
1985
1985
1986
1987
1987
1988
1990
1992
1995
1998
2000
2002
2004
2006
2008
2011
2012
2014
2014
2014
2014
2013
2011
2008
2005
2001
1997
1992
1988
1983
1980
1978
1976
1975
1974
1973
1972
1971
1970
1970
1969
1969
1969
1969
1970
1970
1971
1971
1970
1970
1970
1970
1970
1971
1971
1971
1971
1971
1971
1971
1971
1971
1972
1972
1973
1973
1973
1973
1973
1973
1973
1973
1973
1973
1974
1974
1973
1972
1971
1970
1968
1968
1968
1968
1969
1970
1970
1971
1972
1971
1971
1970
1969
1969
1970
1971
1971
1971
1970
1969
1969
1969
1969
1970
1970
1971
1971
1971
1970
1970
1969
1970
1970
1971
1972
1973
1973
1972
1971
1971
1970
1970
1970
1971
1972
1972
1973
1972
1971
1970
1969
1970
1971
1974
1977
1979
1981
1982
1982
1981
1979
1977
1975
1974
1974
1974
1974
1975
1974
1973
1972
1970
1969
1969
1970
1971
1972
1973
1973
1971
1969
1966
1967
1974
1988
2010
2040
2066
2078
2065
2027
1973
1925
1900
1902
1925
1951
1970
1975
1973
1969
1966
1966
1967
1969
1970
1971
1972
1971
1970
1969
1969
1968
1969
1970
1971
1972
1973
1973
1972
1972
1972
1972
1973
1974
1975
1976
1976
1977
1978
1979
1980
1980
1981
1982
1982
1982
1983
1985
1988
1991
1995
1998
2001
2003
2006
2009
2012
2014
2015
2015
2015
2014
2012
2011
2009
2006
2002
1997
1992
1987
1982
1978
1975
1973
1972
1970
1968
1966
1964
1963
1964
1964
1965
1964
1963
1962
1961
1960
1961
1961
1961
1962
1963
1963
1964
1964
1964
1964
1965
1965
1966
1966
1966
1966
1966
1967
1967
1967
1967
1967
1967
1965
1964
1963
1964
1965
1967
1967
1967
1966
1965
1965
1965
1966
1966
1966
1965
1964
1963
1962
1961
1961
1961
1961
1961
1961
1961
1961
1960
1960
1960
1961
1962
1962
1962
1962
1961
1960
1960
1960
1961
1960
1961
1961
1963
1966
1968
1970
1971
1971
1969
1967
1966
1964
1963
1962
1961
1960
1959
1959
1959
1960
1960
1961
1961
1962
1963
1963
1963
1963
1961
1959
1958
1962
1974
1996
2026
2055
2072
2064
2029
1974
1920
1886
1880
1898
1925
1949
1961
1963
1961
1960
1960
1962
1963
1964
1965
1965
1966
1966
1966
1966
1967
1968
1969
1970
1970
1970
1970
1970
1971
1972
1974
1975
1977
1977
1977
1977
1977
1978
1979
1981
1983
1984
1986
1986
1987
1989
1991
1993
1997
2001
2005
2008
2011
2014
2017
2019
2020
2021
2022
2022
2023
2024
2023
2020
2015
2010
2004
1998
1993
1989
1985
1982
1980
1978
1977
1976
1975
1974
1973
1973
1973
1974
1974
1974
1974
1974
1974
1974
1974
1974
1974
1974
1975
1975
1975
1975
1975
1975
1975
1976
1976
1977
1977
1977
1978
1978
1977
1977
1977
1977
1977
1978
1979
1980
1981
1981
1980
1979
1978
1978
1978
1978
1979
1979
1979
1979
1979
1978
1978
1978
1978
1978
1978
1978
1978
1977
1977
1976
1976
1977
1978
1979
1979
1979
1979
1978
1977
1977
1978
1978
1979
1979
1979
1978
1976
1976
1976
1978
1981
1985
1987
1988
1989
1988
1986
1984
1981
1979
1978
1977
1977
1977
1978
1978
1978
1977
1977
1977
1977
1977
1978
1979
1979
1978
1976
1975
1979
1989
2008
2037
2068
2091
2090
2060
2008
1952
1914
1906
1922
1949
1971
1980
1980
1978
1976
1976
1976
1976
1976
1976
1977
1978
1979
1980
1980
1980
1979
1979
1978
1979
1980
1981
1983
1983
1983
1983
1983
1982
1983
1983
1984
1985
1987
1988
1989
1990
1990
1991
1992
1994
1997
1999
2002
2004
2006
2009
2011
2014
2016
2018
2020
2023
2025
2026
2026
2025
2022
2020
2017
2013
2009
2005
2001
1997
1993
1990
1987
1984
1982
1981
1979
1979
1978
1978
1978
1978
1977
1976
1976
1976
1977
1978
1978
1979
1979
1978
1978
1977
1977
1977
1978
1978
1979
1979
1979
1978
1978
1977
1977
1977
1977
1978
1979
1979
1980
1980
1980
1979
1978
1978
1978
1978
1979
1979
1980
1979
1979
1978
1977
1976
1977
1977
1978
1978
1978
1978
1978
1978
1979
1980
1980
1980
1980
1979
1979
1978
1978
1978
1979
1979
1980
1980
1980
1980
1980
1980
1980
1979
1979
1979
1980
1980
1980
1980
1980
1980
1982
1984
1987
1989
1991
1991
1990
1988
1986
1984
1982
1981
1979
1978
1977
1978
1979
1979
1979
1978
1977
1976
1976
1977
1979
1979
1978
1976
1976
1981
1991
2011
2039
2068
2088
2085
2054
2004
1950
1914
1907
1923
1950
1971
1981
1982
1980
1978
1978
1978
1978
1978
1978
1978
1979
1980
1981
1981
1982
1981
1981
1981
1982
1982
1983
1984
1984
1984
1985
1985
1986
1987
1988
1989
1990
1990
1991
1991
1992
1994
1995
1996
1997
1998
2000
2002
2005
2007
2010
2013
2016
2018
2021
2023
2024
2026
2027
2028
2028
2027
2024
2021
2017
2014
2010
2007
2004
2001
1997
1993
1990
1987
1985
1984
1983
1983
1982
1982
1982
1981
1980
1980
1979
1979
1980
1981
1981
1981
1981
1981
1981
1981
1981
1981
1981
1981
1981
1981
1982
1981
1981
1981
1980
1979
1979
1978
1978
1978
1979
1979
1979
1978
1978
1978
1978
1977
1978
1978
1978
1978
1977
1976
1976
1975
1976
1976
1977
1977
1977
1976
1976
1975
1975
1975
1975
1976
1977
1977
1977
1976
1975
1974
1974
1974
1974
1975
1975
1976
1976
1976
1975
1974
1973
1973
1974
1975
1976
1976
1976
1975
1975
1975
1975
1974
1974
1975
1977
1979
1982
1984
1985
1984
1983
1981
1980
1979
1978
1977
1976
1974
1974
1973
1974
1974
1975
1976
1976
1977
1977
1977
1977
1977
1976
1974
1973
1975
1982
1996
2019
2048
2071
2078
2059
2017
1964
1922
1904
1913
1938
1963
1976
1978
1975
1972
1971
1972
1974
1975
1975
1975
1975
1974
1974
1974
1974
1975
1976
1976
1977
1977
1977
1977
1977
1977
1978
1979
1980
1981
1982
1982
1981
1981
1981
1983
1985
1988
1990
1992
1993
1993
1994
1995
1997
1999
2003
2006
2008
2010
2011
2012
2013
2015
2017
2018
2019
2019
2017
2015
2012
2008
2003
1998
1993
1988
1985
1983
1982
1981
1980
1979
1977
1975
1973
1973
1973
1974
1975
1975
1974
1974
1973
1972
1972
1973
1974
1975
1977
1977
1976
1974
1973
1973
1973
1974
1975
1975
1975
1974
1974
1974
1974
1974
1974
1974
1975
1976
1976
1976
1975
1974
1973
1973
1972
1971
1971
1972
1973
1974
1974
1973
1973
1973
1973
1974
1974
1974
1973
1972
1971
1971
1970
1970
1970
1970
1971
1972
1972
1972
1971
1970
1969
1968
1969
1970
1971
1972
1973
1973
1973
1973
1973
1973
1972
1972
1972
1972
1972
1972
1973
1973
1972
1972
1972
1971
1972
1973
1974
1974
1973
1972
1971
1971
1973
1976
1980
1983
1985
1985
1983
1980
1977
1975
1974
1974
1975
1975
1974
1973
1972
1971
1970
1969
1968
1968
1969
1970
1971
1971
1969
1967
1968
1974
1988
2012
2041
2065
2073
2055
2015
1962
1919
1900
1907
1930
1954
1969
1972
1969
1966
1964
1964
1965
1966
1966
1967
1967
1968
1970
1971
1972
1972
1971
1971
1970
1970
1971
1972
1973
1974
1974
1974
1974
1974
1973
1974
1975
1977
1979
1980
1980
1981
1981
1982
1984
1985
1987
1989
1992
1994
1997
1999
2001
2003
2004
2006
2007
2009
2010
2011
2011
2010
2009
2007
2005
2003
1999
1995
1990
1985
1980
1977
1974
1972
1970
1970
1969
1968
1967
1966
1964
1961
1960
1959
1960
1961
1962
1963
1963
1962
1962
1962
1962
1962
1963
1963
1964
1964
1965
1965
1964
1963
1963
1962
1962
1963
1963
1964
1963
1963
1963
1963
1963
1964
1963
1963
1963
1963
1963
1963
1963
1963
1962
1961
1961
1962
1963
1964
1965
1964
1963
1962
1962
1962
1963
1964
1965
1965
1965
1965
1964
1964
1964
1964
1964
1964
1965
1965
1966
1966
1966
1965
1964
1962
1961
1960
1960
1960
1960
1960
1960
1960
1960
1960
1961
1961
1962
1963
1964
1967
1970
1972
1973
1973
1972
1971
1970
1969
1967
1965
1964
1962
1961
1961
1962
1963
1964
1964
1963
1962
1962
1962
1962
1961
1959
1958
1962
1972
1992
2019
2048
2068
2067
2040
1991
1938
1900
1888
1900
1925
1948
1960
1964
1962
1961
1961
1961
1962
1962
1962
1963
1962
1962
1962
1962
1963
1964
1965
1965
1965
1964
1964
1964
1965
1965
1965
1966
1967
1968
1969
1969
1969
1969
1970
1971
1973
1974
1976
1977
1979
1980
1981
1983
1985
1987
1990
1994
1997
2000
2002
2004
2006
2008
2010
2012
2013
2013
2011
2009
2005
1999
1993
1987
1982
1978
1974
1972
1969
1967
1965
1963
1961
1960
1959
1958
1959
1959
1960
1961
1961
1961
1960
1959
1959
1959
1959
1959
1959
1960
1960
1960
1961
1961
1961
1962
1962
1962
1962
1961
1961
1962
1962
1962
1963
1963
1963
1964
1964
1964
1964
1964
1963
1962
1961
1961
1961
1962
1962
1963
1963
1963
1963
1962
1962
1961
1961
1961
1962
1962
1962
1962
1961
1960
1959
1959
1960
1961
1961
1961
1961
1961
1961
1963
1965
1968
1970
1971
1971
1969
1966
1963
1961
1960
1960
1960
1961
1961
1961
1960
1960
1959
1958
1958
1959
1960
1961
1962
1962
1960
1958
1959
1966
1983
2009
2041
2065
2071
2050
2005
1949
1904
1884
1891
1915
1941
1959
1966
1966
1964
1963
1963
1964
1964
1965
1965
1966
1967
1968
1969
1969
1970
1969
1969
1968
1968
1969
1970
1971
1972
1973
1973
1973
1973
1973
1974
1976
1978
1979
1979
1980
1980
1981
1982
1984
1986
1989
1991
1993
1996
1999
2002
2004
2007
2009
2011
2014
2016
2019
2021
2021
2020
2018
2014
2010
2005
2000
1995
1990
1985
1981
1978
1974
1972
1970
1969
1968
1967
1967
1967
1967
1967
1967
1966
1965
1964
1965
1966
1968
1968
1968
1967
1966
1966
1966
1967
1968
1969
1970
1970
1970
1969
1968
1967
1967
1968
1969
1971
1972
1972
1972
1971
1970
1969
1969
1969
1970
1971
1971
1971
1971
1971
1970
1970
1969
1969
1969
1970
1970
1971
1971
1971
1970
1969
1969
1969
1970
1970
1970
1970
1969
1969
1970
1970
1970
1970
1970
1971
1971
1971
1970
1970
1969
1969
1972
1975
1979
1982
1984
1983
1981
1979
1977
1975
1973
1972
1971
1971
1971
1972
1973
1973
1973
1972
1971
1971
1972
1973
1974
1974
1972
1970
1970
1974
1987
2010
2041
2072
2091
2082
2045
1989
1935
1904
1903
1924
1951
1970
1977
1976
1974
1972
1972
1972
1972
1973
1974
1975
1975
1975
1976
1976
1977
1978
1978
1978
1979
1979
1979
1979
1979
1979
1980
1980
1980
1980
1980
1981
1982
1983
1984
1985
1987
1988
1990
1992
1994
1995
1996
1997
1999
2001
2004
2007
2009
2012
2014
2016
2019
2020
2021
2021
2020
2017
2014
2011
2008
2004
2001
1998
1994
1990
1986
1983
1980
1978
1977
1976
1976
1975
1974
1973
1972
1971
1970
1971
1972
1973
1973
1973
1973
1973
1973
1972
1971
1971
1971
1972
1973
1974
1973
1972
1972
1972
1972
1972
1972
1972
1972
1972
1973
1973
1973
1972
1972
1972
1972
1973
1973
1974
1974
1973
1973
1972
1971
1971
1971
1971
1972
1972
1972
1972
1971
1971
1971
1972
1972
1973
1972
1971
1970
1970
1970
1971
1971
1972
1972
1972
1972
1972
1972
1972
1972
1972
1972
1973
1974
1974
1975
1974
1974
1973
1972
1972
1973
1973
1974
1975
1975
1975
1975
1977
1978
1981
1983
1984
1985
1984
1983
1982
1981
1979
1976
1974
1972
1971
1972
1973
1974
1974
1974
1973
1973
1972
1973
1973
1973
1973
1971
1970
1973
1981
1997
2021
2050
2075
2082
2062
2018
1964
1920
1903
1913
1937
1962
1976
1978
1975
1972
1971
1972
1973
1973
1974
1974
1974
1975
1976
1977
1977
1977
1977
1977
1977
1977
1978
1979
1981
1982
1983
1983
1983
1982
1982
1983
1984
1985
1986
1987
1988
1989
1989
1990
1992
1994
1996
1998
2001
2003
2006
2008
2010
2012
2013
2015
2017
2019
2021
2022
2023
2022
2021
2018
2015
2011
2006
2002
1999
1995
1991
1988
1985
1983
1982
1980
1979
1979
1979
1979
1979
1979
1978
1977
1976
1975
1975
1976
1978
1979
1979
1979
1978
1977
1977
1977
1978
1978
1978
1979
1979
1979
1979
1979
1979
1979
1979
1979
1980
1981
1981
1981
1981
1981
1981
1981
1981
1982
1982
1982
1982
1981
1981
1980
1980
1979
1980
1980
1981
1982
1983
1983
1982
1982
1981
1980
1980
1980
1981
1982
1983
1983
1983
1982
1981
1981
1981
1981
1982
1982
1982
1982
1982
1982
1982
1983
1983
1984
1984
1984
1984
1984
1984
1984
1983
1983
1984
1984
1985
1986
1986
1986
1985
1984
1983
1982
1982
1983
1984
1985
1985
1986
1985
1985
1984
1984
1984
1985
1985
1986
1987
1989
1991
1993
1995
1995
1995
1993
1992
1990
1988
1987
