1981
1976
1971
1968
1965
1963
1961
1959
1957
1956
1955
1955
1955
1956
1956
1957
1957
1956
1956
1956
1955
1955
1956
1956
1957
1958
1959
1959
1959
1958
1958
1958
1958
1959
1960
1960
1960
1960
1960
1960
1960
1960
1960
1961
1961
1962
1962
1962
1961
1961
1961
1961
1961
1962
1962
1963
1963
1963
1963
1963
1963
1963
1963
1963
1964
1964
1964
1964
1964
1964
1964
1964
1964
1965
1965
1966
1966
1966
1966
1966
1965
1965
1966
1966
1967
1967
1968
1968
1968
1967
1967
1967
1967
1968
1968
1969
1969
1969
1969
1968
1968
1968
1968
1969
1969
1970
1970
1970
1970
1969
1969
1969
1970
1970
1971
1971
1971
1971
1971
1971
1971
1971
1971
1971
1972
1972
1972
1972
1972
1971
1971
1971
1972
1972
1973
1973
1973
1973
1973
1972
1972
1972
1972
1973
1973
1974
1974
1974
1974
1973
1973
1973
1973
1973
1974
1974
1974
1974
1974
1973
1973
1973
1973
1972
1972
1971
1971
1971
1972
1974
1977
1980
1983
1986
1986
1986
1984
1983
1981
1980
1979
1977
1975
1974
1974
1974
1974
1974
1974
1973
1973
1973
1973
1974
1975
1977
1977
1975
1969
1960
1952
1959
1987
2037
2093
2129
2125
2076
2005
1941
1907
1909
1935
1966
1985
1993
1991
1986
1982
1979
1978
1978
1979
1981
1982
1983
1984
1984
1984
1984
1985
1986
1987
1987
1988
1989
1990
1990
1991
1991
1992
1992
1993
1995
1997
1998
1999
2000
2000
2001
2002
2003
2004
2006
2008
2010
2012
2014
2015
2017
2018
2021
2024
2027
2031
2035
2039
2042
2045
2048
2049
2052
2055
2057
2059
2059
2057
2054
2048
2041
2033
2025
2017
2009
2001
1994
1987
1982
1977
1973
1969
1967
1965
1964
1964
1964
1963
1963
1962
1960
1960
1960
1961
1962
1963
1964
1964
1964
1964
1963
1963
1963
1964
1965
1965
1966
1966
1966
1965
1965
1965
1966
1966
1967
1968
1969
1969
1969
1968
1968
1967
1967
1968
1968
1969
1969
1970
1970
1971
1971
1971
1970
1970
1971
1972
1972
1972
1972
1971
1972
1972
1972
1973
1973
1973
1973
1974
1974
1974
1975
1976
1976
1976
1976
1976
1976
1976
1976
1976
1976
1977
1977
1977
1978
1978
1979
1980
1980
1979
1978
1978
1978
1979
1981
1982
1982
1981
1981
1980
1980
1980
1979
1980
1980
1981
1981
1981
1981
1981
1980
1980
1981
1981
1982
1982
1983
1983
1982
1982
1981
1981
1981
1981
1981
1981
1981
1981
1981
1980
1979
1979
1979
1980
1983
1986
1989
1993
1995
1995
1993
1991
1989
1988
1988
1987
1985
1983
1981
1980
1980
1980
1980
1981
1981
1981
1981
1981
1981
1981
1981
1980
1978
1973
1965
1961
1973
2010
2064
2116
2135
2104
2032
1948
1889
1873
1896
1935
1969
1988
1993
1992
1990
1989
1988
1988
1988
1989
1989
1989
1989
1989
1990
1992
1993
1994
1994
1993
1993
1993
1993
1994
1995
1997
1999
2000
2001
2001
2002
2002
2003
2003
2004
2005
2006
2008
2010
2011
2013
2014
2016
2018
2020
2022
2025
2028
2032
2035
2039
2042
2044
2047
2049
2053
2057
2060
2063
2066
2067
2066
2064
2059
2053
2047
2038
2028
2018
2008
1999
1990
1983
1976
1971
1966
1963
1960
1957
1955
1954
1952
1951
1950
1950
1951
1951
1951
1951
1951
1950
1950
1950
1950
1950
1950
1951
1952
1952
1953
1954
1954
1954
1954
1954
1954
1955
1956
1956
1956
1955
1954
1954
1953
1953
1954
1954
1955
1955
1954
1954
1953
1953
1953
1953
1954
1954
1955
1955
1955
1955
1955
1954
1954
1955
1955
1956
1956
1957
1957
1956
1956
1955
1955
1956
1956
1957
1958
1959
1959
1958
1958
1958
1958
1958
1958
1959
1960
1960
1960
1960
1959
1959
1958
1958
1959
1959
1961
1962
1962
1962
1961
1960
1960
1960
1960
1961
1962
1963
1963
1962
1962
1960
1959
1959
1958
1959
1959
1960
1961
1964
1967
1970
1972
1973
1973
1972
1971
1971
1970
1969
1968
1965
1963
1962
1961
1962
1963
1963
1964
1964
1963
1963
1963
1963
1965
1966
1965
1961
1953
1944
1947
1971
2018
2074
2114
2114
2067
1994
1924
1885
1885
1913
1947
1971
1982
1983
1980
1977
1975
1973
1972
1972
1972
1973
1974
1976
1977
1978
1979
1979
1979
1979
1979
1980
1981
1982
1983
1984
1985
1986
1986
1986
1986
1987
1989
1990
1992
1994
1995
1996
1997
1998
1999
2000
2002
2004
2007
2009
2012
2014
2016
2019
2022
2025
2028
2032
2036
2039
2042
2045
2047
2048
2049
2049
2048
2046
2041
2034
2026
2018
2008
1999
1990
1983
1976
1970
1966
1962
1959
1955
1953
1951
1950
1949
1949
1949
1949
1949
1949
1948
1948
1948
1948
1948
1949
1950
1950
1951
1951
1951
1951
1950
1950
1950
1951
1952
1953
1953
1953
1953
1953
1952
1952
1952
1952
1953
1953
1954
1954
1955
1955
1955
1954
1954
1954
1954
1955
1955
1955
1955
1955
1955
1955
1955
1956
1956
1957
1957
1957
1956
1956
1956
1956
1957
1958
1959
1959
1959
1959
1959
1959
1959
1959
1959
1959
1960
1961
1961
1961
1961
1960
1960
1960
1961
1961
1962
1962
1962
1962
1962
1962
1962
1962
1962
1962
1963
1963
1963
1964
1964
1964
1964
1964
1964
1963
1963
1963
1962
1961
1961
1961
1962
1964
1967
1971
1974
1976
1977
1976
1975
1973
1971
1970
1969
1967
1966
1965
1965
1965
1965
1965
1965
1964
1964
1964
1964
1965
1966
1967
1967
1964
1957
1948
1945
1961
2000
2055
2104
2122
2093
2029
1953
1899
1883
1902
1936
1966
1982
1986
1982
1977
1973
1972
1972
1973
1974
1976
1977
1977
1978
1978
1978
1978
1979
1980
1981
1982
1983
1983
1984
1984
1984
1985
1986
1987
1989
1990
1991
1993
1993
1994
1995
1996
1997
1998
2000
2002
2005
2006
2008
2010
2011
2013
2015
2019
2022
2026
2030
2034
2037
2040
2042
2045
2048
2050
2052
2053
2052
2050
2046
2039
2031
2022
2013
2005
1997
1989
1983
1976
1971
1966
1962
1958
1956
1955
1954
1953
1953
1953
1952
1952
1951
1951
1951
1951
1951
1952
1953
1953
1953
1953
1953
1953
1953
1954
1954
1955
1956
1957
1957
1956
1956
1955
1955
1955
1956
1957
1958
1958
1958
1958
1958
1958
1958
1959
1959
1960
1960
1960
1959
1959
1959
1960
1960
1960
1960
1961
1961
1962
1962
1962
1961
1961
1961
1962
1963
1964
1965
1965
1965
1965
1964
1964
1964
1964
1965
1966
1967
1966
1966
1965
1965
1965
1966
1967
1968
1968
1968
1967
1967
1967
1967
1967
1967
1967
1968
1968
1969
1970
1970
1969
1969
1969
1970
1971
1972
1972
1972
1971
1970
1968
1967
1967
1967
1968
1969
1972
1976
1980
1983
1985
1984
1982
1980
1979
1978
1978
1976
1975
1973
1972
1971
1970
1970
1971
1972
1972
1973
1973
1973
1973
1973
1973
1972
1969
1962
1954
1958
1983
2031
2087
2124
2119
2067
1990
1919
1882
1887
1918
1954
1979
1990
1991
1989
1988
1987
1987
1987
1987
1987
1988
1987
1987
1986
1987
1988
1990
1993
1994
1995
1994
1994
1994
1994
1995
1997
1998
1999
2000
2001
2002
2003
2005
2006
2008
2008
2009
2009
2011
2013
2016
2018
2021
2023
2025
2028
2031
2035
2038
2041
2045
2048
2050
2054
2058
2062
2065
2068
2071
2073
2073
2072
2068
2061
2053
2045
2036
2026
2016
2007
1998
1990
1984
1978
1974
1970
1966
1964
1962
1961
1959
1958
1957
1957
1957
1957
1958
1959
1959
1959
1959
1958
1958
1958
1959
1960
1961
1961
1962
1962
1961
1961
1961
1962
1962
1962
1963
1963
1963
1964
1964
1964
1963
1963
1963
1964
1965
1965
1965
1965
1965
1964
1964
1964
1964
1964
1965
1965
1965
1965
1965
1964
1964
1964
1964
1965
1965
1966
1966
1967
1967
1967
1966
1966
1966
1966
1966
1967
1967
1968
1968
1968
1967
1965
1964
1964
1964
1966
1968
1970
1973
1976
1978
1979
1980
1979
1978
1977
1976
1974
1972
1970
1967
1966
1966
1967
1968
1968
1969
1969
1968
1967
1967
1967
1968
1970
1970
1968
1961
1952
1950
1969
2012
2069
2115
2120
2075
1995
1914
1865
1860
1889
1930
1963
1981
1987
1987
1985
1983
1981
1980
1980
1980
1981
1982
1983
1984
1984
1985
1985
1985
1985
1985
1986
1987
1988
1990
1992
1993
1993
1993
1993
1994
1995
1997
1999
2000
2001
2002
2003
2004
2005
2007
2009
2012
2015
2018
2021
2023
2026
2029
2032
2036
2039
2043
2048
2051
2055
2059
2062
2064
2065
2065
2064
2060
2055
2048
2039
2029
2017
2007
1996
1987
1978
1972
1966
1962
1958
1955
1953
1951
1949
1948
1947
1947
1947
1947
1948
1948
1947
1947
1947
1947
1947
1947
1948
1949
1949
1950
1950
1950
1950
1950
1951
1951
1952
1953
1954
1954
1954
1954
1953
1953
1954
1954
1955
1955
1956
1956
1956
1956
1956
1955
1955
1955
1955
1955
1955
1956
1956
1956
1956
1956
1956
1956
1957
1957
1958
1959
1959
1958
1958
1958
1958
1958
1958
1959
1960
1960
1960
1960
1960
1959
1959
1959
1960
1960
1961
1961
1960
1960
1961
1961
1961
1961
1960
1959
1959
1958
1958
1959
1961
1965
1969
1973
1975
1975
1974
1973
1971
1970
1969
1967
1965
1963
1962
1962
1963
1963
1963
1963
1963
1963
1963
1963
1963
1965
1965
1965
1963
1957
1948
1942
1953
1987
2041
2094
2120
2100
2041
1964
1903
1880
1893
1926
1959
1978
1985
1983
1978
1974
1972
1971
1972
1973
1974
1976
1977
1978
1978
1978
1978
1979
1979
1980
1981
1982
1983
1984
1984
1985
1985
1986
1987
1988
1989
1990
1991
1992
1993
1993
1994
1995
1996
1998
2001
2003
2005
2007
2009
2011
2013
2016
2018
2022
2026
2030
2033
2037
2040
2042
2045
2047
2049
2051
2051
2050
2048
2043
2035
2026
2017
2007
1998
1990
1983
1977
1972
1967
1962
1959
1956
1953
1952
1951
1951
1951
1950
1950
1950
1949
1949
1949
1950
1950
1951
1951
1952
1952
1952
1952
1952
1952
1952
1952
1953
1954
1954
1955
1955
1955
1955
1955
1955
1955
1956
1957
1957
1957
1957
1957
1957
1956
1956
1956
1957
1957
1958
1958
1958
1958
1958
1958
1958
1958
1959
1960
1960
1960
1960
1960
1960
1960
1960
1961
1961
1962
1962
1962
1962
1962
1961
1961
1961
1962
1963
1963
1963
1964
1964
1963
1963
1963
1963
1963
1964
1964
1965
1965
1965
1964
1964
1964
1964
1964
1965
1966
1967
1967
1967
1966
1964
1962
1961
1961
1962
1964
1967
1970
1973
1975
1977
1978
1977
1977
1976
1975
1974
1973
1971
1969
1967
1966
1966
1966
1967
1967
1967
1967
1967
1967
1967
1967
1968
1969
1969
1966
1959
1951
1951
1972
2015
2069
2112
2119
2080
2012
1941
1898
1893
1917
1950
1975
1987
1987
1983
1980
1978
1977
1977
1978
1978
1978
1978
1979
1980
1982
1983
1984
1984
1984
1984
1985
1985
1986
1988
1989
1990
1991
1991
1991
1992
1993
1994
1995
1997
1999
2000
2002
2003
2004
2004
2005
2007
2010
2013
2016
2019
2021
2023
2025
2028
2031
2035
2038
2042
2045
2048
2051
2054
2056
2057
2057
2056
2053
2048
2042
2035
2026
2016
2006
1997
1989
1982
1977
1972
1969
1966
1963
1961
1960
1959
1959
1959
1959
1959
1959
1959
1959
1958
1958
1957
1957
1957
1958
1959
1960
1960
1961
1961
1962
1962
1962
1961
1961
1962
1962
1963
1963
1964
1964
1963
1962
1962
1963
1964
1965
1966
1966
1966
1965
1964
1964
1964
1965
1967
1968
1969
1969
1969
1968
1967
1967
1967
1968
1969
1970
1971
1972
1973
1972
1971
1971
1971
1971
1971
1972
1972
1972
1972
1972
1972
1973
1973
1974
1975
1975
1974
1974
1974
1975
1975
1975
1975
1975
1975
1976
1976
1976
1976
1976
1976
1976
1976
1976
1976
1977
1977
1978
1977
1977
1975
1974
1974
1974
1975
1976
1978
1980
1983
1986
1989
1990
1989
1988
1987
1986
1985
1983
1981
1979
1977
1976
1976
1977
1978
1979
1979
1979
1979
1979
1979
1978
1979
1979
1979
1976
1970
1961
1962
1984
2030
2088
2130
2128
2077
1995
1918
1876
1879
1913
1954
1982
1995
1998
1996
1994
1993
1992
1991
1991
1991
1991
1992
1994
1995
1996
1997
1998
1998
1998
1998
1999
1999
2000
2001
2002
2003
2004
2006
2007
2008
2008
2009
2010
2011
2012
2013
2015
2016
2018
2020
2021
2023
2025
2028
2030
2033
2036
2038
2040
2043
2047
2050
2054
2059
2062
2066
2069
2071
2073
2074
2074
2072
2068
2062
2054
2045
2035
2024
2014
2004
1995
1987
1981
1976
1972
1969
1965
1962
1960
1957
1956
1955
1955
1955
1956
1957
1957
1956
1956
1956
1955
1955
1956
1956
1957
1958
1959
1959
1960
1960
1960
1959
1960
1961
1961
1962
1962
1962
1961
1960
1960
1960
1960
1961
1962
1963
1963
1963
1962
1961
1960
1960
1961
1962
1962
1963
1963
1963
1962
1962
1961
1961
1961
1962
1963
1964
1964
1964
1963
1963
1963
1963
1963
1963
1964
1964
1965
1965
1964
1964
1964
1964
1965
1965
1965
1965
1963
1962
1961
1961
1961
1963
1965
1968
1972
1976
1978
1978
1977
1975
1973
1972
1971
1971
1970
1968
1967
1966
1965
1965
1965
1965
1965
1966
1966
1967
1967
1967
1968
1968
1967
1963
1955
1946
1949
1972
2020
2076
2116
2113
2061
1982
1908
1868
1870
1902
1941
1969
1982
1985
1982
1980
1977
1976
1976
1977
1978
1978
1978
1978
1979
1979
1980
1981
1982
1983
1984
1984
1984
1984
1984
1985
1986
1987
1988
1989
1989
1990
1990
1991
1992
1993
1995
1997
1999
2001
2002
2003
2004
2006
2008
2011
2014
2017
2020
2024
2027
2030
2033
2036
2039
2043
2047
2049
2053
2054
2055
2052
2048
2042
2034
2024
2015
2006
1997
1988
1981
1974
1967
1962
1957
1954
1952
1950
1949
1948
1948
1947
1946
1946
1945
1945
1945
1946
1947
1947
1947
1947
1946
1946
1947
1947
1948
1949
1950
1951
1951
1951
1951
1950
1950
1951
1952
1952
1953
1954
1954
1954
1954
1953
1953
1954
1954
1955
1955
1956
1956
1956
1955
1955
1955
1955
1955
1956
1956
1957
1957
1957
1956
1956
1956
1956
1957
1958
1959
1959
1960
1960
1959
1959
1959
1959
1959
1960
1961
1961
1962
1962
1961
1961
1960
1960
1961
1962
1962
1963
1963
1963
1963
1963
1963
1963
1963
1964
1964
1965
1965
1965
1965
1964
1964
1964
1965
1965
1966
1966
1966
1966
1965
1964
1963
1962
1962
1963
1964
1966
1968
1971
1974
1977
1978
1978
1977
1976
1976
1975
1975
1973
1970
1968
1966
1966
1966
1967
1968
1969
1969
1969
1968
1968
1968
1969
1970
1970
1968
1962
1953
1949
1962
1997
2050
2101
2124
2103
2045
1973
1919
1899
1913
1943
1970
1985
1988
1985
1980
1977
1976
1976
1976
1977
1977
1978
1978
1979
1980
1981
1982
1983
1983
1983
1983
1984
1985
1986
1987
1988
1989
1990
1990
1991
1991
1992
1994
1996
1997
1999
1999
2000
2000
2001
2002
2003
2005
2007
2010
2012
2015
2017
2020
2022
2025
2028
2031
2035
2038
2042
2045
2048
2048
2049
2050
2049
2048
2044
2039
2032
2024
2015
2006
1996
1988
1982
1976
1971
1968
1964
1961
1959
1957
1956
1955
1955
1955
1955
1956
1956
1956
1956
1956
1956
1956
1956
1956
1957
1957
1958
1958
1958
1958
1957
1957
1957
1958
1959
1959
1960
1960
1960
1959
1958
1958
1959
1959
1960
1961
1961
1961
1962
1962
1962
1961
1961
1961
1961
1962
1962
1963
1963
1963
1963
1962
1963
1963
1964
1964
1965
1966
1966
1965
1965
1964
1965
1966
1967
1968
1968
1968
1968
1967
1967
1967
1967
1968
1969
1970
1970
1970
1970
1970
1970
1969
1969
1969
1970
1971
1971
1972
1972
1971
1971
1971
1971
1971
1972
1973
1974
1974
1974
1973
1973
1973
1973
1974
1975
1975
1976
1976
1976
1976
1975
1975
1975
1975
1976
1977
1978
1979
1978
1978
1977
1977
1977
1977
1977
1977
1976
1975
1975
1975
1976
1977
1980
1983
1987
1990
1991
1990
1988
1987
1985
1984
1983
1982
1981
1981
1980
1980
1980
1980
1980
1980
1979
1979
1980
1980
1981
1982
1983
1982
1978
1971
1962
1960
1978
2020
2076
2124
2137
2102
2034
1960
1911
1902
1925
1960
1987
2000
2002
1997
1993
1991
1990
1991
1992
1992
1993
1993
1994
1994
1994
1994
1995
1996
1997
1999
2000
2000
2001
2001
2001
2001
2002
2003
2005
2006
2008
2009
2010
2011
2011
2012
2013
2014
2016
2017
2019
2020
2022
2024
2027
2029
2032
2035
2038
2041
2044
2047
2049
2052
2055
2058
2062
2065
2068
2070
2072
2072
2071
2067
2061
2053
2045
2035
2026
2018
2010
2002
1995
1989
1983
1978
1975
1973
1972
1972
1972
1971
1970
1969
1968
1967
1967
1967
1968
1968
1969
1969
1968
1968
1969
1969
1970
1971
1971
1971
1970
1970
1970
1970
1971
1971
1971
1971
1972
1972
1973
1974
1974
1973
1973
1972
1973
1973
1974
1974
1974
1973
1973
1973
1973
1973
1973
1973
1974
1975
1976
1975
1975
1974
1973
1973
1974
1975
1976
1976
1977
1977
1976
1976
1975
1974
1974
1974
1975
1975
1976
1976
1976
1976
1976
1976
1976
1976
1976
1976
1976
1976
1977
1976
1976
1975
1974
1974
1974
1974
1975
1975
1977
1979
1982
1985
1988
1988
1988
1987
1986
1985
1984
1981
1979
1976
1975
1974
1974
1974
1975
1975
1975
1974
1974
1974
1973
1974
1975
1975
1973
1969
1960
1952
1957
1984
2035
2090
2124
2111
2052
1970
1899
1866
1875
1909
1947
1973
1985
1988
1986
1983
1981
1979
1978
1978
1978
1979
1980
1981
1982
1983
1983
1983
1983
1983
1983
1984
1985
1986
1988
1989
1989
1989
1989
1990
1991
1992
1994
1996
1997
1999
2000
2001
2001
2002
2004
2006
2008
2010
2012
2015
2016
2018
2020
2022
2025
2028
2032
2036
2039
2043
2045
2047
2048
2049
2049
2049
2047
2043
2036
2028
2019
2009
2000
1991
1983
1976
1971
1966
1962
1959
1956
1953
1951
1950
1949
1949
1949
1949
1949
1949
1949
1949
1949
1949
1950
1950
1951
1952
1953
1953
1954
1954
1954
1954
1955
1956
1956
1957
1958
1958
1958
1957
1957
1958
1958
1958
1959
1959
1960
1960
1960
1960
1959
1959
1959
1959
1960
1960
1960
1960
1960
1960
1960
1960
1960
1960
1961
1962
1963
1963
1963
1962
1962
1962
1962
1962
1963
1964
1964
1964
1964
1964
1964
1964
1964
1964
1965
1966
1966
1966
1966
1966
1966
1966
1966
1967
1967
1968
1968
1968
1967
1966
1965
1963
1963
1963
1964
1966
1969
1972
1975
1977
1979
1979
1979
1978
1977
1977
1976
1975
1973
1971
1969
1968
1968
1969
1969
1970
1970
1969
1969
1969
1969
1970
1971
1971
1970
1965
1957
1952
1960
1990
2040
2091
2121
2108
2055
1983
1922
1894
1903
1932
1963
1983
1990
1988
1984
1981
1980
1980
1980
1980
1980
1981
1981
1982
1983
1984
1985
1985
1986
1986
1987
1987
1988
1989
1990
1991
1992
1993
1994
1994
1995
1995
1996
1998
1999
2001
2003
2004
2005
2006
2007
2009
2010
2012
2015
2017
2020
2023
2026
2028
2030
2033
2036
2039
2043
2047
2049
2052
2054
2055
2055
2054
2051
2047
2041
2034
2026
2017
2008
1999
1991
1984
1978
1973
1970
1967
1965
1963
1962
1960
1959
1959
1958
1958
1959
1959
1960
1960
1960
1960
1959
1959
1959
1960
1961
1962
1962
1962
1962
1962
1962
1962
1962
1962
1963
1964
1964
1965
1965
1964
1964
1964
1964
1965
1966
1967
1967
1967
1967
1966
1966
1966
1966
1967
1968
1969
1969
1970
1969
1968
1967
1967
1968
1968
1969
1970
1970
1970
1970
1970
1969
1969
1969
1970
1972
1973
1974
1974
1974
1973
1973
1972
1972
1972
1972
1973
1973
1974
1975
1975
1975
1974
1974
1973
1972
1972
1972
1973
1974
1975
1977
1980
1983
1986
1988
1989
1988
1987
1985
1984
1982
1980
1979
1977
1977
1977
1977
1978
1978
1978
1978
1977
1977
1977
1979
1980
1982
1981
1976
1967
1959
1965
1993
2044
2100
2133
2121
2063
1984
1916
1884
1894
1928
1965
1989
2000
2001
1997
1994
1992
1990
1990
1990
1991
1992
1993
1994
1995
1996
1996
1996
1996
1997
1998
1999
2000
2000
2001
2001
2002
2003
2004
2005
2007
2008
2009
2011
2012
2013
2014
2015
2017
2018
2020
2022
2025
2027
2029
2032
2034
2037
2039
2043
2046
2049
2053
2057
2061
2064
2067
2070
2072
2074
2075
2073
2070
2065
2057
2048
2038
2027
2016
2006
1997
1990
1985
1980
1976
1973
1969
1966
1963
1961
1960
1960
1960
1961
1961
1960
1960
1959
1959
1960
1960
1961
1961
1961
1962
1962
1962
1962
1962
1962
1962
1963
1963
1964
1964
1965
1965
1965
1965
1965
1965
1965
1965
1965
1966
1966
1965
1965
1965
1965
1965
1966
1966
1966
1967
1967
1966
1966
1965
1964
1965
1966
1967
1969
1969
1969
1968
1968
1967
1967
1967
1968
1969
1970
1970
1969
1967
1965
1964
1964
1965
1967
1969
1972
1975
1978
1981
1982
1981
1979
1978
1978
1977
1977
1975
1972
1970
1969
1968
1968
1968
1969
1970
1970
1971
1970
1970
1969
1970
1970
1970
1966
1958
1951
1957
1986
2038
2092
2122
2105
2044
1961
1894
1866
1879
1916
1954
1978
1988
1989
1986
1984
1983
1982
1982
1982
1983
1983
1983
1984
1985
1987
1988
1989
1990
1989
1989
1988
1988
1989
1991
1992
1994
1995
1996
1996
1997
1997
1998
1999
2001
2004
2006
2008
2009
2010
2011
2012
2014
2016
2019
2022
2025
2029
2032
2036
2039
2042
2046
2048
2052
2056
2060
2063
2066
2066
2064
2060
2054
2047
2038
2028
2018
2008
1998
1989
1980
1973
1967
1963
1960
1958
1957
1955
1954
1952
1951
1950
1949
1950
1951
1952
1952
1952
1952
1951
1951
1950
1951
1951
1952
1953
1955
1955
1956
1955
1954
1954
1953
1953
1954
1955
1956
1957
1957
1957
1957
1956
1956
1956
1956
1957
1957
1958
1958
1958
1957
1957
1957
1957
1957
1958
1958
1958
1958
1958
1958
1958
1958
1958
1958
1959
1959
1960
1960
1960
1960
1960
1960
1960
1960
1960
1961
1961
1961
1961
1961
1961
1961
1960
1959
1958
1957
1957
1957
1958
1960
1963
1966
1969
1972
1973
1972
1971
1970
1968
1967
1966
1964
1962
1961
1961
1961
1962
1962
1962
1961
1961
1961
1961
1961
1962
1964
1965
1964
1959
1950
1941
1944
1969
2017
2073
2110
2106
2056
1982
1913
1877
1881
1911
1947
1972
1983
1983
1979
1976
1973
1971
1971
1972
1973
1974
1975
1976
1977
1977
1977
1978
1978
1979
1980
1981
1982
1983
1984
1984
1985
1985
1985
1986
1987
1989
1991
1992
1993
1995
1996
1997
1998
1999
2001
2003
2005
2008
2010
2012
2015
2017
2020
2023
2026
2030
2033
2037
2040
2044
2046
2048
2050
2051
2051
2049
2046
2040
2032
2023
2013
2003
1994
1986
1979
1973
1969
1964
1960
1957
1954
1952
1951
1950
1950
1950
1950
1950
1950
1949
1949
1948
1948
1949
1950
1951
1952
1952
1952
1952
1952
1952
1952
1953
1953
1954
1955
1955
1955
1955
1955
1955
1954
1955
1956
1956
1957
1957
1957
1957
1956
1955
1954
1954
1954
1955
1956
1956
1957
1957
1956
1956
1956
1956
1957
1958
1959
1959
1959
1959
1958
1958
1958
1958
1958
1959
1960
1961
1961
1961
1961
1960
1959
1959
1960
1961
1962
1962
1963
1963
1962
1962
1961
1962
1962
1962
1963
1963
1964
1964
1964
1963
1963
1963
1964
1964
1965
1965
1965
1965
1965
1965
1964
1965
1965
1966
1966
1966
1965
1964
1962
1962
1961
1962
1964
1967
1971
1975
1978
1979
1978
1977
1975
1974
1973
1973
1971
1970
1968
1967
1967
1966
1967
1967
1967
1968
1968
1968
1968
1968
1968
1969
1969
1968
1965
1958
1950
1952
1974
2018
2072
2114
2119
2080
2013
1945
1904
1900
1923
1955
1977
1987
1987
1982
1978
1976
1976
1976
1977
1977
1978
1978
1979
1979
1980
1982
1983
1983
1984
1985
1985
1985
1986
1986
1987
1989
1990
1991
1992
1993
1993
1994
1995
1996
1997
1999
2000
2002
2003
2004
2005
2006
2008
2010
2012
2015
2018
2021
2024
2027
2030
2032
2035
2038
2041
2045
2048
2050
2052
2053
2052
2050
2047
2042
2035
2027
2019
2010
2002
1994
1986
1979
1973
1968
1965
1962
1960
1959
1958
1957
1955
1955
1954
1954
1954
1955
1956
1957
1957
1957
1956
1956
1956
1956
1956
1957
1957
1958
1958
1958
1958
1957
1957
1958
1959
1960
1961
1961
1961
1961
1960
1960
1960
1960
1961
1961
1961
1962
1962
1962
1963
1963
1963
1963
1963
1963
1964
1964
1965
1965
1965
1965
1965
1965
1965
1966
1967
1967
1967
1967
1967
1967
1967
1967
1967
1968
1969
1970
1970
1970
1970
1970
1969
1969
1970
1970
1971
1972
1972
1972
1971
1971
1970
1970
1970
1971
1972
1973
1974
1974
1973
1973
1972
1972
1973
1974
1975
1975
1976
1975
1974
1973
1973
1973
1973
1975
1976
1977
1977
1977
1976
1975
1975
1975
1976
1976
1977
1978
1978
1978
1978
1977
1977
1977
1977
1977
1978
1979
1980
1980
1981
1980
1980
1979
1979
1979
1980
1981
1981
1981
1981
1981
1980
1981
1981
1981
1982
1982
1983
1983
1982
1982
1981
1981
1981
1981
1981
1980
1980
1980
1980
1980
1981
1984
1989
1992
1995
1995
1994
1992
1990
1989
1987
1985
1982
1980
1980
1980
1981
1982
1982
1982
1981
1981
1981
1982
1982
1983
1984
1984
1982
1977
1968
1960
1964
1990
2039
2095
2131
2124
2072
1996
1928
1895
1902
1933
1967
1989
1997
1997
1993
1990
1988
1987
1987
1987
1988
1989
1990
1990
1991
1991
1992
1993
1994
1995
1996
1997
1998
1998
1997
1997
1997
1998
1999
2001
2002
2004
2004
2005
2005
2006
2006
2007
2009
2010
2012
2013
2015
2017
2018
2019
2021
2022
2025
2028
2032
2035
2038
2040
2043
2045
2048
2050
2053
2056
2059
2060
2060
2058
2054
2048
2042
2034
2026
2018
2010
2002
1993
1986
1980
1974
1970
1966
1964
1962
1961
1960
1959
1957
1956
1955
1955
1955
1955
1956
1956
1957
1957
1957
1957
1957
1957
1957
1958
1960
1961
1961
1961
1961
1960
1960
1959
1960
1960
1961
1961
1962
1962
1962
1962
1961
1961
1961
1961
1961
1961
1962
1962
1961
1960
1960
1959
1959
1959
1960
1960
1960
1960
1960
1960
1960
1960
1959
1960
1960
1961
1961
1962
1962
1962
1962
1961
1961
1961
1961
1962
1963
1963
1963
1963
1963
1963
1963
1963
1964
1964
1965
1965
1965
1965
1964
1964
1964
1964
1965
1966
1966
1966
1966
1965
1965
1965
1965
1966
1967
1967
1968
1968
1967
1967
1966
1966
1966
1967
1968
1968
1968
1968
1968
1967
1967
1967
1967
1967
1968
1969
1969
1969
1969
1968
1968
1967
1968
1968
1969
1970
1970
1970
1970
1970
1969
1969
1969
1970
1970
1970
1970
1971
1970
1970
1970
1970
1970
1970
1970
1970
1970
1969
1968
1968
1968
1969
1971
1975
1978
1981
1983
1983
1981
1979
1978
1977
1976
1975
1973
1972
1971
1971
1971
1971
1971
1971
1971
1971
1971
1972
1972
1973
1974
1973
1970
1964
1955
1950
1961
1995
2048
2100
2126
2109
2051
1980
1923
1901
1913
1943
1971
1987
1991
1987
1982
1979
1977
1977
1978
1979
1981
1981
1982
1982
1982
1982
1983
1983
1985
1986
1987
1987
1988
1988
1988
1988
1989
1990
1992
1993
1994
1995
1995
1996
1996
1997
1998
2000
2002
2004
2005
2007
2008
2009
2010
2012
2014
2016
2018
2021
2024
2026
2029
2032
2034
2037
2039
2042
2045
2048
2049
2049
2048
2046
2042
2036
2029
2021
2013
2006
1998
1990
1984
1978
1972
1967
1964
1961
1960
1959
1958
1957
1956
1955
1954
1954
1954
1954
1955
1955
1956
1956
1956
1956
1956
1955
1955
1956
1956
1957
1958
1959
1959
1959
1958
1958
1958
1959
1960
1960
1961
1961
1961
1960
1960
1960
1961
1961
1962
1962
1962
1962
1962
1962
1962
1961
1962
1962
1963
1963
1964
1964
1964
1964
1963
1963
1963
1964
1964
1965
1965
1966
1965
1965
1965
1964
1965
1965
1966
1966
1967
1967
1967
1967
1967
1967
1967
1967
1967
1968
1968
1969
1969
1968
1968
1967
1967
1967
1968
1969
1970
1970
1970
1969
1969
1969
1969
1969
1969
1970
1970
1970
1970
1970
1970
1970
1970
1970
1970
1971
1972
1972
1972
1972
1971
1971
1971
1971
1972
1972
1973
1973
1973
1973
1972
1972
1972
1972
1973
1973
1974
1974
1974
1973
1973
1972
1973
1973
1974
1974
1975
1975
1975
1974
1974
1974
1974
1975
1975
1975
1975
1974
1973
1972
1971
1971
1972
1974
1978
1981
1985
1987
1987
1985
1984
1982
1981
1981
1980
1978
1977
1976
1975
1974
1974
1974
1974
1974
1975
1975
1975
1976
1976
1977
1977
1974
1969
1961
1954
1962
1991
2041
2094
2127
2117
2066
1995
1933
1904
1910
1939
1969
1988
1994
1992
1987
1983
1982
1982
1983
1984
1985
1985
1985
1985
1986
1986
1987
1988
1989
1990
1991
1991
1991
1991
1991
1992
1993
1995
1996
1997
1998
1999
1999
1999
2000
2001
2002
2004
2005
2007
2008
2010
2011
2012
2014
2015
2017
2020
2022
2025
2028
2031
2033
2035
2038
2041
2044
2047
2049
2052
2053
2054
2053
2050
2047
2042
2036
2029
2022
2014
2005
1997
1990
1983
1977
1972
1969
1966
1964
1963
1961
1960
1958
1957
1956
1956
1956
1957
1958
1958
1958
1958
1958
1958
1958
1958
1959
1959
1960
1961
1962
1962
1962
1961
1961
1961
1962
1962
1963
1964
1964
1963
1963
1963
1963
1963
1963
1964
1964
1965
1965
1965
1965
1964
1964
1964
1964
1965
1966
1966
1966
1966
1966
1965
1965
1965
1965
1966
1967
1967
1967
1967
1967
1967
1966
1967
1967
1968
1968
1969
1969
1969
1969
1968
1968
1968
1969
1969
1970
1970
1970
1970
1970
1969
1969
1969
1969
1970
1971
1971
1971
1971
1970
1970
1970
1970
1970
1970
1971
1972
1972
1972
1971
1971
1971
1971
1971
1972
1972
1972
1972
1972
1972
1972
1972
1972
1973
1973
1974
1974
1974
1973
1973
1972
1972
1972
1973
1974
1974
1975
1975
1975
1975
1974
1973
1973
1974
1974
1975
1975
1975
1975
1974
1974
1974
1974
1974
1975
1976
1977
1977
1977
1976
1975
1974
1973
1973
1973
1974
1975
1977
1980
1983
1985
1987
1987
1986
1986
1985
1984
1983
1981
1978
1976
1975
1974
1975
1975
1976
1976
1976
1976
1976
1976
1976
1976
1977
1977
1974
1967
1958
1958
1976
2018
2072
2116
2126
2091
2025
1955
1909
1901
1922
1954
1979
1991
1994
1990
1987
1984
1983
1983
1984
1984
1985
1985
1986
1986
1987
1988
1989
1989
1989
1989
1990
1990
1991
1993
1994
1995
1996
1996
1996
1997
1997
1998
1999
2001
2003
2004
2006
2006
2007
2008
2009
2010
2012
2014
2016
2019
2021
2023
2024
2026
2029
2031
2034
2038
2041
2044
2047
2048
2050
2052
2053
2053
2053
2051
2048
2043
2037
2029
2020
2011
2002
1995
1988
1983
1978
1974
1971
1967
1965
1963
1961
1960
1959
1959
1959
1959
1959
1959
1958
1958
1958
1958
1959
1959
1960
1961
1961
1961
1961
1961
1961
1962
1962
1963
1964
1964
1964
1964
1964
1964
1964
1964
1965
1965
1966
1966
1966
1965
1965
1964
1965
1965
1966
1966
1966
1967
1967
1967
1967
1966
1967
1967
1967
1968
1969
1969
1969
1969
1969
1968
1968
1968
1969
1970
1970
1970
1971
1971
1971
1971
1971
1972
1972
1973
1974
1974
1974
1973
1973
1973
1973
1974
1974
1975
1976
1976
1977
1976
1976
1975
1975
1975
1976
1977
1977
1978
1978
1978
1977
1977
1977
1978
1978
1979
1979
1979
1978
1978
1977
1977
1978
1979
1980
1980
1981
1981
1981
1981
1980
1980
1980
1980
1980
1980
1981
1981
1981
1980
1980
1979
1979
1979
1980
1983
1986
1990
1994
1995
1994
1993
1991
1990
1990
1989
1987
1985
1982
1981
1980
1980
1981
1982
1983
1983
1983
1983
1984
1985
1985
1985
1982
1976
1967
1962
1972
2006
2059
2111
2134
2109
2043
1961
1900
1879
1897
1935
1971
1992
2000
2000
1997
1995
1992
1991
1990
1991
1992
1993
1995
1996
1997
1998
1999
2000
2001
2002
2002
2002
2002
2003
2003
2004
2006
2009
2011
2013
2014
2014
2014
2014
2015
2016
2018
2021
2023
2025
2027
2029
2030
2031
2033
2035
2038
2042
2046
2048
2052
2055
2059
2062
2066
2070
2073
2076
2078
2080
2082
2082
2082
2079
2073
2066
2057
2047
2037
2026
2016
2007
1999
1992
1986
1981
1977
1974
1972
1970
1969
1968
1967
1966
1966
1966
1966
1965
1965
1965
1966
1965
1965
1965
1965
1966
1967
1968
1970
1971
1971
1972
1971
1971
1970
1970
1971
1971
1972
1973
1974
1974
1974
1973
1972
1971
1971
1971
1971
1971
1971
1971
1971
1970
1970
1970
1970
1970
1971
1971
1971
1971
1970
1970
1970
1970
1970
1970
1970
1971
1971
1972
1972
1971
1970
1968
1968
1968
1969
1970
1971
1971
1972
1975
1979
1983
1985
1986
1984
1982
1980
1978
1977
1976
1975
1973
1972
1972
1971
1971
1971
1971
1971
1971
1971
1970
1971
1972
1973
1973
1971
1964
1955
1955
1976
2022
2081
2125
2126
2072
1985
1899
1848
1846
1881
1926
1962
1982
1990
1991
1990
1989
1987
1985
1984
1985
1986
1987
1989
1990
1991
1992
1991
1991
1990
1990
1992
1994
1996
1997
1998
1998
1998
1998
1998
1999
2001
2003
2006
2008
2009
2010
2010
2011
2012
2015
2018
2021
2024
2027
2030
2032
2035
2038
2042
2046
2050
2055
2060
2065
2069
2073
2076
2079
2080
2079
2076
2071
2062
2052
2041
2030
2018
2007
1996
1987
1979
1973
1967
1962
1959
1956
1953
1951
1949
1948
1948
1948
1949
1949
1948
1948
1947
1947
1947
1947
1948
1949
1950
1950
1951
1951
1951
1951
1952
1952
1953
1954
1954
1954
1954
1954
1954
1955
1955
1956
1956
1957
1957
1957
1958
1958
1957
1957
1957
1957
1957
1957
1958
1958
1958
1957
1957
1957
1958
1958
1958
1958
1959
1959
1959
1958
1957
1955
1955
1955
1956
1959
1962
1966
1970
1972
1972
1971
1969
1968
1967
1967
1966
1965
1963
1962
1960
1960
1961
1962
1963
1963
1962
1962
1962
1962
1963
1964
1963
1960
1954
1945
1943
1960
2001
2058
2107
2119
2080
2005
1924
1871
1861
1888
1928
1961
1978
1983
1981
1978
1976
1975
1975
1976
1977
1977
1978
1978
1978
1979
1979
1981
1982
1983
1984
1984
1984
1984
1984
1985
1986
1988
1990
1991
1992
1993
1993
1994
1995
1996
1998
2000
2002
2004
2006
2007
2010
2012
2014
2017
2020
2023
2027
2030
2033
2036
2039
2043
2047
2050
2055
2058
2061
2063
2062
2058
2052
2044
2034
2023
2013
2003
1994
1985
1977
1970
1963
1957
1953
1950
1948
1946
1945
1945
1944
1944
1943
1942
1942
1941
1941
1942
1942
1942
1943
1943
1943
1943
1944
1945
1946
1947
1948
1949
1950
1950
1950
1950
1950
1950
1950
1951
1951
1952
1953
1953
1952
1952
1951
1951
1951
1952
1953
1954
1954
1954
1953
1953
1953
1953
1953
1953
1954
1954
1955
1955
1954
1954
1954
1954
1954
1955
1956
1956
1956
1955
1954
1953
1952
1953
1955
1958
1961
1965
1968
1969
1969
1968
1966
1965
1965
1965
1964
1962
1960
1959
1957
1957
1957
1957
1958
1958
1959
1959
1959
1959
1959
1959
1959
1957
1951
1942
1938
1950
1985
2039
2092
2118
2098
2038
1963
1903
1881
1895
1927
1958
1975
1979
1975
1971
1968
1967
1967
1968
1969
1969
1970
1970
1970
1970
1971
1972
1973
1975
1976
1976
1977
1977
1977
1978
1979
1980
1981
1982
1983
1983
1983
1984
1985
1986
1988
1990
1992
1994
1996
1997
1999
2000
2002
2005
2007
2011
2014
2018
2022
2025
2028
2031
2035
2038
2042
2046
2048
2050
2050
2048
2044
2037
2028
2019
2010
2001
1992
1984
1976
1969
1962
1957
1953
1950
1948
1947
1946
1945
1945
1944
1944
1943
1943
1943
1943
1943
1944
1945
1945
1945
1944
1944
1944
1944
1945
1946
1947
1948
1949
1949
1949
1949
1950
1950
1950
1951
1951
1951
1951
1951
1951
1951
1952
1953
1954
1955
1955
1955
1955
1954
1954
1953
1953
1954
1954
1955
1956
1957
1958
1958
1959
1959
1959
1959
1959
1959
1959
1960
1960
1960
1960
1960
1960
1961
1962
1963
1963
1964
1964
1964
1964
1964
1964
1965
1965
1966
1967
1967
1968
1967
1967
1966
1965
1966
1966
1968
1969
1970
1970
1970
1970
1970
1971
1972
1972
1972
1972
1973
1973
1974
1974
1974
1974
1973
1973
1973
1973
1974
1974
1973
1973
1972
1971
1972
1974
1977
1981
1985
1987
1988
1987
1985
1984
1983
1983
1983
1982
1980
1979
1977
1977
1977
1978
1978
1977
1977
1978
1978
1979
1980
1981
1981
1981
1980
1976
1968
1961
1966
1994
2044
2101
2137
2129
2075
1999
1931
1898
1904
1934
1967
1989
1997
1996
1993
1990
1988
1988
1988
1989
1989
1989
1989
1989
1989
1990
1991
1992
1992
1992
1992
1992
1993
1993
1994
1994
1995
1995
1996
1997
1997
1998
1999
2000
2001
2002
2003
2004
2006
2006
2007
2008
2009
2010
2012
2014
2017
2019
2022
2025
2028
2030
2033
2037
2040
2044
2047
2050
2053
2054
2055
2055
2053
2050
2046
2039
2032
2023
2014
2005
1996
1987
1980
1973
1968
1964
1962
1960
1958
1957
1955
1954
1953
1952
1951
1951
1952
1952
1952
1952
1952
1953
1953
1953
1954
1954
1955
1956
1956
1956
1956
1955
1955
1955
1956
1956
1958
1959
1960
1960
1960
1959
1959
1959
1959
1960
1960
1961
1961
1961
1961
1961
1960
1960
1961
1961
1962
1962
1962
1962
1961
1961
1960
1959
1959
1960
1960
1961
1962
1962
1961
1961
1961
1961
1961
1962
1962
1963
1964
1964
1964
1963
1963
1963
1963
1963
1964
1964
1964
1965
1965
1965
1965
1964
1964
1964
1965
1966
1966
1966
1966
1966
1966
1965
1966
1966
1967
1967
1968
1969
1968
1967
1966
1965
1965
1965
1966
1967
1968
1968
1968
1967
1967
1966
1967
1967
1968
1968
1968
1968
1968
1967
1966
1965
1964
1964
1964
1966
1968
1971
1974
1976
1978
1979
1978
1978
1977
1977
1977
1976
1975
1972
1970
1968
1967
1968
1969
1970
1970
1970
1969
1969
1968
1968
1969
1970
1971
1971
1968
1960
1951
1950
1967
2008
2064
2112
2126
2095
2031
1960
1912
1899
1918
1948
1973
1986
1987
1983
1979
1976
1975
1975
1976
1977
1978
1978
1979
1980
1981
1982
1982
1982
1982
1983
1983
1984
1985
1987
1988
1989
1989
1990
1990
1991
1992
1993
1995
1997
1998
1999
1999
1999
2000
2001
2004
2006
2009
2012
2014
2016
2018
2019
2022
2025
2029
2033
2037
2041
2044
2047
2049
2053
2055
2058
2058
2057
2054
2049
2043
2036
2027
2017
2007
1998
1990
1984
1979
1974
1970
1966
1963
1961
1958
1957
1956
1956
1956
1956
1957
1957
1956
1956
1956
1956
1956
1956
1957
1957
1957
1957
1957
1957
1957
1957
1957
1958
1958
1959
1960
1960
1961
1961
1961
1961
1961
1961
1962
1963
1964
1964
1965
1965
1964
1964
1964
1964
1965
1966
1967
1968
1968
1967
1967
1967
1967
1968
1968
1968
1968
1968
1968
1968
1968
1968
1969
1969
1970
1971
1972
1972
1972
1971
1969
1969
1969
1970
1971
1972
1974
1974
1974
1973
1972
1972
1972
1972
1973
1974
1974
1974
1973
1973
1973
1973
1973
1973
1974
1975
1976
1977
1976
1975
1974
1973
1973
1974
1974
1975
1975
1976
1976
1976
1975
1975
1975
1975
1975
1976
1976
1977
1977
1976
1974
1973
1972
1972
1973
1974
1975
1977
1979
1982
1985
1987
1987
1986
1985
1984
1984
1984
1982
1980
1977
1975
1975
1975
1976
1977
1977
1977
1976
1975
1975
1975
1975
1977
1979
1980
1978
1972
1962
1956
1965
1999
2053
2107
2133
2113
2048
1969
1907
1883
1897
1932
1965
1986
1993
1993
1990
1987
1984
1982
1982
1983
1984
1985
1985
1986
1986
1986
1987
1987
1987
1987
1987
1988
1989
1990
1991
1992
1992
1993
1993
1993
1994
1995
1997
1999
2001
2002
2002
2003
2004
2005
2006
2008
2010
2012
2014
2017
2019
2022
2024
2027
2030
2033
2037
2040
2044
2047
2050
2053
2055
2057
2057
2057
2055
2051
2046
2038
2028
2018
2008
1999
1991
1983
1977
1972
1967
1964
1960
1957
1955
1954
1953
1952
1952
1952
1952
1951
1951
1950
1950
1950
1950
1951
1952
1953
1953
1953
1953
1953
1952
1953
1953
1954
1955
1956
1956
1957
1957
1956
1956
1956
1956
1956
1956
1957
1957
1957
1957
1957
1957
1957
1957
1957
1957
1958
1958
1958
1958
1957
1957
1957
1957
1957
1958
1958
1959
1959
1958
1958
1958
1958
1958
1959
1959
1960
1960
1961
1960
1960
1959
1959
1959
1959
1960
1961
1961
1962
1961
1961
1960
1959
1959
1960
1960
1961
1962
1962
1962
1961
1960
1960
1960
1961
1962
1962
1963
1963
1963
1962
1962
1961
1961
1962
1963
1964
1964
1964
1964
1964
1963
1963
1964
1964
1965
1965
1965
1965
1965
1965
1965
1964
1964
1964
1965
1967
1967
1968
1967
1966
1965
1964
1964
1965
1966
1967
1967
1967
1967
1967
1967
1967
1967
1967
1968
1967
1967
1967
1967
1966
1966
1965
1965
1964
1964
1964
1964
1965
1967
1969
1971
1974
1977
1978
1978
1977
1976
1976
1975
1974
1972
1970
1968
1967
1967
1968
1968
1969
1969
1968
1968
1968
1968
1968
1970
1971
1971
1969
1963
1954
1948
1959
1992
2045
2097
2124
2108
2052
1981
1924
1900
1911
1940
1968
1984
1988
1985
1980
1976
1974
1974
1974
1974
1975
1976
1978
1979
1979
1980
1980
1980
1980
1981
1981
1982
1983
1984
1985
1986
1987
1987
1987
1988
1989
1990
1992
1993
1994
1995
1995
1996
1996
1998
1999
2001
2003
2005
2007
2009
2010
2012
2015
2018
2021
2025
2029
2032
2035
2037
2040
2043
2045
2048
2049
2050
2049
2047
2042
2036
2029
2021
2012
2003
1995
1987
1981
1975
1971
1966
1962
1959
1956
1954
1953
1953
1953
1953
1953
1952
1952
1951
1951
1951
1951
1952
1953
1954
1954
1954
1953
1953
1952
1953
1953
1954
1955
1956
1956
1956
1955
1955
1955
1955
1955
1956
1957
1957
1958
1957
1957
1956
1956
1956
1957
1959
1960
1960
1960
1959
1959
1958
1958
1959
1959
1960
1961
1961
1962
1961
1961
1961
1961
1961
1962
1962
1963
1963
1963
1963
1962
1962
1961
1962
1963
1964
1965
1965
1965
1965
1964
1964
1964
1964
1964
1965
1965
1966
1966
1966
1966
1965
1965
1965
1966
1966
1967
1968
1968
1968
1967
1966
1966
1966
1967
1967
1968
1969
1969
1969
1968
1968
1968
1968
1968
1969
1970
1970
1970
1970
1970
1970
1969
1970
1970
1970
1971
1972
1972
1972
1972
1972
1971
1971
1971
1971
1972
1972
1973
1973
1973
1973
1973
1973
1973
1973
1973
1974
1974
1974
1974
1974
1974
1973
1973
1974
1974
1975
1975
1975
1975
1975
1975
1975
1975
1975
1976
1976
1975
1974
1973
1972
1972
1974
1976
1978
1982
1985
1987
1988
1987
1986
1984
1983
1983
1983
1983
1982
1980
1979
1978
1978
1977
1977
1977
1978
1979
1980
1980
1980
1980
1979
1977
1974
1967
1960
1963
1986
2031
2086
2127
2129
2085
2015
1945
1905
1903
1929
1962
1985
1996
1996
1992
1988
1986
1985
1986
1987
1988
1988
1989
1989
1990
1990
1991
1992
1993
1995
1996
1997
1997
1997
1997
1997
1998
2000
2002
2003
2004
2005
2005
2006
2006
2008
2010
2012
2014
2015
2017
2017
2018
2020
2022
2024
2027
2030
2032
2035
2038
2041
2045
2048
2051
2054
2057
2060
2063
2066
2069
2071
2072
2070
2067
2062
2056
2048
2040
2031
2022
2013
2004
1996
1989
1983
1978
1975
1972
1970
1968
1967
1966
1964
1963
1961
1961
1961
1962
1962
1963
1963
1964
1965
1965
1965
1965
1964
1964
1965
1965
1966
1966
1965
1965
1965
1966
1967
1968
1968
1969
1969
1969
1969
1969
1969
1968
1968
1969
1971
1972
1972
1972
1970
1969
1969
1969
1970
1972
1973
1974
1973
1973
1972
1971
1970
1971
1972
1973
1974
1973
1973
1972
1972
1972
1973
1974
1975
1975
1976
1975
1974
1973
1972
1972
1973
1974
1976
1977
1977
1977
1975
1975
1974
1975
1975
1976
1976
1976
1976
1976
1976
1976
1975
1974
1974
1975
1975
1975
1976
1978
1981
1985
1989
1991
1991
1988
1986
1984
1983
1982
1981
1980
1978
1977
1977
1977
1978
1978
1978
1977
1976
1976
1976
1977
1979
1980
1979
1974
1964
1958
1968
2003
2058
2112
2133
2103
2030
1942
1878
1859
1881
1923
1961
1983
1992
1993
1992
1991
1990
1990
1989
1989
1989
1990
1991
1991
1993
1994
1995
1996
1997
1997
1997
1997
1998
1999
2000
2000
2001
2002
2004
2005
2005
2006
2007
2008
2009
2011
2013
2015
2017
2018
2018
2019
2021
2024
2029
2033
2036
2039
2042
2045
2048
2053
2057
2061
2066
2070
2074
2078
2081
2083
2083
2081
2077
2070
2061
2051
2041
2030
2018
2006
1996
1987
1980
1974
1970
1966
1963
1960
1958
1956
1954
1953
1952
1952
1952
1952
1952
1952
1952
1953
1952
1952
1952
1952
1953
1954
1955
1956
1956
1956
1955
1955
1955
1957
1958
1960
1961
1961
1960
1960
1959
1959
1960
1961
1962
1962
1962
1962
1961
1961
1961
1961
1961
1961
1961
1962
1962
1963
1963
1963
1962
1962
1962
1962
1962
1963
1964
1964
1963
1963
1963
1963
1963
1964
1965
1964
1963
1962
1962
1962
1962
1963
1964
1966
1970
1974
1978
1979
1978
1976
1974
1972
1972
1971
1969
1968
1966
1966
1965
1965
1965
1964
1964
1964
1965
1966
1967
1968
1969
1968
1964
1956
1947
1949
1973
2021
2079
2121
2119
2067
1984
1906
1864
1866
1900
1941
1970
1985
1987
1985
1982
1980
1980
1980
1981
1982
1982
1982
1983
1983
1984
1985
1986
1986
1988
1989
1990
1990
1990
1989
1989
1990
1992
1993
1995
1997
1998
1999
2000
2001
2002
2003
2004
2006
2008
2010
2012
2014
2016
2018
2021
2024
2027
2030
2034
2038
2042
2047
2050
2053
2056
2059
2062
2065
2067
2068
2067
2063
2056
2048
2038
2026
2015
2005
1996
1988
1982
1975
1970
1965
1961
1958
1956
1954
1954
1954
1953
1953
1953
1952
1951
1950
1950
1950
1950
1951
1952
1952
1952
1952
1952
1952
1953
1954
1955
1956
1957
1957
1957
1957
1956
1957
1957
1958
1959
1960
1961
1961
1960
1959
1959
1959
1959
1959
1960
1961
1961
1961
1960
1960
1959
1959
1959
1960
1961
1962
1962
1962
1962
1961
1960
1960
1960
1960
1961
1962
1962
1963
1962
1962
1962
1961
1962
1962
1963
1964
1964
1963
1961
1959
1958
1959
1961
1964
1968
1973
1976
1977
1977
1975
1973
1972
1972
1971
1970
1969
1968
1966
1966
1965
1965
1965
1965
1965
1966
1966
1967
1967
1968
1968
1966
1961
1953
1945
1949
1974
2023
2080
2120
2121
2074
2000
1929
1889
1889
1917
1952
1977
1987
1986
1981
1977
1975
1974
1975
1976
1977
1978
1978
1978
1979
1979
1979
1980
1981
1983
1984
1985
1985
1985
1985
1986
1986
1987
1989
1990
1992
1993
1994
1994
1995
1996
1997
1998
2000
2002
2004
2005
2007
2009
2010
2013
2015
2018
2021
2025
2028
2032
2035
2038
2041
2044
2047
2050
2053
2056
2057
2056
2052
2047
2039
2030
2021
2012
2003
1995
1988
1981
1975
1969
1964
1960
1957
1956
1955
1955
1954
1954
1953
1953
1952
1952
1952
1953
1953
1954
1954
1954
1954
1954
1954
1954
1954
1955
1956
1956
1957
1957
1957
1957
1957
1957
1957
1958
1958
1959
1960
1960
1960
1960
1959
1959
1959
1959
1960
1960
1961
1961
1961
1961
1961
1961
1961
1961
1962
1962
1963
1963
1964
1963
1963
1963
1963
1964
1965
1965
1966
1966
1965
1965
1964
1964
1965
1965
1966
1967
1967
1968
1968
1967
1967
1967
1967
1968
1969
1969
1969
1968
1967
1965
1963
1963
1964
1966
1970
1974
1978
1980
1981
1980
1978
1977
1977
1976
1976
1975
1973
1971
1970
1969
1969
1969
1969
1970
1970
1970
1971
1971
1971
1972
1972
1970
1966
1958
1951
1956
1982
2032
2087
2124
2120
2072
2000
1933
1898
1901
1930
1962
1984
1992
1990
1984
1980
1978
1978
1979
1980
1981
1981
1982
1982
1982
1983
1984
1985
1986
1987
1987
1988
1988
1988
1988
1988
1989
1990
1992
1994
1995
1995
1996
1996
1997
1998
2000
2002
2004
2005
2007
2008
2009
2010
2011
2014
2016
2020
2023
2027
2030
2033
2035
2038
2040
2043
2046
2049
2052
2055
2056
2055
2052
2048
2041
2034
2025
2017
2008
2000
1992
1984
1978
1972
1967
1964
1961
1959
1958
1957
1957
1956
1956
1955
1955
1954
1954
1955
1955
1956
1956
1956
1956
1956
1956
1956
1956
1957
1957
1957
1958
1958
1958
1957
1957
1957
1957
1958
1959
1960
1960
1959
1959
1959
1959
1959
1959
1959
1960
1960
1961
1961
1961
1961
1961
1961
1961
1962
1962
1963
1963
1963
1963
1962
1962
1963
1963
1964
1965
1966
1966
1966
1965
1965
1964
1964
1964
1965
1966
1966
1966
1966
1966
1966
1967
1968
1968
1968
1968
1968
1968
1968
1968
1968
1968
1969
1968
1969
1969
1969
1970
1970
1970
1970
1969
1969
1969
1970
1971
1972
1972
1972
1971
1971
1971
1972
1973
1973
1973
1972
1971
1970
1969
1969
1969
1970
1972
1976
1980
1984
1986
1987
1985
1984
1982
1980
1978
1977
1975
1975
1975
1975
1974
1974
1973
1974
1975
1976
1976
1976
1976
1975
1975
1973
1970
1963
1956
1960
1986
2034
2090
2129
2124
2071
1992
1920
1882
1886
1919
1957
1983
1995
1996
1992
1989
1986
1986
1986
1988
1990
1991
1991
1990
1990
1990
1991
1992
1994
1996
1997
1998
1999
1999
1999
2000
2000
2001
2003
2004
2005
2006
2007
2008
2008
2009
2010
2011
2013
2016
2018
2019
2021
2022
2023
2024
2027
2029
2033
2036
2040
2043
2046
2048
2050
2053
2056
2059
2063
2066
2068
2069
2068
2065
2061
2054
2047
2038
2028
2019
2009
2001
1993
1986
1979
1974
1969
1965
1963
1961
1960
1958
1957
1955
1954
1953
1953
1953
1954
1955
1955
1955
1955
1954
1954
1954
1955
1955
1956
1956
1957
1957
1958
1958
1958
1957
1957
1956
1957
1957
1958
1958
1958
1957
1956
1955
1956
1956
1957
1958
1958
1957
1956
1955
1955
1955
1955
1955
1956
1956
1957
1958
1957
1956
1955
1955
1955
1956
1957
1957
1958
1957
1958
1958
1958
1958
1958
1957
1957
1957
1957
1957
1957
1957
1957
1957
1958
1958
1959
1959
1959
1959
1959
1958
1958
1958
1958
1959
1960
1961
1961
1961
1959
1957
1957
1956
1958
1960
1963
1967
1970
1973
1974
1973
1971
1969
1968
1968
1967
1966
1964
1962
1961
1960
1961
1962
1962
1962
1962
1962
1963
1963
1964
1964
1963
1961
1956
1949
1943
1952
1981
2031
2084
2115
2104
2051
1978
1914
1885
1893
1923
1956
1976
1984
1982
1977
1974
1972
1972
1973
1974
1975
1975
1975
1976
1977
1977
1978
1979
1980
1981
1981
1982
1982
1982
1983
1984
1985
1987
1988
1990
1990
1991
1991
1992
1992
1993
1995
1997
1999
2001
2002
2004
2005
2006
2007
2010
2012
2015
2018
2021
2024
2026
2029
2031
2034
2037
2040
2043
2046
2048
2049
2048
2046
2041
2035
2028
2021
2014
2006
1998
1990
1982
1974
1968
1963
1960
1958
1957
1956
1955
1954
1953
1952
1951
1951
1951
1951
1951
1952
1953
1953
1954
1954
1953
1952
1952
1952
1953
1954
1955
1956
1956
1956
1955
1955
1955
1956
1957
1958
1958
1958
1958
1958
1957
1958
1958
1960
1961
1962
1961
1961
1960
1960
1960
1960
1961
1962
1962
1963
1964
1964
1963
1962
1962
1961
1962
1964
1965
1966
1966
1966
1965
1965
1965
1965
1966
1966
1966
1967
1967
1968
1968
1967
1967
1967
1967
1968
1968
1969
1969
1970
1970
1971
1970
1970
1969
1968
1968
1969
1970
1971
1972
1972
1971
1969
1968
1968
1968
1970
1971
1973
1975
1977
1980
1984
1985
1986
1985
1983
1982
1981
1979
1977
1975
1973
1972
1972
1973
1974
1974
1974
1974
1973
1973
1973
1975
1976
1976
1974
1968
1959
1957
1973
2013
2069
2117
2128
2090
2015
1934
1881
1870
1896
1936
1969
1987
1993
1993
1990
1987
1985
1985
1985
1985
1986
1987
1987
1988
1990
1991
1992
1992
1992
1992
1991
1992
1993
1994
1996
1998
1999
2000
2001
2000
2000
2001
2002
2004
2005
2007
2009
2010
2011
2012
2013
2014
2016
2019
2022
2025
2027
2029
2031
2034
2037
2040
2044
2048
2051
2054
2056
2059
2060
2061
2062
2062
2060
2056
2050
2042
2033
2022
2012
2002
1992
1984
1978
1973
1968
1964
1961
1958
1955
1953
1952
1951
1951
1951
1952
1952
1952
1952
1951
1950
1950
1951
1952
1953
1954
1954
1955
1955
1955
1955
1955
1955
1956
1957
1957
1958
1958
1958
1957
1957
1957
1957
1958
1958
1958
1959
1959
1959
1959
1958
1957
1957
1957
1958
1959
1960
1961
1961
1960
1959
1958
1958
1959
1960
1961
1962
1962
1962
1961
1961
1960
1961
1961
1962
1962
1963
1963
1963
1963
1963
1962
1962
1961
1960
1960
1960
1960
1961
1963
1966
1970
1973
1976
1977
1976
1976
1975
1973
1972
1970
1967
1965
1964
1964
1965
1965
1965
1965
1965
1964
1964
1964
1965
1967
1968
1968
1965
1957
1948
1947
1967
2012
2068
2111
2115
2070
1994
1917
1871
1868
1897
1936
1967
1983
1987
1985
1981
1978
1977
1976
1977
1978
1979
1979
1980
1981
1982
1983
1984
1984
1984
1985
1986
1987
1988
1989
1989
1990
1990
1990
1991
1992
1993
1995
1997
1998
1999
2000
2000
2001
2003
2005
2007
2009
2012
2014
2016
2018
2020
2022
2025
2028
2032
2036
2040
2043
2047
2048
2051
2053
2054
2055
2054
2052
2048
2042
2033
2023
2013
2003
1993
1985
1978
1972
1967
1963
1960
1957
1954
1952
1950
1950
1949
1950
1950
1950
1950
1950
1949
1949
1949
1949
1950
1951
1951
1952
1953
1953
1953
1953
1952
1952
1952
1953
1954
1954
1955
1955
1955
1955
1954
1955
1955
1956
1956
1957
1957
1956
1956
1956
1956
1956
1956
1957
1957
1958
1958
1958
1958
1958
1958
1958
1958
1958
1958
1959
1959
1959
1959
1959
1959
1959
1959
1960
1961
1962
1963
1962
1962
1961
1961
1962
1962
1963
1964
1964
1964
1963
1961
1959
1958
1958
1959
1961
1965
1969
1973
1976
1976
1975
1974
1972
1971
1971
1971
1970
1968
1967
1966
1965
1965
1965
1966
1966
1967
1967
1967
1966
1966
1966
1967
1966
1963
1957
1949
1952
1973
2017
2071
2112
2117
2076
2006
1935
1893
1890
1916
1950
1976
1987
1988
1983
1979
1977
1977
1978
1979
1979
1980
1980
1980
1981
1982
1984
1985
1986
1986
1986
1986
1986
1987
1988
1989
1990
1991
1992
1993
1994
1995
1996
1997
1998
1999
2000
2002
2003
2005
2006
2007
2008
2010
2012
2014
2018
2021
2024
2027
2030
2033
2035
2038
2041
2044
2047
2049
2052
2054
2055
2054
2051
2047
2040
2032
2024
2015
2006
1998
1990
1983
1977
1971
1967
1964
1962
1961
1960
1959
1958
1957
1956
1955
1955
1955
1955
1956
1956
1956
1956
1956
1956
1956
1956
1956
1957
1957
1958
1958
1958
1958
1958
1958
1959
1959
1960
1960
1961
1960
1960
1959
1959
1959
1959
1960
1960
1961
1962
1962
1962
1962
1962
1962
1962
1962
1962
1963
1963
1963
1963
1963
1963
1963
1963
1963
1964
1964
1965
1966
1966
1966
1966
1966
1966
1966
1966
1967
1968
1968
1968
1968
1967
1966
1966
1965
1965
1965
1965
1965
1966
1968
1971
1975
1978
1981
1982
1982
1981
1979
1978
1976
1974
1972
1970
1970
1970
1970
1971
1970
1970
1969
1969
1969
1969
1970
1972
1973
1973
1971
1966
1957
1951
1961
1993
2046
2098
2124
2104
2042
1962
1899
1875
1890
1927
1963
1984
1992
1991
1987
1984
1983
1983
1983
1985
1986
1987
1988
1988
1989
1989
1989
1989
1990
1990
1992
1993
1995
1997
1998
1998
1998
1999
2000
2001
2002
2003
2005
2006
2007
2009
2010
2012
2013
2014
2015
2017
2020
2022
2025
2028
2031
2033
2037
2041
2045
2049
2053
2056
2060
2063
2066
2069
2071
2072
2072
2069
2064
2057
2048
2038
2027
2016
2005
1996
1988
1981
1976
1972
1968
1964
1961
1959
1957
1956
1956
1955
1955
1954
1954
1953
1953
1953
1953
1954
1954
1955
1956
1956
1955
1955
1954
1953
1953
1954
1956
1958
1959
1959
1959
1958
1958
1957
1958
1958
1959
1960
1961
1961
1961
1961
1961
1961
1960
1960
1959
1959
1960
1960
1961
1961
1961
1960
1959
1959
1960
1962
1964
1966
1966
1966
1964
1963
1961
1961
1961
1961
1961
1961
1961
1962
1963
1963
1964
1965
1965
1965
1966
1966
1965
1965
1964
1963
1963
1963
1964
1967
1970
1974
1977
1979
1979
1977
1975
1974
1973
1973
1972
1970
1968
1966
1965
1965
1965
1966
1967
1968
1968
1967
1966
1965
1965
1966
1966
1965
1962
1956
1949
1951
1974
2020
2075
2115
2115
2066
1989
1913
1871
1870
1901
1940
1969
1983
1987
1984
1982
1981
1980
1980
1979
1979
1979
1980
1982
1983
1983
1983
1983
1985
1988
1990
1991
1989
1986
1984
1985
1987
1991
1994
1996
1996
1996
1996
1996
1997
1999
2001
2002
2004
2004
2005
2006
2008
2010
2014
2017
2020
2023
2026
2030
2034
2038
2041
2044
2046
2048
2052
2056
2060
2061
2060
2057
2052
2046
2038
2029
2021
2012
2004
1996
1988
1980
1972
1966
1962
1959
1957
1955
1953
1951
1950
1950
1951
1952
1952
1952
1952
1952
1953
1954
1955
1954
1953
1952
1952
1954
1957
1959
1960
1959
1958
1958
1959
1959
1959
1959
1959
1960
1962
1963
1962
1961
1960
1959
1960
1961
1963
1964
1965
1965
1965
1963
1962
1961
1962
1962
1963
1964
1965
1966
1967
1967
1966
1965
1963
1963
1963
1963
1964
1964
1964
1964
1963
1963
1964
1965
1966
1967
1967
1967
1966
1965
1965
1965
1966
1967
1967
1967
1967
1966
1965
1965
1966
1968
1969
1971
1971
1971
1970
1969
1969
1968
1968
1968
1968
1968
1968
1969
1969
1969
1969
1970
1971
1971
1971
1970
1969
1969
1969
1970
1971
1970
1969
1967
1966
1966
1967
1970
1973
1977
1980
1982
1983
1982
1981
1980
1978
1977
1976
1975
1973
1972
1971
1971
1971
1971
1971
1971
1971
1971
1971
1972
1972
1973
1973
1972
1970
1964
1956
1955
1971
2011
2065
2112
2125
2093
2026
1952
1901
1889
1910
1944
1972
1987
1991
1988
1984
1981
1979
1978
1978
1979
1981
1983
1984
1986
1987
1987
1987
1987
1987
1987
1988
1988
1989
1989
1990
1991
1992
1993
1994
1995
1996
1997
1998
2000
2002
2005
2007
2009
2010
2010
2011
2012
2014
2016
2019
2022
2025
2028
2031
2035
2038
2041
2044
2046
2048
2050
2053
2057
2060
2062
2062
2061
2059
2056
2051
2045
2035
2024
2014
2005
1997
1989
1983
1977
1974
1971
1969
1967
1965
1964
1962
1961
1960
1960
1961
1963
1965
1966
1965
1962
1960
1959
1959
1960
1962
1963
1963
1963
1963
1964
1963
1963
1962
1962
1963
1964
1965
1965
1964
1963
1963
1964
1966
1967
1967
1966
1965
1964
1964
1965
1966
1966
1966
1966
1966
1966
1967
1967
1968
1968
1968
1967
1966
1965
1965
1966
1968
1970
1971
1971
1970
1969
1969
1970
1972
1972
1972
1971
1970
1970
1971
1972
1972
1971
1970
1970
1971
1973
1974
1973
1972
1971
1970
1971
1973
1974
1974
1974
1973
1974
1974
1975
1974
1973
1972
1972
1972
1972
1972
1972
1971
1971
1970
1970
1972
1975
1980
1984
1986
1987
1986
1985
1985
1984
1983
1980
1977
1975
1974
1974
1975
1975
1975
1976
1975
1975
1975
1975
1975
1975
1976
1977
1977
1974
1967
1957
1957
1978
2022
2078
2122
2126
2084
2011
1938
1894
1891
1918
1955
1982
1995
1997
1993
1989
1986
1984
1984
1985
1987
1989
1990
1990
1990
1990
1991
1992
1993
1995
1996
1997
1997
1997
1996
1997
1999
2002
2004
2005
2004
2003
2003
2005
2008
2011
2013
2013
2013
2014
2015
2016
2019
2022
2026
2030
2034
2037
2039
2040
2042
2045
2048
2054
2058
2062
2065
2067
2071
2075
2078
2078
2075
2068
2059
2049
2041
2032
2024
2015
2006
1996
1987
1980
1975
1971
1968
1966
1965
1964
1963
1963
1962
1962
1963
1963
1963
1962
1961
1961
1961
1961
1962
1962
1962
1962
1962
1963
1964
1965
1965
1965
1964
1964
1965
1966
1966
1966
1966
1965
1965
1965
1966
1966
1966
1966
1965
1965
1966
1968
1969
1969
1969
1967
1966
1966
1968
1969
1970
1970
1969
1968
1967
1967
1967
1966
1966
1965
1966
1966
1967
1968
1967
1965
1964
1963
1963
1963
1964
1965
1964
1964
1964
1963
1963
1963
1964
1964
1964
1963
1963
1961
1960
1959
1960
1962
1966
1971
1976
1978
1978
1976
1974
1972
1970
1969
1968
1967
1965
1964
1963
1962
1961
1961
1961
1962
1962
1963
1963
1963
1963
1963
1963
1962
1957
1949
1942
1948
1977
2027
2082
2114
2101
2044
1964
1895
1862
1870
1904
1941
1967
1978
1979
1976
1974
1973
1973
1974
1975
1975
1976
1976
1975
1975
1974
1975
1977
1979
1981
1981
1981
1980
1980
1982
1983
1985
1987
1988
1989
1991
1992
1993
1993
1994
1995
1996
1998
2000
2002
2004
2006
2008
2010
2011
2013
2016
2019
2024
2028
2032
2035
2038
2042
2045
2048
2052
2054
2056
2057
2057
2056
2052
2045
2035
2025
2014
2006
1997
1990
1982
1974
1968
1963
1959
1956
1954
1952
1951
1950
1950
1950
1949
1947
1946
1946
1946
1948
1949
1951
1951
1951
1949
1949
1949
1950
1952
1954
1954
1954
1953
1952
1952
1952
1953
1953
1955
1956
1956
1957
1957
1957
1957
1957
1956
1956
1956
1956
1957
1959
1960
1960
1960
1959
1959
1959
1959
1960
1960
1960
1960
1960
1961
1962
1963
1962
1961
1960
1960
1961
1962
1963
1964
1964
1964
1963
1962
1962
1962
1963
1964
1964
1964
1964
1964
1964
1964
1964
1964
1966
1967
1968
1968
1968
1968
1968
1968
1969
1969
1970
1970
1969
1968
1967
1967
1967
1967
1968
1970
1973
1977
1981
1985
1986
1985
1983
1981
1980
1979
1978
1976
1973
1972
1970
1970
1970
1971
1972
1973
1973
1972
1972
1972
1973
1975
1975
1973
1967
1958
1953
1966
2002
2056
2105
2122
2092
2022
1942
1884
1867
1887
1925
1960
1981
1991
1992
1990
1987
1985
1983
1983
1983
1984
1985
1985
1986
1987
1988
1989
1990
1990
1990
1990
1989
1989
1990
1991
1993
1995
1997
1998
1998
1998
1998
1998
1999
2002
2005
2009
2011
2012
2012
2011
2011
2013
2016
2019
2022
2025
2028
2030
2034
2037
2041
2045
2048
2051
2055
2058
2062
2065
2066
2065
2063
2058
2052
2045
2036
2026
2016
2005
1995
1987
1979
1974
1970
1966
1962
1958
1955
1953
1952
1952
1952
1952
1952
1951
1950
1950
1950
1950
1952
1954
1954
1952
1951
1950
1952
1955
1958
1959
1957
1955
1953
1953
1954
1957
1959
1960
1960
1960
1959
1959
1958
1958
1957
1958
1958
1960
1961
1963
1963
1962
1960
1959
1958
1959
1960
1960
1960
1960
1960
1960
1960
1960
1961
1961
1962
1963
1964
1963
1963
1962
1961
1962
1963
1964
1965
1965
1964
1964
1964
1965
1965
1964
1963
1962
1963
1965
1967
1968
1967
1966
1965
1964
1964
1964
1964
1964
1963
1964
1966
1969
1974
1977
1979
1979
1978
1977
1977
1976
1975
1972
1969
1967
1966
1966
1968
1969
1969
1969
1968
1967
1966
1965
1965
1967
1969
1969
1967
1960
1950
1947
1961
2000
2054
2102
2116
2084
2017
1942
1890
1878
1900
1936
1967
1983
1987
1983
1979
1976
1975
1976
1977
1978
1979
1979
1980
1980
1981
1982
1982
1982
1982
1982
1983
1984
1985
1986
1987
1987
1988
1988
1989
1990
1992
1994
1997
1998
1999
2000
2000
2001
2003
2006
2008
2009
2010
2012
2014
2018
2021
2025
2028
2031
2034
2037
2040
2043
2047
2050
2053
2055
2056
2057
2058
2058
2055
2048
2039
2027
2015
2005
1997
1991
1985
1979
1974
1969
1966
1963
1961
1958
1955
1953
1952
1952
1953
1954
1954
1954
1953
1953
1953
1955
1956
1958
1958
1958
1958
1957
1957
1957
1958
1960
1962
1963
1964
1964
1963
1963
1963
1963
1964
1964
1964
1964
1965
1966
1966
1967
1968
1968
1968
1969
1969
1970
1970
1971
1971
1972
1971
1970
1969
1969
1970
1972
1972
1972
1971
1970
1970
1971
1971
1970
1969
1969
1970
1972
1973
1973
1972
1970
1970
1971
1972
1973
1973
1973
1972
1972
1973
1973
1973
1972
1972
1972
1972
1972
1971
1971
1971
1972
1974
1977
1981
1984
1986
1986
1985
1982
1980
1979
1977
1975
1974
1973
1974
1975
1975
1974
1973
1971
1970
1969
1969
1970
1971
1973
1973
1972
1968
1961
1953
1958
1985
2033
2087
2122
2113
2059
1981
1909
1871
1876
1908
1948
1977
1991
1994
1990
1985
1982
1981
1981
1981
1982
1983
1983
1984
1985
1986
1986
1986
1986
1986
1986
1987
1989
1991
1993
1994
1994
1994
1993
1992
1993
1995
1997
2000
2001
2001
2001
2001
2003
2005
2008
2010
2012
2013
2015
2017
2020
2024
2028
2031
2034
2035
2038
2041
2045
2048
2053
2056
2057
2058
2058
2056
2052
2048
2040
2031
2021
2012
2003
1994
1986
1978
1970
1963
1958
1956
1955
1954
1954
1952
1950
1948
1947
1947
1948
1948
1949
1949
1948
1947
1947
1948
1948
1947
1947
1947
1948
1950
1951
1952
1952
1952
1951
1951
1951
1952
1952
1953
1954
1954
1954
1954
1955
1955
1955
1954
1953
1952
1952
1953
1954
1955
1956
1956
1957
1957
1957
1956
1955
1955
1955
1957
1958
1959
1958
1957
1956
1957
1957
1958
1959
1960
1960
1960
1960
1959
1960
1960
1961
1961
1962
1962
1962
1963
1963
1963
1962
1961
1960
1961
1962
1964
1965
1965
1965
1964
1964
1964
1964
1965
1964
1964
1964
1964
1964
1964
1964
1963
1964
1964
1966
1969
1972
1976
1979
1979
1977
1975
1974
1974
1975
1975
1973
1971
1968
1966
1966
1965
1966
1967
1967
1968
1967
1966
1966
1967
1969
1970
1969
1963
1953
1946
1955
1986
2039
2093
2123
2108
2049
1972
1907
1878
1889
1923
1959
1981
1989
1987
1982
1978
1977
1979
1981
1982
1982
1981
1981
1981
1982
1982
1983
1984
1984
1986
1988
1989
1990
1989
1989
1989
1990
1991
1992
1993
1994
1995
1996
1998
2000
2001
2002
2003
2005
2006
2007
2008
2008
2009
2011
2014
2018
2022
2026
2031
2034
2037
2038
2040
2042
2045
2048
2051
2053
2056
2056
2056
2054
2050
2044
2036
2026
2016
2007
1999
1992
1985
1977
1970
1964
1961
1959
1959
1959
1958
1957
1955
1954
1953
1952
1952
1953
1953
1954
1955
1955
1955
1954
1954
1954
1954
1955
1957
1958
1959
1959
1959
1958
1958
1957
1958
1958
1959
1960
1960
1960
1961
1961
1960
1960
1959
1959
1960
1961
1961
1961
1961
1961
1961
1961
1962
1962
1962
1962
1963
1963
1963
1963
1963
1963
1963
1964
1965
1966
1965
1965
1964
1964
1965
1967
1968
1968
1969
1969
1968
1968
1967
1966
1965
1965
1966
1968
1970
1971
1971
1970
1969
1968
1967
1968
1968
1969
1969
1970
1970
1971
1970
1969
1968
1967
1967
1968
1970
1973
1977
1981
1984
1985
1984
1982
1980
1979
1978
1978
1977
1975
1973
1970
1969
1969
1970
1972
1972
1973
1973
1972
1972
1972
1972
1972
1971
1967
1959
1954
1962
1994
2046
2100
2127
2107
2042
1958
1890
1862
1876
1914
1952
1977
1989
1991
1988
1986
1984
1984
1986
1987
1987
1986
1985
1985
1987
1989
1991
1992
1992
1992
1991
1990
1991
1992
1995
1997
1998
1999
1999
1999
2001
2002
2003
2003
2002
2002
2003
2006
2010
2013
2016
2017
2016
2017
2018
2021
2025
2029
2032
2033
2035
2038
2042
2047
2052
2056
2059
2061
2064
2066
2067
2067
2063
2057
2048
2039
2029
2019
2011
2003
1995
1987
1978
1971
1965
1961
1958
1955
1953
1950
1948
1948
1948
1949
1950
1951
1951
1951
1950
1950
1950
1950
1951
1951
1951
1951
1950
1949
1950
1952
1954
1956
1956
1955
1954
1953
1952
1952
1953
1954
1955
1955
1955
1956
1956
1957
1958
1958
1957
1957
1956
1956
1955
1954
1953
1953
1955
1957
1959
1960
1960
1959
1958
1957
1957
1956
1957
1958
1960
1961
1962
1962
1960
1959
1958
1957
1958
1959
1960
1961
1962
1963
1963
1962
1961
1960
1959
1959
1959
1960
1960
1961
1962
1963
1966
1970
1973
1975
1975
1974
1973
1972
1971
1969
1967
1964
1963
1962
1962
1962
1963
1963
1962
1963
1964
1964
1965
1964
1964
1964
1965
1964
1959
1950
1945
1955
1989
2043
2095
2119
2094
2028
1945
1882
1859
1876
1915
1952
1975
1985
1985
1982
1979
1976
1975
1975
1975
1977
1980
1982
1984
1984
1983
1982
1981
1982
1983
1984
1985
1986
1987
1988
1989
1991
1991
1992
1992
1992
1992
1994
1996
1997
1999
2000
2000
2001
2002
2005
2008
2010
2013
2014
2016
2019
2022
2026
2029
2032
2035
2038
2041
2043
2046
2048
2051
2055
2057
2058
2056
2053
2048
2041
2031
2020
2009
1999
1991
1983
1977
1971
1966
1961
1958
1955
1953
1952
1951
1950
1950
1949
1949
1949
1949
1949
1949
1950
1951
1952
1953
1954
1953
1953
1952
1951
1951
1952
1952
1952
1952
1953
1954
1956
1958
1959
1958
1956
1955
1956
1957
1959
1960
1959
1958
1957
1956
1956
1957
1958
1960
1960
1959
1958
1958
1958
1959
1959
1960
1961
1961
1961
1960
1960
1959
1959
1959
1961
1962
1963
1963
1963
1963
1962
1962
1962
1963
1963
1964
1964
1964
1964
1964
1963
1963
1962
1963
1964
1964
1964
1963
1962
1961
1962
1963
1965
1967
1970
1972
1975
1976
1976
1975
1973
1971
1968
1967
1965
1965
1965
1965
1965
1965
1964
1963
1963
1963
1964
1965
1966
1968
1968
1966
1961
1953
1944
1942
1959
1998
2052
2100
2115
2083
2015
1940
1888
1877
1899
1937
1968
1984
1987
1982
1978
1974
1973
1973
1973
1974
1975
1977
1978
1978
1978
1977
1976
1977
1979
1981
1983
1984
1984
1984
1984
1984
1985
1986
1988
1989
1990
1992
1994
1995
1996
1996
1996
1996
1997
1998
2000
2003
2006
2009
2011
2013
2016
2018
2021
2024
2028
2031
2034
2036
2039
2041
2044
2046
2048
2049
2050
2049
2046
2040
2032
2023
2014
2005
1997
1990
1983
1977
1972
1967
1963
1959
1956
1954
1953
1953
1952
1952
1952
1952
1951
1950
1950
1950
1950
1951
1952
1953
1953
1953
1953
1953
1954
1955
1956
1956
1956
1956
1956
1957
1957
1957
1957
1957
1957
1958
1958
1959
1960
1959
1959
1958
1957
1957
1958
1959
1959
1960
1959
1959
1959
1958
1959
1959
1959
1960
1961
1962
1962
1962
1961
1960
1960
1960
1961
1961
1962
1962
1962
1962
1962
1962
1962
1962
1962
1963
1963
1964
1965
1965
1965
1964
1964
1963
1963
1962
1962
1962
1962
1963
1965
1968
1971
1975
1977
1978
1978
1977
1976
1975
1974
1972
1969
1966
1965
1964
1964
1965
1966
1966
1966
1966
1965
1965
1966
1967
1968
1968
1966
1960
1951
1947
1961
1997
2050
2100
2118
2090
2025
1948
1893
1877
1897
1933
1965
1983
1989
1986
1982
1979
1978
1978
1979
1979
1980
1981
1983
1983
1984
1984
1983
1983
1984
1985
1986
1988
1989
1989
1990
1990
1991
1992
1993
1994
1995
1997
1998
2000
2001
2002
2003
2004
2005
2006
2008
2011
2013
2015
2018
2019
2021
2024
2026
2030
2034
2038
2042
2046
2048
2051
2054
2056
2058
2059
2059
2057
2054
2048
2041
2032
2022
2013
2004
1996
1988
1982
1976
1972
1968
1965
1962
1960
1958
1956
1956
1955
1955
1955
1956
1956
1956
1955
1955
1955
1955
1956
1957
1957
1958
1958
1958
1958
1959
1960
1961
1962
1962
1963
1963
1962
1962
1962
1962
1963
1965
1966
1966
1966
1966
1965
1965
1965
1965
1965
1965
1965
1966
1967
1968
1968
1969
1968
1967
1967
1966
1967
1968
1969
1969
1970
1970
1970
1970
1970
1970
1971
1971
1972
1971
1970
1969
1967
1967
1967
1968
1969
1972
1976
1980
1984
1985
1985
1983
1982
1981
1981
1981
1980
1978
1976
1975
1974
1973
1972
1973
1973
1974
1974
1974
1973
1973
1973
1973
1973
1969
1962
1956
1962
1991
2042
2096
2127
2110
2046
1959
1888
1858
1873
1913
1955
1982
1993
1995
1992
1990
1988
1987
1987
1987
1988
1989
1991
1991
1992
1992
1993
1994
1995
1996
1997
1998
1998
1999
2000
2001
2003
2004
2005
2006
2007
2008
2009
2010
2012
2014
2017
2019
2022
2024
2025
2026
2027
2028
2030
2033
2037
2042
2047
2050
2054
2058
2061
2064
2068
2071
2074
2078
2081
2082
2081
2076
2070
2061
2052
2042
2032
2021
2011
2001
1992
1984
1978
1973
1968
1965
1963
1961
1960
1959
1958
1957
1956
1955
1956
1956
1957
1957
1957
1956
1956
1956
1957
1957
1958
1958
1959
1960
1962
1962
1963
1963
1963
1963
1963
1963
1964
1964
1964
1964
1964
1963
1962
1963
1963
1964
1964
1965
1965
1964
1964
1963
1962
1962
1962
1963
1964
1964
1963
1962
1961
1960
1960
1961
1963
1965
1968
1972
1975
1978
1978
1978
1976
1974
1972
1970
1968
1967
1966
1965
1965
1966
1966
1966
1965
1965
1965
1966
1966
1967
1967
1968
1966
1962
1954
1946
1950
1977
2028
2085
2119
2106
2046
1960
1888
1856
1868
1908
1949
1975
1987
1987
1984
1982
1980
1980
1981
1982
1983
1983
1983
1983
1984
1984
1985
1986
1988
1989
1990
1991
1992
1992
1992
1992
1993
1993
1995
1997
1999
2000
2002
2002
2003
2005
2006
2008
2010
2012
2014
2016
2018
2021
2023
2026
2029
2033
2037
2041
2045
2048
2052
2056
2059
2062
2065
2068
2070
2069
2066
2061
2052
2043
2032
2020
2009
1998
1989
1982
1975
1970
1965
1960
1957
1954
1952
1951
1950
1950
1950
1949
1949
1948
1948
1948
1948
1949
1950
1951
1951
1951
1951
1951
1951
1951
1952
1952
1954
1955
1956
1957
1957
1956
1956
1956
1957
1957
1957
1957
1957
1957
1957
1957
1957
1957
1958
1958
1957
1957
1957
1958
1958
1958
1958
1958
1958
1957
1957
1957
1958
1958
1959
1959
1959
1959
1959
1958
1957
1956
1956
1956
1956
1957
1959
1961
1964
1968
1971
1973
1973
1972
1971
1969
1968
1967
1965
1963
1962
1961
1961
1961
1961
1961
1961
1961
1960
1961
1962
1963
1965
1965
1962
1955
1945
1940
1954
1993
2050
2102
2123
2095
2028
1949
1892
1876
1895
1932
1965
1982
1986
1982
1977
1973
1972
1972
1973
1974
1975
1976
1977
1978
1978
1978
1978
1979
1979
1980
1981
1982
1983
1984
1984
1985
1985
1986
1987
1988
1989
1991
1992
1993
1994
1995
1997
1998
2000
2002
2004
2006
2008
2010
2013
2015
2018
2022
2025
2029
2033
2037
2040
2043
2046
2048
2051
2053
2054
2054
2052
2048
2042
2033
2023
2012
2001
1992
1983
1975
1969
1964
1960
1956
1953
1950
1947
1946
1944
1944
1944
1944
1944
1944
1944
1943
1943
1944
1944
1945
1946
1946
1947
1947
1946
1946
1946
1947
1947
1947
1948
1949
1950
1950
1950
1950
1949
1949
1949
1950
1951
1951
1951
1952
1951
1951
1951
1951
1950
1951
1951
1952
1952
1952
1952
1952
1952
1951
1951
1951
1952
1953
1954
1955
1954
1954
1953
1953
1954
1954
1955
1956
1956
1956
1956
1956
1955
1955
1955
1956
1957
1957
1958
1958
1958
1957
1957
1957
1956
1955
1954
1954
1954
1955
1957
1959
1962
1966
1968
1970
1970
1969
1968
1968
1967
1966
1964
1962
1960
1959
1959
1960
1960
1961
1961
1961
1960
1960
1959
1960
1961
1962
1963
1962
1957
1949
1941
1944
1969
2017
2072
2112
2112
2066
1995
1927
1889
1890
1918
1951
1975
1984
1983
1977
1973
1970
1969
1969
1971
1972
1973
1974
1975
1975
1976
1976
1976
1977
1977
1979
1980
1981
1983
1984
1984
1984
1984
1985
1986
1987
1989
1990
1991
1992
1993
1994
1995
1996
1998
1999
2002
2004
2006
2008
2009
2011
2013
2016
2019
2022
2026
2029
2033
2036
2039
2041
2044
2045
2047
2047
2046
2043
2038
2030
2022
2012
2003
1993
1985
1977
1971
1966
1962
1959
1956
1953
1951
1950
1949
1949
1948
1948
1948
1948
1949
1949
1949
1948
1948
1948
1948
1949
1950
1950
1951
1950
1950
1950
1950
1951
1951
1952
1952
1952
1952
1951
1951
1951
1951
1952
1953
1954
1955
1955
1955
1955
1954
1954
1954
1954
1955
1955
1955
1956
1956
1956
1955
1955
1955
1956
1957
1958
1959
1959
1959
1959
1958
1958
1958
1958
1959
1960
1961
1962
1962
1963
1963
1962
1962
1963
1963
1964
1965
1966
1966
1966
1965
1965
1965
1965
1966
1966
1967
1967
1967
1967
1967
1967
1967
1967
1967
1968
1969
1969
1969
1969
1969
1968
1969
1969
1970
1970
1971
1971
1970
1970
1970
1970
1970
1970
1971
1972
1972
1972
1972
1972
1971
1970
1970
1970
1971
1972
1973
1973
1973
1973
1972
1972
1972
1972
1971
1971
1970
1970
1970
1971
1973
1975
1978
1981
1984
1985
1985
1984
1982
1981
1980
1979
1977
1976
1975
1974
1974
1974
1974
1974
1973
1973
1973
1973
1974
1975
1977
1977
1977
1973
1966
1957
1954
1970
2009
2063
2112
2130
2102
2039
1967
1917
1903
1921
1953
1979
1992
1994
1990
1986
1983
1982
1982
1983
1985
1986
1987
1988
1988
1988
1988
1988
1989
1990
1992
1992
1993
1993
1993
1993
1994
1996
1997
1998
1999
2000
2001
2002
2003
2004
2004
2006
2007
2009
2011
2013
2014
2015
2016
2017
2019
2021
2024
2028
2032
2035
2039
2042
2044
2046
2048
2049
2052
2055
2059
2061
2062
2061
2057
2051
2045
2037
2029
2020
2012
2005
1997
1990
1983
1978
1973
1969
1967
1966
1965
1965
1964
1964
1963
1963
1962
1961
1961
1962
1962
1963
1964
1964
1964
1963
1963
1962
1962
1963
1963
1965
1965
1966
1966
1965
1964
1964
1964
1965
1966
1967
1967
1967
1967
1966
1966
1966
1966
1967
1967
1968
1968
1967
1967
1967
1967
1967
1967
1968
1968
1969
1970
1970
1970
1970
1969
1968
1968
1969
1970
1971
1971
1971
1971
1969
1968
1968
1969
1971
1972
1973
1973
1973
1973
1972
1972
1972
1972
1972
1973
1974
1974
1974
1973
1973
1972
1973
1973
1974
1974
1975
1975
1976
1976
1975
1974
1973
1973
1974
1976
1977
1977
1976
1975
1975
1975
1975
1975
1975
1974
1974
1974
1974
1974
1976
1978
1982
1986
1988
1989
1988
1986
1985
1983
1982
1980
1978
1976
1975
1975
1976
1976
1977
1977
1976
1976
1975
1975
1975
1976
1978
1980
1979
1975
1967
1957
1957
1980
2028
2086
2126
2122
2069
1988
1913
1873
1878
1911
1951
1978
1991
1994
1992
1990
1988
1986
1986
1987
1989
1990
1991
1991
1990
1990
1991
1991
1992
1993
1994
1996
1997
1998
1999
1999
2000
2000
2001
2002
2003
2004
2005
2006
2007
2008
2009
2011
2012
2013
2014
2016
2018
2021
2023
2026
2028
2031
2034
2037
2040
2044
2047
2050
2053
2057
2060
2062
2065
2067
2069
2069
2067
2063
2056
2048
2039
2028
2017
2007
1998
1990
1982
1976
1971
1967
1964
1960
1958
1955
1954
1954
1954
1954
1953
1953
1952
1951
1950
1950
1951
1952
1954
1955
1956
1956
1956
1955
1955
1955
1956
1957
1958
1959
1958
1958
1958
1958
1959
1959
1960
1960
1960
1960
1960
1960
1960
1959
1958
1959
1959
1960
1961
1962
1962
1961
1960
1960
1960
1961
1962
1962
1962
1962
1961
1961
1962
1962
1962
1962
1963
1964
1964
1965
1965
1964
1963
1963
1962
1963
1963
1964
1965
1966
1966
1966
1965
1965
1965
1965
1966
1966
1967
1967
1966
1966
1966
1967
1967
1967
1967
1966
1966
1965
1965
1966
1966
1966
1967
1969
1972
1976
1980
1982
1982
1981
1979
1977
1975
1973
1971
1969
1969
1969
1969
1969
1969
1969
1968
1968
1968
1968
1969
1970
1971
1971
1970
1967
1960
1952
1951
1969
2011
2068
2114
2122
2081
2006
1928
1879
1873
1901
1941
1972
1987
1990
1988
1985
1983
1981
1981
1981
1981
1982
1983
1984
1985
1985
1986
1986
1987
1988
1989
1990
1991
1991
1992
1992
1992
1993
1994
1996
1998
2000
2001
2002
2002
2002
2003
2004
2006
2008
2011
2013
2014
2016
2018
2019
2022
2024
2027
2031
2035
2039
2043
2046
2049
2052
2054
2057
2060
2062
2064
2064
2061
2056
2048
2040
2030
2019
2010
2001
1993
1985
1978
1972
1966
1962
1958
1956
1954
1953
1952
1952
1951
1950
1948
1947
1947
1947
1947
1948
1949
1950
1951
1951
1951
1950
1950
1951
1952
1953
1954
1954
1955
1955
1954
1954
1954
1954
1955
1956
1957
1957
1957
1957
1956
1956
1956
1955
1956
1956
1956
1956
1956
1956
1956
1955
1955
1955
1955
1955
1956
1957
1957
1957
1957
1956
1956
1956
1956
1957
1957
1957
1958
1958
1958
1958
1958
1957
1957
1957
1958
1958
1959
1959
1958
1958
1958
1958
1958
1959
1959
1959
1959
1959
1959
1958
1958
1958
1959
1959
1960
1960
1960
1960
1960
1959
1959
1959
1960
1960
1961
1962
1962
1961
1959
1958
1957
1956
1957
1960
1963
1968
1971
1974
1974
1973
1972
1970
1970
1969
1969
1968
1966
1963
1961
1961
1960
1961
1962
1963
1964
1964
1964
1964
1964
1964
1964
1963
1959
1952
1945
1947
1969
2013
2068
2110
2116
2077
2009
1941
1900
1897
1921
1953
1975
1985
1984
1978
1974
1972
1972
1973
1974
1975
1975
1975
1976
1976
1977
1978
1979
1980
1981
1982
1982
1982
1983
1983
1984
1985
1987
1988
1988
1989
1989
1989
1990
1991
1992
1994
1996
1997
1999
2000
2001
2002
2003
2005
2008
2010
2013
2016
2019
2022
2024
2027
2030
2033
2037
2040
2043
2045
2046
2047
2047
2045
2042
2037
2031
2023
2015
2006
1997
1989
1981
1974
1968
1964
1961
1958
1956
1955
1953
1952
1951
1951
1950
1949
1949
1950
1951
1951
1952
1952
1952
1951
1951
1952
1952
1953
1954
1954
1955
1955
1955
1954
1954
1954
1954
1956
1956
1957
1957
1956
1956
1956
1956
1956
1957
1957
1958
1958
1958
1958
1958
1957
1957
1957
1958
1958
1959
1959
1959
1959
1959
1960
1960
1960
1960
1961
1961
1962
1962
1961
1961
1961
1960
1961
1961
1962
1963
1963
1963
1963
1963
1963
1963
1963
1963
1963
1963
1964
1964
1964
1964
1964
1963
1964
1965
1966
1966
1967
1967
1967
1967
1966
1966
1966
1966
1966
1966
1966
1967
1967
1967
1968
1968
1967
1967
1966
1966
1966
1966
1966
1967
1969
1972
1975
1979
1981
1982
1981
1980
1978
1976
1974
1973
1971
1971
1971
1972
1973
1973
1972
1972
1971
1970
1970
1970
1971
1973
1974
1973
1970
1963
1955
1954
1972
2013
2068
2114
2125
2090
2022
1948
1900
1891
1915
1950
1978
1992
1995
1992
1988
1985
1983
1983
1983
1984
1986
1988
1989
1989
1989
1989
1989
1990
1990
1991
1993
1994
1995
1996
1997
1998
1998
1999
2000
2001
2002
2004
2005
2007
2008
2009
2010
2011
2012
2013
2015
2017
2020
2022
2024
2026
2028
2030
2033
2037
2041
2045
2048
2051
2055
2058
2060
2063
2065
2066
2066
2065
2062
2057
2050
2043
2033
2023
2013
2004
1996
1988
1982
1977
1972
1968
1965
1963
1961
1960
1959
1959
1958
1958
1957
1956
1956
1955
1955
1956
1956
1957
1958
1959
1959
1959
1960
1960
1960
1960
1960
1960
1960
1960
1960
1960
1960
1960
1961
1962
1962
1962
1963
1962
1962
1962
1962
1962
1962
1962
1962
1962
1962
1963
1963
1963
1963
1963
1963
1963
1964
1964
1964
1964
1964
1964
1963
1963
1963
1964
1964
1964
1964
1964
1964
1964
1964
1964
1965
1965
1965
1965
1965
1965
1965
1965
1965
1965
1965
1965
1965
1965
1965
1964
1964
1964
1964
1965
1966
1969
1972
1976
1979
1980
1980
1978
1976
1973
1972
1971
1970
1968
1967
1967
1967
1966
1966
1965
1965
1964
1965
1966
1967
1968
1969
1969
1966
1961
1952
1947
1957
1990
2043
2095
2120
2097
2031
1949
1885
1861
1878
1917
1954
1978
1987
1986
1983
1980
1978
1977
1978
1979
1980
1981
1981
1982
1982
1982
1982
1983
1984
1985
1986
1987
1987
1988
1988
1988
1989
1990
1992
1993
1994
1995
1996
1997
1998
1999
2000
2002
2004
2006
2008
2009
2011
2012
2014
2015
2018
2021
2024
2028
2032
2036
2039
2041
2043
2046
2049
2052
2055
2057
2057
2054
2049
2043
2035
2026
2016
2006
1997
1988
1980
1973
1967
1962
1958
1955
1952
1950
1949
1948
1948
1948
1947
1946
1946
1945
1946
1946
1947
1948
1948
1948
1948
1948
1948
1948
1949
1950
1951
1952
1953
1953
1953
1952
1952
1952
1953
1953
1954
1954
1954
1954
1954
1955
1954
1954
1954
1954
1955
1955
1956
1956
1956
1955
1955
1954
1954
1955
1956
1957
1958
1958
1958
1957
1957
1957
1957
1957
1958
1958
1959
1959
1960
1960
1960
1960
1959
1959
1960
1961
1961
1962
1962
1961
1960
1960
1960
1961
1962
1963
1964
1964
1964
1963
1963
1962
1962
1962
1963
1964
1965
1965
1965
1965
1964
1964
1963
1962
1961
1961
1961
1962
1964
1967
1970
1974
1976
1977
1977
1976
1975
1975
1973
1972
1970
1968
1967
1966
1966
1967
1968
1968
1968
1967
1967
1966
1966
1968
1969
1970
1968
1963
1954
1948
1958
1992
2045
2097
2122
2102
2043
1967
1908
1886
1900
1933
1965
1983
1989
1987
1983
1979
1977
1977
1977
1978
1979
1980
1981
1982
1983
1983
1983
1983
1984
1984
1985
1986
1986
1988
1989
1990
1990
1991
1991
1992
1993
1994
1995
1996
1998
1999
2000
2001
2002
2003
2005
2007
2009
2011
2013
2015
2017
2019
2021
2024
2027
2030
2033
2037
2040
2043
2046
2048
2049
2050
2051
2050
2048
2044
2039
2031
2022
2013
2003
1994
1987
1980
1975
1971
1967
1964
1961
1958
1955
1953
1952
1952
1952
1952
1953
1953
1953
1953
1952
1952
1952
1953
1953
1954
1955
1955
1955
1955
1955
1955
1956
1956
1957
1958
1958
1959
1959
1959
1959
1958
1958
1959
1959
1959
1960
1960
1960
1959
1959
1959
1959
1960
1960
1960
1961
1961
1961
1961
1961
1961
1961
1960
1961
1961
1962
1963
1964
1963
1963
1962
1962
1962
1963
1964
1964
1965
1965
1964
1964
1964
1964
1964
1965
1965
1966
1966
1966
1966
1966
1965
1965
1965
1966
1966
1967
1967
1967
1967
1967
1967
1967
1967
1968
1969
1970
1970
1970
1969
1968
1966
1965
1964
1964
1965
1967
1970
1973
1976
1979
1981
1982
1982
1981
1980
1979
1978
1977
1975
1973
1971
1970
1970
1970
1971
1971
1971
1971
1971
1971
1971
1972
1973
1974
1972
1968
1960
1954
1962
1992
2043
2095
2125
2112
2055
1980
1916
1888
1898
1931
1965
1986
1995
1994
1990
1987
1985
1984
1985
1985
1985
1986
1986
1988
1989
1990
1991
1992
1992
1992
1992
1993
1994
1996
1997
1999
1999
2000
2000
2001
2002
2004
2006
2007
2009
2011
2012
2013
2014
2015
2016
2017
2019
2021
2023
2025
2028
2032
2035
2038
2040
2042
2045
2048
2052
2057
2060
2063
2064
2065
2066
2066
2064
2061
2055
2048
2039
2028
2018
2009
2000
1993
1987
1983
1978
1975
1972
1969
1966
1964
1962
1961
1962
1962
1963
1963
1963
1962
1962
1961
1961
1962
1963
1964
1965
1965
1966
1965
1964
1964
1964
1964
1965
1965
1966
1967
1967
1967
1966
1965
1965
1965
1966
1967
1967
1967
1967
1967
1967
1966
1966
1966
1966
1966
1967
1967
1968
1968
1968
1968
1967
1967
1968
1968
1969
1969
1969
1968
1968
1968
1968
1967
1967
1968
1968
1969
1969
1969
1969
1969
1969
1969
1969
1970
1970
1970
1970
1970
1970
1970
1970
1970
1970
1969
1968
1968
1967
1967
1967
1967
1967
1969
1972
1976
1980
1983
1984
1983
1981
1979
1977
1976
1975
1974
1972
1971
1971
1972
1972
1972
1971
1970
1970
1970
1970
1970
1971
1972
1972
1970
1964
1955
1951
1965
2003
2058
2107
2122
2089
2017
1937
1881
1868
1892
1932
1966
1985
1991
1989
1986
1983
1981
1980
1981
1982
1983
1984
1984
1984
1984
1984
1985
1986
1987
1988
1989
1990
1990
1990
1990
1991
1992
1993
1994
1996
1997
1998
1999
2000
2001
2002
2003
2005
2006
2007
2009
2010
2012
2013
2015
2017
2020
2023
2026
2029
2032
2035
2038
2040
2042
2044
2047
2048
2051
2052
2053
2051
2048
2041
2033
2024
2014
2005
1997
1989
1981
1975
1969
1964
1959
1956
1953
1951
1950
1950
1950
1950
1949
1948
1948
1948
1948
1949
1950
1950
1951
1951
1951
1951
1951
1951
1952
1953
1954
1955
1955
1955
1954
1954
1954
1954
1955
1955
1956
1956
1956
1956
1956
1956
1956
1955
1956
1956
1957
1957
1957
1957
1957
1957
1956
1956
1956
1957
1957
1958
1959
1959
1958
1958
1957
1958
1958
1959
1959
1960
1960
1960
1959
1959
1959
1959
1960
1960
1961
1962
1962
1963
1962
1962
1961
1961
1961
1961
1962
1962
1963
1963
1963
1963
1963
1962
1961
1961
1960
1960
1960
1960
1962
1964
1967
1971
1974
1976
1976
1975
1974
1973
1972
1970
1968
1966
1965
1964
1964
1964
1965
1966
1966
1966
1965
1965
1964
1965
1966
1967
1967
1964
1957
1948
1948
1968
2011
2065
2108
2114
2074
2004
1933
1889
1885
1911
1946
1973
1986
1987
1983
1979
1977
1975
1975
1976
1977
1977
1978
1979
1980
1981
1981
1981
1981
1982
1982
1983
1985
1986
1987
1987
1988
1988
1989
1990
1991
1993
1994
1996
1998
1999
2000
2001
2002
2003
2004
2006
2007
2009
2012
2014
2017
2019
2021
2023
2026
2029
2033
2037
2040
2043
2045
2047
2048
2049
2050
2050
2049
2046
2041
2033
2024
2015
2006
1997
1990
1983
1977
1972
1968
1964
1960
1957
1955
1954
1953
1953
1953
1954
1954
1954
1955
1955
1955
1954
1954
1954
1954
1955
1956
1956
1957
1957
1957
1957
1957
1958
1959
1960
1961
1961
1961
1961
1960
1959
1958
1958
1959
1960
1961
1962
1962
1962
1962
1962
1962
1962
1963
1963
1963
1963
1963
1963
1962
1962
1962
1963
1964
1965
1965
1966
1966
1966
1965
1965
1964
1965
1966
1967
1967
1967
1966
1965
1965
1965
1967
1968
1970
1970
1970
1969
1969
1968
1968
1968
1968
1969
1970
1971
1972
1973
1972
1971
1969
1967
1966
1966
1967
1968
1969
1970
1973
1976
1980
1982
1984
1984
1983
1982
1981
1980
1978
1976
1974
1972
1971
1971
1971
1972
1973
1974
1974
1974
1974
1973
1973
1974
1975
1975
1972
1966
1957
1960
1983
2031
2086
2124
2117
2060
1976
1899
1859
1863
1898
1940
1970
1985
1990
1989
1988
1987
1985
1984
1983
1983
1983
1985
1987
1989
1991
1992
1992
1991
1992
1992
1994
1995
1996
1996
1997
1998
2000
2002
2003
2003
2004
2005
2007
2008
2009
2011
2013
2014
2016
2018
2019
2020
2021
2023
2027
2031
2035
2038
2041
2044
2047
2050
2053
2057
2061
2065
2067
2070
2072
2073
2072
2069
2063
2055
2047
2037
2026
2016
2005
1995
1987
1981
1975
1971
1967
1964
1960
1957
1954
1953
1953
1954
1955
1955
1955
1955
1954
1953
1952
1952
1953
1954
1956
1958
1959
1960
1961
1960
1959
1958
1957
1958
1959
1960
1962
1963
1963
1963
1963
1963
1962
1962
1962
1962
1963
1964
1965
1965
1965
1964
1963
1962
1961
1962
1964
1966
1967
1967
1966
1964
1963
1963
1965
1967
1969
1969
1968
1966
1965
1964
1963
1963
1963
1964
1967
1971
1976
1979
1981
1981
1980
1979
1979
1980
1979
1977
1974
1971
1970
1970
1970
1971
1971
1971
1972
1972
1972
1972
1972
1972
1972
1972
1971
1966
1959
1952
1960
1993
2047
2103
2131
2107
2034
1941
1868
1842
1863
1910
1955
1982
1992
1992
1989
1987
1986
1986
1988
1989
1989
1988
1987
1987
1988
1991
1994
1996
1997
1997
1997
1997
1997
1998
1999
2000
2001
2003
2005
2006
2007
2008
2009
2010
2012
2014
2017
2019
2021
2022
2022
2024
2026
2030
2035
2040
2045
2049
2052
2054
2057
2060
2064
2069
2075
2080
2084
2086
2085
2082
2078
2071
2063
2053
2043
2031
2019
2007
1997
1987
1979
1973
1968
1965
1964
1962
1961
1959
1956
1953
1951
1951
1951
1953
1954
1956
1957
1958
1958
1957
1956
1955
1955
1956
1957
1960
1962
1963
1963
1963
1962
1961
1961
1962
1963
1964
1966
1967
1967
1967
1967
1966
1965
1965
1964
1965
1966
1967
1967
1967
1966
1966
1966
1967
1968
1968
1968
1968
1966
1964
1963
1962
1963
1964
1965
1966
1968
1971
1975
1979
1980
1980
1978
1976
1975
1974
1974
1973
1971
1970
1968
1968
1968
1968
1968
1968
1968
1969
1968
1967
1967
1967
1968
1969
1967
1961
1952
1950
1970
2014
2071
2114
2115
2065
1985
1908
1869
1874
1910
1951
1977
1989
1990
1987
1985
1984
1983
1982
1982
1982
1982
1982
1982
1983
1984
1985
1986
1987
1989
1990
1990
1989
1988
1988
1990
1992
1994
1996
1997
1997
1997
1998
1999
2001
2003
2005
2007
2008
2009
2011
2012
2014
2018
2021
2025
2029
2032
2035
2039
2043
2047
2050
2053
2057
2061
2064
2067
2068
2066
2061
2055
2047
2038
2027
2016
2005
1995
1986
1978
1971
1964
1958
1954
1951
1950
1950
1950
1949
1948
1946
1946
1946
1946
1947
1947
1947
1946
1946
1946
1947
1948
1948
1949
1949
1949
1950
1951
1952
1952
1952
1952
1952
1952
1954
1955
1956
1957
1957
1956
1955
1954
1953
1953
1954
1955
1956
1957
1956
1956
1956
1956
1956
1956
1957
1957
1957
1957
1957
1957
1957
1957
1957
1958
1958
1958
1958
1958
1959
1958
1958
1958
1957
1957
1956
1956
1956
1957
1957
1959
1961
1964
1967
1969
1971
1972
1971
1971
1970
1970
1969
1967
1964
1963
1962
1962
1962
1963
1963
1962
1961
1960
1959
1960
1961
1963
1964
1965
1964
1961
1952
1943
1944
1966
2013
2072
2115
2116
2068
1991
1917
1877
1880
1912
1950
1976
1986
1986
1981
1977
1974
1973
1973
1974
1975
1977
1978
1979
1979
1979
1979
1980
1980
1981
1982
1982
1983
1984
1985
1986
1987
1986
1987
1987
1989
1991
1992
1993
1994
1995
1996
1998
2000
2002
2004
2006
2008
2011
2013
2016
2018
2021
2025
2029
2033
2038
2042
2046
2048
2050
2053
2055
2057
2058
2057
2053
2047
2039
2029
2018
2007
1997
1987
1979
1972
1967
1962
1959
1955
1952
1949
1947
1945
1945
1944
1944
1944
1944
1944
1944
1944
1943
1943
1944
1945
1946
1947
1947
1947
1948
1948
1948
1948
1949
1949
1950
1950
1950
1951
1952
1952
1952
1952
1952
1951
1952
1952
1953
1954
1954
1954
1953
1953
1952
1952
1953
1953
1954
1954
1954
1954
1954
1954
1953
1953
1954
1955
1955
1956
1956
1956
1955
1955
1955
1956
1956
1957
1958
1958
1959
1958
1957
1957
1957
1957
1958
1958
1958
1958
1957
1957
1957
1958
1958
1958
1958
1959
1959
1959
1959
1959
1958
1958
1959
1960
1961
1961
1961
1960
1959
1957
1957
1957
1958
1958
1959
1959
1959
1958
1958
1958
1958
1958
1958
1958
1959
1959
1959
1959
1958
1958
1958
1958
1958
1959
1959
1959
1960
1960
1960
1959
1959
1958
1959
1959
1960
1960
1960
1960
1960
1960
1959
1959
1959
1960
1961
1962
1962
1962
1961
1960
1960
1960
1960
1961
1962
1962
1962
1962
1961
1960
1959
1958
1958
1960
1963
1967
1970
1972
1972
1971
1969
1968
1968
1968
1968
1967
1965
1964
1962
1961
1960
1960
1960
1961
1962
1962
1963
1963
1962
1963
1962
1962
1958
1952
1943
1939
1953
1991
2047
2099
2123
2102
2043
1972
1918
1901
1915
1944
1968
1979
1978
1973
1968
1965
1965
1965
1967
1968
1968
1968
1968
1968
1969
1969
1970
1971
1973
1973
1973
1973
1973
1973
1973
1974
1976
1977
1978
1979
1979
1979
1979
1979
1980
1981
1983
1985
1987
1988
1989
1990
1991
1992
1994
1996
1999
2002
2005
2007
2009
2012
2014
2017
2020
2023
2026
2029
2032
2034
2035
2035
2034
2031
2027
2022
2015
2008
2000
1992
1984
1977
1970
1965
1960
1956
1953
1950
1949
1947
1946
1945
1944
1943
1943
1943
1943
1944
1944
1944
1944
1944
1944
1944
1944
1944
1945
1946
1946
1946
1947
1946
1946
1946
1946
1946
1947
1948
1948
1948
1948
1948
1947
1947
1947
1948
1948
1949
1949
1949
1949
1949
1949
1949
1950
1950
1951
1951
1951
1952
1951
1951
1951
1951
1951
1951
1952
1953
1953
1954
1954
1953
1953
1952
1953
1953
1954
1955
1956
1956
1956
1956
1955
1955
1955
1955
1955
1956
1957
1957
1957
1957
1957
1957
1957
1957
1958
1959
1959
1959
1959
1959
1959
1958
1958
1958
1959
1960
1961
1961
1961
1961
1960
1960
1960
1961
1962
1963
1963
1963
1963
1962
1962
1962
1962
1963
1964
1965
1965
1965
1965
1965
1965
1964
1964
1965
1965
1966
1966
1967
1966
1966
1966
1966
1966
1966
1967
1967
1967
1967
1967
1967
1966
1966
1966
1967
1968
1968
1969
1969
1968
1968
1968
1968
1968
1968
1969
1969
1970
1970
1969
1969
1968
1968
1968
1969
1970
1971
1971
1971
1969
1968
1966
1965
1965
1966
1969
1972
1976
1979
1981
1981
1980
1979
1978
1978
1977
1977
1975
1973
1972
1970
1970
1970
1970
1971
1972
1972
1972
1973
1972
1972
1972
1972
1972
1970
1964
1956
1951
1961
1992
2044
2099
2132
2123
2073
2004
1946
1919
1926
1952
1977
1990
1991
1986
1981
1979
1978
1978
1979
1979
1979
1980
1980
1980
1981
1983
1984
1985
1986
1986
1987
1987
1988
1988
1989
1990
1991
1992
1994
1995
1995
1995
1995
1995
1997
1998
2000
2002
2003
2005
2006
2007
2008
2009
2010
2013
2016
2019
2022
2024
2026
2028
2030
2034
2038
2042
2045
2048
2050
2051
2052
2052
2051
2048
2045
2039
2033
2026
2018
2010
2001
1993
1986
1980
1976
1972
1969
1966
1964
1962
1961
1960
1959
1959
1959
1959
1959
1959
1958
1957
1956
1955
1956
1957
1958
1959
1960
1960
1960
1959
1959
1960
1960
1960
1960
1959
1959
1959
1960
1961
1961
1961
1960
1960
1960
1961
1962
1964
1964
1964
1964
1963
1963
1963
1963
1964
1965
1965
1965
1965
1965
1965
1965
1966
1966
1968
1968
1969
1969
1968
1967
1967
1968
1969
1970
1970
1970
1970
1970
1970
1970
1970
1970
1970
1970
1970
1971
1971
1972
1972
1972
1972
1972
1972
1972
1972
1973
1973
1973
1973
1973
1972
1972
1971
1972
1973
1974
1975
1975
1974
1973
1972
1971
1971
1972
1973
1974
1975
1975
1974
1974
1973
1973
1973
1973
1974
1975
1975
1975
1975
1974
1972
1972
1972
1973
1975
1976
1977
1976
1974
1973
1972
1972
1972
1973
1974
1977
1981
1984
1986
1987
1985
1983
1982
1981
1981
1981
1980
1978
1976
1974
1974
1974
1975
1975
1975
1975
1976
1976
1975
1975
1975
1975
1975
1973
1967
1959
1957
1973
2014
2069
2116
2126
2089
2018
1944
1896
1889
1914
1950
1977
1990
1992
1989
1986
1984
1983
1983
1984
1984
1985
1985
1985
1985
1986
1987
1988
1989
1990
1990
1989
1989
1989
1990
1992
1993
1995
1996
1997
1997
1998
1999
1999
2000
2001
2002
2004
2006
2007
2008
2009
2010
2011
2013
2016
2019
2022
2024
2027
2029
2032
2034
2038
2041
2045
2048
2051
2054
2056
2058
2058
2057
2054
2049
2043
2036
2028
2019
2010
2001
1992
1984
1976
1971
1967
1964
1961
1959
1957
1955
1954
1952
1950
1949
1949
1950
1951
1952
1952
1952
1952
1951
1950
1950
1951
1951
1952
1953
1954
1954
1954
1954
1954
1955
1956
1957
1957
1958
1958
1958
1958
1957
1957
1957
1957
1959
1960
1960
1960
1959
1958
1958
1958
1958
1959
1959
1960
1960
1960
1960
1960
1960
1960
1960
1960
1960
1960
1961
1961
1962
1961
1961
1961
1961
1961
1962
1963
1964
1964
1963
1963
1962
1962
1962
1963
1963
1964
1965
1965
1965
1965
1964
1964
1964
1964
1965
1965
1966
1966
1966
1966
1966
1966
1966
1966
1967
1967
1967
1967
1967
1967
1967
1967
1967
1967
1968
1968
1968
1969
1968
1968
1967
1967
1967
1968
1968
1969
1970
1970
1969
1969
1969
1969
1969
1969
1969
1969
1969
1968
1967
1967
1968
1970
1973
1976
1980
1981
1982
1980
1979
1978
1977
1976
1975
1973
1972
1971
1971
1971
1971
1971
1971
1970
1970
1970
1971
1971
1972
1973
1973
1971
1964
1955
1950
1962
1997
2050
2103
2128
2108
2047
1972
1914
1893
1907
1940
1971
1987
1992
1988
1983
1980
1978
1978
1979
1980
1982
1982
1983
1983
1982
1982
1983
1984
1985
1986
1987
1987
1988
1988
1989
1989
1990
1990
1991
1992
1994
1995
1996
1997
1997
1998
1999
2000
2001
2003
2005
2006
2008
2009
2011
2012
2014
2016
2019
2022
2025
2029
2032
2034
2037
2039
2042
2044
2047
2049
2050
2050
2048
2046
2041
2034
2027
2018
2010
2001
1994
1987
1980
1975
1970
1965
1962
1959
1958
1956
1956
1955
1955
1954
1953
1952
1952
1952
1952
1953
1954
1954
1954
1954
1954
1954
1954
1955
1956
1957
1957
1957
1958
1957
1957
1957
1957
1957
1958
1959
1960
1961
1961
1960
1960
1959
1959
1959
1959
1960
1961
1961
1961
1961
1960
1960
1960
1960
1961
1961
1962
1962
1963
1962
1962
1962
1962
1962
1962
1963
1963
1964
1964
1964
1964
1964
1964
1964
1964
1965
1966
1966
1966
1966
1965
1964
1964
1964
1965
1966
1967
1967
1967
1967
1967
1966
1967
1967
1967
1967
1968
1968
1968
1968
1968
1967
1967
1967
1967
1968
1969
1970
1970
1969
1969
1968
1968
1969
1969
1969
1970
1970
1970
1970
1970
1970
1970
1970
1970
1970
1969
1968
1968
1967
1967
1967
1969
1972
1975
1979
1982
1983
1983
1981
1979
1978
1977
1976
1974
1973
1972
1971
1971
1971
1971
1971
1970
1970
1970
1971
1971
1973
1974
1974
1972
1967
1958
1950
1957
1985
2035
2090
2126
2119
2069
1997
1932
1900
1905
1934
1966
1986
1993
1990
1985
1980
1978
1978
1978
1979
1980
1981
1982
1983
1983
1983
1984
1984
1985
1986
1987
1988
1988
1989
1989
1989
1990
1990
1991
1993
1995
1996
1997
1998
1998
1999
1999
2001
2002
2004
2006
2007
2009
2010
2011
2013
2014
2016
2019
2022
2025
2028
2031
2034
2037
2039
2041
2044
2047
2048
2049
2049
2048
2046
2042
2036
2029
2021
2012
2004
1997
1990
1983
1977
1972
1968
1964
1962
1960
1958
1957
1956
1955
1955
1954
1954
1953
1954
1954
1954
1955
1955
1955
1956
1956
1956
1956
1956
1957
1957
1958
1958
1959
1959
1959
1958
1958
1958
1958
1959
1960
1960
1961
1961
1960
1960
1960
1960
1960
1961
1962
1962
1962
1962
1961
1961
1961
1961
1962
1963
1963
1963
1963
1963
1962
1962
1962
1963
1964
1964
1965
1965
1965
1965
1965
1965
1965
1965
1965
1966
1966
1967
1967
1967
1967
1966
1966
1966
1966
1967
1968
1969
1969
1968
1967
1967
1967
1967
1968
1969
1970
1970
1970
1970
1969
1969
1969
1970
1970
1970
1971
1971
1971
1971
1971
1971
1971
1971
1971
1971
1972
1972
1972
1972
1972
1972
1972
1972
1973
1974
1974
1974
1973
1972
1971
1970
1969
1969
1970
1971
1973
1976
1979
1982
1985
1986
1985
1984
1982
1982
1981
1981
1979
1978
1976
1974
1974
1974
1975
1976
1977
1978
1978
1978
1977
1976
1976
1976
1975
1970
1962
1957
1966
1997
2048
2101
2129
2113
2055
1980
1919
1895
1907
1940
1972
1990
1996
1993
1989
1986
1985
1986
1987
1987
1988
1988
1988
1989
1989
1990
1992
1993
1994
1995
1995
1996
1996
1996
1996
1997
1998
1999
2001
2002
2002
2003
2004
2005
2007
2009
2011
2012
2013
2013
2014
2015
2016
2018
2021
2024
2027
2030
2032
2034
2036
2038
2041
2044
2048
2051
2055
2058
2060
2062
2063
2063
2062
2059
2054
2048
2042
2034
2025
2016
2007
1999
1992
1987
1982
1977
1973
1970
1967
1965
1964
1962
1961
1960
1960
1960
1961
1962
1962
1962
1961
1960
1960
1961
1962
1963
1964
1965
1965
1965
1965
1964
1964
1965
1966
1967
1967
1968
1969
1969
1969
1968
1968
1967
1967
1968
1968
1968
1968
1968
1969
1970
1970
1969
1969
1968
1968
1969
1969
1970
1970
1970
1970
1970
1971
1972
1973
1973
1973
1973
1972
1971
1970
1970
1970
1971
1972
1973
1973
1973
1972
1972
1972
1973
1974
1975
1975
1975
1974
1974
1973
1973
1973
1974
1974
1975
1976
1976
1977
1976
1976
1975
1973
1972
1972
1972
1973
1973
1975
1976
1979
1982
1985
1987
1987
1987
1986
1985
1984
1982
1980
1978
1976
1974
1974
1975
1976
1976
1977
1976
1976
1975
1974
1974
1976
1977
1978
1976
1971
1962
1958
1970
2006
2061
2111
2127
2092
2017
1933
1875
1862
1888
1931
1967
1987
1995
1995
1993
1991
1989
1988
1987
1986
1987
1988
1990
1992
1993
1994
1994
1993
1993
1993
1994
1995
1997
1998
1999
2000
2001
2001
2001
2002
2003
2004
2006
2008
2009
2010
2010
2011
2013
2015
2017
2019
2021
2023
2025
2027
2029
2032
2035
2038
2041
2045
2048
2051
2055
2058
2061
2064
2066
2067
2068
2066
2063
2058
2050
2042
2032
2021
2011
2001
1992
1984
1978
1973
1968
1964
1961
1958
1956
1954
1953
1952
1952
1952
1952
1953
1953
1952
1952
1951
1952
1952
1954
1955
1956
1956
1956
1955
1955
1955
1955
1957
1958
1959
1959
1959
1959
1959
1958
1958
1958
1959
1960
1961
1961
1961
1960
1959
1958
1958
1958
1959
1959
1960
1960
1961
1961
1960
1960
1960
1960
1961
1961
1962
1962
1963
1964
1963
1963
1962
1962
1962
1962
1963
1964
1964
1963
1963
1963
1963
1963
1964
1965
1966
1966
1965
1964
1964
1963
1963
1963
1963
1963
1963
1963
1962
1962
1961
1962
1965
1968
1973
1977
1980
1980
1979
1976
1974
1973
1972
1970
1969
1968
1967
1967
1967
1968
1967
1967
1966
1966
1966
1967
1968
1969
1970
1970
1968
1961
1951
1948
1963
2002
2058
2107
2121
2086
2013
1931
1877
1865
1891
1931
1965
1984
1989
1987
1983
1980
1978
1978
1979
1981
1983
1984
1984
1984
1983
1983
1984
1984
1985
1986
1987
1988
1989
1990
1990
1991
1991
1992
1993
1995
1997
1998
1999
1999
2000
2000
2001
2002
2004
2006
2008
2010
2012
2014
2015
2017
2019
2022
2025
2028
2032
2036
2039
2042
2045
2048
2049
2052
2054
2056
2056
2054
2050
2045
2037
2028
2018
2009
2000
1992
1985
1978
1972
1967
1963
1959
1956
1954
1953
1952
1952
1952
1951
1950
1949
1949
1949
1949
1950
1951
1952
1952
1953
1953
1952
1953
1953
1953
1954
1955
1956
1956
1957
1957
1957
1957
1956
1957
1957
1958
1958
1959
1959
1959
1958
1958
1959
1959
1959
1959
1959
1959
1959
1959
1960
1960
1960
1960
1960
1960
1961
1961
1962
1961
1961
1960
1960
1960
1961
1962
1963
1964
1964
1964
1963
1963
1963
1963
1963
1964
1965
1965
1965
1964
1964
1963
1964
1964
1965
1966
1967
1968
1968
1967
1967
1966
1966
1966
1967
1967
1968
1969
1969
1969
1968
1966
1965
1964
1964
1965
1967
1970
1974
1977
1979
1980
1980
1979
1978
1978
1978
1977
1975
1973
1971
1970
1969
1969
1970
1970
1971
1971
1971
1971
1971
1971
1972
1972
1971
1968
1961
1954
1957
1981
2027
2082
2121
2122
2078
2007
1937
1897
1897
1924
1958
1982
1992
1991
1986
1982
1980
1980
1981
1981
1982
1982
1982
1983
1984
1985
1986
1987
1988
1988
1989
1989
1989
1990
1991
1992
1993
1995
1995
1996
1996
1997
1997
1998
2000
2001
2003
2005
2007
2008
2008
2009
2010
2012
2015
2017
2020
2022
2025
2028
2030
2033
2035
2038
2042
2045
2048
2051
2053
2055
2055
2055
2053
2050
2046
2039
2032
2024
2015
2006
1998
1990
1983
1978
1973
1970
1968
1966
1964
1963
1961
1960
1959
1959
1958
1959
1959
1960
1960
1960
1960
1959
1959
1960
1960
1961
1962
1962
1962
1962
1962
1962
1962
1962
1963
1963
1964
1964
1964
1964
1964
1964
1964
1964
1964
1965
1966
1967
1967
1966
1966
1965
1965
1965
1966
1966
1967
1967
1967
1967
1967
1967
1967
1967
1968
1968
1969
1969
1970
1970
1969
1969
1969
1969
1969
1970
1971
1971
1971
1971
1970
1970
1970
1971
1971
1971
1972
1972
1972
1972
1972
1971
1971
1971
1971
1972
1973
1973
1973
1972
1971
1969
1968
1968
1968
1969
1971
1974
1978
1981
1984
1984
1984
1983
1982
1981
1981
1980
1979
1977
1974
1973
1972
1972
1972
1973
1974
1974
1974
1974
1973
1973
1974
1974
1974
1971
1964
1957
1958
1978
2022
2076
2118
2124
2085
2015
1944
1900
1896
1921
1955
1981
1993
1993
1988
1984
1982
1982
1983
1983
1984
1984
1984
1985
1986
1987
1988
1989
1989
1990
1990
1990
1990
1991
1992
1993
1994
1996
1997
1998
1998
1999
1999
1999
2001
2002
2004
2007
2008
2010
2011
2012
2013
2013
2014
2016
2019
2022
2025
2029
2031
2034
2036
2039
2043
2046
2049
2053
2056
2057
2058
2057
2054
2050
2046
2039
2030
2022
2013
2004
1996
1989
1982
1976
1972
1968
1966
1964
1963
1962
1961
1959
1957
1956
1956
1958
1959
1960
1960
1960
1959
1959
1959
1959
1959
1959
1959
1960
1961
1961
1962
1961
1961
1961
1962
1963
1964
1964
1964
1964
1964
1964
1964
1964
1963
1963
1964
1964
1966
1967
1968
1968
1968
1968
1968
1968
1968
1968
1968
1968
1968
1968
1967
1967
1968
1969
1970
1971
1972
1972
1971
1970
1969
1969
1970
1971
1973
1973
1973
1972
1971
1971
1971
1972
1973
1974
1974
1974
1973
1972
1972
1972
1973
1974
1974
1975
1976
1977
1976
1975
1973
1972
1972
1973
1975
1976
1977
1977
1980
1983
1988
1991
1992
1990
1988
1986
1985
1984
1982
1980
1978
1977
1977
1977
1978
1978
1979
1980
1981
1981
1981
1980
1980
1980
1980
1979
1975
1967
1964
1978
2018
2074
2123
2135
2096
2019
1936
1880
1868
1895
1937
1972
1993
2000
2000
1998
1996
1995
1994
1994
1995
1995
1996
1997
1997
1998
1999
2000
2000
2001
2002
2003
2004
2005
2006
2007
2008
2009
2010
2011
2011
2012
2013
2014
2016
2018
2019
2021
2022
2023
2024
2026
2027
2029
2032
2035
2038
2041
2044
2047
2048
2051
2054
2057
2061
2065
2069
2071
2074
2075
2075
2074
2072
2068
2062
2054
2045
2035
2024
2014
2004
1995
1987
1980
1975
1971
1968
1965
1963
1961
1959
1957
1956
1955
1955
1955
1956
1957
1957
1958
1958
1958
1958
1958
1959
1959
1960
1961
1961
1961
1961
1961
1960
1960
1960
1961
1962
1963
1964
1964
1963
1962
1960
1959
1959
1960
1961
1962
1962
1962
1960
1959
1958
1958
1958
1959
1959
1960
1960
1961
1960
1960
1959
1958
1958
1958
1959
1960
1960
1960
1959
1958
1958
1957
1957
1958
1959
1960
1960
1960
1958
1956
1954
1952
1952
1953
1956
1959
1962
1965
1967
1968
1967
1967
1966
1966
1966
1966
1964
1961
1958
1956
1954
1955
1956
1957
1958
1958
1958
1957
1957
1957
1957
1958
1958
1956
1950
1942
1940
1956
1994
2048
2095
2111
2082
2018
1945
1893
1878
1898
1931
1960
1975
1978
1974
1969
1966
1965
1965
1966
1967
1967
1968
1968
1969
1970
1972
1973
1974
1975
1976
1976
1976
1977
1978
1980
1981
1983
1984
1984
1985
1985
1986
1987
1989
1991
1993
1994
1996
1997
1999
2000
2002
2005
2007
2010
2013
2015
2018
2021
2023
2027
2030
2033
2036
2039
2042
2045
2047
2048
2048
2047
2043
2038
2032
2024
2016
2007
1998
1989
1981
1974
1968
1963
1960
1957
1955
1953
1952
1951
1949
1948
1947
1946
1947
1948
1949
1949
1949
1949
1949
1949
1949
1949
1949
1950
1951
1952
1952
1952
1951
1951
1951
1952
1953
1953
1954
1954
1955
1955
1955
1955
1955
1955
1955
1956
1957
1957
1958
1957
1957
1956
1956
1957
1957
1958
1959
1959
1959
1959
1959
1958
1958
1958
1958
1959
1960
1961
1961
1961
1961
1960
1960
1960
1961
1962
1962
1963
1963
1963
1963
1962
1961
1960
1960
1961
1962
1964
1967
1971
1974
1977
1978
1977
1976
1975
1974
1974
1973
1971
1969
1968
1967
1967
1967
1968
1969
1969
1968
1968
1968
1967
1968
1970
1971
1970
1967
1960
1953
1955
1977
2022
2076
2116
2115
2068
1991
1916
1872
1870
1900
1938
1969
1985
1991
1989
1987
1984
1983
1982
1983
1984
1986
1988
1990
1991
1992
1992
1992
1992
1992
1992
1994
1995
1997
1999
2000
2001
2002
2002
2002
2002
2003
2004
2006
2008
2010
2013
2015
2017
2018
2020
2021
2022
2023
2025
2028
2031
2034
2037
2040
2043
2046
2048
2051
2055
2059
2063
2066
2068
2069
2068
2067
2064
2059
2053
2045
2036
2026
2016
2007
1999
1991
1985
1979
1975
1972
1969
1968
1966
1965
1963
1962
1961
1961
1961
1962
1962
1962
1962
1962
1962
1963
1963
1964
1964
1965
1966
1967
1968
1967
1966
1965
1965
1965
1966
1967
1968
1969
1969
1968
1968
1967
1967
1967
1968
1969
1969
1970
1970
1970
1969
1968
1968
1968
1969
1970
1970
1970
1970
1969
1968
1968
1969
1970
1971
1972
1973
1973
1972
1971
1970
1969
1968
1968
1968
1969
1970
1971
1972
1974
1976
1979
1982
1985
1986
1985
1984
1983
1981
1980
1978
1976
1975
1974
1974
1973
1974
1974
1974
1975
1974
1974
1974
1975
1977
1978
1978
1974
1967
1958
1958
1979
2024
2082
2127
2128
2077
1992
1908
1858
1855
1887
1931
1966
1986
1994
1995
1995
1993
1991
1990
1989
1989
1990
1991
1993
1994
1996
1997
1997
1997
1998
1998
1999
2000
2001
2002
2003
2004
2004
2005
2006
2007
2008
2010
2011
2012
2014
2015
2016
2017
2018
2020
2022
2025
2027
2030
2032
2033
2036
2039
2043
2046
2049
2052
2056
2059
2063
2066
2069
2071
2071
2071
2068
2064
2058
2050
2041
2030
2019
2008
1999
1990
1982
1976
1971
1967
1963
1960
1957
1954
1952
1951
1951
1952
1952
1952
1952
1952
1951
1951
1951
1951
1952
1953
1954
1955
1955
1955
1955
1955
1954
1955
1956
1956
1957
1957
1957
1957
1957
1957
1957
1957
1958
1958
1958
1958
1958
1958
1957
1957
1957
1957
1958
1958
1958
1959
1959
1959
1959
1958
1957
1956
1956
1956
1957
1958
1960
1962
1965
1967
1970
1971
1972
1971
1971
1969
1968
1966
1963
1961
1959
1959
1960
1961
1961
1961
1961
1960
1960
1960
1960
1961
1962
1962
1962
1958
1950
1942
1946
1972
2022
2077
2112
2103
2048
1966
1893
1856
1862
1896
1936
1964
1979
1982
1980
1978
1976
1974
1974
1974
1975
1976
1977
1978
1979
1980
1981
1981
1982
1982
1983
1983
1985
1986
1987
1988
1989
1990
1991
1992
1992
1993
1994
1996
1998
2000
2001
2003
2003
2004
2006
2008
2010
2012
2015
2018
2021
2024
2027
2030
2033
2036
2040
2043
2046
2048
2050
2052
2054
2054
2052
2048
2043
2036
2027
2018
2008
1999
1989
1981
1973
1967
1962
1959
1956
1954
1952
1950
1948
1947
1946
1946
1946
1946
1946
1947
1948
1948
1948
1947
1947
1948
1948
1949
1949
1950
1950
1951
1951
1952
1952
1952
1953
1953
1954
1955
1956
1956
1956
1955
1955
1955
1955
1955
1956
1957
1956
1956
1956
1956
1956
1956
1956
1956
1956
1957
1958
1958
1958
1957
1956
1955
1954
1954
1954
1955
1956
1958
1960
1963
1966
1968
1970
1970
1969
1968
1967
1966
1965
1964
1962
1960
1958
1958
1958
1959
1960
1960
1960
1959
1959
1959
1960
1962
1963
1963
1961
1954
1944
1941
1956
1996
2051
2100
2115
2083
2016
1940
1887
1873
1893
1929
1960
1978
1983
1981
1977
1973
1972
1972
1973
1974
1975
1976
1977
1978
1979
1979
1980
1980
1981
1981
1982
1983
1985
1986
1987
1988
1988
1989
1990
1991
1992
1993
1995
1996
1998
1999
2000
2001
2002
2003
2005
2008
2010
2013
2016
2018
2020
2022
2025
2028
2032
2035
2039
2042
2045
2047
2048
2050
2051
2051
2049
2046
2040
2032
2023
2013
2003
1994
1985
1978
1972
1967
1963
1960
1957
1955
1953
1952
1950
1950
1949
1949
1949
1949
1949
1950
1950
1950
1951
1950
1950
1951
1951
1952
1953
1953
1953
1953
1953
1953
1953
1954
1955
1955
1956
1956
1956
1955
1955
1956
1956
1956
1956
1957
1957
1957
1957
1957
1956
1956
1956
1957
1958
1959
1960
1960
1959
1958
1958
1958
1958
1959
1960
1961
1961
1960
1959
1958
1957
1956
1956
1958
1960
1963
1966
1969
1972
1973
1972
1971
1970
1970
1970
1969
1968
1966
1963
1962
1961
1961
1962
1962
1963
1963
1963
1963
1963
1963
1963
1964
1965
1964
1961
1953
1945
1948
1972
2018
2072
2110
2108
2060
1986
1916
1877
1879
1907
1943
1969
1981
1983
1980
1977
1976
1975
1976
1976
1976
1976
1977
1978
1980
1981
1982
1982
1983
1983
1983
1984
1985
1986
1988
1989
1991
1991
1992
1992
1992
1993
1995
1996
1999
2001
2002
2004
2005
2006
2007
2008
2010
2012
2015
2018
2021
2024
2027
2030
2032
2034
2037
2041
2045
2048
2052
2055
2056
2056
2054
2051
2047
2040
2033
2024
2015
2006
1997
1989
1981
1975
1969
1965
1963
1961
1959
1958
1957
1955
1954
1954
1954
1955
1955
1955
1955
1954
1954
1954
1954
1954
1954
1955
1956
1957
1958
1958
1958
1957
1957
1958
1959
1959
1960
1961
1961
1961
1960
1960
1960
1960
1961
1961
1962
1962
1963
1963
1963
1963
1963
1963
1963
1964
1964
1965
1965
1964
1965
1965
1965
1965
1965
1966
1966
1966
1967
1967
1967
1967
1967
1967
1968
1968
1969
1969
1970
1970
1969
1968
1967
1966
1966
1967
1969
1971
1974
1977
1980
1982
1983
1982
1982
1982
1981
1981
1979
1977
1975
1973
1972
1972
1972
1973
1973
1973
1973
1973
1973
1973
1973
1973
1974
1974
1974
1972
1966
1958
1958
1978
2022
2078
2120
2123
2076
1997
1918
1872
1869
1900
1940
1971
1987
1993
1992
1990
1988
1987
1987
1988
1988
1989
1990
1991
1992
1993
1994
1995
1996
1996
1997
1998
1999
2000
2002
2004
2005
2006
2007
2007
2008
2009
2010
2011
2013
2015
2017
2019
2021
2022
2023
2024
2026
2028
2031
2034
2038
2041
2044
2047
2049
2052
2055
2058
2062
2066
2069
2073
2075
2077
2076
2074
2070
2064
2057
2048
2038
2028
2017
2007
1998
1990
1983
1978
1974
1971
1969
1966
1964
1963
1961
1960
1960
1960
1960
1960
1961
1960
1960
1959
1959
