1974
1973
1973
1973
1974
1975
1976
1977
1978
1978
1978
1977
1977
1977
1978
1980
1981
1983
1983
1983
1983
1983
1984
1985
1986
1987
1987
1988
1989
1990
1991
1991
1991
1991
1990
1990
1990
1989
1989
1988
1987
1985
1982
1980
1978
1977
1977
1976
1975
1974
1973
1973
1972
1971
1971
1971
1972
1973
1973
1973
1972
1972
1972
1972
1972
1972
1973
1974
1974
1974
1973
1973
1972
1973
1974
1975
1975
1975
1975
1974
1973
1973
1973
1973
1974
1975
1975
1975
1975
1975
1975
1975
1974
1973
1973
1974
1975
1976
1977
1976
1976
1975
1974
1974
1975
1975
1975
1975
1975
1975
1975
1975
1974
1973
1973
1973
1974
1975
1976
1978
1979
1979
1980
1981
1982
1982
1981
1981
1981
1980
1979
1978
1977
1975
1975
1975
1976
1976
1976
1976
1975
1975
1975
1975
1975
1975
1974
1972
1971
1970
1973
1986
2010
2039
2063
2073
2061
2034
2000
1974
1961
1960
1965
1970
1973
1974
1977
1979
1983
1986
1987
1988
1988
1988
1989
1990
1992
1995
1996
1996
1996
1995
1994
1994
1994
1995
1996
1997
1998
1998
1998
1997
1997
1997
1997
1998
2000
2000
2001
2001
2001
2000
2000
2000
2000
2002
2003
2004
2005
2006
2006
2006
2006
2005
2005
2005
2006
2007
2007
2007
2005
2004
2002
2000
1999
1997
1995
1993
1991
1989
1988
1987
1985
1985
1984
1984
1985
1985
1985
1985
1985
1984
1984
1983
1983
1983
1984
1985
1985
1986
1985
1985
1984
1984
1985
1985
1985
1986
1986
1985
1985
1984
1983
1983
1982
1983
1983
1984
1984
1984
1984
1983
1983
1982
1981
1981
1981
1981
1981
1981
1980
1979
1978
1978
1979
1981
1982
1984
1986
1987
1986
1986
1985
1984
1983
1982
1982
1981
1981
1980
1980
1979
1977
1977
1977
1977
1977
1978
1979
1979
1979
1979
1977
1975
1972
1970
1972
1980
1999
2026
2052
2069
2066
2045
2014
1984
1966
1962
1966
1972
1976
1977
1976
1976
1975
1976
1976
1977
1978
1977
1977
1976
1975
1976
1976
1978
1979
1979
1980
1980
1980
1980
1980
1979
1979
1979
1980
1980
1981
1982
1982
1982
1982
1982
1982
1983
1985
1986
1987
1988
1989
1988
1988
1988
1989
1990
1992
1993
1994
1994
1995
1995
1995
1995
1995
1994
1994
1993
1991
1990
1988
1986
1983
1980
1978
1977
1976
1976
1975
1975
1974
1973
1972
1972
1971
1972
1972
1973
1974
1975
1975
1974
1973
1973
1973
1973
1974
1975
1976
1977
1977
1976
1976
1975
1975
1975
1976
1977
1977
1977
1977
1976
1976
1975
1975
1975
1975
1976
1977
1977
1977
1976
1976
1975
1975
1976
1976
1976
1975
1974
1974
1974
1974
1974
1976
1977
1979
1980
1982
1983
1983
1982
1981
1981
1980
1979
1979
1978
1977
1976
1976
1976
1975
1975
1975
1976
1976
1977
1977
1978
1977
1975
1973
1970
1968
1968
1977
1997
2027
2057
2077
2076
2055
2023
1991
1970
1964
1967
1972
1975
1976
1975
1973
1973
1973
1974
1974
1975
1975
1975
1975
1975
1975
1975
1976
1977
1977
1978
1978
1978
1978
1978
1978
1978
1979
1979
1979
1980
1980
1981
1981
1982
1982
1983
1984
1984
1985
1985
1986
1986
1987
1988
1988
1989
1990
1990
1991
1993
1994
1994
1995
1994
1994
1994
1993
1993
1992
1991
1990
1988
1986
1984
1982
1980
1979
1978
1978
1977
1977
1976
1975
1975
1975
1974
1974
1975
1975
1976
1976
1976
1976
1975
1975
1975
1975
1975
1976
1976
1977
1977
1976
1976
1975
1975
1975
1975
1975
1976
1977
1977
1977
1976
1975
1974
1974
1974
1975
1976
1976
1976
1976
1975
1975
1975
1975
1976
1976
1976
1976
1976
1976
1975
1973
1972
1971
1973
1975
1977
1979
1981
1982
1982
1981
1981
1980
1979
1979
1979
1979
1978
1976
1975
1974
1974
1974
1975
1975
1974
1974
1974
1974
1975
1975
1974
1973
1971
1968
1968
1974
1990
2016
2045
2064
2066
2049
2019
1988
1966
1959
1962
1968
1973
1974
1974
1973
1973
1973
1973
1974
1974
1974
1974
1973
1973
1974
1974
1975
1976
1976
1977
1977
1977
1977
1977
1977
1977
1978
1979
1980
1980
1980
1979
1978
1978
1979
1980
1982
1983
1984
1984
1985
1985
1986
1986
1986
1987
1988
1990
1992
1993
1993
1992
1991
1990
1990
1991
1991
1992
1991
1990
1988
1985
1983
1981
1979
1978
1977
1976
1975
1973
1971
1969
1969
1969
1970
1971
1972
1972
1971
1971
1970
1970
1970
1970
1970
1971
1971
1971
1972
1972
1972
1972
1972
1971
1971
1971
1971
1972
1972
1972
1972
1972
1971
1970
1970
1970
1970
1970
1970
1970
1971
1972
1973
1974
1975
1976
1977
1977
1978
1977
1976
1974
1973
1971
1970
1970
1970
1970
1971
1972
1972
1971
1970
1970
1970
1972
1973
1973
1971
1968
1964
1962
1964
1975
1998
2027
2054
2069
2063
2039
2006
1977
1960
1956
1961
1967
1971
1973
1973
1972
1972
1972
1972
1973
1973
1974
1975
1975
1976
1975
1975
1975
1975
1976
1976
1977
1977
1978
1978
1978
1979
1979
1979
1979
1979
1979
1980
1981
1982
1983
1983
1983
1983
1984
1985
1987
1989
1991
1991
1991
1991
1991
1991
1992
1992
1993
1994
1995
1996
1996
1996
1995
1994
1992
1991
1990
1988
1986
1983
1980
1978
1977
1977
1976
1976
1976
1976
1975
1974
1974
1974
1974
1975
1976
1978
1979
1979
1979
1977
1976
1975
1975
1977
1979
1980
1982
1982
1982
1981
1979
1978
1978
1979
1981
1981
1982
1982
1982
1982
1982
1980
1978
1977
1977
1979
1981
1982
1982
1983
1983
1984
1984
1983
1982
1981
1981
1980
1979
1978
1977
1978
1980
1982
1984
1985
1986
1987
1988
1988
1987
1987
1987
1987
1987
1987
1986
1985
1984
1984
1983
1983
1981
1981
1981
1981
1982
1983
1983
1983
1983
1982
1980
1978
1975
1975
1981
1999
2026
2056
2077
2080
2062
2033
2001
1978
1969
1971
1976
1980
1981
1980
1979
1977
1977
1979
1980
1982
1981
1980
1979
1979
1980
1982
1984
1984
1983
1982
1981
1982
1983
1985
1986
1986
1985
1984
1983
1982
1983
1984
1986
1987
1987
1987
1988
1989
1990
1990
1991
1991
1991
1991
1992
1992
1993
1994
1994
1994
1996
1997
1999
1999
1998
1996
1994
1993
1992
1993
1994
1993
1991
1988
1985
1983
1982
1980
1979
1978
1978
1979
1979
1979
1977
1974
1973
1973
1975
1977
1978
1977
1976
1976
1976
1977
1977
1977
1976
1976
1975
1976
1976
1977
1977
1977
1977
1976
1976
1975
1976
1977
1977
1977
1976
1974
1973
1972
1972
1973
1975
1976
1978
1979
1980
1981
1980
1979
1979
1979
1978
1978
1978
1978
1977
1976
1974
1973
1972
1973
1974
1975
1975
1974
1974
1973
1973
1973
1973
1973
1971
1969
1969
1976
1993
2019
2046
2063
2062
2042
2011
1981
1963
1957
1961
1968
1972
1974
1974
1973
1972
1973
1975
1976
1976
1975
1974
1973
1973
1973
1975
1976
1977
1978
1978
1978
1977
1977
1977
1978
1979
1980
1981
1980
1979
1979
1979
1980
1981
1983
1984
1985
1986
1986
1985
1985
1986
1987
1989
1991
1992
1992
1992
1992
1993
1994
1995
1996
1996
1996
1996
1995
1994
1992
1989
1987
1985
1983
1981
1980
1979
1978
1977
1976
1975
1975
1974
1974
1973
1972
1971
1971
1971
1972
1972
1973
1974
1975
1976
1977
1977
1978
1978
1978
1977
1977
1976
1976
1976
1978
1980
1981
1980
1978
1976
1974
1974
1975
1976
1977
1978
1978
1979
1980
1981
1982
1982
1982
1983
1984
1984
1983
1982
1981
1980
1979
1978
1978
1978
1978
1978
1978
1978
1978
1978
1978
1978
1979
1978
1978
1976
1975
1973
1972
1976
1991
2017
2048
2073
2082
2068
2038
2003
1977
1965
1965
1971
1977
1978
1978
1977
1976
1976
1976
1977
1978
1979
1979
1979
1978
1978
1979
1979
1980
1981
1980
1980
1979
1979
1980
1982
1983
1983
1983
1982
1981
1982
1983
1984
1985
1986
1986
1986
1986
1987
1988
1989
1990
1990
1992
1993
1995
1996
1996
1996
1995
1994
1994
1995
1997
1998
1998
1998
1997
1995
1993
1991
1989
1987
1986
1984
1984
1983
1982
1981
1978
1976
1975
1975
1976
1978
1979
1980
1979
1978
1977
1976
1976
1977
1979
1979
1979
1979
1978
1979
1979
1979
1978
1978
1978
1979
1981
1982
1982
1981
1979
1978
1977
1978
1978
1978
1978
1978
1978
1979
1979
1980
1982
1984
1985
1986
1986
1986
1985
1984
1983
1982
1980
1979
1979
1980
1981
1981
1980
1979
1979
1980
1981
1982
1982
1981
1979
1978
1976
1974
1972
1972
1980
2000
2030
2060
2081
2080
2058
2025
1992
1971
1964
1968
1974
1979
1980
1980
1978
1977
1976
1976
1977
1977
1978
1978
1979
1979
1979
1978
1978
1979
1980
1981
1982
1983
1983
1983
1983
1982
1982
1981
1981
1982
1983
1983
1984
1985
1985
1986
1987
1988
1988
1988
1989
1992
1994
1995
1996
1995
1995
1996
1997
1998
1999
1999
1999
1999
1999
1999
1998
1996
1994
1992
1991
1989
1988
1986
1984
1982
1981
1980
1979
1979
1978
1978
1977
1976
1976
1975
1975
1975
1976
1977
1977
1977
1976
1975
1974
1974
1975
1975
1975
1976
1977
1978
1978
1977
1976
1975
1974
1974
1974
1974
1975
1977
1979
1980
1981
1982
1981
1981
1981
1981
1982
1982
1981
1979
1977
1975
1974
1974
1975
1976
1976
1977
1977
1977
1977
1976
1975
1974
1973
1971
1969
1968
1969
1979
1999
2029
2057
2075
2072
2049
2017
1987
1968
1963
1966
1970
1973
1974
1975
1976
1976
1977
1976
1975
1975
1974
1974
1974
1975
1976
1978
1979
1979
1980
1980
1980
1980
1979
1979
1979
1980
1981
1981
1981
1981
1981
1982
1982
1983
1984
1985
1986
1987
1988
1988
1988
1988
1988
1988
1989
1990
1992
1993
1994
1995
1995
1994
1994
1994
1994
1995
1995
1994
1992
1990
1988
1985
1983
1981
1979
1978
1978
1978
1979
1979
1979
1977
1975
1974
1973
1974
1975
1976
1977
1976
1975
1975
1976
1977
1978
1978
1978
1977
1975
1975
1975
1975
1976
1977
1978
1980
1983
1985
1985
1984
1982
1981
1979
1979
1978
1978
1976
1975
1975
1975
1976
1977
1978
1977
1976
1975
1975
1975
1976
1976
1975
1973
1970
1969
1974
1988
2013
2043
2065
2072
2057
2028
1994
1970
1961
1964
1971
1976
1977
1976
1975
1974
1974
1974
1974
1975
1976
1977
1977
1976
1976
1976
1977
1979
1980
1981
1981
1980
1979
1978
1978
1979
1981
1983
1986
1988
1988
1987
1985
1984
1983
1984
1985
1986
1987
1988
1988
1989
1990
1992
1994
1995
1995
1995
1994
1994
1994
1994
1994
1994
1994
1993
1993
1991
1990
1988
1987
1985
1984
1982
1979
1976
1974
1972
1971
1971
1971
1971
1971
1971
1971
1972
1973
1974
1974
1974
1974
1974
1974
1973
1973
1973
1973
1973
1974
1975
1976
1976
1976
1976
1976
1977
1979
1981
1982
1984
1985
1985
1985
1983
1980
1978
1976
1975
1975
1976
1977
1976
1976
1975
1974
1974
1975
1977
1980
1982
1981
1977
1971
1965
1961
1964
1980
2009
2046
2077
2092
2083
2053
2017
1986
1969
1965
1968
1970
1972
1973
1974
1975
1975
1976
1976
1976
1975
1973
1972
1972
1973
1975
1977
1978
1979
1979
1979
1979
1979
1978
1978
1977
1977
1976
1976
1975
1974
1974
1975
1977
1978
1980
1980
1980
1980
1980
1980
1980
1981
1982
1983
1983
1984
1983
1983
1983
1984
1985
1987
1988
1989
1988
1986
1984
1982
1980
1979
1978
1977
1977
1976
1975
1974
1972
1971
1969
1968
1968
1968
1969
1969
1969
1969
1968
1968
1968
1969
1969
1970
1970
1970
1970
1969
1969
1969
1969
1970
1970
1970
1969
1968
1967
1966
1966
1967
1968
1969
1970
1972
1974
1976
1976
1976
1975
1974
1973
1973
1973
1973
1972
1970
1969
1967
1967
1967
1967
1968
1969
1969
1969
1969
1969
1969
1968
1966
1963
1959
1958
1962
1977
2005
2039
2067
2078
2066
2037
2001
1972
1958
1957
1962
1967
1968
1967
1965
1964
1963
1965
1966
1967
1968
1968
1967
1967
1967
1967
1967
1968
1970
1971
1972
1973
1972
1971
1969
1968
1968
1969
1972
1974
1975
1975
1975
1975
1975
1975
1975
1976
1977
1979
1980
1981
1981
1981
1982
1982
1983
1984
1985
1986
1986
1985
1985
1985
1985
1985
1985
1986
1985
1984
1982
1980
1978
1975
1973
1972
1972
1971
1971
1970
1970
1969
1969
1968
1968
1968
1968
1968
1969
1969
1970
1969
1969
1968
1968
1967
1968
1969
1970
1971
1971
1971
1970
1969
1968
1967
1967
1967
1968
1969
1970
1970
1969
1969
1968
1968
1968
1968
1969
1970
1970
1970
1969
1968
1967
1966
1966
1966
1967
1969
1971
1974
1976
1976
1976
1974
1973
1973
1974
1974
1973
1971
1970
1968
1967
1967
1968
1968
1969
1969
1970
1970
1971
1972
1972
1970
1966
1963
1960
1961
1969
1988
2016
2047
2067
2067
2048
2016
1985
1965
1959
1961
1966
1967
1966
1965
1965
1966
1967
1968
1969
1969
1970
1970
1970
1970
1970
1970
1970
1970
1971
1971
1971
1972
1973
1974
1974
1975
1975
1975
1974
1974
1973
1974
1974
1976
1977
1979
1980
1981
1981
1982
1983
1983
1982
1982
1981
1982
1982
1983
1984
1986
1987
1988
1988
1988
1987
1987
1987
1988
1989
1988
1986
1983
1981
1979
1978
1977
1975
1974
1972
1971
1971
1971
1970
1970
1970
1970
1970
1971
1971
1972
1972
1973
1973
1973
1973
1974
1975
1975
1975
1975
1975
1976
1977
1977
1977
1977
1977
1977
1977
1977
1976
1976
1976
1976
1976
1976
1975
1975
1975
1976
1976
1976
1977
1977
1977
1976
1976
1975
1974
1974
1974
1974
1974
1974
1974
1976
1979
1982
1984
1984
1983
1982
1980
1980
1979
1979
1979
1979
1978
1977
1976
1974
1973
1973
1974
1975
1976
1977
1978
1978
1977
1974
1971
1967
1967
1974
1993
2021
2050
2070
2071
2052
2020
1988
1966
1959
1963
1970
1975
1976
1975
1974
1973
1973
1973
1973
1973
1974
1975
1976
1977
1976
1976
1975
1975
1976
1976
1977
1978
1979
1981
1981
1981
1980
1979
1979
1980
1981
1982
1982
1982
1981
1980
1981
1982
1984
1985
1986
1986
1986
1986
1987
1988
1990
1991
1992
1993
1993
1993
1993
1993
1992
1991
1991
1991
1991
1991
1990
1989
1987
1986
1984
1981
1980
1978
1977
1977
1978
1978
1978
1977
1977
1975
1974
1974
1974
1975
1977
1979
1980
1980
1979
1978
1977
1977
1976
1977
1978
1979
1980
1980
1980
1980
1979
1978
1978
1978
1979
1980
1980
1980
1980
1979
1980
1980
1981
1981
1981
1981
1980
1980
1979
1979
1980
1981
1982
1982
1983
1983
1982
1981
1981
1980
1981
1981
1981
1981
1980
1980
1980
1981
1982
1984
1986
1988
1989
1989
1989
1989
1988
1987
1985
1984
1982
1982
1982
1983
1984
1985
1985
1984
1983
1982
1982
1983
1984
1984
1982
1978
1975
1978
1992
2017
2048
2073
2083
2073
2047
2014
1988
1975
1973
1977
1981
1983
1983
1982
1981
1981
1981
1982
1983
1982
1982
1982
1982
1983
1984
1985
1985
1985
1984
1984
1984
1986
1987
1988
1989
1989
1989
1988
1987
1987
1987
1989
1991
1992
1993
1993
1992
1992
1992
1992
1994
1995
1996
1998
1999
1999
1999
1999
1999
1999
1999
1999
2000
2000
2001
2001
2002
2001
2000
1997
1995
1993
1992
1992
1992
1991
1989
1986
1984
1982
1982
1983
1984
1984
1984
1984
1983
1982
1981
1981
1981
1981
1981
1982
1983
1983
1983
1982
1981
1980
1980
1980
1981
1982
1982
1982
1981
1981
1980
1980
1979
1979
1979
1979
1980
1981
1982
1981
1980
1978
1977
1977
1978
1979
1980
1981
1980
1979
1978
1977
1977
1977
1977
1977
1977
1977
1977
1977
1977
1977
1979
1981
1983
1985
1985
1984
1983
1983
1982
1981
1981
1980
1979
1978
1978
1977
1977
1977
1976
1976
1976
1976
1977
1978
1978
1977
1975
1972
1968
1968
1973
1989
2014
2042
2062
2064
2048
2018
1987
1966
1958
1960
1966
1970
1972
1972
1972
1971
1971
1971
1971
1971
1971
1971
1971
1971
1972
1973
1973
1972
1972
1971
1972
1974
1976
1977
1977
1977
1976
1976
1976
1977
1977
1977
1978
1978
1979
1980
1980
1979
1979
1980
1981
1983
1984
1985
1986
1986
1986
1986
1986
1986
1987
1987
1988
1988
1988
1987
1986
1985
1984
1984
1983
1983
1982
1980
1978
1976
1974
1973
1973
1972
1971
1970
1969
1969
1969
1969
1969
1969
1969
1969
1969
1969
1969
1970
1971
1971
1971
1971
1970
1970
1971
1972
1973
1973
1972
1971
1969
1969
1969
1969
1971
1972
1973
1974
1973
1972
1971
1970
1970
1970
1971
1972
1973
1973
1973
1972
1970
1968
1967
1967
1967
1968
1970
1972
1974
1975
1976
1976
1975
1975
1975
1976
1976
1976
1975
1973
1972
1970
1970
1970
1971
1972
1972
1972
1972
1972
1972
1972
1973
1973
1972
1969
1966
1966
1974
1993
2022
2052
2070
2069
2048
2016
1987
1968
1963
1966
1971
1973
1973
1973
1974
1975
1976
1977
1976
1975
1974
1973
1973
1974
1975
1976
1977
1977
1977
1978
1977
1977
1977
1977
1978
1979
1979
1979
1978
1977
1977
1977
1978
1979
1980
1981
1982
1983
1983
1984
1984
1984
1984
1984
1986
1988
1989
1991
1991
1991
1990
1989
1989
1989
1989
1990
1991
1992
1992
1991
1989
1987
1984
1982
1982
1982
1981
1980
1979
1977
1976
1975
1975
1976
1977
1978
1979
1979
1979
1979
1979
1978
1979
1979
1980
1981
1982
1982
1982
1982
1982
1982
1982
1983
1983
1984
1985
1985
1984
1984
1983
1982
1982
1983
1983
1983
1983
1983
1982
1982
1982
1982
1982
1982
1982
1981
1982
1982
1983
1983
1983
1983
1982
1980
1980
1980
1980
1980
1981
1980
1980
1980
1981
1983
1985
1988
1989
1989
1988
1987
1985
1984
1983
1982
1981
1980
1979
1979
1980
1979
1979
1978
1978
1978
1979
1980
1980
1978
1975
1971
1969
1970
1981
2002
2033
2061
2077
2072
2048
2014
1984
1966
1962
1966
1972
1975
1975
1975
1974
1973
1972
1971
1971
1972
1972
1974
1975
1976
1976
1976
1976
1975
1975
1975
1976
1976
1977
1978
1978
1979
1978
1978
1977
1977
1977
1978
1980
1981
1981
1981
1981
1981
1982
1983
1984
1984
1985
1986
1987
1988
1989
1989
1990
1990
1990
1990
1990
1990
1991
1991
1991
1990
1988
1987
1985
1984
1983
1982
1980
1978
1976
1975
1974
1973
1973
1972
1972
1971
1971
1971
1971
1971
1971
1971
1970
1970
1970
1970
1969
1969
1968
1968
1968
1967
1968
1969
1970
1970
1970
1968
1966
1965
1964
1965
1966
1966
1966
1964
1962
1959
1958
1957
1956
1956
1955
1954
1952
1950
1948
1946
1943
1941
1939
1936
1933
1930
1925
1920
1916
1912
1910
1909
1909
1909
1909
1907
1903
1899
1896
1893
1891
1888
1886
1884
1882
1880
1879
1879
1880
1880
1880
1880
1880
1880
1880
1880
1879
1878
1876
1875
1875
1880
1894
1918
1946
1969
1976
1963
1935
1904
1880
1870
1872
1880
1887
1891
1892
1892
1891
1890
1890
1890
1891
1893
1895
1897
1898
1899
1899
1898
1899
1899
1900
1901
1902
1904
1905
1906
1907
1908
1908
1909
1910
1911
1913
1914
1916
1917
1919
1920
1920
1921
1921
1921
1922
1924
1926
1929
1931
1933
1933
1933
1933
1933
1934
1935
1937
1938
1939
1940
1940
1939
1939
1938
1937
1936
1934
1933
1933
1932
1931
1930
1929
1928
1927
1928
1928
1929
1929
1930
1931
1931
1931
1932
1933
1934
1936
1938
1939
1940
1940
1940
1940
1941
1941
1942
1943
1944
1944
1944
1944
1943
1943
1943
1944
1943
1943
1943
1943
1943
1943
1944
1946
1948
1951
1953
1955
1955
1955
1953
1952
1951
1950
1950
1951
1951
1950
1949
1949
1948
1948
1948
1948
1948
1949
1951
1952
1953
1953
1951
1948
1944
1941
1942
1953
1977
2011
2047
2069
2072
2053
2022
1992
1975
1973
1981
1993
2002
2008
2010
2010
2010
2010
2012
2013
2014
2015
2015
2015
2014
2014
2014
2014
2015
2015
2016
2016
2017
2018
2018
2017
2016
2016
2015
2016
2018
2020
2021
2021
2021
2019
2018
2018
2019
2020
2022
2023
2024
2024
2024
2025
2025
2025
2025
2025
2026
2026
2026
2026
2026
2025
2025
2024
2024
2022
2020
2019
2017
2015
2012
2010
2007
2005
2004
2003
2002
2002
2001
2000
1999
1999
1998
1998
1999
1999
1999
1999
1999
1999
1999
1999
1998
1998
1998
1999
2000
2000
2000
1999
1998
1997
1997
1996
1996
1995
1995
1996
1996
1996
1995
1994
1993
1992
1992
1992
1993
1995
1997
1998
2000
2000
2000
1999
1997
1997
1996
1996
1995
1994
1993
1992
1991
1990
1989
1988
1988
1989
1990
1990
1990
1989
1989
1988
1986
1985
1983
1982
1982
1988
2004
2031
2061
2085
2090
2074
2045
2012
1989
1978
1978
1982
1985
1986
1987
1987
1987
1987
1987
1988
1988
1988
1987
1987
1987
1987
1988
1988
1989
1990
1990
1990
1989
1989
1989
1990
1991
1992
1992
1992
1992
1991
1991
1991
1992
1993
1994
1996
1996
1996
1996
1996
1997
1998
1999
2000
2002
2003
2003
2004
2003
2003
2003
2003
2003
2003
2003
2002
2001
2000
1998
1996
1994
1992
1991
1990
1989
1988
1988
1987
1987
1986
1985
1984
1984
1983
1983
1982
1982
1981
1981
1982
1982
1983
1984
1984
1984
1983
1983
1983
1983
1982
1982
1982
1982
1983
1984
1984
1983
1982
1982
1980
1980
1979
1980
1981
1982
1983
1983
1981
1979
1977
1975
1974
1974
1976
1979
1983
1986
1987
1987
1985
1982
1980
1980
1980
1981
1980
1980
1979
1978
1977
1977
1977
1977
1977
1978
1979
1979
1978
1977
1976
1975
1974
1972
1971
1973
1982
2001
2029
2055
2069
2063
2040
2006
1977
1960
1957
1963
1970
1974
1976
1976
1975
1975
1976
1977
1978
1979
1979
1979
1978
1977
1976
1976
1978
1980
1981
1981
1980
1980
1979
1980
1981
1982
1984
1986
1986
1986
1985
1984
1984
1983
1984
1985
1986
1987
1988
1990
1991
1991
1991
1991
1991
1991
1992
1993
1994
1995
1995
1995
1995
1995
1994
1993
1993
1992
1991
1991
1990
1988
1986
1984
1981
1979
1978
1977
1977
1976
1975
1974
1973
1973
1973
1973
1974
1974
1975
1975
1975
1975
1974
1974
1974
1973
1974
1975
1976
1976
1976
1975
1975
1974
1973
1973
1974
1975
1976
1976
1976
1974
1972
1970
1970
1971
1974
1977
1979
1981
1981
1981
1980
1979
1978
1977
1976
1976
1976
1976
1976
1976
1975
1974
1973
1972
1972
1972
1973
1974
1974
1973
1972
1970
1968
1966
1966
1970
1984
2008
2037
2060
2068
2055
2027
1995
1970
1959
1959
1964
1969
1971
1971
1971
1971
1972
1974
1975
1976
1976
1975
1973
1973
1973
1973
1974
1976
1976
1977
1977
1978
1978
1977
1978
1978
1978
1979
1980
1981
1981
1982
1982
1982
1981
1981
1982
1983
1985
1986
1987
1988
1989
1989
1989
1990
1990
1991
1992
1993
1994
1995
1996
1997
1997
1995
1993
1991
1990
1989
1988
1987
1986
1983
1981
1979
1978
1978
1977
1977
1976
1976
1975
1974
1974
1974
1974
1975
1975
1976
1976
1976
1976
1976
1976
1976
1976
1977
1977
1978
1979
1979
1979
1979
1978
1978
1978
1978
1978
1978
1978
1978
1977
1977
1976
1977
1977
1979
1979
1979
1979
1978
1977
1976
1975
1975
1975
1977
1980
1983
1986
1987
1986
1984
1983
1982
1982
1981
1981
1980
1979
1978
1978
1977
1977
1978
1978
1979
1980
1979
1979
1978
1977
1975
1973
1970
1968
1970
1980
2001
2030
2059
2075
2071
2048
2016
1986
1969
1965
1968
1973
1976
1976
1976
1974
1974
1974
1975
1976
1976
1977
1977
1977
1977
1977
1977
1977
1977
1978
1978
1978
1978
1978
1979
1979
1980
1980
1981
1981
1981
1981
1981
1981
1982
1982
1983
1984
1985
1986
1987
1988
1988
1988
1988
1988
1988
1989
1990
1992
1993
1993
1993
1993
1993
1993
1994
1993
1993
1992
1990
1989
1987
1985
1984
1982
1981
1980
1979
1978
1977
1977
1976
1976
1976
1975
1975
1975
1976
1976
1977
1977
1977
1976
1977
1977
1977
1977
1978
1978
1978
1978
1978
1978
1977
1976
1976
1976
1977
1978
1978
1978
1978
1978
1978
1978
1978
1978
1978
1979
1979
1978
1978
1978
1977
1976
1976
1976
1977
1980
1983
1985
1986
1986
1985
1984
1982
1982
1981
1981
1981
1980
1980
1979
1978
1977
1977
1977
1978
1978
1978
1979
1979
1978
1977
1974
1971
1970
1973
1986
2009
2038
2062
2072
2061
2034
2001
1975
1962
1962
1968
1973
1977
1978
1978
1977
1977
1977
1977
1977
1978
1978
1978
1979
1980
1980
1980
1980
1980
1981
1981
1982
1981
1981
1980
1979
1980
1981
1982
1984
1984
1985
1985
1985
1985
1985
1986
1986
1987
1988
1989
1989
1989
1989
1990
1991
1992
1992
1993
1994
1995
1995
1996
1996
1996
1995
1994
1993
1993
1992
1991
1990
1989
1987
1985
1983
1980
1978
1976
1975
1975
1975
1975
1975
1975
1974
1974
1974
1974
1975
1976
1977
1977
1977
1976
1976
1976
1976
1977
1977
1978
1978
1978
1978
1978
1977
1977
1977
1977
1977
1978
1977
1977
1976
1975
1975
1974
1975
1976
1978
1980
1982
1983
1984
1984
1983
1982
1982
1981
1981
1980
1979
1979
1979
1978
1977
1976
1975
1975
1976
1977
1978
1978
1978
1977
1976
1974
1972
1969
1968
1970
1981
2004
2035
2063
2077
2070
2044
2009
1979
1963
1960
1965
1971
1974
1974
1974
1974
1974
1974
1974
1974
1974
1973
1973
1973
1974
1974
1975
1976
1977
1977
1977
1977
1977
1977
1977
1977
1978
1978
1979
1980
1980
1980
1980
1980
1980
1981
1982
1983
1985
1986
1987
1987
1986
1986
1986
1987
1988
1990
1991
1992
1993
1993
1992
1992
1992
1992
1991
1991
1991
1989
1987
1985
1983
1981
1979
1978
1976
1975
1974
1973
1972
1971
1971
1970
1970
1971
1971
1971
1971
1972
1972
1972
1971
1971
1971
1971
1972
1973
1974
1974
1974
1973
1973
1972
1973
1973
1974
1974
1974
1974
1974
1973
1973
1972
1972
1972
1973
1973
1973
1973
1973
1973
1973
1973
1973
1973
1973
1973
1973
1973
1973
1973
1973
1973
1973
1972
1972
1971
1971
1972
1973
1975
1977
1979
1980
1980
1980
1980
1980
1979
1979
1978
1976
1975
1974
1974
1974
1975
1975
1975
1975
1975
1975
1975
1974
1973
1971
1970
1968
1967
1969
1980
2002
2033
2060
2075
2068
2043
2009
1980
1964
1961
1966
1970
1972
1972
1971
1971
1971
1972
1973
1974
1974
1974
1974
1974
1974
1974
1975
1975
1976
1977
1977
1977
1977
1976
1977
1977
1978
1979
1979
1979
1979
1979
1980
1981
1982
1983
1984
1984
1985
1985
1984
1985
1985
1986
1987
1988
1989
1990
1990
1991
1991
1991
1991
1991
1991
1992
1993
1993
1992
1992
1990
1988
1986
1984
1983
1982
1982
1982
1980
1978
1976
1974
1974
1974
1975
1976
1977
1977
1976
1975
1975
1974
1975
1975
1975
1976
1976
1976
1976
1976
1976
1975
1975
1975
1976
1977
1977
1977
1977
1977
1977
1976
1976
1976
1976
1976
1977
1977
1977
1976
1975
1975
1975
1975
1976
1977
1977
1977
1977
1976
1975
1974
1973
1973
1974
1975
1977
1979
1981
1983
1983
1983
1982
1982
1981
1981
1980
1980
1978
1977
1976
1976
1976
1976
1975
1975
1975
1975
1976
1978
1978
1977
1975
1972
1970
1970
1976
1991
2015
2042
2063
2068
2052
2024
1992
1969
1960
1962
1969
1975
1977
1978
1977
1976
1976
1977
1978
1978
1979
1979
1979
1979
1980
1980
1981
1982
1982
1982
1982
1982
1982
1982
1982
1982
1983
1984
1986
1987
1987
1987
1987
1987
1987
1988
1989
1990
1991
1992
1992
1992
1991
1991
1991
1992
1994
1996
1998
1999
1999
1999
1999
1998
1998
1998
1998
1998
1998
1997
1996
1994
1991
1988
1986
1984
1983
1982
1981
1979
1979
1978
1979
1979
1980
1981
1981
1982
1982
1982
1982
1982
1983
1983
1983
1983
1984
1984
1985
1986
1986
1985
1985
1985
1985
1984
1985
1986
1987
1987
1987
1987
1985
1984
1983
1983
1984
1985
1985
1985
1984
1984
1984
1984
1986
1988
1989
1989
1989
1988
1987
1986
1985
1984
1983
1982
1981
1980
1980
1980
1980
1980
1979
1979
1979
1979
1979
1980
1980
1978
1975
1972
1969
1969
1976
1994
2020
2049
2069
2071
2052
2021
1988
1966
1959
1961
1968
1972
1974
1974
1973
1972
1971
1971
1972
1972
1973
1973
1973
1974
1974
1974
1974
1974
1974
1974
1975
1976
1977
1978
1977
1977
1976
1976
1975
1975
1975
1976
1978
1979
1981
1982
1982
1983
1984
1984
1985
1986
1987
1988
1991
1992
1993
1992
1991
1991
1991
1993
1994
1996
1996
1994
1991
1988
1985
1984
1983
1984
1985
1985
1983
1980
1977
1975
1974
1973
1973
1972
1970
1967
1965
1965
1968
1972
1976
1978
1978
1977
1975
1974
1973
1973
1972
1971
1970
1971
1974
1977
1979
1980
1980
1979
1977
1976
1975
1975
1975
1976
1977
1978
1979
1979
1978
1976
1975
1975
1976
1978
1980
1981
1981
1981
1980
1979
1978
1978
1979
1980
1980
1980
1979
1979
1979
1981
1983
1987
1989
1991
1991
1990
1988
1987
1986
1985
1984
1984
1984
1985
1985
1985
1984
1983
1982
1983
1985
1986
1987
1986
1982
1978
1976
1982
2002
2034
2070
2099
2107
2089
2053
2015
1987
1974
1975
1981
1985
1985
1984
1984
1985
1987
1988
1988
1986
1985
1985
1986
1988
1990
1991
1991
1991
1991
1991
1990
1990
1990
1990
1989
1989
1989
1990
1992
1993
1993
1993
1992
1993
1995
1997
1998
1998
1997
1996
1996
1996
1997
1999
2002
2004
2005
2005
2004
2003
2003
2004
2004
2003
2003
2004
2005
2005
2004
2002
2000
1998
1996
1994
1992
1990
1989
1989
1989
1988
1987
1985
1984
1983
1983
1984
1984
1985
1984
1984
1983
1983
1983
1983
1984
1983
1983
1982
1982
1982
1983
1983
1982
1980
1979
1979
1981
1983
1984
1984
1982
1979
1977
1977
1979
1981
1983
1983
1983
1983
1982
1981
1981
1980
1981
1981
1980
1979
1977
1976
1976
1977
1979
1980
1981
1981
1980
1980
1980
1980
1980
1982
1983
1985
1986
1987
1987
1986
1986
1985
1985
1984
1984
1984
1984
1985
1985
1985
1985
1983
1982
1980
1980
1980
1981
1983
1983
1982
1979
1975
1975
1985
2008
2042
2072
2088
2080
2052
2016
1985
1969
1966
1971
1976
1979
1980
1980
1980
1979
1979
1978
1978
1978
1978
1980
1981
1983
1984
1984
1983
1983
1983
1983
1984
1984
1984
1985
1985
1985
1985
1985
1985
1986
1986
1987
1988
1989
1989
1989
1989
1990
1991
1992
1992
1993
1993
1994
1995
1997
1998
1998
1998
1998
1999
2000
2001
2001
2000
2000
1999
1998
1997
1995
1994
1992
1990
1988
1987
1985
1984
1982
1981
1980
1980
1981
1982
1983
1983
1982
1981
1980
1979
1978
1978
1979
1980
1982
1984
1986
1987
1987
1987
1987
1987
1988
1989
1989
1989
1988
1987
1986
1986
1986
1988
1990
1992
1993
1994
1994
1994
1994
1994
1994
1995
1995
1995
1995
1995
1995
1995
1994
1993
1992
1992
1993
1994
1995
1995
1995
1995
1994
1994
1993
1993
1993
1992
1991
1991
1990
1988
1987
1986
1987
1989
1991
1994
1995
1995
1995
1994
1994
1993
1993
1993
1993
1993
1992
1990
1987
1985
1985
1985
1986
1988
1988
1988
1988
1987
1986
1985
1984
1982
1981
1979
1978
1982
1996
2022
2052
2078
2087
2073
2043
2009
1983
1972
1973
1979
1983
1984
1983
1982
1982
1982
1982
1982
1982
1983
1983
1984
1984
1985
1986
1986
1986
1986
1985
1984
1984
1984
1984
1985
1985
1986
1987
1988
1989
1989
1989
1990
1990
1991
1992
1992
1993
1993
1994
1995
1996
1996
1996
1997
1998
1999
2000
2001
2001
2001
2002
2002
2002
2002
2002
2002
2003
2003
2002
2000
1998
1995
1993
1992
1991
1990
1989
1989
1988
1987
1986
1985
1983
1981
1980
1981
1982
1983
1984
1985
1984
1984
1984
1984
1984
1984
1984
1984
1984
1984
1984
1984
1983
1983
1983
1983
1984
1983
1983
1982
1982
1981
1981
1982
1982
1983
1983
1983
1982
1981
1981
1982
1982
1982
1982
1982
1981
1981
1982
1982
1983
1982
1981
1981
1981
1982
1982
1983
1983
1983
1982
1981
1980
1979
1979
1980
1981
1984
1986
1988
1988
1988
1988
1987
1987
1988
1989
1989
1988
1986
1985
1983
1981
1980
1980
1980
1981
1983
1984
1984
1984
1984
1984
1983
1981
1979
1977
1975
1977
1986
2004
2031
2055
2070
2064
2042
2010
1981
1965
1963
1968
1975
1980
1982
1982
1982
1981
1981
1981
1980
1980
1980
1980
1980
1980
1980
1980
1981
1981
1982
1982
1982
1982
1983
1984
1984
1984
1985
1985
1986
1986
1986
1985
1984
1984
1986
1987
1988
1989
1989
1990
1990
1990
1991
1992
1993
1994
1995
1995
1995
1996
1996
1996
1997
1997
1998
1998
1998
1998
1997
1996
1994
1992
1990
1988
1986
1984
1983
1982
1981
1980
1979
1977
1976
1975
1976
1977
1978
1979
1979
1978
1978
1977
1977
1977
1977
1978
1978
1979
1980
1980
1980
1980
1980
1980
1980
1980
1980
1980
1980
1980
1979
1979
1979
1979
1979
1980
1980
1979
1978
1977
1975
1975
1976
1979
1981
1984
1986
1986
1986
1985
1984
1983
1982
1983
1983
1983
1983
1982
1980
1978
1977
1977
1977
1978
1979
1980
1980
1981
1981
1981
1980
1978
1975
1973
1971
1972
1978
1995
2021
2048
2069
2072
2055
2025
1994
1973
1966
1969
1975
1979
1980
1980
1980
1980
1980
1981
1981
1981
1981
1981
1981
1981
1981
1981
1982
1983
1985
1986
1986
1985
1984
1983
1983
1984
1986
1988
1989
1990
1989
1988
1987
1987
1988
1990
1992
1993
1994
1994
1994
1995
1995
1996
1997
1998
1999
2000
2000
2001
2001
2002
2002
2002
2001
2000
2000
1999
1999
1998
1998
1996
1993
1990
1987
1985
1984
1983
1983
1982
1981
1981
1980
1979
1978
1978
1977
1978
1978
1979
1980
1980
1980
1980
1980
1981
1981
1982
1982
1982
1982
1982
1982
1981
1981
1981
1981
1982
1982
1982
1981
1981
1980
1980
1980
1980
1980
1980
1980
1980
1980
1980
1980
1980
1980
1980
1980
1980
1980
1980
1979
1978
1978
1977
1978
1979
1981
1983
1985
1986
1986
1986
1985
1984
1983
1983
1983
1983
1983
1982
1981
1980
1979
1978
1978
1979
1979
1979
1979
1979
1980
1980
1979
1977
1975
1972
1970
1972
1983
2004
2033
2061
2076
2070
2047
2013
1983
1967
1964
1968
1974
1976
1977
1977
1977
1977
1977
1976
1976
1976
1977
1978
1980
1980
1980
1979
1978
1978
1979
1980
1981
1981
1981
1980
1980
1981
1982
1983
1984
1984
1984
1985
1985
1985
1985
1985
1985
1987
1988
1990
1991
1991
1991
1991
1992
1993
1994
1994
1995
1996
1997
1998
1997
1997
1997
1996
1996
1996
1995
1994
1993
1991
1989
1986
1984
1982
1980
1979
1979
1978
1977
1976
1975
1975
1975
1975
1975
1976
1976
1976
1976
1975
1975
1975
1975
1975
1976
1976
1976
1976
1976
1976
1975
1975
1975
1976
1976
1976
1976
1976
1976
1975
1975
1974
1973
1972
1972
1972
1973
1974
1976
1977
1977
1978
1979
1979
1980
1981
1981
1980
1980
1979
1978
1977
1975
1973
1972
1972
1973
1973
1973
1973
1972
1972
1973
1974
1975
1975
1974
1972
1969
1966
1966
1972
1989
2015
2044
2062
2063
2044
2012
1981
1961
1955
1959
1967
1972
1974
1974
1974
1974
1974
1974
1973
1973
1973
1974
1974
1974
1975
1975
1976
1976
1977
1977
1977
1977
1978
1978
1979
1980
1980
1980
1979
1979
1979
1980
1981
1982
1983
1984
1984
1984
1984
1985
1986
1987
1988
1990
1991
1992
1993
1993
1993
1993
1994
1994
1995
1995
1995
1995
1994
1993
1991
1990
1988
1987
1985
1982
1980
1978
1976
1975
1974
1974
1973
1973
1972
1972
1971
1971
1970
1970
1970
1970
1970
1970
1970
1971
1972
1972
1973
1973
1973
1972
1972
1972
1972
1973
1973
1973
1973
1973
1973
1973
1972
1971
1971
1971
1971
1972
1972
1972
1972
1972
1972
1972
1973
1973
1973
1972
1971
1970
1969
1969
1969
1970
1971
1973
1974
1975
1976
1977
1977
1977
1977
1978
1978
1978
1977
1976
1975
1974
1972
1971
1970
1971
1972
1973
1974
1974
1974
1973
1973
1972
1971
1971
1969
1967
1966
1967
1977
1999
2030
2059
2074
2068
2043
2009
1979
1963
1959
1963
1968
1970
1971
1970
1970
1970
1970
1970
1970
1970
1971
1972
1973
1973
1974
1974
1974
1975
1975
1975
1975
1974
1974
1974
1974
1975
1976
1976
1976
1976
1976
1977
1978
1979
1981
1981
1981
1981
1982
1982
1983
1984
1985
1986
1987
1988
1989
1989
1990
1990
1990
1990
1990
1990
1991
1992
1992
1991
1990
1988
1986
1984
1983
1981
1980
1979
1977
1976
1976
1975
1973
1972
1971
1971
1972
1974
1974
1974
1972
1971
1970
1971
1972
1972
1973
1972
1972
1972
1972
1973
1973
1973
1972
1972
1972
1973
1973
1974
1974
1973
1972
1972
1971
1971
1972
1972
1973
1974
1974
1974
1973
1973
1972
1972
1972
1972
1973
1972
1971
1970
1970
1971
1972
1974
1976
1978
1979
1979
1979
1979
1978
1977
1976
1976
1976
1976
1975
1974
1972
1971
1971
1971
1972
1973
1974
1973
1973
1972
1972
1971
1970
1968
1965
1963
1963
1967
1981
2004
2032
2054
2062
2049
2022
1990
1965
1954
1955
1962
1968
1970
1970
1969
1969
1969
1971
1972
1973
1972
1971
1970
1970
1970
1971
1972
1973
1974
1974
1975
1975
1975
1975
1975
1975
1975
1976
1977
1978
1979
1979
1979
1978
1978
1978
1979
1981
1983
1984
1984
1984
1983
1984
1984
1986
1987
1989
1989
1990
1991
1991
1990
1990
1990
1990
1991
1992
1991
1990
1988
1985
1982
1980
1979
1977
1976
1974
1973
1972
1971
1970
1969
1968
1967
1967
1968
1968
1969
1969
1969
1969
1970
1970
1970
1970
1970
1971
1972
1972
1972
1971
1971
1970
1971
1972
1972
1973
1973
1973
1973
1972
1972
1971
1971
1971
1971
1971
1971
1972
1973
1973
1973
1972
1971
1970
1969
1969
1970
1972
1974
1976
1977
1978
1979
1978
1978
1977
1977
1977
1977
1976
1975
1974
1973
1972
1972
1972
1972
1973
1974
1974
1974
1974
1974
1974
1973
1972
1971
1969
1968
1968
1975
1993
2021
2050
2071
2073
2052
2020
1987
1966
1959
1962
1969
1973
1974
1974
1973
1972
1971
1971
1972
1972
1973
1974
1974
1974
1974
1975
1975
1976
1976
1976
1976
1975
1976
1976
1977
1978
1979
1979
1979
1978
1979
1979
1981
1981
1982
1982
1981
1982
1983
1984
1986
1987
1987
1987
1988
1989
1991
1992
1992
1992
1992
1993
1994
1994
1995
1995
1994
1993
1991
1989
1987
1985
1984
1982
1981
1981
1980
1979
1977
1975
1973
1972
1972
1973
1973
1974
1973
1972
1972
1972
1972
1973
1974
1975
1975
1975
1975
1975
1974
1973
1973
1974
1975
1976
1977
1977
1976
1975
1974
1974
1974
1974
1975
1975
1976
1976
1975
1975
1974
1974
1974
1975
1975
1975
1975
1975
1975
1975
1974
1974
1973
1974
1974
1975
1975
1975
1975
1974
1973
1972
1972
1972
1973
1975
1976
1978
1978
1979
1979
1979
1979
1979
1980
1980
1980
1980
1980
1979
1978
1976
1975
1974
1973
1974
1975
1975
1975
1975
1974
1974
1974
1975
1974
1973
1971
1969
1968
1972
1985
2009
2040
2066
2077
2065
2037
2003
1976
1963
1962
1967
1972
1974
1974
1975
1975
1976
1976
1976
1975
1975
1975
1975
1976
1977
1978
1978
1978
1978
1978
1979
1979
1980
1980
1981
1982
1982
1982
1981
1981
1981
1981
1982
1983
1984
1985
1986
1987
1988
1988
1987
1988
1989
1990
1992
1994
1995
1995
1996
1996
1995
1995
1995
1996
1997
1998
1999
1998
1997
1995
1994
1992
1991
1989
1988
1987
1986
1985
1984
1982
1980
1979
1978
1977
1977
1978
1979
1979
1979
1978
1977
1977
1977
1978
1979
1979
1979
1979
1978
1978
1978
1978
1978
1979
1979
1980
1980
1979
1979
1979
1979
1979
1979
1979
1979
1979
1980
1980
1979
1979
1978
1977
1978
1978
1979
1980
1980
1980
1979
1978
1977
1977
1977
1978
1980
1981
1983
1984
1985
1986
1985
1985
1984
1984
1984
1984
1983
1982
1981
1980
1978
1978
1978
1978
1978
1979
1979
1979
1979
1978
1978
1978
1977
1975
1974
1973
1973
1978
1991
2013
2040
2060
2066
2053
2026
1995
1971
1961
1962
1968
1974
1977
1977
1977
1977
1978
1978
1979
1979
1978
1978
1978
1978
1979
1980
1981
1982
1983
1983
1982
1982
1981
1981
1982
1983
1984
1984
1984
1984
1984
1984
1984
1985
1986
1988
1989
1990
1990
1991
1991
1991
1991
1991
1992
1994
1996
1997
1998
1998
1997
1997
1997
1998
1999
1999
2000
1999
1998
1996
1994
1992
1990
1989
1987
1986
1984
1983
1981
1979
1978
1976
1975
1975
1975
1976
1977
1977
1977
1977
1976
1975
1975
1976
1976
1978
1978
1979
1979
1978
1978
1977
1977
1977
1977
1978
1979
1979
1978
1978
1977
1977
1976
1976
1976
1977
1977
1978
1978
1978
1977
1977
1976
1976
1976
1977
1978
1978
1979
1978
1978
1977
1977
1977
1977
1976
1976
1975
1974
1975
1975
1976
1978
1979
1981
1982
1984
1985
1985
1984
1983
1982
1981
1980
1980
1979
1979
1978
1978
1977
1977
1976
1976
1977
1977
1978
1979
1979
1979
1977
1975
1973
1970
1968
1971
1983
2006
2038
2066
2081
2072
2046
2011
1982
1966
1964
1969
1974
1976
1977
1976
1975
1974
1974
1975
1975
1976
1976
1977
1978
1978
1977
1977
1977
1977
1978
1980
1980
1981
1980
1980
1980
1980
1980
1981
1982
1983
1984
1985
1985
1985
1985
1985
1985
1985
1986
1987
1988
1989
1989
1990
1990
1991
1993
1994
1995
1996
1996
1996
1995
1995
1995
1995
1995
1995
1995
1994
1993
1992
1989
1987
1985
1983
1981
1980
1980
1980
1979
1978
1976
1976
1975
1975
1976
1976
1976
1977
1977
1977
1977
1976
1976
1975
1975
1976
1976
1977
1977
1977
1976
1977
1977
1977
1977
1977
1977
1978
1978
1978
1978
1977
1975
1974
1974
1974
1975
1976
1977
1978
1977
1976
1976
1975
1976
1976
1977
1977
1977
1976
1976
1975
1975
1974
1974
1974
1974
1974
1975
1975
1975
1976
1978
1980
1982
1983
1984
1983
1982
1982
1981
1980
1979
1978
1977
1976
1976
1976
1976
1976
1975
1974
1974
1974
1975
1976
1977
1976
1975
1973
1971
1969
1971
1982
2003
2031
2057
2069
2060
2033
1999
1971
1957
1957
1964
1972
1976
1977
1977
1976
1974
1973
1973
1974
1975
1976
1977
1978
1978
1977
1977
1978
1978
1978
1978
1978
1978
1978
1979
1979
1979
1979
1980
1980
1980
1981
1982
1983
1984
1984
1984
1984
1984
1984
1985
1986
1987
1988
1988
1989
1990
1991
1992
1993
1993
1993
1994
1994
1994
1993
1993
1992
1992
1992
1991
1991
1989
1986
1984
1982
1979
1977
1976
1974
1974
1973
1972
1972
1971
1970
1970
1970
1970
1970
1971
1971
1972
1972
1973
1973
1972
1972
1972
1971
1972
1972
1973
1974
1975
1974
1974
1973
1972
1972
1972
1972
1973
1974
1974
1974
1973
1973
1972
1971
1971
1971
1971
1971
1971
1971
1972
1973
1975
1976
1977
1978
1979
1980
1980
1980
1979
1978
1976
1974
1974
1974
1974
1975
1975
1974
1973
1972
1972
1972
1973
1973
1974
1974
1974
1973
1971
1969
1966
1964
1967
1979
2003
2034
2061
2073
2064
2037
2003
1975
1961
1960
1966
1972
1975
1975
1974
1973
1972
1971
1971
1972
1973
1975
1976
1976
1976
1975
1975
1975
1976
1977
1978
1978
1978
1978
1978
1978
1978
1978
1978
1980
1981
1981
1982
1982
1981
1981
1981
1982
1983
1985
1987
1988
1990
1990
1990
1989
1989
1990
1991
1992
1993
1994
1994
1995
1995
1994
1993
1992
1992
1991
1990
1989
1987
1985
1982
1980
1978
1976
1975
1974
1974
1973
1972
1971
1971
1970
1970
1971
1971
1971
1971
1971
1972
1972
1972
1972
1972
1973
1973
1973
1974
1974
1974
1974
1974
1973
1973
1973
1973
1973
1973
1973
1974
1974
1974
1974
1974
1973
1973
1973
1973
1973
1973
1973
1973
1973
1972
1972
1973
1973
1974
1975
1975
1975
1974
1974
1973
1973
1973
1973
1973
1973
1973
1973
1972
1972
1973
1975
1976
1978
1979
1980
1980
1980
1980
1979
1978
1978
1978
1978
1978
1978
1977
1976
1975
1974
1973
1974
1974
1975
1975
1976
1976
1976
1975
1973
1970
1968
1966
1968
1981
2006
2038
2065
2078
2068
2041
2005
1977
1963
1962
1967
1973
1974
1974
1973
1971
1971
1971
1972
1973
1974
1975
1975
1975
1975
1975
1975
1975
1976
1977
1977
1978
1977
1977
1976
1976
1977
1978
1979
1980
1980
1981
1981
1982
1982
1982
1981
1980
1981
1982
1984
1986
1988
1988
1989
1990
1990
1991
1991
1992
1992
1993
1993
1993
1992
1992
1992
1993
1993
1993
1992
1991
1989
1987
1985
1983
1981
1979
1977
1977
1977
1977
1976
1976
1975
1975
1975
1975
1975
1975
1976
1976
1976
1976
1976
1975
1974
1974
1974
1974
1975
1976
1976
1976
1975
1974
1974
1974
1975
1975
1975
1975
1974
1974
1974
1975
1975
1975
1975
1975
1975
1975
1975
1975
1974
1973
1973
1974
1974
1975
1975
1975
1976
1976
1976
1975
1974
1973
1973
1973
1974
1975
1977
1978
1979
1980
1980
1981
1981
1981
1981
1981
1981
1980
1979
1977
1976
1975
1975
1975
1975
1974
1974
1974
1974
1974
1974
1975
1975
1975
1973
1971
1969
1968
1973
1987
2010
2038
2059
2065
2050
2021
1988
1964
1955
1957
1964
1970
1973
1974
1975
1975
1975
1974
1974
1972
1972
1972
1973
1975
1976
1977
1976
1975
1975
1975
1976
1976
1977
1978
1978
1978
1979
1979
1979
1979
1979
1979
1979
1979
1980
1981
1982
1983
1983
1984
1984
1985
1987
1988
1989
1990
1991
1991
1991
1991
1991
1991
1992
1993
1994
1994
1994
1993
1992
1991
1989
1988
1987
1985
1984
1982
1980
1977
1975
1973
1972
1972
1972
1971
1971
1970
1970
1970
1970
1970
1970
1970
1970
1971
1971
1972
1972
1972
1972
1972
1972
1973
1973
1974
1974
1974
1973
1973
1972
1972
1972
1973
1973
1974
1974
1974
1974
1974
1973
1973
1973
1973
1973
1973
1973
1974
1973
1973
1972
1971
1970
1970
1971
1973
1975
1977
1978
1979
1980
1979
1979
1978
1977
1977
1976
1976
1976
1975
1974
1973
1972
1972
1973
1973
1974
1974
1974
1974
1974
1974
1973
1973
1971
1970
1967
1967
1971
1985
2010
2041
2066
2074
2060
2031
1997
1971
1960
1960
1965
1969
1971
1972
1972
1972
1972
1972
1972
1972
1972
1972
1973
1973
1974
1975
1976
1976
1975
1975
1975
1975
1975
1976
1977
1977
1978
1978
1979
1979
1980
1980
1980
1980
1980
1981
1982
1983
1984
1985
1985
1986
1986
1987
1988
1989
1990
1991
1991
1992
1993
1992
1992
1992
1992
1993
1994
1994
1994
1993
1991
1988
1986
1983
1981
1980
1979
1978
1977
1976
1975
1973
1972
1971
1971
1971
1972
1973
1974
1974
1974
1974
1973
1973
1973
1973
1974
1975
1975
1974
1973
1972
1972
1972
1973
1975
1975
1976
1976
1976
1975
1974
1974
1974
1975
1976
1976
1976
1975
1974
1973
1974
1974
1975
1975
1975
1975
1975
1975
1975
1974
1974
1973
1973
1974
1974
1975
1975
1975
1975
1976
1977
1978
1980
1981
1982
1983
1982
1981
1981
1980
1979
1978
1977
1976
1975
1976
1976
1976
1976
1976
1975
1975
1975
1975
1976
1977
1976
1975
1972
1969
1968
1972
1987
2013
2043
2067
2074
2059
2029
1995
1970
1959
1960
1967
1973
1976
1976
1976
1975
1974
1974
1974
1974
1975
1975
1976
1977
1978
1978
1977
1977
1977
1978
1979
1979
1980
1981
1981
1981
1981
1980
1980
1980
1981
1982
1983
1983
1983
1983
1983
1983
1984
1986
1988
1989
1990
1991
1991
1992
1992
1992
1992
1993
1994
1995
1996
1996
1996
1996
1995
1994
1994
1993
1992
1991
1990
1988
1985
1982
1980
1978
1977
1976
1975
1975
1975
1975
1975
1974
1974
1973
1972
1972
1973
1973
1974
1974
1974
1974
1974
1973
1973
1973
1973
1974
1975
1976
1976
1976
1975
1974
1974
1974
1974
1975
1975
1976
1975
1975
1974
1974
1974
1974
1974
1974
1974
1973
1972
1971
1971
1972
1973
1975
1976
1978
1980
1981
1982
1982
1981
1979
1978
1977
1977
1976
1976
1976
1976
1975
1975
1974
1973
1973
1974
1974
1975
1976
1975
1975
1974
1972
1970
1968
1967
1969
1980
2001
2029
2054
2067
2060
2035
2002
1974
1959
1958
1965
1972
1975
1976
1975
1974
1973
1974
1975
1976
1977
1977
1977
1976
1976
1976
1976
1977
1978
1979
1980
1980
1980
1980
1980
1980
1980
1981
1982
1983
1984
1984
1984
1984
1984
1985
1985
1987
1988
1990
1991
1991
1991
1990
1990
1991
1993
1995
1996
1997
1998
1998
1998
1998
1998
1998
1998
1998
1998
1997
1996
1994
1992
1989
1987
1984
1983
1982
1981
1980
1979
1978
1977
1976
1975
1975
1975
1975
1976
1977
1977
1977
1977
1976
1976
1976
1976
1977
1978
1979
1979
1979
1978
1978
1977
1977
1978
1978
1978
1979
1979
1979
1978
1978
1978
1978
1978
1978
1979
1979
1979
1980
1979
1979
1978
1978
1978
1979
1980
1980
1980
1980
1980
1979
1978
1977
1977
1977
1977
1978
1979
1980
1981
1982
1983
1984
1984
1985
1985
1985
1984
1984
1984
1983
1982
1981
1980
1979
1979
1979
1979
1980
1980
1979
1979
1979
1979
1979
1979
1978
1976
1974
1971
1972
1982
2004
2034
2064
2081
2076
2051
2018
1987
1969
1965
1969
1974
1977
1978
1978
1977
1977
1976
1976
1976
1976
1977
1978
1979
1980
1980
1980
1980
1980
1979
1979
1980
1980
1981
1982
1983
1983
1983
1983
1983
1983
1984
1985
1986
1986
1987
1987
1988
1988
1988
1988
1989
1990
1992
1993
1994
1995
1995
1995
1995
1996
1996
1997
1998
1998
1998
1997
1997
1996
1996
1995
1993
1992
1991
1990
1988
1987
1985
1983
1981
1980
1979
1979
1979
1979
1980
1980
1980
1979
1978
1977
1977
1978
1979
1980
1980
1980
1979
1978
1978
1978
1978
1978
1979
1979
1980
1980
1980
1979
1979
1979
1979
1978
1979
1979
1979
1979
1979
1978
1978
1977
1977
1978
1978
1978
1977
1977
1977
1977
1978
1979
1981
1983
1985
1985
1986
1985
1984
1983
1982
1981
1981
1980
1980
1979
1979
1979
1978
1978
1978
1978
1978
1978
1979
1980
1980
1979
1977
1974
1971
1970
1974
1987
2010
2038
2061
2069
2057
2029
1995
1969
1958
1960
1967
1975
1978
1979
1979
1978
1977
1977
1978
1978
1979
1980
1981
1981
1981
1980
1980
1980
1980
1981
1982
1982
1983
1983
1982
1982
1982
1982
1983
1984
1985
1986
1987
1987
1987
1987
1987
1988
1988
1989
1990
1991
1992
1993
1994
1994
1995
1995
1996
1997
1997
1998
1999
1999
1999
1999
1998
1998
1997
1996
1995
1994
1992
1990
1987
1984
1982
1979
1978
1977
1977
1977
1977
1976
1975
1975
1974
1974
1974
1975
1975
1976
1976
1977
1977
1977
1977
1977
1977
1978
1978
1979
1979
1979
1978
1978
1978
1977
1977
1978
1978
1979
1979
1979
1978
1977
1977
1977
1977
1977
1977
1977
1977
1977
1976
1975
1975
1976
1977
1979
1981
1983
1984
1985
1984
1983
1982
1981
1981
1981
1981
1980
1980
1979
1978
1977
1976
1976
1976
1977
1978
1978
1979
1979
1979
1978
1976
1974
1972
1970
1972
1981
2002
2031
2060
2077
2073
2049
2016
1985
1967
1963
1968
1974
1978
1978
1977
1976
1975
1976
1977
1978
1978
1978
1978
1978
1978
1978
1978
1979
1979
1980
1980
1980
1981
1981
1981
1981
1981
1982
1982
1983
1983
1984
1983
1984
1984
1985
1986
1987
1988
1989
1989
1990
1990
1991
1991
1991
1992
1993
1995
1996
1997
1997
1997
1996
1996
1996
1996
1996
1996
1995
1994
1993
1991
1988
1986
1983
1981
1980
1979
1979
1978
1978
1977
1976
1976
1975
1975
1975
1976
1976
1977
1977
1976
1976
1975
1976
1976
1977
1977
1978
1977
1977
1977
1977
1977
1977
1977
1977
1977
1978
1978
1978
1978
1977
1977
1976
1976
1977
1977
1978
1978
1978
1977
1977
1977
1977
1977
1977
1977
1977
1977
1977
1976
1975
1974
1974
1974
1976
1977
1979
1981
1982
1983
1983
1983
1982
1981
1981
1981
1981
1981
1981
1980
1978
1977
1976
1976
1977
1978
1978
1979
1978
1978
1977
1976
1976
1975
1974
1973
1971
1972
1981
1999
2027
2054
2072
2069
2048
2015
1984
1966
1962
1967
1973
1976
1977
1976
1976
1976
1977
1977
1978
1977
1977
1977
1977
1977
1978
1979
1979
1980
1980
1980
1980
1980
1980
1980
1981
1982
1982
1983
1983
1983
1983
1983
1983
1984
1985
1986
1986
1987
1988
1988
1988
1988
1989
1989
1990
1992
1993
1994
1995
1995
1995
1994
1994
1994
1995
1996
1996
1996
1995
1994
1992
1990
1988
1986
1985
1984
1982
1981
1979
1978
1976
1975
1975
1975
1976
1976
1977
1977
1977
1977
1976
1976
1975
1975
1975
1976
1977
1977
1977
1977
1976
1976
1976
1976
1977
1977
1977
1977
1977
1976
1976
1975
1975
1974
1974
1975
1975
1976
1976
1975
1974
1973
1973
1973
1973
1975
1976
1978
1980
1981
1982
1982
1981
1980
1979
1979
1979
1979
1979
1978
1976
1975
1974
1974
1974
1975
1975
1975
1975
1975
1975
1975
1975
1974
1973
1972
1970
1969
1971
1980
2000
2027
2052
2066
2060
2037
2004
1976
1960
1958
1964
1970
1974
1975
1975
1975
1975
1975
1975
1975
1975
1975
1975
1976
1977
1978
1979
1979
1979
1979
1979
1979
1980
1980
1981
1981
1982
1982
1983
1983
1983
1983
1983
1983
1984
1985
1986
1987
1987
1988
1988
1988
1989
1990
1991
1992
1994
1994
1995
1995
1995
1995
1995
1996
1996
1997
1997
1997
1996
1995
1993
1991
1989
1987
1985
1984
1982
1980
1978
1977
1975
1974
1973
1973
1974
1974
1975
1975
1975
1974
1973
1973
1973
1973
1974
1974
1975
1976
1976
1976
1976
1975
1974
1974
1975
1976
1976
1977
1977
1976
1975
1974
1973
1972
1973
1974
1975
1976
1976
1975
1975
1974
1974
1974
1975
1975
1976
1976
1976
1976
1975
1974
1974
1973
1974
1974
1975
1976
1977
1978
1979
1979
1980
1981
1981
1982
1982
1982
1981
1980
1979
1978
1977
1976
1976
1976
1977
1977
1977
1977
1976
1976
1976
1976
1977
1978
1978
1976
1973
1971
1971
1979
1999
2028
2057
2076
2073
2050
2018
1987
1968
1962
1966
1972
1976
1977
1977
1977
1977
1977
1977
1977
1977
1977
1978
1978
1979
1979
1979
1980
1980
1979
1979
1979
1979
1979
1980
1980
1981
1981
1980
1980
1981
1981
1982
1983
1984
1985
1985
1985
1985
1985
1986
1986
1987
1988
1990
1991
1992
1992
1992
1992
1992
1993
1994
1995
1996
1996
1995
1994
1993
1992
1990
1990
1989
1988
1987
1986
1984
1981
1979
1977
1975
1975
1975
1975
1976
1975
1975
1974
1974
1974
1973
1973
1973
1973
1974
1974
1975
1975
1975
1975
1974
1974
1975
1976
1977
1978
1978
1978
1976
1975
1973
1973
1973
1974
1975
1975
1976
1975
1974
1973
1972
1972
1972
1974
1976
1978
1980
1981
1982
1982
1981
1980
1979
1978
1978
1979
1979
1978
1976
1975
1974
1973
1974
1974
1975
1975
1975
1975
1975
1975
1975
1974
1973
1971
1969
1967
1967
1974
1992
2021
2050
2071
2072
2052
2020
1987
1966
1959
1961
1966
1970
1971
1971
1971
1971
1971
1972
1972
1972
1971
1971
1970
1970
1971
1972
1973
1974
1975
1975
1974
1973
1973
1974
1975
1976
1977
1978
1978
1977
1977
1977
1978
1979
1981
1982
1982
1982
1983
1983
1984
1984
1986
1987
1989
1990
1991
1991
1991
1991
1991
1991
1992
1992
1993
1994
1994
1994
1993
1992
1989
1987
1984
1982
1981
1980
1979
1978
1976
1974
1972
1971
1971
1972
1974
1975
1976
1976
1976
1975
1973
1973
1972
1973
1974
1975
1976
1977
1977
1976
1975
1974
1974
1975
1976
1977
1977
1977
1977
1977
1976
1976
1976
1976
1976
1977
1978
1978
1977
1976
1975
1975
1975
1975
1976
1976
1975
1975
1975
1975
1975
1976
1978
1980
1982
1984
1985
1984
1983
1981
1980
1979
1979
1979
1979
1979
1978
1977
1976
1976
1976
1976
1976
1976
1976
1977
1977
1977
1976
1974
1972
1969
1968
1972
1986
2012
2044
2069
2078
2065
2036
2001
1975
1964
1964
1969
1974
1976
1975
1974
1973
1973
1973
1974
1975
1975
1976
1976
1976
1976
1975
1975
1975
1976
1977
1979
1979
1979
1979
1979
1979
1979
1980
1980
1981
1981
1982
1982
1983
1984
1984
1984
1984
1985
1986
1987
1988
1988
1989
1989
1989
1990
1991
1992
1993
1994
1994
1995
1995
1995
1994
1994
1994
1994
1994
1993
1992
1991
1989
1987
1985
1983
1981
1980
1980
1979
1979
1979
1978
1977
1977
1977
1977
1978
1979
1979
1979
1979
1978
1978
1977
1977
1977
1977
1977
1978
1978
1978
1978
1978
1978
1978
1978
1978
1978
1979
1979
1979
1979
1978
1978
1976
1975
1975
1975
1975
1976
1976
1977
1978
1979
1980
1982
1983
1984
1984
1983
1982
1981
1980
1980
1979
1979
1978
1978
1978
1978
1978
1978
1977
1976
1975
1975
1976
1978
1979
1978
1977
1974
1971
1970
1977
1994
2020
2048
2066
2067
2049
2019
1989
1970
1964
1968
1974
1977
1978
1978
1978
1978
1979
1980
1981
1981
1981
1981
1982
1983
1983
1982
1982
1982
1984
1985
1987
1988
1988
1988
1988
1987
1987
1986
1985
1985
1987
1990
1992
1994
1995
1996
1996
1995
1994
1992
1993
1996
2001
2006
2008
2009
2007
2005
2002
1999
1998
1997
1998
2000
2003
2004
2003
2002
2000
1999
1999
2000
2000
1997
1993
1990
1988
1987
1987
1986
1984
1982
1981
1979
1978
1977
1976
1976
1977
1978
1978
1977
1975
1972
1968
1963
1958
1954
1951
1949
1948
1948
1947
1946
1944
1943
1941
1941
1942
1944
1946
1949
1951
1953
1954
1953
1952
1950
1948
1947
1948
1950
1953
1955
1955
1953
1948
1945
1944
1946
1948
1950
1951
1951
1952
1952
1952
1950
1949
1947
1945
1944
1943
1947
1963
1991
2026
2051
2059
2043
2010
1975
1950
1940
1942
1949
1956
1960
1963
1965
1966
1967
1968
1969
1969
1969
1969
1969
1970
1970
1970
1969
1969
1969
1969
1970
1971
1972
1972
1972
1970
1968
1967
1967
1969
1971
1972
1972
1971
1968
1966
1964
1962
1962
1961
1960
1959
1957
1956
1955
1956
1958
1961
1964
1965
1964
1961
1958
1956
1956
1958
1959
1961
1961
1960
1958
1954
1951
1950
1950
1951
1952
1952
1950
1948
1946
1946
1947
1948
1949
1949
1949
1948
1948
1950
1952
1953
1954
1954
1954
1953
1953
1955
1957
1960
1964
1967
1971
1974
1977
1979
1980
1981
1981
1982
1982
1983
1983
1983
1983
1984
1987
1988
1989
1988
1987
1986
1987
1990
1994
1996
1997
1997
1998
1999
2000
2001
2001
2000
1998
1997
1996
1998
2008
2027
2054
2082
2098
2094
2071
2038
2007
1987
1982
1985
1990
1993
1994
1995
1995
1996
1998
1999
1999
1999
1998
1997
1996
1995
1995
1996
1997
1997
1997
1996
1996
1996
1996
1997
1997
1997
1997
1996
1996
1995
1995
1994
1993
1993
1993
1993
1995
1996
1997
1997
1998
1998
1998
1998
1998
1998
1999
2001
2002
2003
2003
2003
2002
2003
2005
2007
2007
2006
2003
2000
1997
1994
1991
1989
1988
1987
1986
1985
1983
1981
1979
1978
1976
1974
1973
1972
1973
1974
1976
1977
1977
1976
1974
1973
1974
1975
1976
1977
1977
1976
1975
1975
1974
1973
1973
1972
1972
1971
1969
1968
1967
1968
1971
1974
1977
1979
1979
1978
1976
1975
1974
1973
1972
1971
1971
1970
1970
1969
1969
1969
1969
1969
1969
1969
1969
1969
1969
1969
1969
1967
1964
1961
1962
1971
1992
2023
2055
2074
2071
2047
2011
1977
1956
1952
1957
1965
1970
1972
1972
1971
1971
1970
1970
1970
1971
1972
1973
1974
1974
1974
1973
1972
1972
1972
1974
1976
1977
1977
1977
1976
1976
1976
1976
1977
1978
1978
1980
1981
1982
1983
1983
1983
1983
1983
1984
1986
1987
1989
1990
1991
1991
1991
1991
1991
1991
1992
1993
1995
1996
1997
1996
1995
1994
1993
1991
1990
1987
1985
1983
1981
1980
1979
1978
1976
1975
1974
1974
1974
1974
1974
1974
1974
1975
1975
1975
1975
1976
1976
1977
1977
1976
1976
1976
1976
1976
1977
1977
1978
1978
1978
1977
1976
1975
1974
1975
1975
1976
1977
1977
1977
1976
1976
1975
1975
1975
1976
1977
1977
1978
1978
1978
1977
1976
1975
1975
1975
1976
1977
1979
1980
1982
1983
1984
1984
1984
1983
1984
1984
1984
1984
1983
1981
1979
1978
1978
1978
1978
1979
1980
1981
1981
1980
1980
1980
1979
1979
1978
1976
1975
1973
1977
1991
2017
2050
2079
2090
2078
2048
2011
1983
1968
1966
1971
1976
1978
1979
1980
1981
1982
1983
1983
1983
1983
1983
1984
1985
1987
1987
1988
1987
1987
1986
1986
1987
1988
1989
1989
1990
1990
1990
1991
1991
1991
1991
1991
1992
1992
1993
1994
1994
1994
1995
1996
1997
1998
1999
2001
2001
2001
2002
2002
2002
2003
2003
2003
2003
2003
2004
2004
2003
2002
2001
1999
1998
1997
1995
1993
1992
1990
1989
1987
1985
1984
1983
1983
1984
1986
1987
1986
1985
1984
1983
1982
1982
1982
1983
1983
1983
1983
1982
1982
1982
1981
1981
1981
1981
1982
1982
1982
1982
1983
1983
1983
1982
1982
1982
1982
1982
1983
1982
1982
1982
1981
1981
1981
1981
1981
1982
1982
1982
1982
1982
1981
1981
1982
1982
1982
1982
1981
1981
1981
1981
1980
1980
1980
1980
1980
1981
1981
1981
1981
1980
1980
1980
1980
1981
1980
1980
1981
1981
1983
1984
1985
1985
1986
1986
1986
1986
1987
1986
1986
1984
1983
1981
1980
1979
1979
1979
1980
1980
1980
1980
1980
1980
1980
1980
1979
1978
1976
1973
1971
1974
1988
2014
2047
2074
2086
2075
2045
2009
1981
1966
1965
1970
1975
1976
1976
1976
1975
1976
1976
1976
1976
1976
1976
1976
1977
1977
1978
1978
1978
1978
1978
1979
1980
1981
1982
1984
1984
1984
1984
1984
1983
1984
1984
1985
1987
1988
1989
1990
1990
1989
1989
1989
1990
1991
1992
1993
1994
1995
1995
1996
1995
1996
1996
1997
1998
1999
2000
2000
1999
1998
1996
1995
1994
1993
1992
1991
1990
1988
1986
1984
1982
1981
1980
1980
1980
1980
1980
1980
1979
1979
1978
1978
1978
1979
1979
1979
1979
1979
1979
1978
1978
1978
1978
1978
1978
1979
1979
1980
1980
1979
1979
1978
1978
1978
1978
1979
1979
1980
1980
1979
1978
1978
1978
1978
1979
1980
1980
1980
1980
1979
1979
1978
1979
1979
1980
1980
1981
1981
1980
1980
1979
1979
1979
1979
1979
1980
1980
1980
1979
1979
1979
1979
1979
1980
1980
1980
1980
1980
1980
1980
1979
1978
1977
1977
1977
1978
1979
1981
1982
1983
1984
1985
1985
1986
1986
1987
1987
1987
1986
1984
1982
1981
1980
1980
1980
1981
1981
1981
1981
1980
1980
1980
1981
1981
1981
1979
1977
1975
1975
1982
2000
2027
2055
2075
2074
2053
2020
1988
1969
1964
1968
1974
1978
1979
1979
1979
1979
1979
1979
1978
1978
1979
1980
1981
1981
1981
1981
1981
1981
1981
1981
1982
1982
1982
1982
1983
1983
1983
1984
1984
1984
1984
1985
1985
1986
1987
1987
1988
1989
1990
1991
1991
1992
1993
1994
1996
1996
1997
1997
1998
1998
1998
1998
1998
1999
1999
2000
2001
2001
2001
2000
1999
1997
1996
1994
1992
1991
1990
1988
1987
1985
1983
1982
1982
1981
1981
1981
1981
1981
1980
1980
1979
1979
1979
1979
1980
1980
1980
1980
1980
1979
1979
1979
1979
1979
1979
1979
1979
1978
1978
1977
1977
1976
1976
1976
1977
1977
1977
1977
1977
1976
1975
1975
1975
1976
1976
1976
1975
1974
1972
1971
1971
1972
1974
1976
1979
1981
1982
1982
1981
1980
1979
1978
1978
1977
1977
1976
1975
1974
1973
1972
1972
1973
1974
1975
1976
1977
1977
1976
1975
1973
1970
1968
1967
1971
1986
2010
2041
2066
2074
2062
2033
1999
1973
1961
1962
1968
1974
1977
1977
1977
1976
1976
1976
1977
1978
1978
1978
1978
1978
1977
1977
1978
1979
1980
1980
1981
1981
1981
1981
1981
1981
1982
1982
1982
1983
1983
1983
1983
1984
1984
1985
1985
1986
1988
1989
1990
1991
1992
1992
1992
1992
1993
1994
1996
1998
1999
1999
1998
1998
1997
1997
1997
1997
1997
1997
1996
1994
1991
1988
1985
1983
1982
1980
1979
1978
1977
1976
1976
1975
1974
1973
1972
1972
1973
1974
1975
1975
1975
1974
1974
1974
1975
1976
1977
1978
1978
1978
1977
1976
1975
1975
1975
1975
1976
1976
1977
1977
1976
1975
1975
1974
1974
1974
1975
1975
1975
1975
1975
1975
1975
1975
1974
1974
1974
1974
1974
1974
1974
1974
1974
1974
1975
1977
1980
1982
1983
1983
1982
1980
1979
1979
1978
1978
1977
1977
1976
1976
1976
1976
1976
1975
1975
1975
1976
1976
1977
1977
1976
1974
1971
1968
1968
1973
1990
2016
2047
2069
2074
2057
2027
1993
1969
1960
1962
1969
1974
1976
1976
1975
1974
1974
1974
1975
1976
1977
1977
1978
1978
1977
1977
1977
1978
1978
1979
1980
1980
1980
1979
1979
1979
1979
1980
1981
1982
1983
1984
1984
1985
1985
1984
1984
1984
1985
1986
1987
1988
1989
1989
1989
1989
1990
1990
1991
1992
1992
1993
1993
1992
1992
1991
1990
1989
1989
1989
1989
1988
1986
1983
1980
1977
1975
1973
1972
1972
1971
1971
1970
1969
1968
1967
1967
1967
1968
1968
1969
1969
1969
1969
1969
1969
1968
1968
1968
1969
1969
1970
1971
1971
1970
1969
1969
1969
1970
1971
1971
1971
1971
1971
1970
1970
1970
1970
1970
1971
1971
1971
1971
1971
1971
1971
1971
1971
1971
1972
1972
1972
1971
1970
1969
1968
1968
1969
1971
1973
1975
1976
1977
1978
1978
1977
1977
1976
1977
1977
1976
1976
1975
1974
1973
1972
1971
1970
1970
1970
1971
1971
1972
1973
1972
1971
1969
1967
1965
1964
1967
1980
2003
2034
2060
2071
2062
2035
2001
1973
1959
1958
1963
1968
1970
1970
1969
1969
1970
1971
1972
1973
1973
1972
1972
1972
1972
1972
1972
1973
1974
1974
1974
1974
1974
1974
1975
1976
1977
1977
1978
1978
1978
1978
1978
1978
1978
1980
1981
1983
1984
1985
1986
1986
1987
1987
1987
1987
1988
1989
1990
1991
1992
1993
1993
1993
1993
1993
1993
1993
1993
1992
1991
1989
1987
1985
1983
1981
1980
1978
1977
1976
1976
1975
1974
1973
1972
1972
1972
1973
1974
1975
1975
1974
1973
1972
1972
1972
1973
1974
1975
1975
1975
1975
1975
1974
1973
1973
1973
1974
1974
1974
1974
1974
1974
1974
1974
1974
1974
1974
1974
1975
1975
1975
1974
1974
1974
1974
1975
1975
1976
1976
1976
1975
1975
1975
1975
1975
1976
1976
1977
1976
1976
1975
1975
1974
1975
1976
1978
1980
1982
1983
1984
1984
1983
1982
1981
1981
1981
1980
1979
1978
1977
1976
1975
1975
1975
1976
1977
1978
1978
1978
1978
1977
1976
1974
1973
1971
1969
1972
1982
2003
2031
2056
2068
2060
2035
2003
1976
1963
1962
1968
1973
1976
1976
1975
1974
1974
1975
1976
1977
1977
1977
1977
1977
1977
1977
1978
1978
1979
1979
1980
1980
1980
1980
1980
1980
1980
1981
1981
1982
1982
1983
1983
1983
1984
1984
1985
1986
1987
1988
1989
1989
1990
1990
1990
1990
1990
1991
1993
1995
1996
1996
1996
1995
1994
1994
1994
1994
1995
1995
1995
1994
1993
1991
1988
1986
1984
1983
1982
1981
1980
1980
1978
1978
1977
1977
1977
1977
1977
1977
1977
1978
1978
1977
1977
1976
1976
1976
1977
1978
1978
1978
1978
1978
1978
1978
1978
1978
1978
1978
1978
1978
1977
1977
1976
1976
1976
1977
1978
1978
1978
1978
1977
1977
1977
1977
1977
1977
1977
1977
1978
1978
1978
1977
1977
1977
1977
1977
1978
1979
1979
1979
1978
1977
1977
1976
1975
1976
1977
1979
1981
1982
1983
1984
1984
1984
1984
1985
1985
1984
1984
1983
1982
1980
1979
1978
1978
1978
1978
1978
1978
1978
1978
1977
1978
1978
1978
1977
1976
1974
1973
1972
1977
1992
2017
2045
2065
2068
2052
2023
1992
1971
1963
1965
1971
1974
1976
1977
1977
1977
1977
1977
1977
1976
1976
1976
1977
1977
1978
1979
1980
1980
1980
1980
1980
1980
1980
1980
1981
1981
1982
1983
1983
1983
1983
1983
1983
1984
1985
1986
1987
1988
1989
1989
1988
1988
1988
1989
1990
1991
1992
1993
1994
1994
1994
1994
1995
1995
1996
1996
1997
1997
1996
1995
1993
1991
1989
1988
1988
1987
1986
1984
1982
1980
1979
1978
1977
1977
1978
1978
1978
1977
1977
1976
1976
1976
1976
1977
1977
1977
1977
1976
1976
1976
1975
1975
1976
1976
1977
1978
1978
1977
1977
1976
1976
1976
1976
1977
1977
1977
1977
1977
1977
1976
1976
1976
1976
1976
1976
1976
1976
1976
1976
1976
1975
1975
1975
1975
1976
1977
1977
1976
1975
1975
1974
1974
1974
1975
1976
1978
1980
1981
1982
1982
1982
1982
1982
1982
1982
1981
1980
1979
1978
1977
1976
1975
1976
1976
1977
1977
1977
1977
1977
1976
1976
1975
1974
1972
1970
1970
1974
1986
2009
2037
2058
2065
2052
2026
1994
1971
1962
1963
1969
1973
1975
1975
1975
1975
1975
1975
1976
1976
1976
1976
1976
1976
1976
1977
1978
1979
1979
1979
1979
1979
1979
1979
1979
1980
1981
1981
1982
1982
1982
1982
1982
1983
1983
1984
1984
1985
1986
1987
1988
1988
1989
1989
1990
1991
1992
1992
1993
1993
1994
1994
1994
1994
1994
1995
1995
1995
1995
1994
1993
1992
1990
1989
1987
1985
1983
1982
1981
1980
1979
1978
1977
1976
1976
1975
1975
1976
1976
1976
1976
1976
1975
1975
1975
1975
1976
1976
1977
1977
1976
1976
1976
1976
1976
1976
1976
1976
1976
1976
1976
1975
1975
1974
1975
1975
1976
1976
1976
1976
1976
1975
1975
1975
1975
1975
1976
1977
1977
1977
1976
1975
1975
1975
1976
1976
1976
1976
1976
1975
1975
1974
1974
1975
1977
1980
1982
1983
1984
1984
1983
1982
1981
1980
1979
1979
1979
1978
1977
1977
1976
1975
1975
1975
1975
1976
1977
1978
1978
1977
1976
1973
1970
1968
1969
1977
1995
2021
2048
2065
2063
2044
2012
1982
1965
1960
1965
1972
1976
1978
1977
1975
1974
1974
1975
1975
1976
1977
1978
1978
1978
1978
1978
1978
1978
1978
1979
1980
1981
1981
1981
1981
1981
1981
1981
1982
1982
1983
1983
1984
1985
1985
1985
1986
1986
1987
1988
1989
1989
1990
1991
1991
1992
1992
1993
1994
1994
1995
1996
1996
1997
1996
1996
1996
1996
1996
1995
1995
1994
1992
1990
1988
1985
1983
1982
1980
1980
1979
1979
1978
1977
1977
1976
1976
1976
1976
1976
1976
1977
1977
1977
1977
1977
1977
1977
1977
1978
1978
1978
1977
1977
1977
1977
1977
1977
1977
1977
1977
1977
1977
1977
1976
1976
1976
1977
1977
1977
1977
1977
1977
1977
1977
1976
1976
1976
1976
1977
1977
1978
1977
1977
1976
1975
1974
1974
1975
1976
1977
1977
1978
1978
1979
1979
1980
1981
1983
1984
1984
1984
1983
1982
1981
1980
1979
1978
1977
1977
1977
1977
1977
1977
1977
1977
1976
1976
1977
1977
1977
1976
1974
1972
1970
1972
1983
2004
2031
2055
2066
2058
2033
2001
1975
1962
1962
1967
1973
1976
1977
1977
1976
1976
1975
1975
1976
1976
1976
1977
1978
1979
1979
1979
1978
1978
1978
1978
1979
1980
1981
1982
1982
1982
1981
1980
1980
1980
1982
1984
1985
1986
1986
1986
1986
1986
1987
1987
1988
1989
1990
1991
1991
1992
1992
1992
1993
1993
1994
1995
1995
1996
1996
1996
1995
1995
1994
1992
1992
1991
1990
1989
1987
1984
1982
1979
1978
1977
1976
1977
1977
1977
1977
1977
1976
1975
1975
1975
1975
1976
1976
1977
1977
1977
1976
1976
1976
1975
1975
1975
1976
1976
1977
1977
1976
1975
1974
1974
1975
1976
1976
1976
1976
1976
1975
1975
1975
1975
1975
1975
1975
1975
1976
1976
1976
1975
1975
1975
1974
1975
1975
1976
1976
1976
1976
1975
1975
1975
1974
1974
1975
1975
1976
1977
1977
1978
1979
1980
1981
1982
1982
1982
1982
1981
1980
1979
1979
1978
1976
1976
1975
1976
1976
1976
1976
1975
1975
1975
1975
1976
1976
1975
1973
1971
1968
1968
1974
1990
2015
2042
2059
2059
2040
2009
1979
1960
1955
1960
1968
1973
1975
1975
1974
1973
1973
1972
1973
1974
1975
1976
1977
1978
1978
1978
1977
1977
1977
1977
1978
1978
1979
1980
1980
1979
1979
1979
1979
1980
1981
1982
1984
1984
1984
1984
1983
1983
1984
1985
1985
1987
1988
1989
1990
1991
1991
1990
1990
1990
1991
1992
1993
1993
1994
1994
1994
1993
1992
1991
1990
1990
1989
1987
1986
1984
1982
1980
1978
1977
1976
1976
1976
1976
1976
1975
1975
1975
1974
1974
1974
1975
1975
1976
1976
1976
1976
1975
1975
1975
1975
1976
1977
1977
1976
1976
1975
1975
1975
1975
1975
1976
1976
1975
1975
1975
1975
1974
1975
1975
1975
1975
1976
1976
1976
1976
1975
1974
1974
1973
1973
1973
1973
1974
1975
1976
1977
1978
1979
1981
1982
1983
1983
1982
1981
1980
1979
1978
1977
1977
1976
1976
1976
1976
1976
1976
1975
1975
1975
1975
1976
1977
1976
1975
1973
1971
1970
1976
1991
2014
2041
2058
2060
2043
2013
1984
1965
1959
1963
1970
1975
1977
1977
1977
1976
1977
1977
1977
1977
1977
1978
1978
1979
1979
1980
1980
1979
1979
1980
1980
1981
1982
1983
1983
1983
1984
1984
1983
1984
1984
1984
1985
1986
1987
1987
1987
1987
1988
1988
1989
1990
1991
1992
1992
1993
1994
1995
1995
1996
1996
1996
1997
1997
1997
1997
1997
1996
1995
1994
1993
1992
1991
1990
1988
1986
1984
1982
1980
1979
1978
1978
1977
1977
1977
1977
1976
1976
1976
1976
1976
1977
1977
1977
1978
1978
1978
1978
1977
1977
1977
1977
1978
1979
1979
1979
1978
1978
1977
1977
1978
1978
1978
1978
1979
1978
1978
1978
1977
1977
1977
1977
1978
1978
1979
1979
1978
1978
1977
1977
1977
1978
1978
1979
1978
1977
1976
1975
1975
1975
1976
1978
1980
1981
1982
1983
1983
1983
1983
1982
1981
1981
1982
1981
1981
1979
1978
1976
1976
1976
1976
1977
1977
1977
1978
1978
1978
1977
1975
1974
1972
1970
1971
1979
1998
2026
2053
2071
2068
2047
2014
1983
1965
1961
1965
1971
1974
1974
1973
1972
1971
1972
1973
1975
1976
1976
1976
1975
1975
1975
1975
1976
1977
1977
1977
1978
1978
1978
1978
1978
1978
1979
1980
1981
1982
1982
1982
1982
1982
1982
1983
1984
1985
1986
1987
1988
1989
1989
1989
1990
1990
1991
1993
1994
1994
1994
1994
1994
1993
1994
1994
1995
1995
1995
1994
1993
1992
1990
1988
1986
1984
1982
1981
1980
1980
1979
1979
1978
1977
1976
1976
1976
1977
1977
1978
1978
1977
1977
1976
1976
1977
1977
1978
1978
1978
1978
1978
1977
1977
1977
1977
1977
1977
1978
1978
1978
1978
1977
1977
1977
1976
1976
1977
1977
1977
1977
1977
1977
1977
1976
1977
1977
1977
1977
1977
1976
1975
1975
1975
1975
1977
1979
1981
1982
1983
1984
1983
1983
1982
1981
1981
1980
1980
1980
1979
1978
1977
1977
1976
1975
1975
1976
1976
1977
1978
1978
1978
1977
1975
1972
1970
1969
1974
1987
2011
2039
2060
2067
2053
2026
1995
1972
1962
1964
1970
1975
1977
1977
1976
1975
1976
1976
1977
1977
1978
1978
1978
1978
1977
1977
1978
1979
1980
1981
1981
1981
1981
1980
1980
1980
1981
1982
1983
1984
1984
1984
1984
1984
1984
1985
1986
1986
1987
1988
1989
1990
1990
1990
1990
1991
1991
1992
1994
1995
1995
1996
1996
1996
1995
1996
1996
1996
1996
1996
1995
1993
1991
1989
1987
1985
1983
1981
1980
1979
1979
1978
1977
1976
1975
1975
1975
1975
1976
1976
1977
1977
1976
1976
1976
1975
1976
1976
1976
1977
1977
1977
1977
1976
1976
1976
1976
1976
1977
1977
1977
1976
1976
1975
1975
1975
1975
1976
1976
1976
1976
1976
1976
1976
1975
1975
1975
1975
1976
1976
1976
1976
1975
1974
1973
1973
1974
1976
1978
1979
1981
1982
1982
1982
1981
1980
1979
1979
1979
1979
1978
1977
1976
1975
1974
1974
1973
1974
1974
1975
1976
1976
1976
1975
1974
1972
1970
1969
1968
1971
1982
2002
2029
2052
2064
2056
2032
2001
1975
1962
1961
1966
1971
1974
1974
1974
1973
1972
1973
1973
1974
1974
1975
1975
1975
1975
1976
1976
1977
1978
1978
1978
1979
1978
1978
1978
1979
1979
1981
1982
1983
1983
1983
1984
1984
1984
1985
1985
1986
1987
1988
1989
1989
1990
1990
1991
1991
1992
1993
1994
1995
1995
1995
1995
1995
1995
1995
1995
1996
1996
1995
1994
1993
1991
1989
1987
1985
1984
1983
1982
1981
1980
1978
1977
1975
1974
1974
1974
1975
1976
1976
1976
1976
1975
1974
1974
1974
1975
1975
1976
1976
1977
1976
1976
1975
1975
1975
1976
1976
1977
1976
1976
1976
1976
1975
1975
1975
1974
1974
1975
1976
1976
1976
1976
1976
1976
1975
1975
1976
1976
1976
1976
1975
1974
1974
1973
1974
1975
1977
1979
1981
1982
1982
1982
1982
1982
1981
1981
1981
1981
1980
1980
1979
1977
1976
1975
1975
1976
1977
1977
1978
1978
1977
1977
1977
1976
1975
1974
1973
1972
1972
1977
1991
2013
2039
2057
2059
2045
2017
1987
1967
1961
1963
1970
1974
1976
1977
1976
1977
1977
1978
1978
1978
1978
1978
1978
1978
1978
1979
1980
1981
1981
1982
1981
1980
1980
1980
1981
1982
1982
1983
1983
1983
1983
1983
1983
1984
1985
1985
1986
1987
1988
1989
1989
1989
1989
1989
1990
1992
1993
1994
1994
1995
1995
1995
1995
1995
1995
1995
1995
1995
1995
1994
1993
1991
1989
1987
1985
1984
1982
1981
1980
1978
1977
1976
1975
1974
1974
1974
1974
1975
1975
1974
1974
1974
1974
1974
1975
1976
1976
1976
1976
1975
1975
1974
1974
1974
1974
1975
1975
1976
1975
1975
1974
1974
1973
1973
1974
1974
1974
1975
1975
1974
1973
1972
1971
1971
1971
1973
1974
1976
1978
1978
1979
1979
1979
1979
1979
1979
1978
1978
1978
1977
1976
1974
1973
1973
1972
1973
1973
1973
1974
1974
1974
1973
1973
1973
1973
1972
1971
1969
1968
1970
1981
2001
2028
2050
2060
2050
2026
1995
1970
1959
1959
1965
1971
1974
1975
1975
1975
1975
1975
1975
1975
1975
1975
1975
1976
1976
1977
1978
1979
1979
1979
1979
1979
1979
1979
1980
1981
1982
1982
1982
1982
1982
1983
1983
1984
1985
1986
1987
1988
1988
1988
1988
1989
1990
1991
1992
1993
1994
1995
1995
1995
1996
1996
1996
1996
1997
1998
1998
1998
1997
1996
1994
1992
1991
1989
1988
1986
1984
1982
1981
1979
1977
1976
1976
1975
1976
1976
1976
1976
1976
1976
1976
1976
1976
1976
1977
1977
1978
1978
1978
1977
1976
1976
1976
1977
1978
1979
1979
1979
1978
1977
1976
1976
1976
1977
1977
1978
1978
1978
1977
1977
1977
1977
1978
1978
1978
1978
1978
1978
1977
1977
1976
1975
1974
1974
1975
1976
1978
1979
1980
1981
1982
1982
1982
1982
1982
1982
1982
1982
1981
1980
1978
1976
1976
1976
1976
1977
1978
1978
1978
1977
1976
1976
1976
1976
1976
1975
1973
1971
1970
1974
1989
2014
2044
2065
2070
2054
2025
1994
1971
1962
1963
1969
1973
1975
1976
1976
1976
1976
1976
1975
1975
1975
1975
1976
1976
1977
1978
1978
1978
1977
1977
1977
1978
1979
1980
1980
1980
1980
1980
1979
1980
1980
1981
1982
1983
1984
1985
1985
1986
1985
1985
1986
1986
1988
1989
1990
1991
1991
1992
1992
1992
1992
1993
1994
1994
1995
1995
1995
1995
1994
1993
1992
1990
1989
1987
1987
1986
1985
1984
1981
1979
1977
1976
1976
1976
1977
1977
1977
1977
1977
1977
1976
1976
1976
1977
1977
1978
1978
1977
1977
1976
1976
1976
1977
1978
1978
1979
1979
1979
1978
1977
1977
1977
1977
1978
1978
1978
1978
1978
1977
1977
1976
1976
1976
1977
1978
1978
1978
1978
1977
1977
1976
1975
1975
1975
1976
1977
1979
1981
1982
1983
1983
1983
1983
1984
1984
1984
1983
1982
1981
1979
1978
1976
1976
1976
1977
1977
1977
1977
1977
1976
1976
1977
1977
1977
1976
1975
1973
1971
1972
1980
1998
2022
2047
2060
2055
2034
2002
1974
1958
1956
1962
1970
1975
1977
1977
1977
1976
1975
1975
1975
1976
1976
1977
1977
1978
1978
1979
1979
1978
1978
1979
1979
1980
1980
1981
1981
1981
1981
1981
1981
1981
1981
1981
1982
1983
1984
1985
1985
1986
1986
1987
1988
1989
1991
1992
1993
1994
1994
1994
1994
1994
1995
1996
1998
1998
1998
1998
1997
1997
1996
1994
1993
1992
1992
1990
1989
1987
1984
1982
1980
1978
1977
1977
1977
1977
1976
1976
1975
1975
1974
1974
1975
1976
1977
1977
1977
1977
1976
1976
1976
1976
1977
1977
1978
1978
1979
1978
1978
1977
1976
1976
1976
1977
1977
1978
1978
1978
1978
1977
1976
1975
1975
1975
1976
1976
1977
1978
1978
1979
1980
1981
1982
1983
1984
1984
1983
1982
1982
1981
1980
1979
1978
1978
1977
1977
1977
1977
1977
1976
1976
1976
1976
1977
1977
1977
1977
1975
1973
1970
1970
1976
1992
2019
2048
2068
2070
2052
2021
1989
1968
1961
1964
1971
1976
1978
1978
1977
1976
1976
1976
1976
1976
1977
1977
1978
1979
1980
1980
1980
1979
1979
1979
1979
1980
1981
1981
1982
1981
1981
1981
1981
1982
1983
1984
1985
1986
1986
1986
1987
1987
1987
1988
1989
1990
1991
1992
1993
1994
1994
1995
1995
1996
1996
1997
1997
1998
1998
1997
1997
1996
1995
1994
1993
1991
1989
1988
1986
1984
1982
1980
1978
1977
1976
1976
1976
1976
1976
1976
1976
1976
1976
1976
1976
1977
1977
1977
1977
1977
1976
1976
1976
1976
1977
1977
1978
1978
1978
1977
1977
1977
1977
1976
1977
1977
1977
1977
1977
1977
1977
1977
1977
1978
1978
1978
1978
1978
1977
1977
1977
1976
1976
1976
1976
1976
1976
1976
1976
1976
1976
1976
1977
1979
1980
1982
1983
1984
1984
1984
1983
1982
1981
1981
1980
1980
1979
1979
1978
1977
1977
1976
1976
1976
1977
1977
1978
1978
1979
1978
1976
1974
1971
1969
1969
1977
1995
2024
2053
2073
2074
2053
2022
1990
1970
1964
1967
1973
1976
1977
1976
1975
1974
1974
1975
1976
1976
1977
1977
1977
1977
1977
1977
1977
1978
1979
1979
1979
1979
1979
1979
1979
1979
1979
1980
1981
1983
1984
1984
1984
1984
1983
1983
1983
1984
1985
1987
1988
1989
1989
1989
1990
1990
1991
1992
1993
1994
1995
1995
1995
1994
1994
1993
1993
1994
1994
1994
1993
1992
1990
1987
1985
1983
1981
1980
1979
1979
1978
1977
1976
1976
1975
1975
1975
1975
1975
1975
1975
1975
1975
1975
1975
1975
1974
1974
1975
1976
1977
1977
1977
1977
1977
1976
1976
1975
1976
1976
1977
1977
1976
1976
1975
1974
1974
1974
1975
1975
1976
1976
1975
1975
1975
1975
1974
1974
1974
1975
1975
1975
1975
1975
1975
1974
1974
1974
1973
1973
1973
1974
1974
1975
1977
1978
1980
1981
1982
1983
1982
1982
1981
1980
1979
1978
1977
1977
1976
1976
1976
1975
1975
1974
1975
1975
1975
1975
1976
1976
1976
1975
1973
1970
1968
1969
1976
1995
2022
2048
2065
2062
2041
2009
1979
1961
1958
1963
1970
1974
1976
1976
1974
1973
1973
1973
1974
1975
1976
1976
1976
1976
1976
1976
1976
1976
1977
1978
1978
1979
1979
1979
1979
1979
1979
1979
1979
1980
1980
1981
1982
1983
1983
1983
1984
1984
1984
1985
1987
1988
1989
1990
1990
1990
1990
1990
1991
1992
1993
1994
1995
1995
1995
1995
1994
1993
1992
1992
1991
1990
1989
1987
1985
1983
1981
1979
1978
1977
1977
1977
1977
1976
1975
1973
1972
1972
1972
1973
1973
1973
1973
1973
1973
1973
1973
1973
1973
1973
1974
1974
1974
1974
1974
1974
1973
1973
1973
1973
1973
1973
1974
1974
1973
1973
1972
1972
1972
1972
1973
1973
1973
1973
1972
1972
1971
1970
1970
1970
1972
1973
1975
1977
1978
1978
1978
1978
1977
1977
1977
1977
1977
1976
1975
1974
1972
1971
1971
1971
1971
1972
1973
1973
1973
1972
1971
1971
1970
1969
1968
1966
1966
1967
1976
1995
2020
2045
2058
2053
2031
2000
1973
1958
1956
1961
1967
1970
1972
1972
1972
1973
1973
1974
1974
1973
1973
1973
1974
1974
1975
1976
1977
1977
1977
1977
1976
1976
1977
1977
1978
1978
1979
1979
1980
1980
1980
1980
1980
1981
1982
1983
1984
1984
1985
1985
1985
1986
1987
1988
1989
1991
1991
1992
1993
1993
1993
1993
1994
1994
1995
1996
1996
1995
1995
1993
1991
1989
1987
1985
1984
1982
1981
1979
1978
1976
1974
1972
1972
1972
1972
1973
1973
1973
1973
1972
1972
1972
1972
1973
1973
1974
1975
1975
1975
1974
1974
1974
1974
1975
1976
1976
1975
1975
1975
1974
1974
1973
1974
1974
1975
1975
1976
1975
1975
1974
1974
1974
1974
1974
1974
1975
1975
1976
1975
1975
1974
1973
1973
1973
1973
1974
1974
1975
1975
1976
1976
1977
1979
1980
1981
1981
1981
1980
1979
1979
1978
1978
1977
1976
1975
1975
1975
1975
1975
1974
1974
1975
1975
1976
1977
1977
1976
1975
1972
1970
1968
1970
1982
2005
2035
2062
2076
2068
2042
2008
1980
1965
1962
1968
1973
1976
1977
1976
1975
1974
1974
1975
1975
1976
1976
1976
1977
1977
1977
1978
1977
1977
1977
1978
1978
1979
1979
1980
1979
1979
1979
1980
1980
1981
1982
1983
1984
1984
1984
1983
1983
1983
1984
1985
1987
1988
1989
1990
1990
1990
1990
1991
1992
1993
1994
1995
1996
1996
1996
1995
1994
1993
1993
1992
1991
1990
1989
1987
1985
1983
1981
1979
1978
1977
1977
1977
1977
1977
1976
1976
1975
1975
1975
1975
1976
1977
1977
1977
1976
1976
1975
1975
1975
1975
1976
1976
1977
1977
1978
1977
1977
1977
1976
1976
1977
1977
1978
1978
1977
1976
1976
1975
1975
1975
1976
1976
1977
1977
1977
1977
1976
1976
1976
1976
1977
1978
1978
1978
1977
1976
1975
1975
1975
1975
1976
1976
1977
1978
1980
1981
1982
1983
1983
1984
1984
1984
1984
1983
1983
1981
1980
1979
1978
1978
1978
1979
1979
1980
1980
1979
1979
1979
1979
1979
1978
1977
1976
1974
1972
1975
1988
2011
2039
2063
2072
2060
2033
2001
1975
1963
1963
1968
1973
1975
1976
1977
1977
1977
1976
1976
1975
1974
1975
1975
1976
1977
1977
1977
1977
1977
1977
1977
1977
1977
1977
1978
1979
1980
1981
1981
1981
1981
1981
1982
1983
1984
1985
1985
1985
1985
1985
1986
1987
1988
1989
1990
1991
1992
1992
1992
1992
1992
1992
1992
1993
1994
1994
1995
1994
1993
1992
1990
1989
1987
1986
1985
1983
1982
1980
1978
1975
1974
1972
1972
1972
1972
1973
1972
1972
1971
1970
1970
1970
1970
1971
1971
1972
1972
1971
1971
1971
1970
1970
1971
1971
1971
1972
1971
1971
1971
1970
1970
1970
1970
1970
1970
1970
1970
1970
1970
1969
1969
1968
1968
1968
1969
1969
1970
1971
1973
1974
1975
1976
1977
1977
1977
1977
1976
1975
1974
1972
1972
1971
1971
1971
1971
1971
1971
1971
1971
1971
1971
1971
1972
1972
1971
1970
1967
1965
1965
1972
1989
2015
2042
2058
2058
2040
2010
1982
1964
1958
1962
1967
1971
1973
1974
1973
1973
1973
1973
1973
1973
1973
1974
1974
1975
1976
1976
1975
1975
1975
1975
1976
1976
1977
1977
1978
1978
1979
1979
1980
1980
1981
1981
1981
1982
1983
1983
1984
1984
1985
1985
1986
1987
1988
1989
1990
1991
1991
1991
1992
1992
1993
1994
1995
1995
1996
1996
1995
1994
1993
1991
1990
1989
1987
1985
1983
1981
1979
1976
1974
1973
1972
1972
1972
1972
1972
1972
1972
1971
1971
1970
1971
1971
1972
1973
1974
1974
1974
1974
1974
1974
1974
1975
1975
1975
1976
1975
1975
1975
1974
1974
1974
1974
1974
1975
1975
1975
1975
1974
1974
1973
1973
1973
1973
1973
1974
1974
1975
1974
1974
1974
1974
1974
1974
1974
1974
1973
1972
1972
1972
1973
1975
1976
1978
1980
1981
1981
1980
1979
1979
1978
1977
1977
1976
1975
1975
1974
1974
1973
1973
1973
1973
1973
1974
1974
1975
1975
1974
1972
1969
1966
1963
1966
1980
2006
2041
2070
2085
2075
2048
2012
1982
1966
1963
1966
1970
1972
1972
1971
1970
1969
1970
1971
1971
1972
1973
1973
1973
1972
1972
1972
1973
1973
1974
1975
1975
1976
1976
1976
1976
1976
1976
1977
1978
1978
1979
1979
1980
1980
1980
1981
1982
1983
1984
1985
1986
1986
1987
1987
1988
1988
1989
1990
1991
1993
1994
1995
1995
1995
1995
1994
1994
1994
1994
1993
1992
1990
1988
1986
1984
1982
1981
1980
1980
1979
1979
1979
1978
1978
1977
1977
1977
1977
1977
1978
1978
1978
1978
1977
1977
1977
1977
1977
1978
1978
1979
1979
1978
1978
1977
1977
1977
1977
1978
1978
1978
1978
1978
1977
1977
1977
1977
1977
1977
1977
1978
1978
1978
1977
1977
1976
1976
1977
1977
1978
1978
1978
1977
1976
1975
1974
1974
1975
1976
1978
1979
1981
1982
1982
1982
1982
1982
1982
1982
1982
1982
1981
1979
1978
1977
1976
1976
1976
1977
1977
1978
1978
1977
1977
1977
1977
1976
1976
1975
1973
1971
1969
1973
1987
2011
2041
2064
2071
2058
2031
1999
1976
1966
1966
1970
1974
1975
1975
1975
1975
1975
1976
1976
1975
1975
1975
1975
1975
1976
1977
1978
1978
1978
1978
1978
1978
1978
1978
1979
1980
1980
1981
1981
1981
1981
1981
1982
1983
1984
1985
1985
1986
1986
1986
1986
1987
1988
1989
1990
1991
1992
1993
1993
1993
1993
1994
1994
1995
1995
1996
1996
1996
1996
1995
1993
1991
1990
1988
1987
1986
1985
1983
1981
1979
1977
1976
1976
1975
1975
1975
1975
1975
1975
1975
1975
1974
1974
1975
1975
1976
1977
1977
1977
1977
1976
1976
1975
1976
1976
1977
1977
1977
1977
1977
1976
1976
1976
1976
1977
1977
1977
1977
1977
1976
1976
1976
1976
1976
1977
1977
1978
1978
1978
1977
1977
1976
1976
1977
1978
1978
1978
1978
1977
1976
1975
1975
1976
1978
1980
1982
1983
1984
1984
1983
1982
1982
1981
1981
1981
1981
1981
1980
1979
1978
1977
1976
1976
1977
1977
1978
1978
1978
1978
1978
1978
1977
1975
1973
1972
1971
1976
1989
2012
2038
2058
2063
2049
2022
1992
1970
1961
1963
1970
1975
1977
1977
1977
1977
1977
1977
1977
1977
1977
1977
1977
1977
1978
1978
1979
1980
1980
1980
1980
1980
1979
1979
1980
1980
1981
1982
1982
1982
1982
1982
1982
1983
1983
1984
1985
1985
1986
1987
1987
1988
1988
1988
1989
1990
1991
1992
1993
1993
1994
1994
1994
1994
1994
1995
1995
1996
1996
1996
1994
1992
1990
1988
1986
1984
1983
1981
1979
1977
1976
1975
1974
1973
1973
1973
1973
1973
1973
1973
1973
1973
1972
1972
1972
1973
1974
1974
1975
1975
1974
1974
1974
1974
1974
1974
1975
1975
1975
1975
1975
1974
1974
1973
1974
1974
1975
1975
1975
1975
1975
1975
1974
1974
1974
1974
1974
1975
1975
1974
1972
1970
1969
1968
1969
1970
1974
1978
1982
1984
1985
1983
1981
1980
1980
1981
1981
1981
1980
1978
1977
1976
1975
1975
1974
1974
1975
1975
1975
1976
1976
1976
1975
1973
1971
1969
1968
1972
1987
2012
2042
2066
2074
2061
2034
2001
1977
1966
1966
1971
1975
1976
1975
1974
1974
1974
1975
1976
1976
1975
1974
1974
1975
1976
1978
1979
1979
1979
1979
1979
1979
1978
1978
1978
1978
1979
1980
1981
1982
1982
1983
1983
1983
1983
1983
1984
1985
1986
1986
1986
1987
1987
1988
1989
1989
1990
1991
1992
1993
1994
1993
1993
1993
1993
1994
1995
1995
1995
1994
1992
1991
1988
1986
1984
1982
1981
1980
1979
1979
1978
1977
1976
1975
1975
1975
1976
1976
1976
1975
1974
1974
1973
1973
1973
1973
1974
1975
1975
1976
1976
1976
1975
1974
1973
1974
1975
1976
1977
1977
1977
1976
1975
1974
1973
1973
1974
1975
1975
1976
1975
1975
1974
1972
1972
1972
1973
1974
1976
1977
1979
1980
1981
1981
1981
1980
1980
1980
1980
1979
1979
1977
1975
1974
1973
1973
1973
1974
1975
1975
1975
1975
1974
1974
1974
1974
1973
1972
1970
1968
1968
1973
1987
2010
2038
2058
2063
2050
2024
1994
1973
1964
1964
1968
1971
1972
1973
1973
1973
1973
1974
1975
1975
1975
1975
1975
1975
1976
1976
1977
1977
1977
1977
1977
1977
1978
1978
1978
1978
1979
1980
1980
1981
1982
1983
1983
1984
1984
1984
1985
1985
1986
1986
1987
1987
1988
1989
1990
1991
1992
1992
1993
1994
1994
1994
1994
1994
1995
1996
1996
1996
1995
1993
1992
1990
1988
1986
1984
1983
1981
1980
1979
1978
1977
1977
1978
1978
1978
1977
1976
1976
1976
1976
1977
1977
1977
1977
1977
1977
1977
1977
1977
1977
1976
1976
1976
1976
1976
1976
1976
1976
1975
1975
1974
1974
1973
1973
1974
1975
1976
1977
1978
1979
1980
1981
1982
1982
1982
1981
1979
1978
1977
1976
1975
1973
1972
1972
1972
1973
1974
1973
1973
1972
1972
1972
1973
1973
1973
1973
1971
1969
1967
1968
1977
1997
2023
2048
2059
2053
2030
1999
1973
1959
1958
1963
1969
1973
1974
1974
1974
1973
1973
1972
1972
1972
1973
1973
1974
1975
1975
1976
1975
1975
1975
1975
1975
1976
1977
1978
1978
1978
1978
1978
1978
1979
1980
1981
1982
1983
1984
1984
1984
1983
1983
1984
1985
1986
1988
1989
1990
1990
1991
1992
1992
1992
1993
1994
1995
1996
1996
1996
1995
1993
1992
1990
1988
1987
1986
1985
1983
1982
1979
1977
1976
1975
1974
1974
1974
1974
1974
1974
1973
1973
1973
1973
1973
1974
1975
1975
1976
1976
1976
1975
1975
1975
1975
1976
1976
1976
1976
1975
1975
1974
1974
1974
1973
1974
1974
1976
1977
1978
1979
1980
1980
1980
1981
1981
1981
1981
1980
1979
1978
1976
1975
1975
1975
1975
1976
1976
1976
1976
1976
1975
1975
1975
1975
1975
1975
1974
1972
1970
1968
1969
1979
2000
2028
2054
2068
2062
2039
2007
1980
1965
1962
1965
1970
1973
1974
1975
1975
1975
1975
1975
1974
1974
1974
1974
1975
1976
1977
1978
1978
1978
1977
1977
1977
1978
1979
1980
1981
1981
1981
1981
1981
1981
1982
1983
1984
1985
1986
1986
1986
1986
1986
1986
1987
1989
1990
1991
1992
1993
1994
1994
1994
1994
1994
1995
1996
1996
1997
1996
1996
1995
1993
1992
1990
1988
1987
1985
1984
1982
1980
1978
1977
1976
1976
1976
1976
1977
1976
1975
1975
1974
1974
1974
1974
1975
1975
1976
1977
1977
1977
1976
1976
1976
1976
1976
1976
1977
1977
1977
1977
1976
1975
1974
1974
1974
1974
1975
1975
1977
1978
1979
1980
1981
1982
1982
1983
1982
1981
1980
1979
1978
1977
1976
1975
1974
1974
1974
1974
1974
1974
1974
1973
1973
1973
1975
1976
1976
1974
1972
1969
1965
1965
1971
1989
2016
2046
2065
2066
2048
2017
1986
1966
1959
1961
1967
1971
1972
1972
1971
1970
1970
1970
1970
1970
1970
1971
1972
1973
1973
1973
1973
1972
1972
1972
1973
1975
1976
1977
1977
1977
1977
1976
1977
1977
1977
1977
1978
1979
1980
1981
1981
1981
1981
1982
1983
1984
1985
1987
1988
1989
1990
1990
1990
1990
1990
1991
1992
1993
1993
1992
1991
1990
1989
1988
1987
1986
1984
1982
1981
1979
1977
1975
1974
1973
1972
1972
1973
1974
1974
1975
1974
1973
1973
1972
1973
1973
1974
1974
1974
1974
1973
1973
1973
1973
1974
1974
1975
1975
1975
1975
1975
1974
1974
1973
1974
1974
1974
1974
1974
1975
1975
1976
1977
1978
1979
1980
1980
1980
1980
1980
1980
1978
1977
1975
1974
1974
1974
1974
1974
1974
1974
1973
1973
1973
1974
1975
1976
1977
1976
1974
1971
1968
1967
1970
1983
2006
2034
2055
2061
2048
2019
1987
1964
1955
1958
1966
1972
1976
1976
1975
1973
1972
1972
1973
1974
1975
1976
1976
1976
1976
1976
1975
1975
1975
1975
1976
1977
1978
1978
1978
1978
1977
1978
1978
1980
1981
1982
1983
1983
1983
1983
1983
1983
1983
1983
1984
1986
1987
1988
1988
1989
1989
1990
1991
1992
1993
1993
1994
1993
1993
1992
1992
1991
1991
1990
1989
1988
1986
1983
1980
1977
1973
1971
1969
1969
1969
1969
1969
1969
1968
1968
1968
1967
1967
1967
1967
1968
1969
1969
1969
1969
1969
1969
1969
1969
1970
1970
1970
1970
1969
1969
1969
1969
1969
1969
1968
1968
1969
1969
1971
1972
1974
1975
1976
1976
1976
1975
1975
1975
1974
1973
1972
1971
1970
1969
1970
1970
1970
1970
1970
1969
1969
1969
1969
1970
1971
1972
1971
1969
1966
1963
1962
1968
1983
2009
2039
2059
2063
2047
2017
1984
1962
1955
1958
1965
1970
1972
1972
1971
1970
1970
1970
1970
1971
1972
1973
1974
1974
1974
1973
1973
1973
1974
1975
1976
1977
1977
1978
1978
1979
1979
1979
1979
1980
1981
1982
1983
1983
1983
1983
1984
1984
1985
1986
1987
1988
1989
1991
1991
1992
1992
1993
1993
1994
1995
1996
1996
1997
1997
1997
1996
1995
1994
1992
1991
1989
1988
1986
1984
1982
1980
1977
1976
1975
1975
1975
1975
1975
1974
1974
1973
1973
1973
1973
1974
1974
1975
1976
1976
1976
1976
1976
1975
1975
1975
1975
1976
1977
1977
1977
1976
1975
1975
1975
1975
1976
1977
1977
1976
1975
1974
1973
1972
1972
1973
1975
1977
1980
1982
1983
1983
1983
1982
1981
1980
1980
1979
1977
1976
1975
1975
1975
1976
1977
1977
1977
1977
1977
1977
1977
1976
1975
1974
1973
1971
1970
1969
1975
1993
2022
2053
2077
2081
2063
2031
1997
1974
1965
1967
1971
1974
1974
1974
1973
1972
1972
1973
1973
1973
1974
1974
1974
1975
1975
1976
1976
1978
1978
1979
1979
1978
1978
1978
1978
1979
1980
1981
1982
1982
1982
1983
1983
1984
1986
1987
1989
1990
1991
1992
1992
1992
1992
1992
1993
1994
1995
1996
1997
1997
1998
1997
1997
1997
1997
1997
1998
1998
1998
1997
1995
1992
1989
1987
1986
1985
1984
1984
1983
1981
1980
1979
1978
1978
1978
1979
1979
1980
1980
1979
1978
1977
1977
1977
1979
1980
1981
1981
1981
1981
1980
1979
1977
1976
1976
1976
1977
1978
1978
1979
1978
1978
1977
1976
1976
1977
1978
1979
1979
1980
1980
1979
1978
1977
1976
1976
1976
1976
1978
1979
1981
1982
1983
1984
1984
1984
1984
1984
1983
1983
1982
1981
1980
1978
1977
1977
1978
1978
1979
1978
1977
1977
1978
1979
1979
1978
1976
1973
1971
1970
1975
1991
2017
2048
2071
2077
2062
2032
1999
1975
1964
1964
1969
1973
1975
1977
1977
1977
1977
1977
1976
1976
1977
1977
1977
1977
1977
1977
1977
1978
1979
1979
1980
1980
1980
1980
1981
1982
1982
1982
1982
1981
1982
1982
1984
1985
1986
1987
1987
1987
1987
1987
1987
1989
1990
1992
1993
1994
1994
1994
1994
1995
1995
1995
1995
1996
1996
1997
1997
1997
1995
1993
1990
1988
1987
1986
1986
1985
1984
1982
1981
1979
1978
1976
1975
1974
1974
1975
1978
1980
1980
1978
1976
1974
1973
1975
1980
1985
1989
1991
1990
1987
1984
1981
1979
1978
1979
1979
1978
1978
1977
1975
1974
1973
1974
1976
1977
1978
1978
1977
1975
1974
1973
1973
1974
1975
1976
1979
1981
1983
1983
1983
1982
1980
1979
1979
1979
1978
1977
1975
1974
1973
1973
1974
1974
1975
1975
1975
1975
1975
1974
1973
1972
1970
1969
1967
1966
1971
1987
2015
2047
2071
2077
2060
2029
1995
1971
1962
1965
1972
1976
1976
1973
1971
1970
1971
1972
1973
1973
1972
1971
1971
1972
1974
1977
1979
1980
1981
1981
1981
1982
1982
1981
1979
1977
1975
1976
1977
1979
1981
1982
1982
1982
1982
1984
1986
1988
1990
1991
1991
1990
1988
1985
1984
1985
1987
1990
1994
1997
2000
2002
2002
2001
1998
1994
1992
1991
1992
1992
1992
1991
1988
1985
1983
1982
1981
1981
1981
1980
1979
1978
1977
1976
1975
1974
1974
1973
1973
1974
1974
1974
1974
1973
1973
1973
1974
1974
1974
1975
1976
1978
1978
1977
1976
1975
1974
1974
1975
1976
1977
1976
1976
1975
1975
1974
1975
1975
1976
1977
1977
1977
1974
1972
1969
1969
1971
1974
1978
1981
1984
1986
1987
1988
1988
1986
1983
1978
1974
1971
1970
1971
1972
1972
1972
1972
1973
1974
1975
1975
1975
1974
1973
1971
1968
1966
1964
1965
1974
1995
2025
2054
2071
2068
2045
2010
1979
1961
1957
1962
1968
1972
1973
1972
1971
1970
1970
1970
1970
1971
1970
1970
1970
1970
1970
1971
1971
1971
1972
1973
1974
1974
1974
1973
1973
1973
1974
1975
1975
1975
1975
1975
1974
1974
1974
1974
1975
1977
1979
1981
1982
1982
1981
1981
1981
1981
1982
1983
1984
1986
1987
1987
1987
1986
1986
1985
1986
1987
1987
1987
1985
1983
1981
1979
1977
1975
1974
1973
1972
1972
1971
1971
1970
1969
1968
1968
1968
1969
1970
1970
1972
1973
1974
1975
1975
1975
1974
1972
1971
1970
1971
1972
1973
1972
1972
1971
1972
1973
1973
1973
1972
1971
1970
1970
1972
1974
1977
1979
1980
1980
1980
1979
1978
1978
1977
1976
1976
1976
1975
1975
1974
1974
1973
1973
1973
1973
1975
1977
1978
1979
1978
1976
1974
1971
1968
1966
1966
1970
1984
2007
2035
2058
2067
2056
2030
1998
1974
1963
1963
1969
1975
1977
1978
1977
1976
1975
1975
1975
1974
1975
1975
1976
1976
1976
1977
1977
1978
1979
1980
1981
1982
1983
1982
1981
1980
1979
1979
1980
1981
1981
1982
1982
1982
1982
1983
1984
1984
1985
1987
1988
1989
1990
1991
1991
1991
1991
1992
1992
1992
1993
1993
1993
1994
1994
1994
1994
1993
1993
1991
1990
1988
1986
1984
1982
1980
1978
1977
1976
1975
1975
1975
1974
1973
1971
1970
1970
1971
1972
1974
1975
1975
1975
1973
1972
1971
1971
1972
1973
1975
1976
1976
1976
1975
1974
1973
1973
1973
1974
1975
1975
1975
1974
1973
1972
1971
1972
1974
1976
1979
1981
1982
1982
1981
1981
1980
1980
1980
1979
1977
1976
1974
1974
1974
1975
1975
1975
1975
1976
1977
1977
1977
1977
1977
1976
1974
1973
1971
1970
1973
1984
2005
2031
2054
2063
2053
2029
1998
1974
1963
1963
1969
1974
1976
1976
1975
1975
1975
1976
1976
1977
1977
1977
1977
1977
1977
1977
1978
1978
1979
1979
1979
1979
1979
1979
1979
1980
1980
1981
1982
1983
1983
1984
1984
1983
1983
1983
1984
1985
1987
1988
1989
1990
1991
1991
1992
1992
1992
1993
1994
1995
1996
1996
1996
1996
1996
1996
1996
1996
1996
1995
1993
1991
1989
1986
1984
1982
1981
1980
1979
1978
1976
1975
1975
1975
1975
1976
1975
1975
1974
1974
1974
1974
1974
1974
1975
1975
1976
1977
1978
1978
1977
1976
1975
1975
1974
1974
1974
1974
1974
1974
1974
1974
1974
1975
1977
1980
1981
1983
1983
1982
1981
1980
1979
1977
1976
1975
1974
1974
1975
1975
1975
1975
1974
1974
1974
1974
1975
1976
1976
1976
1975
1973
1970
1968
1967
1973
1989
2015
2044
2064
2066
2048
2018
1987
1966
1960
1963
1969
1974
1976
1976
1975
1974
1973
1973
1974
1974
1975
1975
1975
1975
1975
1975
1975
1976
1977
1978
1978
1979
1979
1979
1979
1979
1979
1979
1979
1980
1982
1983
1984
1985
1985
1984
1984
1985
1986
1987
1988
1989
1990
1991
1992
1993
1993
1993
1993
1993
1994
1995
1996
1996
1996
1995
1995
1994
1993
1992
1991
1990
1988
1987
1985
1983
1980
1978
1977
1977
1977
1978
1978
1977
1976
1975
1975
1976
1976
1977
1978
1978
1978
1977
1977
1977
1977
1977
1977
1978
1979
1979
1979
1979
1979
1978
1978
1978
1978
1978
1978
1978
1978
1978
1977
1976
1976
1977
1978
1980
1983
1985
1985
1986
1985
1984
1982
1981
1979
1978
1978
1979
1979
1978
1978
1977
1977
1977
1977
1978
1979
1979
1980
1980
1979
1977
1974
1971
1969
1972
1984
2006
2036
2062
2073
2064
2039
2006
1979
1966
1965
1970
1975
1977
1977
1976
1975
1975
1975
1976
1977
1977
1978
1978
1978
1977
1977
1977
1978
1978
1979
1980
1981
1981
1981
1981
1981
1981
1981
1982
1984
1985
1986
1986
1986
1986
1985
1986
1987
1988
1989
1990
1991
1992
1992
1993
1994
1995
1995
1996
1997
1998
1998
1998
1999
1999
1998
1998
1998
1998
1997
1996
1994
1993
1990
1988
1986
1984
1982
1981
1981
1981
1981
1980
1980
1979
1979
1978
1978
1978
1978
1979
1979
1980
1979
1979
1978
1978
1978
1979
1980
1981
1981
1981
1980
1979
1978
1978
1978
1979
1979
1979
1980
1980
1980
1980
1979
1978
1977
1977
1976
1977
1977
1979
1980
1983
1984
1985
1986
1986
1986
1985
1985
1984
1983
1982
1980
1979
1979
1979
1979
1980
1980
1980
1980
1980
1980
1979
1980
1980
1980
1979
1977
1974
1972
1973
1985
2007
2037
2062
2074
2065
2040
2007
1981
1967
1966
1971
1976
1978
1979
1979
1979
1979
1978
1978
1978
1978
1979
1980
1980
1981
1981
1981
1982
1982
1982
1982
1982
1982
1983
1983
1983
1983
1983
1983
1983
1984
1985
1986
1987
1988
1988
1989
1989
1990
1990
1991
1991
1992
1993
1994
1995
1996
1996
1996
1996
1997
1997
1998
1999
1999
1999
1999
1999
1998
1997
1995
1994
1992
1991
1989
1988
1986
1984
1982
1981
1980
1979
1979
1980
1980
1980
1980
1980
1979
1979
1979
1979
1979
1980
1980
1981
1981
1981
1980
1980
1980
1980
1980
1981
1982
1982
1982
1981
1981
1980
1979
1979
1980
1980
1981
1981
1981
1980
1979
1978
1977
1977
1979
1981
1983
1986
1988
1988
1988
1987
1986
1985
1985
1984
1983
1983
1982
1981
1980
1979
1979
1980
1980
1981
1981
1981
1981
1981
1981
1981
1979
1977
1975
1973
1973
1978
1994
2018
2045
2064
2067
2051
2023
1993
1973
1966
1969
1975
1978
1980
1979
1979
1979
1980
1981
1981
1982
1982
1981
1981
1981
1981
1982
1982
1982
1983
1984
1984
1984
1983
1983
1984
1984
1985
1986
1987
1987
1987
1987
1987
1987
1988
1988
1990
1990
1991
1992
1992
1993
1993
1994
1995
1996
1996
1997
1998
1998
1998
1999
1999
1999
1999
1999
1999
1999
1998
1997
1996
1994
1991
1989
1987
1985
1983
1982
1981
1980
1979
1978
1977
1976
1976
1976
1977
1978
1978
1978
1978
1977
1977
1977
1978
1978
1978
1979
1979
1978
1978
1978
1978
1978
1978
1978
1978
1978
1978
1978
1977
1977
1976
1975
1974
1974
1975
1976
1977
1979
1981
1983
1983
1983
1983
1983
1983
1982
1982
1980
1979
1977
1976
1976
1976
1976
1977
1977
1977
1977
1977
1976
1976
1976
1976
1975
1975
1973
1971
1970
1972
1983
2004
2032
2057
2067
2058
2033
2002
1976
1964
1963
1968
1973
1975
1976
1976
1976
1975
1975
1975
1975
1975
1975
1976
1977
1977
1978
1978
1978
1978
1978
1978
1978
1978
1979
1980
1981
1981
1981
1981
1981
1981
1981
1982
1983
1984
1985
1986
1986
1986
1986
1986
1987
1988
1989
1990
1992
1993
1994
1994
1994
1995
1995
1995
1995
1996
1996
1996
1995
1994
1992
1990
1989
1987
1986
1984
1983
1981
1979
1978
1976
1976
1975
1975
1975
1975
1975
1975
1975
1975
1975
1975
1975
1975
1975
1976
1976
1977
1978
1978
1978
1977
1977
1977
1977
1977
1977
1977
1977
1977
1976
1976
1976
1976
1976
1976
1976
1976
1975
1974
1974
1974
1975
1978
1980
1983
1984
1984
1984
1983
1982
1981
1980
1979
1978
1978
1978
1978
1977
1977
1976
1975
1975
1976
1976
1978
1978
1979
1979
1977
1975
1972
1969
1968
1973
1988
2014
2044
2067
2072
2057
2028
1996
1973
1964
1966
1972
1976
1977
1976
1975
1974
1973
1974
1975
1976
1976
1977
1977
1977
1977
1977
1977
1977
1978
1979
1980
1980
1980
1980
1979
1979
1980
1980
1981
1982
1983
1984
1984
1984
1984
1984
1985
1986
1987
1988
1989
1990
1991
1991
1991
1991
1992
1993
1994
1996
1997
1997
1997
1997
1996
1996
1996
1995
1994
1994
1993
1992
1990
1988
1986
1984
1982
1980
1980
1979
1979
1979
1979
1978
1978
1977
1977
1976
1976
1977
1977
1978
1978
1978
1978
1977
1977
1977
1978
1979
1979
1980
1980
1980
1979
1978
1978
1978
1979
1979
1980
1980
1980
1979
1979
1978
1978
1978
1978
1978
1978
1978
1978
1978
1979
1981
1983
1985
1987
1987
1987
1986
1986
1985
1983
1982
1980
1979
1979
1980
1981
1981
1981
1980
1979
1979
1979
1979
1980
1981
1981
1980
1979
1976
1973
1971
1975
1989
2014
2044
2067
2074
2061
2033
2000
1976
1966
1967
1972
1977
1980
1980
1980
1979
1978
1978
1978
1978
1979
1980
1981
1982
1982
1982
1981
1981
1981
1981
1982
1983
1984
1985
1985
1984
1984
1983
1984
1984
1986
1987
1987
1988
1988
1988
1989
1989
1990
1990
1991
1992
1993
1994
1995
1996
1996
1996
1997
1997
1997
1997
1998
1999
1999
1999
1999
1997
1996
1995
1994
1993
1992
1990
1988
1986
1984
1982
1980
1980
1979
1979
1979
1978
1978
1977
1977
1977
1977
1977
1978
1978
1978
1978
1978
1978
1977
1977
1977
1978
1978
1979
1979
1979
1979
1979
1978
1978
1977
1977
1978
1978
1979
1978
1977
1976
1975
1974
1974
1974
1976
1978
1981
1983
1985
1985
1984
1983
1982
1981
1981
1981
1981
1980
1979
1978
1977
1977
1976
1976
1977
1977
1978
1979
1979
1979
1979
1977
1976
1974
1972
1970
1971
1979
1997
2023
2049
2065
2063
2043
2012
1984
1968
1964
1968
1974
1976
1977
1976
1975
1975
1976
1977
1978
1978
1978
1978
1978
1978
1978
1979
1979
1980
1980
1980
1981
1981
1981
1981
1981
1982
1982
1983
1984
1984
1984
1984
1985
1985
1986
1987
1988
1989
1990
1991
1991
1991
1991
1992
1993
1994
1995
1997
1998
1998
1998
1998
1998
1998
1998
1998
1998
1998
1997
1995
1993
1991
1989
1986
1984
1982
1981
1981
1980
1979
1978
1977
1977
1977
1977
1977
1978
1978
1978
1978
1977
1977
1977
1977
1977
1977
1978
1979
1979
1979
1979
1979
1978
1979
1979
1979
1979
1979
1980
1979
1979
1979
1978
1978
1978
1978
1978
1979
1979
1979
1979
1978
1977
1976
1975
1975
1975
1975
1977
1979
1981
1983
1984
1986
1986
1987
1987
1986
1985
1984
1982
1981
1979
1977
1977
1977
1977
1979
1980
1980
1980
1979
1978
1978
1979
1979
1978
1977
1975
1973
1971
1973
1983
2004
2033
2060
2074
2068
2044
2012
1983
1968
1965
1969
1974
1977
1978
1977
1976
1976
1976
1976
1976
1976
1976
1976
1977
1978
1979
1980
1980
1980
1979
1978
1978
1978
1979
1980
1981
1982
1981
1981
1981
1981
1981
1982
1983
1984
1985
1986
1986
1986
1986
1986
1987
1988
1989
1991
1992
1992
1992
1992
1992
1993
1993
1994
1995
1996
1997
1997
1996
1994
1991
1989
1988
1988
1987
1987
1985
1984
1982
1980
1978
1977
1977
1977
1977
1977
1977
1976
1975
1975
1974
1974
1974
1975
1976
1976
1977
1978
1977
1977
1976
1975
1975
1975
1976
1977
1978
1977
1977
1976
1976
1976
1976
1977
1977
1977
1977
1977
1975
1974
1973
1972
1972
1972
1974
1976
1978
1980
1981
1982
1981
1980
1980
1979
1979
1979
1979
1978
1976
1975
1974
1973
1973
1973
1974
1974
1974
1974
1974
1974
1975
1974
1973
1971
1969
1967
1967
1974
1989
2014
2041
2059
2060
2043
2014
1984
1965
1960
1963
1968
1972
1973
1973
1972
1972
1973
1973
1974
1974
1974
1973
1973
1973
1974
1974
1975
1976
1976
1976
1976
1975
1975
1975
1976
1977
1978
1979
1979
1979
1979
1979
1979
1979
1980
1981
1982
1983
1984
1984
1984
1985
1985
1986
1988
1989
1990
1991
1992
1993
1993
1993
1993
1993
1993
1993
1993
1993
1992
1991
1989
1987
1985
1982
1980
1979
1977
1976
1975
1973
1972
1971
1970
1970
1970
1971
1971
1972
1972
1971
1971
1971
1971
1971
1971
1972
1973
1973
1973
1973
1972
1972
1972
1972
1972
1973
1973
1973
1973
1973
1972
1972
1972
1971
1971
1971
1971
1971
1970
1970
1970
1971
1973
1975
1977
1979
1980
1980
1979
1978
1977
1976
1974
1973
1973
1972
1973
1973
1973
1973
1972
1972
1971
1972
1972
1973
1974
1973
1972
1970
1967
1964
1963
1967
1982
2007
2038
2063
2071
2057
2029
1996
1971
1961
1961
1966
1971
1972
1972
1971
1970
1969
1969
1969
1970
1971
1972
1972
1972
1972
1972
1971
1972
1972
1973
1974
1974
1975
1975
1976
1975
1975
1975
1975
1976
1977
1978
1979
1979
1980
1980
1980
1980
1981
1982
1983
1984
1985
1985
1986
1985
1985
1986
1986
1988
1989
1990
1991
1991
1991
1991
1990
1989
1988
1987
1986
1985
1983
1982
1980
1978
1976
1974
1972
1972
1971
1971
1971
1971
1971
1970
1970
1970
1970
1970
1971
1972
1972
1972
1972
1972
1972
1972
1972
1972
1972
1973
1973
1974
1973
1973
1972
1972
1972
1972
1973
1973
1974
1974
1974
1973
1973
1972
1972
1971
1971
1971
1971
1971
1971
1971
1972
1974
1976
1979
1981
1981
1981
1980
1979
1978
1977
1975
1975
1974
1974
1974
1974
1974
1973
1973
1972
1972
1972
1973
1974
1975
1975
1974
1972
1969
1966
1965
1972
1991
2019
2049
2069
2070
2049
2018
1987
1968
1961
1964
1969
1973
1974
1974
1973
1972
1971
1972
1972
1973
1973
1974
1974
1974
1974
1974
1974
1974
1975
1975
1976
1977
1978
1978
1978
1978
1977
1978
1978
1979
1980
1980
1981
1981
1982
1982
1982
1982
1983
1984
1986
1987
1987
1988
1988
1989
1990
1991
1992
1993
1993
1994
1994
1994
1993
1993
1992
1992
1991
1990
1989
1988
1987
1985
1983
1980
1978
1977
1976
1975
1975
1975
1975
1974
1973
1973
1973
1973
1973
1974
1974
1975
1975
1975
1975
1974
1974
1974
1974
1976
1977
1977
1978
1977
1977
1976
1975
1975
1975
1975
1976
1977
1977
1976
1975
1975
1974
1975
1975
1976
1977
1977
1976
1975
1974
1973
1972
1973
1975
1978
1981
1984
1985
1985
1984
1983
1981
1980
1979
1978
1977
1977
1977
1977
1976
1976
1975
1975
1975
1975
1976
1977
1978
1978
1977
1975
1972
1969
1967
1968
1977
1996
2024
2051
2067
2064
2043
2011
1983
1968
1964
1969
1973
1975
1975
1974
1973
1973
1973
1974
1974
1974
1975
1976
1977
1978
1978
1977
1977
1977
1977
1977
1978
1978
1979
1979
1978
1978
1978
1979
1980
1980
1981
1981
1981
1981
1981
1982
1983
1984
1986
1987
1988
1988
1988
1988
1988
1989
1990
1992
1993
1994
1994
1993
1993
1992
1992
1992
1992
1992
1992
1991
1990
1988
1986
1983
1981
1978
1976
1975
1974
1974
1974
1974
1974
1973
1971
1970
1969
1970
1971
1972
1973
1973
1973
1972
1972
1972
1972
1973
1973
1974
1974
1974
1974
1973
1972
1972
1972
1972
1973
1973
1973
1972
1971
1970
1969
1968
1968
1970
1973
1976
1978
1979
1979
1978
1977
1977
1976
1976
1975
1974
1973
1973
1973
1972
1971
1970
1970
1969
1969
1970
1970
1970
1971
1972
1972
1970
1968
1965
1963
1963
1972
1991
2018
2047
2063
2061
2041
2010
1981
1964
1959
1961
1966
1968
1969
1969
1969
1969
1969
1970
1970
1971
1972
1972
1972
1972
1971
1972
1972
1973
1975
1975
1976
1975
1974
1974
1974
1975
1976
1977
1979
1979
1980
1980
1979
1980
1981
1982
1983
1984
1985
1984
1984
1984
1984
1986
1987
1989
1990
1992
1993
1994
1995
1995
1994
1992
1991
1991
1991
1991
1990
1989
1988
1986
1984
1982
1980
1978
1977
1977
1977
1976
1974
1972
1970
1970
1970
1971
1972
1973
1973
1974
1974
1974
1974
1973
1973
1973
1973
1973
1973
1974
1974
1975
1974
1974
1973
1973
1973
1974
1974
1974
1973
1972
1971
1971
1971
1971
1971
1972
1975
1978
1981
1982
1982
1981
1980
1980
1980
1980
1980
1978
1977
1975
1974
1974
1975
1975
1976
1976
1976
1976
1976
1976
1976
1976
1975
1974
1972
1970
1969
1969
1974
1990
2016
2046
2067
2072
2056
2027
1995
1973
1964
1965
1969
1973
1974
1974
1974
1974
1974
1974
1975
1975
1975
1975
1975
1975
1976
1977
1978
1979
1979
1979
1978
1977
1977
1978
1979
1980
1980
1980
1980
1980
1980
1981
1982
1983
1984
1985
1985
1986
1986
1987
1988
1989
1990
1990
1990
1991
1992
1993
1994
1995
1995
1996
1995
1995
1995
1996
1996
1996
1996
1994
1991
1988
1986
1985
1984
1983
1981
1980
1979
1977
1976
1976
1975
1976
1977
1977
1977
1977
1976
1975
1975
1975
1976
1976
1977
1977
1977
1978
1977
1977
1976
1975
1975
1976
1977
1977
1977
1976
1975
1974
1972
1972
1972
1974
1977
1980
1982
1984
1984
1983
1981
1980
1978
1977
1977
1976
1976
1975
1974
1974
1973
1973
1973
1973
1974
1974
1975
1976
1976
1975
1974
1971
1969
1966
1966
1968
1979
2000
2027
2051
2063
2056
2032
2000
1974
1960
1959
1964
1970
1973
1973
1973
1972
1971
1972
1973
1974
1974
1974
1973
1973
1974
1975
1975
1976
1977
1977
1977
1977
1977
1977
1977
1977
1978
1979
1980
1981
1981
1981
1981
1981
1981
1982
1983
1984
1986
1987
1988
1989
1989
1990
1990
1991
1992
1993
1994
1995
1996
1996
1996
1996
1996
1996
1996
1996
1995
1995
1994
1991
1988
1986
1983
1981
1980
1979
1978
1977
1976
1975
1975
1974
1974
1974
1974
1975
1975
1976
1976
1977
1976
1976
1976
1976
1976
1977
1978
1978
1979
1978
1978
1977
1976
1976
1977
1978
1979
1979
1978
1977
1975
1974
1974
1975
1978
1981
1984
1985
1986
1985
1984
1983
1982
1982
1981
1980
1979
1978
1977
1977
1976
1976
1976
1977
1978
1978
1979
1979
1979
1978
1977
1975
1973
1971
1969
1972
1983
2007
2038
2066
2080
2073
2047
2013
1985
1969
1966
1970
1975
1977
1977
1976
1975
1975
1976
1977
1979
1979
1980
1979
1978
1977
1976
1977
1978
1979
1980
1980
1981
