Time,EcgWaveform
30/09/2019 10:19:18.446,3916
30/09/2019 10:19:18.450,3916
30/09/2019 10:19:18.454,3916
30/09/2019 10:19:18.458,3916
30/09/2019 10:19:18.462,3916
30/09/2019 10:19:18.466,3916
30/09/2019 10:19:18.470,3916
30/09/2019 10:19:18.474,3916
30/09/2019 10:19:18.478,3916
30/09/2019 10:19:18.482,3916
30/09/2019 10:19:18.486,3916
30/09/2019 10:19:18.490,3916
30/09/2019 10:19:18.494,3916
30/09/2019 10:19:18.498,3916
30/09/2019 10:19:18.502,3916
30/09/2019 10:19:18.506,3916
30/09/2019 10:19:18.510,3916
30/09/2019 10:19:18.514,3916
30/09/2019 10:19:18.518,3916
30/09/2019 10:19:18.522,3916
30/09/2019 10:19:18.526,3916
30/09/2019 10:19:18.530,3916
30/09/2019 10:19:18.534,3916
30/09/2019 10:19:18.538,3916
30/09/2019 10:19:18.542,3916
30/09/2019 10:19:18.546,3916
30/09/2019 10:19:18.550,3916
30/09/2019 10:19:18.554,3916
30/09/2019 10:19:18.558,3916
30/09/2019 10:19:18.562,3916
30/09/2019 10:19:18.566,3916
30/09/2019 10:19:18.570,3916
30/09/2019 10:19:18.574,3916
30/09/2019 10:19:18.578,3916
30/09/2019 10:19:18.582,3916
30/09/2019 10:19:18.586,3916
30/09/2019 10:19:18.590,3916
30/09/2019 10:19:18.594,3916
30/09/2019 10:19:18.598,3916
30/09/2019 10:19:18.602,3916
30/09/2019 10:19:18.606,3916
30/09/2019 10:19:18.610,3916
30/09/2019 10:19:18.614,3916
30/09/2019 10:19:18.618,3916
30/09/2019 10:19:18.622,3916
30/09/2019 10:19:18.626,3916
30/09/2019 10:19:18.630,3916
30/09/2019 10:19:18.634,3916
30/09/2019 10:19:18.638,3916
30/09/2019 10:19:18.642,3916
30/09/2019 10:19:18.646,3916
30/09/2019 10:19:18.650,3916
30/09/2019 10:19:18.654,3916
30/09/2019 10:19:18.658,3916
30/09/2019 10:19:18.662,3916
30/09/2019 10:19:18.666,3916
30/09/2019 10:19:18.670,3916
30/09/2019 10:19:18.674,3916
30/09/2019 10:19:18.678,3916
30/09/2019 10:19:18.682,3916
30/09/2019 10:19:18.686,3916
30/09/2019 10:19:18.690,3916
30/09/2019 10:19:18.694,3916
30/09/2019 10:19:18.698,3916
30/09/2019 10:19:18.702,3916
30/09/2019 10:19:18.706,3916
30/09/2019 10:19:18.710,3916
30/09/2019 10:19:18.714,3916
30/09/2019 10:19:18.718,3916
30/09/2019 10:19:18.722,3916
30/09/2019 10:19:18.726,3916
30/09/2019 10:19:18.730,3916
30/09/2019 10:19:18.734,3916
30/09/2019 10:19:18.738,3916
30/09/2019 10:19:18.742,3916
30/09/2019 10:19:18.746,3916
30/09/2019 10:19:18.750,3916
30/09/2019 10:19:18.754,3916
30/09/2019 10:19:18.758,3916
30/09/2019 10:19:18.762,3916
30/09/2019 10:19:18.766,3916
30/09/2019 10:19:18.770,3916
30/09/2019 10:19:18.774,3916
30/09/2019 10:19:18.778,3916
30/09/2019 10:19:18.782,3916
30/09/2019 10:19:18.786,3916
30/09/2019 10:19:18.790,3916
30/09/2019 10:19:18.794,3916
30/09/2019 10:19:18.798,3916
30/09/2019 10:19:18.802,3916
30/09/2019 10:19:18.806,3916
30/09/2019 10:19:18.810,3916
30/09/2019 10:19:18.814,3916
30/09/2019 10:19:18.818,3916
30/09/2019 10:19:18.822,3916
30/09/2019 10:19:18.826,3916
30/09/2019 10:19:18.830,3916
30/09/2019 10:19:18.834,3916
30/09/2019 10:19:18.838,3916
30/09/2019 10:19:18.842,3916
30/09/2019 10:19:18.846,3916
30/09/2019 10:19:18.850,3916
30/09/2019 10:19:18.854,3916
30/09/2019 10:19:18.858,3916
30/09/2019 10:19:18.862,3916
30/09/2019 10:19:18.866,3916
30/09/2019 10:19:18.870,3916
30/09/2019 10:19:18.874,3916
30/09/2019 10:19:18.878,3916
30/09/2019 10:19:18.882,3916
30/09/2019 10:19:18.886,3916
30/09/2019 10:19:18.890,3916
30/09/2019 10:19:18.894,3916
30/09/2019 10:19:18.898,3916
30/09/2019 10:19:18.902,3916
30/09/2019 10:19:18.906,3916
30/09/2019 10:19:18.910,3916
30/09/2019 10:19:18.914,3916
30/09/2019 10:19:18.918,3916
30/09/2019 10:19:18.922,3916
30/09/2019 10:19:18.926,3916
30/09/2019 10:19:18.930,3916
30/09/2019 10:19:18.934,3916
30/09/2019 10:19:18.938,3916
30/09/2019 10:19:18.942,3916
30/09/2019 10:19:18.946,3916
30/09/2019 10:19:18.950,3916
30/09/2019 10:19:18.954,3916
30/09/2019 10:19:18.958,3916
30/09/2019 10:19:18.962,3916
30/09/2019 10:19:18.966,3916
30/09/2019 10:19:18.970,3916
30/09/2019 10:19:18.974,3916
30/09/2019 10:19:18.978,3916
30/09/2019 10:19:18.982,3916
30/09/2019 10:19:18.986,3916
30/09/2019 10:19:18.990,3916
30/09/2019 10:19:18.994,3916
30/09/2019 10:19:18.998,3916
30/09/2019 10:19:19.002,3916
30/09/2019 10:19:19.006,3916
30/09/2019 10:19:19.010,3916
30/09/2019 10:19:19.014,3916
30/09/2019 10:19:19.018,3916
30/09/2019 10:19:19.022,3916
30/09/2019 10:19:19.026,3916
30/09/2019 10:19:19.030,3916
30/09/2019 10:19:19.034,3916
30/09/2019 10:19:19.038,3916
30/09/2019 10:19:19.042,3916
30/09/2019 10:19:19.046,3916
30/09/2019 10:19:19.050,3916
30/09/2019 10:19:19.054,3916
30/09/2019 10:19:19.058,3916
30/09/2019 10:19:19.062,3916
30/09/2019 10:19:19.066,3916
30/09/2019 10:19:19.070,3916
30/09/2019 10:19:19.074,3916
30/09/2019 10:19:19.078,3916
30/09/2019 10:19:19.082,3916
30/09/2019 10:19:19.086,3916
30/09/2019 10:19:19.090,3916
30/09/2019 10:19:19.094,3916
30/09/2019 10:19:19.098,3916
30/09/2019 10:19:19.102,3916
30/09/2019 10:19:19.106,3916
30/09/2019 10:19:19.110,3916
30/09/2019 10:19:19.114,3916
30/09/2019 10:19:19.118,3916
30/09/2019 10:19:19.122,3916
30/09/2019 10:19:19.126,3916
30/09/2019 10:19:19.130,3916
30/09/2019 10:19:19.134,3916
30/09/2019 10:19:19.138,3916
30/09/2019 10:19:19.142,3916
30/09/2019 10:19:19.146,3916
30/09/2019 10:19:19.150,3916
30/09/2019 10:19:19.154,3916
30/09/2019 10:19:19.158,3916
30/09/2019 10:19:19.162,3916
30/09/2019 10:19:19.166,3916
30/09/2019 10:19:19.170,3916
30/09/2019 10:19:19.174,3916
30/09/2019 10:19:19.178,3916
30/09/2019 10:19:19.182,3916
30/09/2019 10:19:19.186,3916
30/09/2019 10:19:19.190,3916
30/09/2019 10:19:19.194,3916
30/09/2019 10:19:19.198,3916
30/09/2019 10:19:19.202,3916
30/09/2019 10:19:19.206,3916
30/09/2019 10:19:19.210,3916
30/09/2019 10:19:19.214,3916
30/09/2019 10:19:19.218,3916
30/09/2019 10:19:19.222,3915
30/09/2019 10:19:19.226,3915
30/09/2019 10:19:19.230,3912
30/09/2019 10:19:19.234,3916
30/09/2019 10:19:19.238,3923
30/09/2019 10:19:19.242,3927
30/09/2019 10:19:19.246,3919
30/09/2019 10:19:19.250,3890
30/09/2019 10:19:19.254,3842
30/09/2019 10:19:19.258,3779
30/09/2019 10:19:19.262,3720
30/09/2019 10:19:19.266,3671
30/09/2019 10:19:19.270,3625
30/09/2019 10:19:19.274,3573
30/09/2019 10:19:19.278,3491
30/09/2019 10:19:19.282,3380
30/09/2019 10:19:19.286,3249
30/09/2019 10:19:19.290,3123
30/09/2019 10:19:19.294,3026
30/09/2019 10:19:19.298,2960
30/09/2019 10:19:19.302,2931
30/09/2019 10:19:19.306,2928
30/09/2019 10:19:19.310,2944
30/09/2019 10:19:19.314,2977
30/09/2019 10:19:19.318,3013
30/09/2019 10:19:19.322,3050
30/09/2019 10:19:19.326,3071
30/09/2019 10:19:19.330,3088
30/09/2019 10:19:19.334,3099
30/09/2019 10:19:19.338,3119
30/09/2019 10:19:19.342,3175
30/09/2019 10:19:19.346,3273
30/09/2019 10:19:19.350,3416
30/09/2019 10:19:19.354,3579
30/09/2019 10:19:19.358,3736
30/09/2019 10:19:19.362,3859
30/09/2019 10:19:19.366,3925
30/09/2019 10:19:19.370,3946
30/09/2019 10:19:19.374,3936
30/09/2019 10:19:19.378,3917
30/09/2019 10:19:19.382,3905
30/09/2019 10:19:19.386,3908
30/09/2019 10:19:19.390,3920
30/09/2019 10:19:19.394,3922
30/09/2019 10:19:19.398,3919
30/09/2019 10:19:19.402,3907
30/09/2019 10:19:19.406,3879
30/09/2019 10:19:19.410,3831
30/09/2019 10:19:19.414,3767
30/09/2019 10:19:19.418,3684
30/09/2019 10:19:19.422,3588
30/09/2019 10:19:19.426,3491
30/09/2019 10:19:19.430,3404
30/09/2019 10:19:19.434,3340
30/09/2019 10:19:19.438,3302
30/09/2019 10:19:19.442,3287
30/09/2019 10:19:19.446,3280
30/09/2019 10:19:19.450,3261
30/09/2019 10:19:19.454,3224
30/09/2019 10:19:19.458,3163
30/09/2019 10:19:19.462,3082
30/09/2019 10:19:19.466,2991
30/09/2019 10:19:19.470,2906
30/09/2019 10:19:19.474,2841
30/09/2019 10:19:19.478,2797
30/09/2019 10:19:19.482,2784
30/09/2019 10:19:19.486,2792
30/09/2019 10:19:19.490,2813
30/09/2019 10:19:19.494,2834
30/09/2019 10:19:19.498,2844
30/09/2019 10:19:19.502,2843
30/09/2019 10:19:19.506,2834
30/09/2019 10:19:19.510,2827
30/09/2019 10:19:19.514,2826
30/09/2019 10:19:19.518,2830
30/09/2019 10:19:19.522,2843
30/09/2019 10:19:19.526,2853
30/09/2019 10:19:19.530,2866
30/09/2019 10:19:19.534,2871
30/09/2019 10:19:19.538,2878
30/09/2019 10:19:19.542,2878
30/09/2019 10:19:19.546,2873
30/09/2019 10:19:19.550,2875
30/09/2019 10:19:19.554,2881
30/09/2019 10:19:19.558,2892
30/09/2019 10:19:19.562,2900
30/09/2019 10:19:19.566,2898
30/09/2019 10:19:19.570,2886
30/09/2019 10:19:19.574,2868
30/09/2019 10:19:19.578,2854
30/09/2019 10:19:19.582,2847
30/09/2019 10:19:19.586,2845
30/09/2019 10:19:19.590,2840
30/09/2019 10:19:19.594,2837
30/09/2019 10:19:19.598,2837
30/09/2019 10:19:19.602,2845
30/09/2019 10:19:19.606,2852
30/09/2019 10:19:19.610,2848
30/09/2019 10:19:19.614,2827
30/09/2019 10:19:19.618,2796
30/09/2019 10:19:19.622,2764
30/09/2019 10:19:19.626,2743
30/09/2019 10:19:19.630,2733
30/09/2019 10:19:19.634,2730
30/09/2019 10:19:19.638,2727
30/09/2019 10:19:19.642,2728
30/09/2019 10:19:19.646,2735
30/09/2019 10:19:19.650,2750
30/09/2019 10:19:19.654,2774
30/09/2019 10:19:19.658,2802
30/09/2019 10:19:19.662,2822
30/09/2019 10:19:19.666,2827
30/09/2019 10:19:19.670,2825
30/09/2019 10:19:19.674,2805
30/09/2019 10:19:19.678,2764
30/09/2019 10:19:19.682,2707
30/09/2019 10:19:19.686,2648
30/09/2019 10:19:19.690,2591
30/09/2019 10:19:19.694,2535
30/09/2019 10:19:19.698,2482
30/09/2019 10:19:19.702,2427
30/09/2019 10:19:19.706,2364
30/09/2019 10:19:19.710,2307
30/09/2019 10:19:19.714,2259
30/09/2019 10:19:19.718,2229
30/09/2019 10:19:19.722,2215
30/09/2019 10:19:19.726,2221
30/09/2019 10:19:19.730,2230
30/09/2019 10:19:19.734,2241
30/09/2019 10:19:19.738,2248
30/09/2019 10:19:19.742,2258
30/09/2019 10:19:19.746,2264
30/09/2019 10:19:19.750,2269
30/09/2019 10:19:19.754,2280
30/09/2019 10:19:19.758,2293
30/09/2019 10:19:19.762,2303
30/09/2019 10:19:19.766,2312
30/09/2019 10:19:19.770,2314
30/09/2019 10:19:19.774,2314
30/09/2019 10:19:19.778,2315
30/09/2019 10:19:19.782,2321
30/09/2019 10:19:19.786,2327
30/09/2019 10:19:19.790,2331
30/09/2019 10:19:19.794,2327
30/09/2019 10:19:19.798,2321
30/09/2019 10:19:19.802,2316
30/09/2019 10:19:19.806,2322
30/09/2019 10:19:19.810,2335
30/09/2019 10:19:19.814,2348
30/09/2019 10:19:19.818,2352
30/09/2019 10:19:19.822,2350
30/09/2019 10:19:19.826,2343
30/09/2019 10:19:19.830,2339
30/09/2019 10:19:19.834,2347
30/09/2019 10:19:19.838,2361
30/09/2019 10:19:19.842,2364
30/09/2019 10:19:19.846,2358
30/09/2019 10:19:19.850,2351
30/09/2019 10:19:19.854,2359
30/09/2019 10:19:19.858,2394
30/09/2019 10:19:19.862,2464
30/09/2019 10:19:19.866,2555
30/09/2019 10:19:19.870,2640
30/09/2019 10:19:19.874,2698
30/09/2019 10:19:19.878,2717
30/09/2019 10:19:19.882,2701
30/09/2019 10:19:19.886,2660
30/09/2019 10:19:19.890,2608
30/09/2019 10:19:19.894,2558
30/09/2019 10:19:19.898,2514
30/09/2019 10:19:19.902,2486
30/09/2019 10:19:19.906,2472
30/09/2019 10:19:19.910,2453
30/09/2019 10:19:19.914,2408
30/09/2019 10:19:19.918,2329
30/09/2019 10:19:19.922,2228
30/09/2019 10:19:19.926,2123
30/09/2019 10:19:19.930,2048
30/09/2019 10:19:19.934,2018
30/09/2019 10:19:19.938,2029
30/09/2019 10:19:19.942,2073
30/09/2019 10:19:19.946,2129
30/09/2019 10:19:19.950,2180
30/09/2019 10:19:19.954,2225
30/09/2019 10:19:19.958,2266
30/09/2019 10:19:19.962,2300
30/09/2019 10:19:19.966,2322
30/09/2019 10:19:19.970,2338
30/09/2019 10:19:19.974,2352
30/09/2019 10:19:19.978,2364
30/09/2019 10:19:19.982,2378
30/09/2019 10:19:19.986,2401
30/09/2019 10:19:19.990,2426
30/09/2019 10:19:19.994,2454
30/09/2019 10:19:19.998,2478
30/09/2019 10:19:20.002,2494
30/09/2019 10:19:20.006,2501
30/09/2019 10:19:20.010,2498
30/09/2019 10:19:20.014,2494
30/09/2019 10:19:20.018,2490
30/09/2019 10:19:20.022,2486
30/09/2019 10:19:20.026,2485
30/09/2019 10:19:20.030,2490
30/09/2019 10:19:20.034,2497
30/09/2019 10:19:20.038,2502
30/09/2019 10:19:20.042,2503
30/09/2019 10:19:20.046,2492
30/09/2019 10:19:20.050,2482
30/09/2019 10:19:20.054,2469
30/09/2019 10:19:20.058,2460
30/09/2019 10:19:20.062,2456
30/09/2019 10:19:20.066,2448
30/09/2019 10:19:20.070,2435
30/09/2019 10:19:20.074,2417
30/09/2019 10:19:20.078,2402
30/09/2019 10:19:20.082,2391
30/09/2019 10:19:20.086,2385
30/09/2019 10:19:20.090,2382
30/09/2019 10:19:20.094,2380
30/09/2019 10:19:20.098,2376
30/09/2019 10:19:20.102,2377
30/09/2019 10:19:20.106,2382
30/09/2019 10:19:20.110,2389
30/09/2019 10:19:20.114,2399
30/09/2019 10:19:20.118,2405
30/09/2019 10:19:20.122,2406
30/09/2019 10:19:20.126,2406
30/09/2019 10:19:20.130,2402
30/09/2019 10:19:20.134,2399
30/09/2019 10:19:20.138,2397
30/09/2019 10:19:20.142,2387
30/09/2019 10:19:20.146,2379
30/09/2019 10:19:20.150,2363
30/09/2019 10:19:20.154,2342
30/09/2019 10:19:20.158,2321
30/09/2019 10:19:20.162,2306
30/09/2019 10:19:20.166,2303
30/09/2019 10:19:20.170,2328
30/09/2019 10:19:20.174,2377
30/09/2019 10:19:20.178,2441
30/09/2019 10:19:20.182,2513
30/09/2019 10:19:20.186,2574
30/09/2019 10:19:20.190,2620
30/09/2019 10:19:20.194,2651
30/09/2019 10:19:20.198,2667
30/09/2019 10:19:20.202,2681
30/09/2019 10:19:20.206,2686
30/09/2019 10:19:20.210,2680
30/09/2019 10:19:20.214,2662
30/09/2019 10:19:20.218,2631
30/09/2019 10:19:20.222,2596
30/09/2019 10:19:20.226,2560
30/09/2019 10:19:20.230,2518
30/09/2019 10:19:20.234,2475
30/09/2019 10:19:20.238,2428
30/09/2019 10:19:20.242,2369
30/09/2019 10:19:20.246,2307
30/09/2019 10:19:20.250,2250
30/09/2019 10:19:20.254,2199
30/09/2019 10:19:20.258,2158
30/09/2019 10:19:20.262,2108
30/09/2019 10:19:20.266,2046
30/09/2019 10:19:20.270,1962
30/09/2019 10:19:20.274,1863
30/09/2019 10:19:20.278,1775
30/09/2019 10:19:20.282,1714
30/09/2019 10:19:20.286,1690
30/09/2019 10:19:20.290,1702
30/09/2019 10:19:20.294,1736
30/09/2019 10:19:20.298,1763
30/09/2019 10:19:20.302,1776
30/09/2019 10:19:20.306,1776
30/09/2019 10:19:20.310,1769
30/09/2019 10:19:20.314,1771
30/09/2019 10:19:20.318,1782
30/09/2019 10:19:20.322,1809
30/09/2019 10:19:20.326,1836
30/09/2019 10:19:20.330,1854
30/09/2019 10:19:20.334,1857
30/09/2019 10:19:20.338,1848
30/09/2019 10:19:20.342,1837
30/09/2019 10:19:20.346,1828
30/09/2019 10:19:20.350,1827
30/09/2019 10:19:20.354,1825
30/09/2019 10:19:20.358,1821
30/09/2019 10:19:20.362,1817
30/09/2019 10:19:20.366,1811
30/09/2019 10:19:20.370,1813
30/09/2019 10:19:20.374,1823
30/09/2019 10:19:20.378,1843
30/09/2019 10:19:20.382,1871
30/09/2019 10:19:20.386,1892
30/09/2019 10:19:20.390,1905
30/09/2019 10:19:20.394,1908
30/09/2019 10:19:20.398,1903
30/09/2019 10:19:20.402,1903
30/09/2019 10:19:20.406,1913
30/09/2019 10:19:20.410,1939
30/09/2019 10:19:20.414,1981
30/09/2019 10:19:20.418,2027
30/09/2019 10:19:20.422,2064
30/09/2019 10:19:20.426,2095
30/09/2019 10:19:20.430,2118
30/09/2019 10:19:20.434,2133
30/09/2019 10:19:20.438,2153
30/09/2019 10:19:20.442,2176
30/09/2019 10:19:20.446,2203
30/09/2019 10:19:20.450,2236
30/09/2019 10:19:20.454,2269
30/09/2019 10:19:20.458,2305
30/09/2019 10:19:20.462,2344
30/09/2019 10:19:20.466,2380
30/09/2019 10:19:20.470,2413
30/09/2019 10:19:20.474,2440
30/09/2019 10:19:20.478,2452
30/09/2019 10:19:20.482,2447
30/09/2019 10:19:20.486,2432
30/09/2019 10:19:20.490,2417
30/09/2019 10:19:20.494,2411
30/09/2019 10:19:20.498,2413
30/09/2019 10:19:20.502,2425
30/09/2019 10:19:20.506,2437
30/09/2019 10:19:20.510,2443
30/09/2019 10:19:20.514,2449
30/09/2019 10:19:20.518,2457
30/09/2019 10:19:20.522,2472
30/09/2019 10:19:20.526,2491
30/09/2019 10:19:20.530,2509
30/09/2019 10:19:20.534,2523
30/09/2019 10:19:20.538,2528
30/09/2019 10:19:20.542,2531
30/09/2019 10:19:20.546,2542
30/09/2019 10:19:20.550,2557
30/09/2019 10:19:20.554,2569
30/09/2019 10:19:20.558,2579
30/09/2019 10:19:20.562,2589
30/09/2019 10:19:20.566,2603
30/09/2019 10:19:20.570,2619
30/09/2019 10:19:20.574,2630
30/09/2019 10:19:20.578,2635
30/09/2019 10:19:20.582,2634
30/09/2019 10:19:20.586,2633
30/09/2019 10:19:20.590,2638
30/09/2019 10:19:20.594,2655
30/09/2019 10:19:20.598,2673
30/09/2019 10:19:20.602,2688
30/09/2019 10:19:20.606,2690
30/09/2019 10:19:20.610,2686
30/09/2019 10:19:20.614,2683
30/09/2019 10:19:20.618,2685
30/09/2019 10:19:20.622,2701
30/09/2019 10:19:20.626,2717
30/09/2019 10:19:20.630,2732
30/09/2019 10:19:20.634,2745
30/09/2019 10:19:20.638,2756
30/09/2019 10:19:20.642,2770
30/09/2019 10:19:20.646,2782
30/09/2019 10:19:20.650,2791
30/09/2019 10:19:20.654,2794
30/09/2019 10:19:20.658,2786
30/09/2019 10:19:20.662,2768
30/09/2019 10:19:20.666,2742
30/09/2019 10:19:20.670,2721
30/09/2019 10:19:20.674,2699
30/09/2019 10:19:20.678,2685
30/09/2019 10:19:20.682,2671
30/09/2019 10:19:20.686,2659
30/09/2019 10:19:20.690,2645
30/09/2019 10:19:20.694,2640
30/09/2019 10:19:20.698,2656
30/09/2019 10:19:20.702,2699
30/09/2019 10:19:20.706,2759
30/09/2019 10:19:20.710,2828
30/09/2019 10:19:20.714,2884
30/09/2019 10:19:20.718,2916
30/09/2019 10:19:20.722,2912
30/09/2019 10:19:20.726,2880
30/09/2019 10:19:20.730,2835
30/09/2019 10:19:20.734,2780
30/09/2019 10:19:20.738,2740
30/09/2019 10:19:20.742,2720
30/09/2019 10:19:20.746,2715
30/09/2019 10:19:20.750,2721
30/09/2019 10:19:20.754,2738
30/09/2019 10:19:20.758,2753
30/09/2019 10:19:20.762,2763
30/09/2019 10:19:20.766,2775
30/09/2019 10:19:20.770,2784
30/09/2019 10:19:20.774,2794
30/09/2019 10:19:20.778,2804
30/09/2019 10:19:20.782,2812
30/09/2019 10:19:20.786,2825
30/09/2019 10:19:20.790,2837
30/09/2019 10:19:20.794,2861
30/09/2019 10:19:20.798,2892
30/09/2019 10:19:20.802,2923
30/09/2019 10:19:20.806,2944
30/09/2019 10:19:20.810,2956
30/09/2019 10:19:20.814,2950
30/09/2019 10:19:20.818,2934
30/09/2019 10:19:20.822,2921
30/09/2019 10:19:20.826,2915
30/09/2019 10:19:20.830,2914
30/09/2019 10:19:20.834,2917
30/09/2019 10:19:20.838,2922
30/09/2019 10:19:20.842,2930
30/09/2019 10:19:20.846,2942
30/09/2019 10:19:20.850,2961
30/09/2019 10:19:20.854,2979
30/09/2019 10:19:20.858,2996
30/09/2019 10:19:20.862,3005
30/09/2019 10:19:20.866,3008
30/09/2019 10:19:20.870,3011
30/09/2019 10:19:20.874,3015
30/09/2019 10:19:20.878,3018
30/09/2019 10:19:20.882,3025
30/09/2019 10:19:20.886,3027
30/09/2019 10:19:20.890,3030
30/09/2019 10:19:20.894,3033
30/09/2019 10:19:20.898,3039
30/09/2019 10:19:20.902,3046
30/09/2019 10:19:20.906,3055
30/09/2019 10:19:20.910,3061
30/09/2019 10:19:20.914,3062
30/09/2019 10:19:20.918,3059
30/09/2019 10:19:20.922,3053
30/09/2019 10:19:20.926,3053
30/09/2019 10:19:20.930,3057
30/09/2019 10:19:20.934,3058
30/09/2019 10:19:20.938,3058
30/09/2019 10:19:20.942,3048
30/09/2019 10:19:20.946,3034
30/09/2019 10:19:20.950,3020
30/09/2019 10:19:20.954,3011
30/09/2019 10:19:20.958,3010
30/09/2019 10:19:20.962,3014
30/09/2019 10:19:20.966,3013
30/09/2019 10:19:20.970,3001
30/09/2019 10:19:20.974,2980
30/09/2019 10:19:20.978,2956
30/09/2019 10:19:20.982,2934
30/09/2019 10:19:20.986,2917
30/09/2019 10:19:20.990,2903
30/09/2019 10:19:20.994,2891
30/09/2019 10:19:20.998,2876
30/09/2019 10:19:21.002,2858
30/09/2019 10:19:21.006,2841
30/09/2019 10:19:21.010,2829
30/09/2019 10:19:21.014,2824
30/09/2019 10:19:21.018,2823
30/09/2019 10:19:21.022,2826
30/09/2019 10:19:21.026,2826
30/09/2019 10:19:21.030,2824
30/09/2019 10:19:21.034,2817
30/09/2019 10:19:21.038,2807
30/09/2019 10:19:21.042,2795
30/09/2019 10:19:21.046,2779
30/09/2019 10:19:21.050,2756
30/09/2019 10:19:21.054,2724
30/09/2019 10:19:21.058,2679
30/09/2019 10:19:21.062,2635
30/09/2019 10:19:21.066,2593
30/09/2019 10:19:21.070,2546
30/09/2019 10:19:21.074,2494
30/09/2019 10:19:21.078,2430
30/09/2019 10:19:21.082,2355
30/09/2019 10:19:21.086,2278
30/09/2019 10:19:21.090,2212
30/09/2019 10:19:21.094,2164
30/09/2019 10:19:21.098,2133
30/09/2019 10:19:21.102,2108
30/09/2019 10:19:21.106,2084
30/09/2019 10:19:21.110,2054
30/09/2019 10:19:21.114,2022
30/09/2019 10:19:21.118,1992
30/09/2019 10:19:21.122,1968
30/09/2019 10:19:21.126,1942
30/09/2019 10:19:21.130,1920
30/09/2019 10:19:21.134,1903
30/09/2019 10:19:21.138,1885
30/09/2019 10:19:21.142,1867
30/09/2019 10:19:21.146,1855
30/09/2019 10:19:21.150,1844
30/09/2019 10:19:21.154,1836
30/09/2019 10:19:21.158,1828
30/09/2019 10:19:21.162,1823
30/09/2019 10:19:21.166,1813
30/09/2019 10:19:21.170,1807
30/09/2019 10:19:21.174,1805
30/09/2019 10:19:21.178,1806
30/09/2019 10:19:21.182,1806
30/09/2019 10:19:21.186,1802
30/09/2019 10:19:21.190,1793
30/09/2019 10:19:21.194,1774
30/09/2019 10:19:21.198,1751
30/09/2019 10:19:21.202,1735
30/09/2019 10:19:21.206,1732
30/09/2019 10:19:21.210,1737
30/09/2019 10:19:21.214,1753
30/09/2019 10:19:21.218,1765
30/09/2019 10:19:21.222,1775
30/09/2019 10:19:21.226,1776
30/09/2019 10:19:21.230,1772
30/09/2019 10:19:21.234,1774
30/09/2019 10:19:21.238,1782
30/09/2019 10:19:21.242,1799
30/09/2019 10:19:21.246,1820
30/09/2019 10:19:21.250,1833
30/09/2019 10:19:21.254,1834
30/09/2019 10:19:21.258,1821
30/09/2019 10:19:21.262,1802
30/09/2019 10:19:21.266,1781
30/09/2019 10:19:21.270,1769
30/09/2019 10:19:21.274,1764
30/09/2019 10:19:21.278,1765
30/09/2019 10:19:21.282,1758
30/09/2019 10:19:21.286,1743
30/09/2019 10:19:21.290,1725
30/09/2019 10:19:21.294,1706
30/09/2019 10:19:21.298,1694
30/09/2019 10:19:21.302,1688
30/09/2019 10:19:21.306,1682
30/09/2019 10:19:21.310,1672
30/09/2019 10:19:21.314,1659
30/09/2019 10:19:21.318,1641
30/09/2019 10:19:21.322,1626
30/09/2019 10:19:21.326,1617
30/09/2019 10:19:21.330,1621
30/09/2019 10:19:21.334,1627
30/09/2019 10:19:21.338,1626
30/09/2019 10:19:21.342,1623
30/09/2019 10:19:21.346,1616
30/09/2019 10:19:21.350,1607
30/09/2019 10:19:21.354,1605
30/09/2019 10:19:21.358,1612
30/09/2019 10:19:21.362,1627
30/09/2019 10:19:21.366,1642
30/09/2019 10:19:21.370,1658
30/09/2019 10:19:21.374,1673
30/09/2019 10:19:21.378,1688
30/09/2019 10:19:21.382,1700
30/09/2019 10:19:21.386,1714
30/09/2019 10:19:21.390,1724
30/09/2019 10:19:21.394,1730
30/09/2019 10:19:21.398,1735
30/09/2019 10:19:21.402,1741
30/09/2019 10:19:21.406,1753
30/09/2019 10:19:21.410,1768
30/09/2019 10:19:21.414,1781
30/09/2019 10:19:21.418,1787
30/09/2019 10:19:21.422,1784
30/09/2019 10:19:21.426,1774
30/09/2019 10:19:21.430,1764
30/09/2019 10:19:21.434,1763
30/09/2019 10:19:21.438,1771
30/09/2019 10:19:21.442,1784
30/09/2019 10:19:21.446,1792
30/09/2019 10:19:21.450,1794
30/09/2019 10:19:21.454,1790
30/09/2019 10:19:21.458,1784
30/09/2019 10:19:21.462,1781
30/09/2019 10:19:21.466,1780
30/09/2019 10:19:21.470,1776
30/09/2019 10:19:21.474,1771
30/09/2019 10:19:21.478,1771
30/09/2019 10:19:21.482,1783
30/09/2019 10:19:21.486,1808
30/09/2019 10:19:21.490,1843
30/09/2019 10:19:21.494,1876
30/09/2019 10:19:21.498,1898
30/09/2019 10:19:21.502,1902
30/09/2019 10:19:21.506,1889
30/09/2019 10:19:21.510,1866
30/09/2019 10:19:21.514,1842
30/09/2019 10:19:21.518,1822
30/09/2019 10:19:21.522,1811
30/09/2019 10:19:21.526,1806
30/09/2019 10:19:21.530,1810
30/09/2019 10:19:21.534,1816
30/09/2019 10:19:21.538,1823
30/09/2019 10:19:21.542,1827
30/09/2019 10:19:21.546,1831
30/09/2019 10:19:21.550,1836
30/09/2019 10:19:21.554,1847
30/09/2019 10:19:21.558,1863
30/09/2019 10:19:21.562,1877
30/09/2019 10:19:21.566,1884
30/09/2019 10:19:21.570,1883
30/09/2019 10:19:21.574,1880
30/09/2019 10:19:21.578,1884
30/09/2019 10:19:21.582,1897
30/09/2019 10:19:21.586,1923
30/09/2019 10:19:21.590,1951
30/09/2019 10:19:21.594,1981
30/09/2019 10:19:21.598,2010
30/09/2019 10:19:21.602,2040
30/09/2019 10:19:21.606,2073
30/09/2019 10:19:21.610,2109
30/09/2019 10:19:21.614,2145
30/09/2019 10:19:21.618,2174
30/09/2019 10:19:21.622,2198
30/09/2019 10:19:21.626,2215
30/09/2019 10:19:21.630,2225
30/09/2019 10:19:21.634,2227
30/09/2019 10:19:21.638,2220
30/09/2019 10:19:21.642,2207
30/09/2019 10:19:21.646,2188
30/09/2019 10:19:21.650,2171
30/09/2019 10:19:21.654,2162
30/09/2019 10:19:21.658,2159
30/09/2019 10:19:21.662,2165
30/09/2019 10:19:21.666,2176
30/09/2019 10:19:21.670,2187
30/09/2019 10:19:21.674,2195
30/09/2019 10:19:21.678,2202
30/09/2019 10:19:21.682,2207
30/09/2019 10:19:21.686,2212
30/09/2019 10:19:21.690,2217
30/09/2019 10:19:21.694,2227
30/09/2019 10:19:21.698,2243
30/09/2019 10:19:21.702,2265
30/09/2019 10:19:21.706,2290
30/09/2019 10:19:21.710,2318
30/09/2019 10:19:21.714,2342
30/09/2019 10:19:21.718,2365
30/09/2019 10:19:21.722,2389
30/09/2019 10:19:21.726,2413
30/09/2019 10:19:21.730,2437
30/09/2019 10:19:21.734,2457
30/09/2019 10:19:21.738,2470
30/09/2019 10:19:21.742,2475
30/09/2019 10:19:21.746,2471
30/09/2019 10:19:21.750,2466
30/09/2019 10:19:21.754,2461
30/09/2019 10:19:21.758,2458
30/09/2019 10:19:21.762,2456
30/09/2019 10:19:21.766,2452
30/09/2019 10:19:21.770,2441
30/09/2019 10:19:21.774,2423
30/09/2019 10:19:21.778,2401
30/09/2019 10:19:21.782,2379
30/09/2019 10:19:21.786,2360
30/09/2019 10:19:21.790,2350
30/09/2019 10:19:21.794,2347
30/09/2019 10:19:21.798,2350
30/09/2019 10:19:21.802,2358
30/09/2019 10:19:21.806,2374
30/09/2019 10:19:21.810,2393
30/09/2019 10:19:21.814,2414
30/09/2019 10:19:21.818,2433
30/09/2019 10:19:21.822,2450
30/09/2019 10:19:21.826,2467
30/09/2019 10:19:21.830,2485
30/09/2019 10:19:21.834,2506
30/09/2019 10:19:21.838,2528
30/09/2019 10:19:21.842,2543
30/09/2019 10:19:21.846,2552
30/09/2019 10:19:21.850,2554
30/09/2019 10:19:21.854,2558
30/09/2019 10:19:21.858,2566
30/09/2019 10:19:21.862,2579
30/09/2019 10:19:21.866,2596
30/09/2019 10:19:21.870,2612
30/09/2019 10:19:21.874,2627
30/09/2019 10:19:21.878,2640
30/09/2019 10:19:21.882,2651
30/09/2019 10:19:21.886,2662
30/09/2019 10:19:21.890,2670
30/09/2019 10:19:21.894,2678
30/09/2019 10:19:21.898,2684
30/09/2019 10:19:21.902,2688
30/09/2019 10:19:21.906,2692
30/09/2019 10:19:21.910,2695
30/09/2019 10:19:21.914,2697
30/09/2019 10:19:21.918,2698
30/09/2019 10:19:21.922,2702
30/09/2019 10:19:21.926,2708
30/09/2019 10:19:21.930,2718
30/09/2019 10:19:21.934,2731
30/09/2019 10:19:21.938,2746
30/09/2019 10:19:21.942,2763
30/09/2019 10:19:21.946,2777
30/09/2019 10:19:21.950,2790
30/09/2019 10:19:21.954,2799
30/09/2019 10:19:21.958,2805
30/09/2019 10:19:21.962,2810
30/09/2019 10:19:21.966,2815
30/09/2019 10:19:21.970,2821
30/09/2019 10:19:21.974,2828
30/09/2019 10:19:21.978,2835
30/09/2019 10:19:21.982,2843
30/09/2019 10:19:21.986,2851
30/09/2019 10:19:21.990,2857
30/09/2019 10:19:21.994,2861
30/09/2019 10:19:21.998,2860
30/09/2019 10:19:22.002,2856
30/09/2019 10:19:22.006,2850
30/09/2019 10:19:22.010,2841
30/09/2019 10:19:22.014,2831
30/09/2019 10:19:22.018,2820
30/09/2019 10:19:22.022,2809
30/09/2019 10:19:22.026,2797
30/09/2019 10:19:22.030,2787
30/09/2019 10:19:22.034,2779
30/09/2019 10:19:22.038,2771
30/09/2019 10:19:22.042,2764
30/09/2019 10:19:22.046,2756
30/09/2019 10:19:22.050,2746
30/09/2019 10:19:22.054,2735
30/09/2019 10:19:22.058,2724
30/09/2019 10:19:22.062,2714
30/09/2019 10:19:22.066,2707
30/09/2019 10:19:22.070,2702
30/09/2019 10:19:22.074,2701
30/09/2019 10:19:22.078,2701
30/09/2019 10:19:22.082,2703
30/09/2019 10:19:22.086,2704
30/09/2019 10:19:22.090,2706
30/09/2019 10:19:22.094,2710
30/09/2019 10:19:22.098,2715
30/09/2019 10:19:22.102,2722
30/09/2019 10:19:22.106,2725
30/09/2019 10:19:22.110,2722
30/09/2019 10:19:22.114,2711
30/09/2019 10:19:22.118,2695
30/09/2019 10:19:22.122,2681
30/09/2019 10:19:22.126,2670
30/09/2019 10:19:22.130,2664
30/09/2019 10:19:22.134,2662
30/09/2019 10:19:22.138,2660
30/09/2019 10:19:22.142,2656
30/09/2019 10:19:22.146,2651
30/09/2019 10:19:22.150,2646
30/09/2019 10:19:22.154,2643
30/09/2019 10:19:22.158,2640
30/09/2019 10:19:22.162,2634
30/09/2019 10:19:22.166,2625
30/09/2019 10:19:22.170,2612
30/09/2019 10:19:22.174,2599
30/09/2019 10:19:22.178,2585
30/09/2019 10:19:22.182,2573
30/09/2019 10:19:22.186,2562
30/09/2019 10:19:22.190,2554
30/09/2019 10:19:22.194,2548
30/09/2019 10:19:22.198,2545
30/09/2019 10:19:22.202,2543
30/09/2019 10:19:22.206,2544
30/09/2019 10:19:22.210,2545
30/09/2019 10:19:22.214,2548
30/09/2019 10:19:22.218,2552
30/09/2019 10:19:22.222,2554
30/09/2019 10:19:22.226,2554
30/09/2019 10:19:22.230,2551
30/09/2019 10:19:22.234,2545
30/09/2019 10:19:22.238,2538
30/09/2019 10:19:22.242,2532
30/09/2019 10:19:22.246,2526
30/09/2019 10:19:22.250,2521
30/09/2019 10:19:22.254,2517
30/09/2019 10:19:22.258,2511
30/09/2019 10:19:22.262,2506
30/09/2019 10:19:22.266,2500
30/09/2019 10:19:22.270,2494
30/09/2019 10:19:22.274,2490
30/09/2019 10:19:22.278,2486
30/09/2019 10:19:22.282,2482
30/09/2019 10:19:22.286,2476
30/09/2019 10:19:22.290,2469
30/09/2019 10:19:22.294,2463
30/09/2019 10:19:22.298,2457
30/09/2019 10:19:22.302,2455
30/09/2019 10:19:22.306,2454
30/09/2019 10:19:22.310,2450
30/09/2019 10:19:22.314,2444
30/09/2019 10:19:22.318,2438
30/09/2019 10:19:22.322,2438
30/09/2019 10:19:22.326,2446
30/09/2019 10:19:22.330,2463
30/09/2019 10:19:22.334,2485
30/09/2019 10:19:22.338,2504
30/09/2019 10:19:22.342,2515
30/09/2019 10:19:22.346,2513
30/09/2019 10:19:22.350,2499
30/09/2019 10:19:22.354,2475
30/09/2019 10:19:22.358,2444
30/09/2019 10:19:22.362,2411
30/09/2019 10:19:22.366,2380
30/09/2019 10:19:22.370,2356
30/09/2019 10:19:22.374,2341
30/09/2019 10:19:22.378,2335
30/09/2019 10:19:22.382,2334
30/09/2019 10:19:22.386,2337
30/09/2019 10:19:22.390,2339
30/09/2019 10:19:22.394,2341
30/09/2019 10:19:22.398,2343
30/09/2019 10:19:22.402,2344
30/09/2019 10:19:22.406,2347
30/09/2019 10:19:22.410,2350
30/09/2019 10:19:22.414,2352
30/09/2019 10:19:22.418,2350
30/09/2019 10:19:22.422,2346
30/09/2019 10:19:22.426,2342
30/09/2019 10:19:22.430,2341
30/09/2019 10:19:22.434,2342
30/09/2019 10:19:22.438,2341
30/09/2019 10:19:22.442,2335
30/09/2019 10:19:22.446,2322
30/09/2019 10:19:22.450,2303
30/09/2019 10:19:22.454,2287
30/09/2019 10:19:22.458,2278
30/09/2019 10:19:22.462,2279
30/09/2019 10:19:22.466,2285
30/09/2019 10:19:22.470,2292
30/09/2019 10:19:22.474,2293
30/09/2019 10:19:22.478,2287
30/09/2019 10:19:22.482,2277
30/09/2019 10:19:22.486,2264
30/09/2019 10:19:22.490,2255
30/09/2019 10:19:22.494,2249
30/09/2019 10:19:22.498,2247
30/09/2019 10:19:22.502,2244
30/09/2019 10:19:22.506,2232
30/09/2019 10:19:22.510,2209
30/09/2019 10:19:22.514,2173
30/09/2019 10:19:22.518,2123
30/09/2019 10:19:22.522,2066
30/09/2019 10:19:22.526,2005
30/09/2019 10:19:22.530,1942
30/09/2019 10:19:22.534,1879
30/09/2019 10:19:22.538,1811
30/09/2019 10:19:22.542,1729
30/09/2019 10:19:22.546,1623
30/09/2019 10:19:22.550,1487
30/09/2019 10:19:22.554,1331
30/09/2019 10:19:22.558,1161
30/09/2019 10:19:22.562,994
30/09/2019 10:19:22.566,845
30/09/2019 10:19:22.570,719
30/09/2019 10:19:22.574,609
30/09/2019 10:19:22.578,523
30/09/2019 10:19:22.582,449
30/09/2019 10:19:22.586,386
30/09/2019 10:19:22.590,342
30/09/2019 10:19:22.594,323
30/09/2019 10:19:22.598,341
30/09/2019 10:19:22.602,399
30/09/2019 10:19:22.606,486
30/09/2019 10:19:22.610,590
30/09/2019 10:19:22.614,698
30/09/2019 10:19:22.618,801
30/09/2019 10:19:22.622,903
30/09/2019 10:19:22.626,1007
30/09/2019 10:19:22.630,1107
30/09/2019 10:19:22.634,1203
30/09/2019 10:19:22.638,1285
30/09/2019 10:19:22.642,1360
30/09/2019 10:19:22.646,1430
30/09/2019 10:19:22.650,1497
30/09/2019 10:19:22.654,1561
30/09/2019 10:19:22.658,1625
30/09/2019 10:19:22.662,1688
30/09/2019 10:19:22.666,1760
30/09/2019 10:19:22.670,1845
30/09/2019 10:19:22.674,1938
30/09/2019 10:19:22.678,2027
30/09/2019 10:19:22.682,2094
30/09/2019 10:19:22.686,2142
30/09/2019 10:19:22.690,2170
30/09/2019 10:19:22.694,2186
30/09/2019 10:19:22.698,2197
30/09/2019 10:19:22.702,2208
30/09/2019 10:19:22.706,2212
30/09/2019 10:19:22.710,2209
30/09/2019 10:19:22.714,2201
30/09/2019 10:19:22.718,2188
30/09/2019 10:19:22.722,2170
30/09/2019 10:19:22.726,2149
30/09/2019 10:19:22.730,2130
30/09/2019 10:19:22.734,2117
30/09/2019 10:19:22.738,2109
30/09/2019 10:19:22.742,2111
30/09/2019 10:19:22.746,2122
30/09/2019 10:19:22.750,2138
30/09/2019 10:19:22.754,2155
30/09/2019 10:19:22.758,2176
30/09/2019 10:19:22.762,2198
30/09/2019 10:19:22.766,2227
30/09/2019 10:19:22.770,2257
30/09/2019 10:19:22.774,2285
30/09/2019 10:19:22.778,2307
30/09/2019 10:19:22.782,2325
30/09/2019 10:19:22.786,2343
30/09/2019 10:19:22.790,2365
30/09/2019 10:19:22.794,2389
30/09/2019 10:19:22.798,2414
30/09/2019 10:19:22.802,2433
30/09/2019 10:19:22.806,2446
30/09/2019 10:19:22.810,2457
30/09/2019 10:19:22.814,2468
30/09/2019 10:19:22.818,2481
30/09/2019 10:19:22.822,2497
30/09/2019 10:19:22.826,2512
30/09/2019 10:19:22.830,2522
30/09/2019 10:19:22.834,2532
30/09/2019 10:19:22.838,2543
30/09/2019 10:19:22.842,2546
30/09/2019 10:19:22.846,2544
30/09/2019 10:19:22.850,2530
30/09/2019 10:19:22.854,2514
30/09/2019 10:19:22.858,2502
30/09/2019 10:19:22.862,2496
30/09/2019 10:19:22.866,2494
30/09/2019 10:19:22.870,2488
30/09/2019 10:19:22.874,2475
30/09/2019 10:19:22.878,2454
30/09/2019 10:19:22.882,2437
30/09/2019 10:19:22.886,2432
30/09/2019 10:19:22.890,2442
30/09/2019 10:19:22.894,2462
30/09/2019 10:19:22.898,2481
30/09/2019 10:19:22.902,2491
30/09/2019 10:19:22.906,2493
30/09/2019 10:19:22.910,2496
30/09/2019 10:19:22.914,2505
30/09/2019 10:19:22.918,2523
30/09/2019 10:19:22.922,2546
30/09/2019 10:19:22.926,2565
30/09/2019 10:19:22.930,2576
30/09/2019 10:19:22.934,2572
30/09/2019 10:19:22.938,2561
30/09/2019 10:19:22.942,2548
30/09/2019 10:19:22.946,2536
30/09/2019 10:19:22.950,2520
30/09/2019 10:19:22.954,2496
30/09/2019 10:19:22.958,2457
30/09/2019 10:19:22.962,2408
30/09/2019 10:19:22.966,2357
30/09/2019 10:19:22.970,2308
30/09/2019 10:19:22.974,2267
30/09/2019 10:19:22.978,2235
30/09/2019 10:19:22.982,2208
30/09/2019 10:19:22.986,2189
30/09/2019 10:19:22.990,2175
30/09/2019 10:19:22.994,2166
30/09/2019 10:19:22.998,2163
30/09/2019 10:19:23.002,2163
30/09/2019 10:19:23.006,2166
30/09/2019 10:19:23.010,2171
30/09/2019 10:19:23.014,2184
30/09/2019 10:19:23.018,2198
30/09/2019 10:19:23.022,2213
30/09/2019 10:19:23.026,2226
30/09/2019 10:19:23.030,2234
30/09/2019 10:19:23.034,2242
30/09/2019 10:19:23.038,2245
30/09/2019 10:19:23.042,2250
30/09/2019 10:19:23.046,2251
30/09/2019 10:19:23.050,2251
30/09/2019 10:19:23.054,2247
30/09/2019 10:19:23.058,2242
30/09/2019 10:19:23.062,2236
30/09/2019 10:19:23.066,2230
30/09/2019 10:19:23.070,2228
30/09/2019 10:19:23.074,2226
30/09/2019 10:19:23.078,2223
30/09/2019 10:19:23.082,2217
30/09/2019 10:19:23.086,2202
30/09/2019 10:19:23.090,2183
30/09/2019 10:19:23.094,2159
30/09/2019 10:19:23.098,2133
30/09/2019 10:19:23.102,2107
30/09/2019 10:19:23.106,2080
30/09/2019 10:19:23.110,2046
30/09/2019 10:19:23.114,2005
30/09/2019 10:19:23.118,1956
30/09/2019 10:19:23.122,1903
30/09/2019 10:19:23.126,1857
30/09/2019 10:19:23.130,1828
30/09/2019 10:19:23.134,1822
30/09/2019 10:19:23.138,1839
30/09/2019 10:19:23.142,1870
30/09/2019 10:19:23.146,1895
30/09/2019 10:19:23.150,1891
30/09/2019 10:19:23.154,1851
30/09/2019 10:19:23.158,1769
30/09/2019 10:19:23.162,1660
30/09/2019 10:19:23.166,1543
30/09/2019 10:19:23.170,1439
30/09/2019 10:19:23.174,1358
30/09/2019 10:19:23.178,1302
30/09/2019 10:19:23.182,1269
30/09/2019 10:19:23.186,1250
30/09/2019 10:19:23.190,1232
30/09/2019 10:19:23.194,1216
30/09/2019 10:19:23.198,1200
30/09/2019 10:19:23.202,1182
30/09/2019 10:19:23.206,1165
30/09/2019 10:19:23.210,1154
30/09/2019 10:19:23.214,1147
30/09/2019 10:19:23.218,1144
30/09/2019 10:19:23.222,1145
30/09/2019 10:19:23.226,1146
30/09/2019 10:19:23.230,1152
30/09/2019 10:19:23.234,1160
30/09/2019 10:19:23.238,1173
30/09/2019 10:19:23.242,1191
30/09/2019 10:19:23.246,1206
30/09/2019 10:19:23.250,1220
30/09/2019 10:19:23.254,1231
30/09/2019 10:19:23.258,1240
30/09/2019 10:19:23.262,1248
30/09/2019 10:19:23.266,1255
30/09/2019 10:19:23.270,1263
30/09/2019 10:19:23.274,1276
30/09/2019 10:19:23.278,1296
30/09/2019 10:19:23.282,1324
30/09/2019 10:19:23.286,1357
30/09/2019 10:19:23.290,1388
30/09/2019 10:19:23.294,1411
30/09/2019 10:19:23.298,1426
30/09/2019 10:19:23.302,1430
30/09/2019 10:19:23.306,1429
30/09/2019 10:19:23.310,1425
30/09/2019 10:19:23.314,1423
30/09/2019 10:19:23.318,1420
30/09/2019 10:19:23.322,1419
30/09/2019 10:19:23.326,1418
30/09/2019 10:19:23.330,1415
30/09/2019 10:19:23.334,1407
30/09/2019 10:19:23.338,1398
30/09/2019 10:19:23.342,1392
30/09/2019 10:19:23.346,1392
30/09/2019 10:19:23.350,1400
30/09/2019 10:19:23.354,1411
30/09/2019 10:19:23.358,1418
30/09/2019 10:19:23.362,1422
30/09/2019 10:19:23.366,1425
30/09/2019 10:19:23.370,1432
30/09/2019 10:19:23.374,1447
30/09/2019 10:19:23.378,1468
30/09/2019 10:19:23.382,1490
30/09/2019 10:19:23.386,1505
30/09/2019 10:19:23.390,1513
30/09/2019 10:19:23.394,1512
30/09/2019 10:19:23.398,1510
30/09/2019 10:19:23.402,1512
30/09/2019 10:19:23.406,1518
30/09/2019 10:19:23.410,1529
30/09/2019 10:19:23.414,1537
30/09/2019 10:19:23.418,1540
30/09/2019 10:19:23.422,1540
30/09/2019 10:19:23.426,1536
30/09/2019 10:19:23.430,1536
30/09/2019 10:19:23.434,1543
30/09/2019 10:19:23.438,1554
30/09/2019 10:19:23.442,1567
30/09/2019 10:19:23.446,1579
30/09/2019 10:19:23.450,1585
30/09/2019 10:19:23.454,1592
30/09/2019 10:19:23.458,1599
30/09/2019 10:19:23.462,1610
30/09/2019 10:19:23.466,1623
30/09/2019 10:19:23.470,1636
30/09/2019 10:19:23.474,1649
30/09/2019 10:19:23.478,1654
30/09/2019 10:19:23.482,1658
30/09/2019 10:19:23.486,1660
30/09/2019 10:19:23.490,1668
30/09/2019 10:19:23.494,1680
30/09/2019 10:19:23.498,1698
30/09/2019 10:19:23.502,1718
30/09/2019 10:19:23.506,1737
30/09/2019 10:19:23.510,1752
30/09/2019 10:19:23.514,1765
30/09/2019 10:19:23.518,1775
30/09/2019 10:19:23.522,1783
30/09/2019 10:19:23.526,1792
30/09/2019 10:19:23.530,1803
30/09/2019 10:19:23.534,1820
30/09/2019 10:19:23.538,1843
30/09/2019 10:19:23.542,1870
30/09/2019 10:19:23.546,1898
30/09/2019 10:19:23.550,1918
30/09/2019 10:19:23.554,1928
30/09/2019 10:19:23.558,1929
30/09/2019 10:19:23.562,1926
30/09/2019 10:19:23.566,1922
30/09/2019 10:19:23.570,1923
30/09/2019 10:19:23.574,1926
30/09/2019 10:19:23.578,1934
30/09/2019 10:19:23.582,1943
30/09/2019 10:19:23.586,1956
30/09/2019 10:19:23.590,1969
30/09/2019 10:19:23.594,1980
30/09/2019 10:19:23.598,1986
30/09/2019 10:19:23.602,1986
30/09/2019 10:19:23.606,1981
30/09/2019 10:19:23.610,1973
30/09/2019 10:19:23.614,1970
30/09/2019 10:19:23.618,1967
30/09/2019 10:19:23.622,1970
30/09/2019 10:19:23.626,1972
30/09/2019 10:19:23.630,1970
30/09/2019 10:19:23.634,1965
30/09/2019 10:19:23.638,1957
30/09/2019 10:19:23.642,1951
30/09/2019 10:19:23.646,1946
30/09/2019 10:19:23.650,1940
30/09/2019 10:19:23.654,1934
30/09/2019 10:19:23.658,1926
30/09/2019 10:19:23.662,1921
30/09/2019 10:19:23.666,1915
30/09/2019 10:19:23.670,1908
30/09/2019 10:19:23.674,1894
30/09/2019 10:19:23.678,1873
30/09/2019 10:19:23.682,1850
30/09/2019 10:19:23.686,1834
30/09/2019 10:19:23.690,1831
30/09/2019 10:19:23.694,1842
30/09/2019 10:19:23.698,1859
30/09/2019 10:19:23.702,1877
30/09/2019 10:19:23.706,1888
30/09/2019 10:19:23.710,1892
30/09/2019 10:19:23.714,1893
30/09/2019 10:19:23.718,1896
30/09/2019 10:19:23.722,1903
30/09/2019 10:19:23.726,1912
30/09/2019 10:19:23.730,1923
30/09/2019 10:19:23.734,1933
30/09/2019 10:19:23.738,1939
30/09/2019 10:19:23.742,1943
30/09/2019 10:19:23.746,1945
30/09/2019 10:19:23.750,1946
30/09/2019 10:19:23.754,1950
30/09/2019 10:19:23.758,1958
30/09/2019 10:19:23.762,1975
30/09/2019 10:19:23.766,2001
30/09/2019 10:19:23.770,2035
30/09/2019 10:19:23.774,2069
30/09/2019 10:19:23.778,2099
30/09/2019 10:19:23.782,2127
30/09/2019 10:19:23.786,2150
30/09/2019 10:19:23.790,2166
30/09/2019 10:19:23.794,2174
30/09/2019 10:19:23.798,2169
30/09/2019 10:19:23.802,2157
30/09/2019 10:19:23.806,2142
30/09/2019 10:19:23.810,2135
30/09/2019 10:19:23.814,2142
30/09/2019 10:19:23.818,2160
30/09/2019 10:19:23.822,2183
30/09/2019 10:19:23.826,2208
30/09/2019 10:19:23.830,2230
30/09/2019 10:19:23.834,2251
30/09/2019 10:19:23.838,2277
30/09/2019 10:19:23.842,2309
30/09/2019 10:19:23.846,2349
30/09/2019 10:19:23.850,2402
30/09/2019 10:19:23.854,2465
30/09/2019 10:19:23.858,2534
30/09/2019 10:19:23.862,2599
30/09/2019 10:19:23.866,2653
30/09/2019 10:19:23.870,2691
30/09/2019 10:19:23.874,2716
30/09/2019 10:19:23.878,2730
30/09/2019 10:19:23.882,2742
30/09/2019 10:19:23.886,2753
30/09/2019 10:19:23.890,2765
30/09/2019 10:19:23.894,2779
30/09/2019 10:19:23.898,2791
30/09/2019 10:19:23.902,2800
30/09/2019 10:19:23.906,2801
30/09/2019 10:19:23.910,2797
30/09/2019 10:19:23.914,2793
30/09/2019 10:19:23.918,2791
30/09/2019 10:19:23.922,2797
30/09/2019 10:19:23.926,2812
30/09/2019 10:19:23.930,2836
30/09/2019 10:19:23.934,2869
30/09/2019 10:19:23.938,2907
30/09/2019 10:19:23.942,2943
30/09/2019 10:19:23.946,2973
30/09/2019 10:19:23.950,2996
30/09/2019 10:19:23.954,3018
30/09/2019 10:19:23.958,3040
30/09/2019 10:19:23.962,3067
30/09/2019 10:19:23.966,3097
30/09/2019 10:19:23.970,3120
30/09/2019 10:19:23.974,3124
30/09/2019 10:19:23.978,3104
30/09/2019 10:19:23.982,3068
30/09/2019 10:19:23.986,3022
30/09/2019 10:19:23.990,2979
30/09/2019 10:19:23.994,2941
30/09/2019 10:19:23.998,2909
30/09/2019 10:19:24.002,2880
30/09/2019 10:19:24.006,2850
30/09/2019 10:19:24.010,2820
30/09/2019 10:19:24.014,2791
30/09/2019 10:19:24.018,2761
30/09/2019 10:19:24.022,2738
30/09/2019 10:19:24.026,2718
30/09/2019 10:19:24.030,2703
30/09/2019 10:19:24.034,2696
30/09/2019 10:19:24.038,2697
30/09/2019 10:19:24.042,2702
30/09/2019 10:19:24.046,2710
30/09/2019 10:19:24.050,2715
30/09/2019 10:19:24.054,2718
30/09/2019 10:19:24.058,2716
30/09/2019 10:19:24.062,2709
30/09/2019 10:19:24.066,2698
30/09/2019 10:19:24.070,2681
30/09/2019 10:19:24.074,2649
30/09/2019 10:19:24.078,2602
30/09/2019 10:19:24.082,2543
30/09/2019 10:19:24.086,2488
30/09/2019 10:19:24.090,2446
30/09/2019 10:19:24.094,2418
30/09/2019 10:19:24.098,2385
30/09/2019 10:19:24.102,2335
30/09/2019 10:19:24.106,2253
30/09/2019 10:19:24.110,2149
30/09/2019 10:19:24.114,2038
30/09/2019 10:19:24.118,1952
30/09/2019 10:19:24.122,1900
30/09/2019 10:19:24.126,1861
30/09/2019 10:19:24.130,1843
30/09/2019 10:19:24.134,1865
30/09/2019 10:19:24.138,1917
30/09/2019 10:19:24.142,2007
30/09/2019 10:19:24.146,2145
30/09/2019 10:19:24.150,2328
30/09/2019 10:19:24.154,2527
30/09/2019 10:19:24.158,2706
30/09/2019 10:19:24.162,2850
30/09/2019 10:19:24.166,2949
30/09/2019 10:19:24.170,2987
30/09/2019 10:19:24.174,2979
30/09/2019 10:19:24.178,2958
30/09/2019 10:19:24.182,2929
30/09/2019 10:19:24.186,2902
30/09/2019 10:19:24.190,2884
30/09/2019 10:19:24.194,2874
30/09/2019 10:19:24.198,2863
30/09/2019 10:19:24.202,2860
30/09/2019 10:19:24.206,2842
30/09/2019 10:19:24.210,2775
30/09/2019 10:19:24.214,2657
30/09/2019 10:19:24.218,2516
30/09/2019 10:19:24.222,2390
30/09/2019 10:19:24.226,2313
30/09/2019 10:19:24.230,2300
30/09/2019 10:19:24.234,2348
30/09/2019 10:19:24.238,2427
30/09/2019 10:19:24.242,2502
30/09/2019 10:19:24.246,2544
30/09/2019 10:19:24.250,2569
30/09/2019 10:19:24.254,2579
30/09/2019 10:19:24.258,2565
30/09/2019 10:19:24.262,2533
30/09/2019 10:19:24.266,2500
30/09/2019 10:19:24.270,2488
30/09/2019 10:19:24.274,2499
30/09/2019 10:19:24.278,2533
30/09/2019 10:19:24.282,2587
30/09/2019 10:19:24.286,2640
30/09/2019 10:19:24.290,2667
30/09/2019 10:19:24.294,2659
30/09/2019 10:19:24.298,2627
30/09/2019 10:19:24.302,2581
30/09/2019 10:19:24.306,2530
30/09/2019 10:19:24.310,2479
30/09/2019 10:19:24.314,2429
30/09/2019 10:19:24.318,2385
30/09/2019 10:19:24.322,2349
30/09/2019 10:19:24.326,2313
30/09/2019 10:19:24.330,2276
30/09/2019 10:19:24.334,2246
30/09/2019 10:19:24.338,2219
30/09/2019 10:19:24.342,2191
30/09/2019 10:19:24.346,2158
30/09/2019 10:19:24.350,2136
30/09/2019 10:19:24.354,2128
30/09/2019 10:19:24.358,2121
30/09/2019 10:19:24.362,2111
30/09/2019 10:19:24.366,2106
30/09/2019 10:19:24.370,2105
30/09/2019 10:19:24.374,2096
30/09/2019 10:19:24.378,2083
30/09/2019 10:19:24.382,2078
30/09/2019 10:19:24.386,2079
30/09/2019 10:19:24.390,2078
30/09/2019 10:19:24.394,2074
30/09/2019 10:19:24.398,2071
30/09/2019 10:19:24.402,2075
30/09/2019 10:19:24.406,2078
30/09/2019 10:19:24.410,2077
30/09/2019 10:19:24.414,2077
30/09/2019 10:19:24.418,2079
30/09/2019 10:19:24.422,2083
30/09/2019 10:19:24.426,2080
30/09/2019 10:19:24.430,2072
30/09/2019 10:19:24.434,2070
30/09/2019 10:19:24.438,2068
30/09/2019 10:19:24.442,2057
30/09/2019 10:19:24.446,2038
30/09/2019 10:19:24.450,2023
30/09/2019 10:19:24.454,2018
30/09/2019 10:19:24.458,2007
30/09/2019 10:19:24.462,1991
30/09/2019 10:19:24.466,1984
30/09/2019 10:19:24.470,1989
30/09/2019 10:19:24.474,1985
30/09/2019 10:19:24.478,1974
30/09/2019 10:19:24.482,1967
30/09/2019 10:19:24.486,1965
30/09/2019 10:19:24.490,1958
30/09/2019 10:19:24.494,1948
30/09/2019 10:19:24.498,1939
30/09/2019 10:19:24.502,1940
30/09/2019 10:19:24.506,1939
30/09/2019 10:19:24.510,1934
30/09/2019 10:19:24.514,1926
30/09/2019 10:19:24.518,1925
30/09/2019 10:19:24.522,1928
30/09/2019 10:19:24.526,1928
30/09/2019 10:19:24.530,1924
30/09/2019 10:19:24.534,1930
30/09/2019 10:19:24.538,1941
30/09/2019 10:19:24.542,1946
30/09/2019 10:19:24.546,1941
30/09/2019 10:19:24.550,1946
30/09/2019 10:19:24.554,1961
30/09/2019 10:19:24.558,1967
30/09/2019 10:19:24.562,1959
30/09/2019 10:19:24.566,1957
30/09/2019 10:19:24.570,1962
30/09/2019 10:19:24.574,1960
30/09/2019 10:19:24.578,1950
30/09/2019 10:19:24.582,1952
30/09/2019 10:19:24.586,1962
30/09/2019 10:19:24.590,1968
30/09/2019 10:19:24.594,1969
30/09/2019 10:19:24.598,1973
30/09/2019 10:19:24.602,1985
30/09/2019 10:19:24.606,2000
30/09/2019 10:19:24.610,2012
30/09/2019 10:19:24.614,2023
30/09/2019 10:19:24.618,2038
30/09/2019 10:19:24.622,2058
30/09/2019 10:19:24.626,2072
30/09/2019 10:19:24.630,2077
30/09/2019 10:19:24.634,2087
30/09/2019 10:19:24.638,2105
30/09/2019 10:19:24.642,2116
30/09/2019 10:19:24.646,2114
30/09/2019 10:19:24.650,2119
30/09/2019 10:19:24.654,2135
30/09/2019 10:19:24.658,2146
30/09/2019 10:19:24.662,2149
30/09/2019 10:19:24.666,2162
30/09/2019 10:19:24.670,2188
30/09/2019 10:19:24.674,2210
30/09/2019 10:19:24.678,2218
30/09/2019 10:19:24.682,2227
30/09/2019 10:19:24.686,2237
30/09/2019 10:19:24.690,2245
30/09/2019 10:19:24.694,2254
30/09/2019 10:19:24.698,2268
30/09/2019 10:19:24.702,2296
30/09/2019 10:19:24.706,2329
30/09/2019 10:19:24.710,2356
30/09/2019 10:19:24.714,2372
30/09/2019 10:19:24.718,2385
30/09/2019 10:19:24.722,2394
30/09/2019 10:19:24.726,2390
30/09/2019 10:19:24.730,2374
30/09/2019 10:19:24.734,2360
30/09/2019 10:19:24.738,2352
30/09/2019 10:19:24.742,2342
30/09/2019 10:19:24.746,2325
30/09/2019 10:19:24.750,2319
30/09/2019 10:19:24.754,2323
30/09/2019 10:19:24.758,2322
30/09/2019 10:19:24.762,2312
30/09/2019 10:19:24.766,2306
30/09/2019 10:19:24.770,2306
30/09/2019 10:19:24.774,2303
30/09/2019 10:19:24.778,2292
30/09/2019 10:19:24.782,2288
30/09/2019 10:19:24.786,2290
30/09/2019 10:19:24.790,2290
30/09/2019 10:19:24.794,2285
30/09/2019 10:19:24.798,2280
30/09/2019 10:19:24.802,2278
30/09/2019 10:19:24.806,2273
30/09/2019 10:19:24.810,2262
30/09/2019 10:19:24.814,2249
30/09/2019 10:19:24.818,2243
30/09/2019 10:19:24.822,2242
30/09/2019 10:19:24.826,2238
30/09/2019 10:19:24.830,2226
30/09/2019 10:19:24.834,2218
30/09/2019 10:19:24.838,2210
30/09/2019 10:19:24.842,2194
30/09/2019 10:19:24.846,2169
30/09/2019 10:19:24.850,2149
30/09/2019 10:19:24.854,2138
30/09/2019 10:19:24.858,2120
30/09/2019 10:19:24.862,2095
30/09/2019 10:19:24.866,2080
30/09/2019 10:19:24.870,2075
30/09/2019 10:19:24.874,2066
30/09/2019 10:19:24.878,2051
30/09/2019 10:19:24.882,2041
30/09/2019 10:19:24.886,2036
30/09/2019 10:19:24.890,2029
30/09/2019 10:19:24.894,2021
30/09/2019 10:19:24.898,2018
30/09/2019 10:19:24.902,2023
30/09/2019 10:19:24.906,2029
30/09/2019 10:19:24.910,2031
30/09/2019 10:19:24.914,2029
30/09/2019 10:19:24.918,2031
30/09/2019 10:19:24.922,2036
30/09/2019 10:19:24.926,2032
30/09/2019 10:19:24.930,2023
30/09/2019 10:19:24.934,2021
30/09/2019 10:19:24.938,2026
30/09/2019 10:19:24.942,2025
30/09/2019 10:19:24.946,2014
30/09/2019 10:19:24.950,2010
30/09/2019 10:19:24.954,2014
30/09/2019 10:19:24.958,2012
30/09/2019 10:19:24.962,2005
30/09/2019 10:19:24.966,2012
30/09/2019 10:19:24.970,2031
30/09/2019 10:19:24.974,2041
30/09/2019 10:19:24.978,2040
30/09/2019 10:19:24.982,2044
30/09/2019 10:19:24.986,2052
30/09/2019 10:19:24.990,2054
30/09/2019 10:19:24.994,2050
30/09/2019 10:19:24.998,2050
30/09/2019 10:19:25.002,2055
30/09/2019 10:19:25.006,2055
30/09/2019 10:19:25.010,2046
30/09/2019 10:19:25.014,2032
30/09/2019 10:19:25.018,2023
30/09/2019 10:19:25.022,2019
30/09/2019 10:19:25.026,2011
30/09/2019 10:19:25.030,2004
30/09/2019 10:19:25.034,2010
30/09/2019 10:19:25.038,2025
30/09/2019 10:19:25.042,2030
30/09/2019 10:19:25.046,2021
30/09/2019 10:19:25.050,2019
30/09/2019 10:19:25.054,2027
30/09/2019 10:19:25.058,2018
30/09/2019 10:19:25.062,1996
30/09/2019 10:19:25.066,1983
30/09/2019 10:19:25.070,1980
30/09/2019 10:19:25.074,1965
30/09/2019 10:19:25.078,1939
30/09/2019 10:19:25.082,1921
30/09/2019 10:19:25.086,1913
30/09/2019 10:19:25.090,1901
30/09/2019 10:19:25.094,1884
30/09/2019 10:19:25.098,1871
30/09/2019 10:19:25.102,1866
30/09/2019 10:19:25.106,1863
30/09/2019 10:19:25.110,1859
30/09/2019 10:19:25.114,1857
30/09/2019 10:19:25.118,1868
30/09/2019 10:19:25.122,1894
30/09/2019 10:19:25.126,1915
30/09/2019 10:19:25.130,1927
30/09/2019 10:19:25.134,1946
30/09/2019 10:19:25.138,1973
30/09/2019 10:19:25.142,1992
30/09/2019 10:19:25.146,1994
30/09/2019 10:19:25.150,2006
30/09/2019 10:19:25.154,2038
30/09/2019 10:19:25.158,2065
30/09/2019 10:19:25.162,2081
30/09/2019 10:19:25.166,2101
30/09/2019 10:19:25.170,2127
30/09/2019 10:19:25.174,2142
30/09/2019 10:19:25.178,2138
30/09/2019 10:19:25.182,2137
30/09/2019 10:19:25.186,2142
30/09/2019 10:19:25.190,2148
30/09/2019 10:19:25.194,2148
30/09/2019 10:19:25.198,2151
30/09/2019 10:19:25.202,2163
30/09/2019 10:19:25.206,2182
30/09/2019 10:19:25.210,2196
30/09/2019 10:19:25.214,2203
30/09/2019 10:19:25.218,2212
30/09/2019 10:19:25.222,2225
30/09/2019 10:19:25.226,2230
30/09/2019 10:19:25.230,2224
30/09/2019 10:19:25.234,2225
30/09/2019 10:19:25.238,2235
30/09/2019 10:19:25.242,2240
30/09/2019 10:19:25.246,2234
30/09/2019 10:19:25.250,2233
30/09/2019 10:19:25.254,2242
30/09/2019 10:19:25.258,2245
30/09/2019 10:19:25.262,2242
30/09/2019 10:19:25.266,2246
30/09/2019 10:19:25.270,2263
30/09/2019 10:19:25.274,2275
30/09/2019 10:19:25.278,2276
30/09/2019 10:19:25.282,2281
30/09/2019 10:19:25.286,2291
30/09/2019 10:19:25.290,2299
30/09/2019 10:19:25.294,2299
30/09/2019 10:19:25.298,2297
30/09/2019 10:19:25.302,2299
30/09/2019 10:19:25.306,2300
30/09/2019 10:19:25.310,2298
30/09/2019 10:19:25.314,2293
30/09/2019 10:19:25.318,2295
30/09/2019 10:19:25.322,2301
30/09/2019 10:19:25.326,2304
30/09/2019 10:19:25.330,2301
30/09/2019 10:19:25.334,2306
30/09/2019 10:19:25.338,2316
30/09/2019 10:19:25.342,2322
30/09/2019 10:19:25.346,2317
30/09/2019 10:19:25.350,2317
30/09/2019 10:19:25.354,2324
30/09/2019 10:19:25.358,2326
30/09/2019 10:19:25.362,2318
30/09/2019 10:19:25.366,2315
30/09/2019 10:19:25.370,2321
30/09/2019 10:19:25.374,2323
30/09/2019 10:19:25.378,2316
30/09/2019 10:19:25.382,2314
30/09/2019 10:19:25.386,2317
30/09/2019 10:19:25.390,2317
30/09/2019 10:19:25.394,2312
30/09/2019 10:19:25.398,2307
30/09/2019 10:19:25.402,2308
30/09/2019 10:19:25.406,2308
30/09/2019 10:19:25.410,2302
30/09/2019 10:19:25.414,2296
30/09/2019 10:19:25.418,2298
30/09/2019 10:19:25.422,2311
30/09/2019 10:19:25.426,2325
30/09/2019 10:19:25.430,2335
30/09/2019 10:19:25.434,2345
30/09/2019 10:19:25.438,2354
30/09/2019 10:19:25.442,2351
30/09/2019 10:19:25.446,2335
30/09/2019 10:19:25.450,2322
30/09/2019 10:19:25.454,2319
30/09/2019 10:19:25.458,2311
30/09/2019 10:19:25.462,2297
30/09/2019 10:19:25.466,2289
30/09/2019 10:19:25.470,2292
30/09/2019 10:19:25.474,2294
30/09/2019 10:19:25.478,2290
30/09/2019 10:19:25.482,2292
30/09/2019 10:19:25.486,2299
30/09/2019 10:19:25.490,2303
30/09/2019 10:19:25.494,2300
30/09/2019 10:19:25.498,2296
30/09/2019 10:19:25.502,2295
30/09/2019 10:19:25.506,2292
30/09/2019 10:19:25.510,2287
30/09/2019 10:19:25.514,2283
30/09/2019 10:19:25.518,2289
30/09/2019 10:19:25.522,2300
30/09/2019 10:19:25.526,2304
30/09/2019 10:19:25.530,2301
30/09/2019 10:19:25.534,2301
30/09/2019 10:19:25.538,2305
30/09/2019 10:19:25.542,2306
30/09/2019 10:19:25.546,2300
30/09/2019 10:19:25.550,2301
30/09/2019 10:19:25.554,2309
30/09/2019 10:19:25.558,2309
30/09/2019 10:19:25.562,2302
30/09/2019 10:19:25.566,2300
30/09/2019 10:19:25.570,2306
30/09/2019 10:19:25.574,2307
30/09/2019 10:19:25.578,2300
30/09/2019 10:19:25.582,2301
30/09/2019 10:19:25.586,2308
30/09/2019 10:19:25.590,2312
30/09/2019 10:19:25.594,2310
30/09/2019 10:19:25.598,2306
30/09/2019 10:19:25.602,2305
30/09/2019 10:19:25.606,2303
30/09/2019 10:19:25.610,2296
30/09/2019 10:19:25.614,2290
30/09/2019 10:19:25.618,2291
30/09/2019 10:19:25.622,2299
30/09/2019 10:19:25.626,2303
30/09/2019 10:19:25.630,2301
30/09/2019 10:19:25.634,2303
30/09/2019 10:19:25.638,2307
30/09/2019 10:19:25.642,2303
30/09/2019 10:19:25.646,2292
30/09/2019 10:19:25.650,2288
30/09/2019 10:19:25.654,2294
30/09/2019 10:19:25.658,2293
30/09/2019 10:19:25.662,2281
30/09/2019 10:19:25.666,2276
30/09/2019 10:19:25.670,2277
30/09/2019 10:19:25.674,2271
30/09/2019 10:19:25.678,2256
30/09/2019 10:19:25.682,2248
30/09/2019 10:19:25.686,2249
30/09/2019 10:19:25.690,2246
30/09/2019 10:19:25.694,2238
30/09/2019 10:19:25.698,2233
30/09/2019 10:19:25.702,2232
30/09/2019 10:19:25.706,2226
30/09/2019 10:19:25.710,2212
30/09/2019 10:19:25.714,2197
30/09/2019 10:19:25.718,2187
30/09/2019 10:19:25.722,2180
30/09/2019 10:19:25.726,2166
30/09/2019 10:19:25.730,2148
30/09/2019 10:19:25.734,2144
30/09/2019 10:19:25.738,2144
30/09/2019 10:19:25.742,2132
30/09/2019 10:19:25.746,2100
30/09/2019 10:19:25.750,2067
30/09/2019 10:19:25.754,2028
30/09/2019 10:19:25.758,1959
30/09/2019 10:19:25.762,1875
30/09/2019 10:19:25.766,1818
30/09/2019 10:19:25.770,1790
30/09/2019 10:19:25.774,1763
30/09/2019 10:19:25.778,1738
30/09/2019 10:19:25.782,1740
30/09/2019 10:19:25.786,1754
30/09/2019 10:19:25.790,1751
30/09/2019 10:19:25.794,1740
30/09/2019 10:19:25.798,1741
30/09/2019 10:19:25.802,1752
30/09/2019 10:19:25.806,1753
30/09/2019 10:19:25.810,1747
30/09/2019 10:19:25.814,1746
30/09/2019 10:19:25.818,1757
30/09/2019 10:19:25.822,1774
30/09/2019 10:19:25.826,1779
30/09/2019 10:19:25.830,1777
30/09/2019 10:19:25.834,1792
30/09/2019 10:19:25.838,1819
30/09/2019 10:19:25.842,1833
30/09/2019 10:19:25.846,1827
30/09/2019 10:19:25.850,1838
30/09/2019 10:19:25.854,1870
30/09/2019 10:19:25.858,1883
30/09/2019 10:19:25.862,1876
30/09/2019 10:19:25.866,1890
30/09/2019 10:19:25.870,1925
30/09/2019 10:19:25.874,1943
30/09/2019 10:19:25.878,1938
30/09/2019 10:19:25.882,1949
30/09/2019 10:19:25.886,1972
30/09/2019 10:19:25.890,1975
30/09/2019 10:19:25.894,1962
30/09/2019 10:19:25.898,1953
30/09/2019 10:19:25.902,1962
30/09/2019 10:19:25.906,1968
30/09/2019 10:19:25.910,1960
30/09/2019 10:19:25.914,1952
30/09/2019 10:19:25.918,1962
30/09/2019 10:19:25.922,1984
30/09/2019 10:19:25.926,1990
30/09/2019 10:19:25.930,1981
30/09/2019 10:19:25.934,1995
30/09/2019 10:19:25.938,2023
30/09/2019 10:19:25.942,2034
30/09/2019 10:19:25.946,2021
30/09/2019 10:19:25.950,2033
30/09/2019 10:19:25.954,2071
30/09/2019 10:19:25.958,2090
30/09/2019 10:19:25.962,2083
30/09/2019 10:19:25.966,2095
30/09/2019 10:19:25.970,2128
30/09/2019 10:19:25.974,2140
30/09/2019 10:19:25.978,2124
30/09/2019 10:19:25.982,2128
30/09/2019 10:19:25.986,2148
30/09/2019 10:19:25.990,2160
30/09/2019 10:19:25.994,2156
30/09/2019 10:19:25.998,2149
30/09/2019 10:19:26.002,2153
30/09/2019 10:19:26.006,2161
30/09/2019 10:19:26.010,2155
30/09/2019 10:19:26.014,2136
30/09/2019 10:19:26.018,2124
30/09/2019 10:19:26.022,2128
30/09/2019 10:19:26.026,2120
30/09/2019 10:19:26.030,2096
30/09/2019 10:19:26.034,2091
30/09/2019 10:19:26.038,2110
30/09/2019 10:19:26.042,2118
30/09/2019 10:19:26.046,2095
30/09/2019 10:19:26.050,2087
30/09/2019 10:19:26.054,2105
30/09/2019 10:19:26.058,2109
30/09/2019 10:19:26.062,2089
30/09/2019 10:19:26.066,2080
30/09/2019 10:19:26.070,2093
30/09/2019 10:19:26.074,2093
30/09/2019 10:19:26.078,2072
30/09/2019 10:19:26.082,2065
30/09/2019 10:19:26.086,2072
30/09/2019 10:19:26.090,2073
30/09/2019 10:19:26.094,2059
30/09/2019 10:19:26.098,2042
30/09/2019 10:19:26.102,2032
30/09/2019 10:19:26.106,2028
30/09/2019 10:19:26.110,2018
30/09/2019 10:19:26.114,2005
30/09/2019 10:19:26.118,2006
30/09/2019 10:19:26.122,2024
30/09/2019 10:19:26.126,2038
30/09/2019 10:19:26.130,2033
30/09/2019 10:19:26.134,2021
30/09/2019 10:19:26.138,2019
30/09/2019 10:19:26.142,2017
30/09/2019 10:19:26.146,2019
30/09/2019 10:19:26.150,2073
30/09/2019 10:19:26.154,2194
30/09/2019 10:19:26.158,2331
30/09/2019 10:19:26.162,2439
30/09/2019 10:19:26.166,2511
30/09/2019 10:19:26.170,2555
30/09/2019 10:19:26.174,2562
30/09/2019 10:19:26.178,2539
30/09/2019 10:19:26.182,2527
30/09/2019 10:19:26.186,2544
30/09/2019 10:19:26.190,2571
30/09/2019 10:19:26.194,2601
30/09/2019 10:19:26.198,2637
30/09/2019 10:19:26.202,2685
30/09/2019 10:19:26.206,2742
30/09/2019 10:19:26.210,2790
30/09/2019 10:19:26.214,2820
30/09/2019 10:19:26.218,2840
30/09/2019 10:19:26.222,2856
30/09/2019 10:19:26.226,2858
30/09/2019 10:19:26.230,2851
30/09/2019 10:19:26.234,2852
30/09/2019 10:19:26.238,2865
30/09/2019 10:19:26.242,2874
30/09/2019 10:19:26.246,2870
30/09/2019 10:19:26.250,2869
30/09/2019 10:19:26.254,2877
30/09/2019 10:19:26.258,2884
30/09/2019 10:19:26.262,2884
30/09/2019 10:19:26.266,2888
30/09/2019 10:19:26.270,2897
30/09/2019 10:19:26.274,2900
30/09/2019 10:19:26.278,2896
30/09/2019 10:19:26.282,2895
30/09/2019 10:19:26.286,2902
30/09/2019 10:19:26.290,2911
30/09/2019 10:19:26.294,2916
30/09/2019 10:19:26.298,2917
30/09/2019 10:19:26.302,2919
30/09/2019 10:19:26.306,2920
30/09/2019 10:19:26.310,2916
30/09/2019 10:19:26.314,2910
30/09/2019 10:19:26.318,2907
30/09/2019 10:19:26.322,2909
30/09/2019 10:19:26.326,2907
30/09/2019 10:19:26.330,2900
30/09/2019 10:19:26.334,2897
30/09/2019 10:19:26.338,2897
30/09/2019 10:19:26.342,2894
30/09/2019 10:19:26.346,2884
30/09/2019 10:19:26.350,2877
30/09/2019 10:19:26.354,2875
30/09/2019 10:19:26.358,2871
30/09/2019 10:19:26.362,2861
30/09/2019 10:19:26.366,2856
30/09/2019 10:19:26.370,2858
30/09/2019 10:19:26.374,2858
30/09/2019 10:19:26.378,2851
30/09/2019 10:19:26.382,2846
30/09/2019 10:19:26.386,2844
30/09/2019 10:19:26.390,2841
30/09/2019 10:19:26.394,2835
30/09/2019 10:19:26.398,2831
30/09/2019 10:19:26.402,2831
30/09/2019 10:19:26.406,2832
30/09/2019 10:19:26.410,2829
30/09/2019 10:19:26.414,2826
30/09/2019 10:19:26.418,2825
30/09/2019 10:19:26.422,2826
30/09/2019 10:19:26.426,2820
30/09/2019 10:19:26.430,2809
30/09/2019 10:19:26.434,2800
30/09/2019 10:19:26.438,2795
30/09/2019 10:19:26.442,2790
30/09/2019 10:19:26.446,2783
30/09/2019 10:19:26.450,2781
30/09/2019 10:19:26.454,2783
30/09/2019 10:19:26.458,2781
30/09/2019 10:19:26.462,2772
30/09/2019 10:19:26.466,2765
30/09/2019 10:19:26.470,2766
30/09/2019 10:19:26.474,2764
30/09/2019 10:19:26.478,2758
30/09/2019 10:19:26.482,2754
30/09/2019 10:19:26.486,2754
30/09/2019 10:19:26.490,2749
30/09/2019 10:19:26.494,2741
30/09/2019 10:19:26.498,2734
30/09/2019 10:19:26.502,2730
30/09/2019 10:19:26.506,2727
30/09/2019 10:19:26.510,2720
30/09/2019 10:19:26.514,2711
30/09/2019 10:19:26.518,2706
30/09/2019 10:19:26.522,2704
30/09/2019 10:19:26.526,2699
30/09/2019 10:19:26.530,2692
30/09/2019 10:19:26.534,2688
30/09/2019 10:19:26.538,2688
30/09/2019 10:19:26.542,2683
30/09/2019 10:19:26.546,2673
30/09/2019 10:19:26.550,2667
30/09/2019 10:19:26.554,2668
30/09/2019 10:19:26.558,2665
30/09/2019 10:19:26.562,2657
30/09/2019 10:19:26.566,2652
30/09/2019 10:19:26.570,2651
30/09/2019 10:19:26.574,2647
30/09/2019 10:19:26.578,2636
30/09/2019 10:19:26.582,2628
30/09/2019 10:19:26.586,2624
30/09/2019 10:19:26.590,2617
30/09/2019 10:19:26.594,2606
30/09/2019 10:19:26.598,2597
30/09/2019 10:19:26.602,2592
30/09/2019 10:19:26.606,2585
30/09/2019 10:19:26.610,2576
30/09/2019 10:19:26.614,2566
30/09/2019 10:19:26.618,2560
30/09/2019 10:19:26.622,2559
30/09/2019 10:19:26.626,2553
30/09/2019 10:19:26.630,2543
30/09/2019 10:19:26.634,2533
30/09/2019 10:19:26.638,2525
30/09/2019 10:19:26.642,2513
30/09/2019 10:19:26.646,2498
30/09/2019 10:19:26.650,2488
30/09/2019 10:19:26.654,2482
30/09/2019 10:19:26.658,2468
30/09/2019 10:19:26.662,2446
30/09/2019 10:19:26.666,2426
30/09/2019 10:19:26.670,2416
30/09/2019 10:19:26.674,2407
30/09/2019 10:19:26.678,2396
30/09/2019 10:19:26.682,2391
30/09/2019 10:19:26.686,2390
30/09/2019 10:19:26.690,2384
30/09/2019 10:19:26.694,2373
30/09/2019 10:19:26.698,2364
30/09/2019 10:19:26.702,2360
30/09/2019 10:19:26.706,2357
30/09/2019 10:19:26.710,2350
30/09/2019 10:19:26.714,2343
30/09/2019 10:19:26.718,2338
30/09/2019 10:19:26.722,2336
30/09/2019 10:19:26.726,2331
30/09/2019 10:19:26.730,2324
30/09/2019 10:19:26.734,2322
30/09/2019 10:19:26.738,2322
30/09/2019 10:19:26.742,2317
30/09/2019 10:19:26.746,2302
30/09/2019 10:19:26.750,2291
30/09/2019 10:19:26.754,2287
30/09/2019 10:19:26.758,2280
30/09/2019 10:19:26.762,2270
30/09/2019 10:19:26.766,2263
30/09/2019 10:19:26.770,2259
30/09/2019 10:19:26.774,2247
30/09/2019 10:19:26.778,2224
30/09/2019 10:19:26.782,2205
30/09/2019 10:19:26.786,2194
30/09/2019 10:19:26.790,2185
30/09/2019 10:19:26.794,2175
30/09/2019 10:19:26.798,2168
30/09/2019 10:19:26.802,2167
30/09/2019 10:19:26.806,2165
30/09/2019 10:19:26.810,2161
30/09/2019 10:19:26.814,2158
30/09/2019 10:19:26.818,2159
30/09/2019 10:19:26.822,2162
30/09/2019 10:19:26.826,2159
30/09/2019 10:19:26.830,2151
30/09/2019 10:19:26.834,2147
30/09/2019 10:19:26.838,2149
30/09/2019 10:19:26.842,2149
30/09/2019 10:19:26.846,2144
30/09/2019 10:19:26.850,2144
30/09/2019 10:19:26.854,2149
30/09/2019 10:19:26.858,2149
30/09/2019 10:19:26.862,2143
30/09/2019 10:19:26.866,2141
30/09/2019 10:19:26.870,2147
30/09/2019 10:19:26.874,2149
30/09/2019 10:19:26.878,2144
30/09/2019 10:19:26.882,2144
30/09/2019 10:19:26.886,2152
30/09/2019 10:19:26.890,2157
30/09/2019 10:19:26.894,2159
30/09/2019 10:19:26.898,2161
30/09/2019 10:19:26.902,2168
30/09/2019 10:19:26.906,2174
30/09/2019 10:19:26.910,2177
30/09/2019 10:19:26.914,2178
30/09/2019 10:19:26.918,2181
30/09/2019 10:19:26.922,2186
30/09/2019 10:19:26.926,2185
30/09/2019 10:19:26.930,2180
30/09/2019 10:19:26.934,2179
30/09/2019 10:19:26.938,2184
30/09/2019 10:19:26.942,2185
30/09/2019 10:19:26.946,2179
30/09/2019 10:19:26.950,2177
30/09/2019 10:19:26.954,2180
30/09/2019 10:19:26.958,2180
30/09/2019 10:19:26.962,2175
30/09/2019 10:19:26.966,2176
30/09/2019 10:19:26.970,2184
30/09/2019 10:19:26.974,2185
30/09/2019 10:19:26.978,2177
30/09/2019 10:19:26.982,2172
30/09/2019 10:19:26.986,2175
30/09/2019 10:19:26.990,2182
30/09/2019 10:19:26.994,2192
30/09/2019 10:19:26.998,2206
30/09/2019 10:19:27.002,2221
30/09/2019 10:19:27.006,2226
30/09/2019 10:19:27.010,2219
30/09/2019 10:19:27.014,2205
30/09/2019 10:19:27.018,2193
30/09/2019 10:19:27.022,2185
30/09/2019 10:19:27.026,2177
30/09/2019 10:19:27.030,2169
30/09/2019 10:19:27.034,2166
30/09/2019 10:19:27.038,2168
30/09/2019 10:19:27.042,2167
30/09/2019 10:19:27.046,2161
30/09/2019 10:19:27.050,2158
30/09/2019 10:19:27.054,2162
30/09/2019 10:19:27.058,2160
30/09/2019 10:19:27.062,2152
30/09/2019 10:19:27.066,2147
30/09/2019 10:19:27.070,2148
30/09/2019 10:19:27.074,2144
30/09/2019 10:19:27.078,2134
30/09/2019 10:19:27.082,2128
30/09/2019 10:19:27.086,2127
30/09/2019 10:19:27.090,2122
30/09/2019 10:19:27.094,2111
30/09/2019 10:19:27.098,2102
30/09/2019 10:19:27.102,2097
30/09/2019 10:19:27.106,2090
30/09/2019 10:19:27.110,2079
30/09/2019 10:19:27.114,2064
30/09/2019 10:19:27.118,2052
30/09/2019 10:19:27.122,2043
30/09/2019 10:19:27.126,2032
30/09/2019 10:19:27.130,2022
30/09/2019 10:19:27.134,2021
30/09/2019 10:19:27.138,2026
30/09/2019 10:19:27.142,2027
30/09/2019 10:19:27.146,2022
30/09/2019 10:19:27.150,2018
30/09/2019 10:19:27.154,2021
30/09/2019 10:19:27.158,2019
30/09/2019 10:19:27.162,2011
30/09/2019 10:19:27.166,2005
30/09/2019 10:19:27.170,2006
30/09/2019 10:19:27.174,2000
30/09/2019 10:19:27.178,1988
30/09/2019 10:19:27.182,1980
30/09/2019 10:19:27.186,1979
30/09/2019 10:19:27.190,1975
30/09/2019 10:19:27.194,1966
30/09/2019 10:19:27.198,1961
30/09/2019 10:19:27.202,1960
30/09/2019 10:19:27.206,1957
30/09/2019 10:19:27.210,1950
30/09/2019 10:19:27.214,1944
30/09/2019 10:19:27.218,1940
30/09/2019 10:19:27.222,1936
30/09/2019 10:19:27.226,1926
30/09/2019 10:19:27.230,1910
30/09/2019 10:19:27.234,1896
30/09/2019 10:19:27.238,1885
30/09/2019 10:19:27.242,1871
30/09/2019 10:19:27.246,1855
30/09/2019 10:19:27.250,1845
30/09/2019 10:19:27.254,1843
30/09/2019 10:19:27.258,1835
30/09/2019 10:19:27.262,1821
30/09/2019 10:19:27.266,1812
30/09/2019 10:19:27.270,1810
30/09/2019 10:19:27.274,1804
30/09/2019 10:19:27.278,1790
30/09/2019 10:19:27.282,1783
30/09/2019 10:19:27.286,1785
30/09/2019 10:19:27.290,1784
30/09/2019 10:19:27.294,1777
30/09/2019 10:19:27.298,1772
30/09/2019 10:19:27.302,1769
30/09/2019 10:19:27.306,1763
30/09/2019 10:19:27.310,1754
30/09/2019 10:19:27.314,1748
30/09/2019 10:19:27.318,1748
30/09/2019 10:19:27.322,1747
30/09/2019 10:19:27.326,1739
30/09/2019 10:19:27.330,1726
30/09/2019 10:19:27.334,1717
30/09/2019 10:19:27.338,1711
30/09/2019 10:19:27.342,1702
30/09/2019 10:19:27.346,1690
30/09/2019 10:19:27.350,1684
30/09/2019 10:19:27.354,1684
30/09/2019 10:19:27.358,1671
30/09/2019 10:19:27.362,1645
30/09/2019 10:19:27.366,1621
30/09/2019 10:19:27.370,1603
30/09/2019 10:19:27.374,1580
30/09/2019 10:19:27.378,1551
30/09/2019 10:19:27.382,1536
30/09/2019 10:19:27.386,1529
30/09/2019 10:19:27.390,1516
30/09/2019 10:19:27.394,1497
30/09/2019 10:19:27.398,1483
30/09/2019 10:19:27.402,1479
30/09/2019 10:19:27.406,1476
30/09/2019 10:19:27.410,1471
30/09/2019 10:19:27.414,1466
30/09/2019 10:19:27.418,1463
30/09/2019 10:19:27.422,1455
30/09/2019 10:19:27.426,1440
30/09/2019 10:19:27.430,1425
30/09/2019 10:19:27.434,1420
30/09/2019 10:19:27.438,1414
30/09/2019 10:19:27.442,1388
30/09/2019 10:19:27.446,1337
30/09/2019 10:19:27.450,1285
30/09/2019 10:19:27.454,1245
30/09/2019 10:19:27.458,1211
30/09/2019 10:19:27.462,1187
30/09/2019 10:19:27.466,1183
30/09/2019 10:19:27.470,1193
30/09/2019 10:19:27.474,1195
30/09/2019 10:19:27.478,1184
30/09/2019 10:19:27.482,1185
30/09/2019 10:19:27.486,1198
30/09/2019 10:19:27.490,1208
30/09/2019 10:19:27.494,1209
30/09/2019 10:19:27.498,1214
30/09/2019 10:19:27.502,1227
30/09/2019 10:19:27.506,1237
30/09/2019 10:19:27.510,1242
30/09/2019 10:19:27.514,1247
30/09/2019 10:19:27.518,1258
30/09/2019 10:19:27.522,1272
30/09/2019 10:19:27.526,1277
30/09/2019 10:19:27.530,1278
30/09/2019 10:19:27.534,1289
30/09/2019 10:19:27.538,1306
30/09/2019 10:19:27.542,1317
30/09/2019 10:19:27.546,1318
30/09/2019 10:19:27.550,1327
30/09/2019 10:19:27.554,1342
30/09/2019 10:19:27.558,1349
30/09/2019 10:19:27.562,1344
30/09/2019 10:19:27.566,1349
30/09/2019 10:19:27.570,1366
30/09/2019 10:19:27.574,1376
30/09/2019 10:19:27.578,1371
30/09/2019 10:19:27.582,1377
30/09/2019 10:19:27.586,1394
30/09/2019 10:19:27.590,1405
30/09/2019 10:19:27.594,1410
30/09/2019 10:19:27.598,1420
30/09/2019 10:19:27.602,1439
30/09/2019 10:19:27.606,1453
30/09/2019 10:19:27.610,1459
30/09/2019 10:19:27.614,1465
30/09/2019 10:19:27.618,1474
30/09/2019 10:19:27.622,1485
30/09/2019 10:19:27.626,1488
30/09/2019 10:19:27.630,1488
30/09/2019 10:19:27.634,1497
30/09/2019 10:19:27.638,1514
30/09/2019 10:19:27.642,1525
30/09/2019 10:19:27.646,1525
30/09/2019 10:19:27.650,1534
30/09/2019 10:19:27.654,1553
30/09/2019 10:19:27.658,1563
30/09/2019 10:19:27.662,1561
30/09/2019 10:19:27.666,1567
30/09/2019 10:19:27.670,1585
30/09/2019 10:19:27.674,1593
30/09/2019 10:19:27.678,1588
30/09/2019 10:19:27.682,1593
30/09/2019 10:19:27.686,1608
30/09/2019 10:19:27.690,1615
30/09/2019 10:19:27.694,1612
30/09/2019 10:19:27.698,1613
30/09/2019 10:19:27.702,1624
30/09/2019 10:19:27.706,1630
30/09/2019 10:19:27.710,1631
30/09/2019 10:19:27.714,1632
30/09/2019 10:19:27.718,1638
30/09/2019 10:19:27.722,1646
30/09/2019 10:19:27.726,1644
30/09/2019 10:19:27.730,1638
30/09/2019 10:19:27.734,1639
30/09/2019 10:19:27.738,1646
30/09/2019 10:19:27.742,1645
30/09/2019 10:19:27.746,1633
30/09/2019 10:19:27.750,1627
30/09/2019 10:19:27.754,1633
30/09/2019 10:19:27.758,1632
30/09/2019 10:19:27.762,1621
30/09/2019 10:19:27.766,1620
30/09/2019 10:19:27.770,1631
30/09/2019 10:19:27.774,1633
30/09/2019 10:19:27.778,1621
30/09/2019 10:19:27.782,1621
30/09/2019 10:19:27.786,1638
30/09/2019 10:19:27.790,1654
30/09/2019 10:19:27.794,1665
30/09/2019 10:19:27.798,1680
30/09/2019 10:19:27.802,1698
30/09/2019 10:19:27.806,1705
30/09/2019 10:19:27.810,1698
30/09/2019 10:19:27.814,1687
30/09/2019 10:19:27.818,1681
30/09/2019 10:19:27.822,1680
30/09/2019 10:19:27.826,1675
30/09/2019 10:19:27.830,1670
30/09/2019 10:19:27.834,1676
30/09/2019 10:19:27.838,1687
30/09/2019 10:19:27.842,1692
30/09/2019 10:19:27.846,1687
30/09/2019 10:19:27.850,1693
30/09/2019 10:19:27.854,1709
30/09/2019 10:19:27.858,1719
30/09/2019 10:19:27.862,1718
30/09/2019 10:19:27.866,1727
30/09/2019 10:19:27.870,1748
30/09/2019 10:19:27.874,1751
30/09/2019 10:19:27.878,1729
30/09/2019 10:19:27.882,1713
30/09/2019 10:19:27.886,1717
30/09/2019 10:19:27.890,1735
30/09/2019 10:19:27.894,1787
30/09/2019 10:19:27.898,1894
30/09/2019 10:19:27.902,2048
30/09/2019 10:19:27.906,2214
30/09/2019 10:19:27.910,2371
30/09/2019 10:19:27.914,2513
30/09/2019 10:19:27.918,2633
30/09/2019 10:19:27.922,2719
30/09/2019 10:19:27.926,2768
30/09/2019 10:19:27.930,2783
30/09/2019 10:19:27.934,2776
30/09/2019 10:19:27.938,2753
30/09/2019 10:19:27.942,2711
30/09/2019 10:19:27.946,2649
30/09/2019 10:19:27.950,2598
30/09/2019 10:19:27.954,2562
30/09/2019 10:19:27.958,2516
30/09/2019 10:19:27.962,2465
30/09/2019 10:19:27.966,2433
30/09/2019 10:19:27.970,2423
30/09/2019 10:19:27.974,2406
30/09/2019 10:19:27.978,2376
30/09/2019 10:19:27.982,2364
30/09/2019 10:19:27.986,2368
30/09/2019 10:19:27.990,2359
30/09/2019 10:19:27.994,2341
30/09/2019 10:19:27.998,2335
30/09/2019 10:19:28.002,2338
30/09/2019 10:19:28.006,2320
30/09/2019 10:19:28.010,2278
30/09/2019 10:19:28.014,2221
30/09/2019 10:19:28.018,2158
30/09/2019 10:19:28.022,2094
30/09/2019 10:19:28.026,2033
30/09/2019 10:19:28.030,1983
30/09/2019 10:19:28.034,1961
30/09/2019 10:19:28.038,1962
30/09/2019 10:19:28.042,1967
30/09/2019 10:19:28.046,1960
30/09/2019 10:19:28.050,1959
30/09/2019 10:19:28.054,1972
30/09/2019 10:19:28.058,1977
30/09/2019 10:19:28.062,1971
30/09/2019 10:19:28.066,1987
30/09/2019 10:19:28.070,2043
30/09/2019 10:19:28.074,2113
30/09/2019 10:19:28.078,2174
30/09/2019 10:19:28.082,2232
30/09/2019 10:19:28.086,2285
30/09/2019 10:19:28.090,2308
30/09/2019 10:19:28.094,2299
30/09/2019 10:19:28.098,2287
30/09/2019 10:19:28.102,2288
30/09/2019 10:19:28.106,2283
30/09/2019 10:19:28.110,2267
30/09/2019 10:19:28.114,2246
30/09/2019 10:19:28.118,2231
30/09/2019 10:19:28.122,2220
30/09/2019 10:19:28.126,2206
30/09/2019 10:19:28.130,2192
30/09/2019 10:19:28.134,2189
30/09/2019 10:19:28.138,2195
30/09/2019 10:19:28.142,2198
30/09/2019 10:19:28.146,2199
30/09/2019 10:19:28.150,2210
30/09/2019 10:19:28.154,2232
30/09/2019 10:19:28.158,2243
30/09/2019 10:19:28.162,2237
30/09/2019 10:19:28.166,2238
30/09/2019 10:19:28.170,2250
30/09/2019 10:19:28.174,2252
30/09/2019 10:19:28.178,2240
30/09/2019 10:19:28.182,2238
30/09/2019 10:19:28.186,2242
30/09/2019 10:19:28.190,2229
30/09/2019 10:19:28.194,2204
30/09/2019 10:19:28.198,2186
30/09/2019 10:19:28.202,2182
30/09/2019 10:19:28.206,2180
30/09/2019 10:19:28.210,2178
30/09/2019 10:19:28.214,2186
30/09/2019 10:19:28.218,2201
30/09/2019 10:19:28.222,2214
30/09/2019 10:19:28.226,2215
30/09/2019 10:19:28.230,2210
30/09/2019 10:19:28.234,2213
30/09/2019 10:19:28.238,2215
30/09/2019 10:19:28.242,2206
30/09/2019 10:19:28.246,2184
30/09/2019 10:19:28.250,2171
30/09/2019 10:19:28.254,2170
30/09/2019 10:19:28.258,2160
30/09/2019 10:19:28.262,2140
30/09/2019 10:19:28.266,2132
30/09/2019 10:19:28.270,2130
30/09/2019 10:19:28.274,2114
30/09/2019 10:19:28.278,2080
30/09/2019 10:19:28.282,2061
30/09/2019 10:19:28.286,2057
30/09/2019 10:19:28.290,2044
30/09/2019 10:19:28.294,2018
30/09/2019 10:19:28.298,2006
30/09/2019 10:19:28.302,2008
30/09/2019 10:19:28.306,2004
30/09/2019 10:19:28.310,1994
30/09/2019 10:19:28.314,1986
30/09/2019 10:19:28.318,1979
30/09/2019 10:19:28.322,1967
30/09/2019 10:19:28.326,1947
30/09/2019 10:19:28.330,1930
30/09/2019 10:19:28.334,1932
30/09/2019 10:19:28.338,1941
30/09/2019 10:19:28.342,1942
30/09/2019 10:19:28.346,1923
30/09/2019 10:19:28.350,1911
30/09/2019 10:19:28.354,1918
30/09/2019 10:19:28.358,1926
30/09/2019 10:19:28.362,1935
30/09/2019 10:19:28.366,1967
30/09/2019 10:19:28.370,2025
30/09/2019 10:19:28.374,2073
30/09/2019 10:19:28.378,2102
30/09/2019 10:19:28.382,2144
30/09/2019 10:19:28.386,2197
30/09/2019 10:19:28.390,2233
30/09/2019 10:19:28.394,2247
30/09/2019 10:19:28.398,2264
30/09/2019 10:19:28.402,2285
30/09/2019 10:19:28.406,2286
30/09/2019 10:19:28.410,2272
30/09/2019 10:19:28.414,2265
30/09/2019 10:19:28.418,2268
30/09/2019 10:19:28.422,2272
30/09/2019 10:19:28.426,2264
30/09/2019 10:19:28.430,2251
30/09/2019 10:19:28.434,2248
30/09/2019 10:19:28.438,2249
30/09/2019 10:19:28.442,2245
30/09/2019 10:19:28.446,2240
30/09/2019 10:19:28.450,2251
30/09/2019 10:19:28.454,2274
30/09/2019 10:19:28.458,2282
30/09/2019 10:19:28.462,2274
30/09/2019 10:19:28.466,2277
30/09/2019 10:19:28.470,2300
30/09/2019 10:19:28.474,2312
30/09/2019 10:19:28.478,2307
30/09/2019 10:19:28.482,2310
30/09/2019 10:19:28.486,2329
30/09/2019 10:19:28.490,2339
30/09/2019 10:19:28.494,2337
30/09/2019 10:19:28.498,2342
30/09/2019 10:19:28.502,2360
30/09/2019 10:19:28.506,2372
30/09/2019 10:19:28.510,2371
30/09/2019 10:19:28.514,2372
30/09/2019 10:19:28.518,2376
30/09/2019 10:19:28.522,2384
30/09/2019 10:19:28.526,2380
30/09/2019 10:19:28.530,2366
30/09/2019 10:19:28.534,2364
30/09/2019 10:19:28.538,2377
30/09/2019 10:19:28.542,2392
30/09/2019 10:19:28.546,2401
30/09/2019 10:19:28.550,2428
30/09/2019 10:19:28.554,2477
30/09/2019 10:19:28.558,2520
30/09/2019 10:19:28.562,2549
30/09/2019 10:19:28.566,2580
30/09/2019 10:19:28.570,2618
30/09/2019 10:19:28.574,2630
30/09/2019 10:19:28.578,2615
30/09/2019 10:19:28.582,2606
30/09/2019 10:19:28.586,2606
30/09/2019 10:19:28.590,2593
30/09/2019 10:19:28.594,2577
30/09/2019 10:19:28.598,2577
30/09/2019 10:19:28.602,2597
30/09/2019 10:19:28.606,2613
30/09/2019 10:19:28.610,2620
30/09/2019 10:19:28.614,2621
30/09/2019 10:19:28.618,2613
30/09/2019 10:19:28.622,2593
30/09/2019 10:19:28.626,2559
30/09/2019 10:19:28.630,2515
30/09/2019 10:19:28.634,2465
30/09/2019 10:19:28.638,2394
30/09/2019 10:19:28.642,2292
30/09/2019 10:19:28.646,2172
30/09/2019 10:19:28.650,2082
30/09/2019 10:19:28.654,2035
30/09/2019 10:19:28.658,2015
30/09/2019 10:19:28.662,2020
30/09/2019 10:19:28.666,2042
30/09/2019 10:19:28.670,2045
30/09/2019 10:19:28.674,1993
30/09/2019 10:19:28.678,1891
30/09/2019 10:19:28.682,1803
30/09/2019 10:19:28.686,1749
30/09/2019 10:19:28.690,1714
30/09/2019 10:19:28.694,1707
30/09/2019 10:19:28.698,1740
30/09/2019 10:19:28.702,1792
30/09/2019 10:19:28.706,1817
30/09/2019 10:19:28.710,1812
30/09/2019 10:19:28.714,1798
30/09/2019 10:19:28.718,1787
30/09/2019 10:19:28.722,1769
30/09/2019 10:19:28.726,1748
30/09/2019 10:19:28.730,1744
30/09/2019 10:19:28.734,1765
30/09/2019 10:19:28.738,1797
30/09/2019 10:19:28.742,1818
30/09/2019 10:19:28.746,1823
30/09/2019 10:19:28.750,1837
30/09/2019 10:19:28.754,1860
30/09/2019 10:19:28.758,1866
30/09/2019 10:19:28.762,1849
30/09/2019 10:19:28.766,1845
30/09/2019 10:19:28.770,1863
30/09/2019 10:19:28.774,1865
30/09/2019 10:19:28.778,1840
30/09/2019 10:19:28.782,1836
30/09/2019 10:19:28.786,1852
30/09/2019 10:19:28.790,1855
30/09/2019 10:19:28.794,1842
30/09/2019 10:19:28.798,1839
30/09/2019 10:19:28.802,1850
30/09/2019 10:19:28.806,1856
30/09/2019 10:19:28.810,1860
30/09/2019 10:19:28.814,1881
30/09/2019 10:19:28.818,1925
30/09/2019 10:19:28.822,1992
30/09/2019 10:19:28.826,2060
30/09/2019 10:19:28.830,2128
30/09/2019 10:19:28.834,2200
30/09/2019 10:19:28.838,2269
30/09/2019 10:19:28.842,2308
30/09/2019 10:19:28.846,2312
30/09/2019 10:19:28.850,2317
30/09/2019 10:19:28.854,2338
30/09/2019 10:19:28.858,2351
30/09/2019 10:19:28.862,2350
30/09/2019 10:19:28.866,2360
30/09/2019 10:19:28.870,2380
30/09/2019 10:19:28.874,2373
30/09/2019 10:19:28.878,2340
30/09/2019 10:19:28.882,2328
30/09/2019 10:19:28.886,2342
30/09/2019 10:19:28.890,2351
30/09/2019 10:19:28.894,2350
30/09/2019 10:19:28.898,2360
30/09/2019 10:19:28.902,2382
30/09/2019 10:19:28.906,2386
30/09/2019 10:19:28.910,2380
30/09/2019 10:19:28.914,2381
30/09/2019 10:19:28.918,2389
30/09/2019 10:19:28.922,2389
30/09/2019 10:19:28.926,2372
30/09/2019 10:19:28.930,2353
30/09/2019 10:19:28.934,2345
30/09/2019 10:19:28.938,2336
30/09/2019 10:19:28.942,2313
30/09/2019 10:19:28.946,2283
30/09/2019 10:19:28.950,2271
30/09/2019 10:19:28.954,2269
30/09/2019 10:19:28.958,2239
30/09/2019 10:19:28.962,2190
30/09/2019 10:19:28.966,2156
30/09/2019 10:19:28.970,2138
30/09/2019 10:19:28.974,2095
30/09/2019 10:19:28.978,2019
30/09/2019 10:19:28.982,1953
30/09/2019 10:19:28.986,1901
30/09/2019 10:19:28.990,1841
30/09/2019 10:19:28.994,1790
30/09/2019 10:19:28.998,1783
30/09/2019 10:19:29.002,1812
30/09/2019 10:19:29.006,1832
30/09/2019 10:19:29.010,1831
30/09/2019 10:19:29.014,1823
30/09/2019 10:19:29.018,1819
30/09/2019 10:19:29.022,1812
30/09/2019 10:19:29.026,1792
30/09/2019 10:19:29.030,1769
30/09/2019 10:19:29.034,1765
30/09/2019 10:19:29.038,1771
30/09/2019 10:19:29.042,1765
30/09/2019 10:19:29.046,1740
30/09/2019 10:19:29.050,1728
30/09/2019 10:19:29.054,1738
30/09/2019 10:19:29.058,1738
30/09/2019 10:19:29.062,1719
30/09/2019 10:19:29.066,1709
30/09/2019 10:19:29.070,1721
30/09/2019 10:19:29.074,1729
30/09/2019 10:19:29.078,1719
30/09/2019 10:19:29.082,1726
30/09/2019 10:19:29.086,1753
30/09/2019 10:19:29.090,1771
30/09/2019 10:19:29.094,1763
30/09/2019 10:19:29.098,1755
30/09/2019 10:19:29.102,1765
30/09/2019 10:19:29.106,1773
30/09/2019 10:19:29.110,1772
30/09/2019 10:19:29.114,1772
30/09/2019 10:19:29.118,1782
30/09/2019 10:19:29.122,1791
30/09/2019 10:19:29.126,1788
30/09/2019 10:19:29.130,1776
30/09/2019 10:19:29.134,1774
30/09/2019 10:19:29.138,1779
30/09/2019 10:19:29.142,1776
30/09/2019 10:19:29.146,1763
30/09/2019 10:19:29.150,1760
30/09/2019 10:19:29.154,1768
30/09/2019 10:19:29.158,1765
30/09/2019 10:19:29.162,1744
30/09/2019 10:19:29.166,1732
30/09/2019 10:19:29.170,1742
30/09/2019 10:19:29.174,1755
30/09/2019 10:19:29.178,1762
30/09/2019 10:19:29.182,1785
30/09/2019 10:19:29.186,1820
30/09/2019 10:19:29.190,1846
30/09/2019 10:19:29.194,1851
30/09/2019 10:19:29.198,1858
30/09/2019 10:19:29.202,1881
30/09/2019 10:19:29.206,1917
30/09/2019 10:19:29.210,1953
30/09/2019 10:19:29.214,1991
30/09/2019 10:19:29.218,2023
30/09/2019 10:19:29.222,2045
30/09/2019 10:19:29.226,2048
30/09/2019 10:19:29.230,2034
30/09/2019 10:19:29.234,2018
30/09/2019 10:19:29.238,2002
30/09/2019 10:19:29.242,1971
30/09/2019 10:19:29.246,1924
30/09/2019 10:19:29.250,1877
30/09/2019 10:19:29.254,1831
30/09/2019 10:19:29.258,1775
30/09/2019 10:19:29.262,1709
30/09/2019 10:19:29.266,1652
30/09/2019 10:19:29.270,1613
30/09/2019 10:19:29.274,1576
30/09/2019 10:19:29.278,1541
30/09/2019 10:19:29.282,1525
30/09/2019 10:19:29.286,1520
30/09/2019 10:19:29.290,1507
30/09/2019 10:19:29.294,1484
30/09/2019 10:19:29.298,1465
30/09/2019 10:19:29.302,1449
30/09/2019 10:19:29.306,1424
30/09/2019 10:19:29.310,1398
30/09/2019 10:19:29.314,1388
30/09/2019 10:19:29.318,1393
30/09/2019 10:19:29.322,1407
30/09/2019 10:19:29.326,1421
30/09/2019 10:19:29.330,1436
30/09/2019 10:19:29.334,1455
30/09/2019 10:19:29.338,1471
30/09/2019 10:19:29.342,1479
30/09/2019 10:19:29.346,1477
30/09/2019 10:19:29.350,1478
30/09/2019 10:19:29.354,1481
30/09/2019 10:19:29.358,1474
30/09/2019 10:19:29.362,1454
30/09/2019 10:19:29.366,1438
30/09/2019 10:19:29.370,1434
30/09/2019 10:19:29.374,1429
30/09/2019 10:19:29.378,1420
30/09/2019 10:19:29.382,1427
30/09/2019 10:19:29.386,1450
30/09/2019 10:19:29.390,1474
30/09/2019 10:19:29.394,1494
30/09/2019 10:19:29.398,1523
30/09/2019 10:19:29.402,1554
30/09/2019 10:19:29.406,1567
30/09/2019 10:19:29.410,1558
30/09/2019 10:19:29.414,1537
30/09/2019 10:19:29.418,1509
30/09/2019 10:19:29.422,1476
30/09/2019 10:19:29.426,1442
30/09/2019 10:19:29.430,1417
30/09/2019 10:19:29.434,1407
30/09/2019 10:19:29.438,1406
30/09/2019 10:19:29.442,1406
30/09/2019 10:19:29.446,1402
30/09/2019 10:19:29.450,1404
30/09/2019 10:19:29.454,1410
30/09/2019 10:19:29.458,1409
30/09/2019 10:19:29.462,1398
30/09/2019 10:19:29.466,1393
30/09/2019 10:19:29.470,1398
30/09/2019 10:19:29.474,1403
30/09/2019 10:19:29.478,1403
30/09/2019 10:19:29.482,1411
30/09/2019 10:19:29.486,1426
30/09/2019 10:19:29.490,1435
30/09/2019 10:19:29.494,1440
30/09/2019 10:19:29.498,1458
30/09/2019 10:19:29.502,1501
30/09/2019 10:19:29.506,1560
30/09/2019 10:19:29.510,1626
30/09/2019 10:19:29.514,1694
30/09/2019 10:19:29.518,1756
30/09/2019 10:19:29.522,1806
30/09/2019 10:19:29.526,1837
30/09/2019 10:19:29.530,1855
30/09/2019 10:19:29.534,1875
30/09/2019 10:19:29.538,1895
30/09/2019 10:19:29.542,1908
30/09/2019 10:19:29.546,1908
30/09/2019 10:19:29.550,1908
30/09/2019 10:19:29.554,1910
30/09/2019 10:19:29.558,1913
30/09/2019 10:19:29.562,1918
30/09/2019 10:19:29.566,1934
30/09/2019 10:19:29.570,1966
30/09/2019 10:19:29.574,2002
30/09/2019 10:19:29.578,2039
30/09/2019 10:19:29.582,2081
30/09/2019 10:19:29.586,2130
30/09/2019 10:19:29.590,2172
30/09/2019 10:19:29.594,2201
30/09/2019 10:19:29.598,2221
30/09/2019 10:19:29.602,2230
30/09/2019 10:19:29.606,2227
30/09/2019 10:19:29.610,2214
30/09/2019 10:19:29.614,2199
30/09/2019 10:19:29.618,2184
30/09/2019 10:19:29.622,2173
30/09/2019 10:19:29.626,2166
30/09/2019 10:19:29.630,2161
30/09/2019 10:19:29.634,2157
30/09/2019 10:19:29.638,2142
30/09/2019 10:19:29.642,2114
30/09/2019 10:19:29.646,2081
30/09/2019 10:19:29.650,2061
30/09/2019 10:19:29.654,2066
30/09/2019 10:19:29.658,2091
30/09/2019 10:19:29.662,2127
30/09/2019 10:19:29.666,2161
30/09/2019 10:19:29.670,2183
30/09/2019 10:19:29.674,2187
30/09/2019 10:19:29.678,2177
30/09/2019 10:19:29.682,2162
30/09/2019 10:19:29.686,2144
30/09/2019 10:19:29.690,2122
30/09/2019 10:19:29.694,2093
30/09/2019 10:19:29.698,2068
30/09/2019 10:19:29.702,2055
30/09/2019 10:19:29.706,2048
30/09/2019 10:19:29.710,2042
30/09/2019 10:19:29.714,2036
30/09/2019 10:19:29.718,2032
30/09/2019 10:19:29.722,2028
30/09/2019 10:19:29.726,2020
30/09/2019 10:19:29.730,2014
30/09/2019 10:19:29.734,2004
30/09/2019 10:19:29.738,1988
30/09/2019 10:19:29.742,1963
30/09/2019 10:19:29.746,1933
30/09/2019 10:19:29.750,1907
30/09/2019 10:19:29.754,1883
30/09/2019 10:19:29.758,1860
30/09/2019 10:19:29.762,1839
30/09/2019 10:19:29.766,1825
30/09/2019 10:19:29.770,1816
30/09/2019 10:19:29.774,1811
30/09/2019 10:19:29.778,1804
30/09/2019 10:19:29.782,1801
30/09/2019 10:19:29.786,1801
30/09/2019 10:19:29.790,1797
30/09/2019 10:19:29.794,1785
30/09/2019 10:19:29.798,1767
30/09/2019 10:19:29.802,1740
30/09/2019 10:19:29.806,1702
30/09/2019 10:19:29.810,1658
30/09/2019 10:19:29.814,1621
30/09/2019 10:19:29.818,1599
30/09/2019 10:19:29.822,1590
30/09/2019 10:19:29.826,1581
30/09/2019 10:19:29.830,1564
30/09/2019 10:19:29.834,1536
30/09/2019 10:19:29.838,1503
30/09/2019 10:19:29.842,1472
30/09/2019 10:19:29.846,1445
30/09/2019 10:19:29.850,1425
30/09/2019 10:19:29.854,1412
30/09/2019 10:19:29.858,1395
30/09/2019 10:19:29.862,1377
30/09/2019 10:19:29.866,1364
30/09/2019 10:19:29.870,1361
30/09/2019 10:19:29.874,1361
30/09/2019 10:19:29.878,1356
30/09/2019 10:19:29.882,1347
30/09/2019 10:19:29.886,1342
30/09/2019 10:19:29.890,1344
30/09/2019 10:19:29.894,1351
30/09/2019 10:19:29.898,1358
30/09/2019 10:19:29.902,1355
30/09/2019 10:19:29.906,1338
30/09/2019 10:19:29.910,1312
30/09/2019 10:19:29.914,1287
30/09/2019 10:19:29.918,1277
30/09/2019 10:19:29.922,1280
30/09/2019 10:19:29.926,1284
30/09/2019 10:19:29.930,1276
30/09/2019 10:19:29.934,1245
30/09/2019 10:19:29.938,1192
30/09/2019 10:19:29.942,1128
30/09/2019 10:19:29.946,1065
30/09/2019 10:19:29.950,1009
30/09/2019 10:19:29.954,967
30/09/2019 10:19:29.958,933
30/09/2019 10:19:29.962,910
30/09/2019 10:19:29.966,898
30/09/2019 10:19:29.970,898
30/09/2019 10:19:29.974,911
30/09/2019 10:19:29.978,930
30/09/2019 10:19:29.982,947
30/09/2019 10:19:29.986,958
30/09/2019 10:19:29.990,962
30/09/2019 10:19:29.994,966
30/09/2019 10:19:29.998,970
30/09/2019 10:19:30.002,980
30/09/2019 10:19:30.006,990
30/09/2019 10:19:30.010,1002
30/09/2019 10:19:30.014,1009
30/09/2019 10:19:30.018,1012
30/09/2019 10:19:30.022,1012
30/09/2019 10:19:30.026,1012
30/09/2019 10:19:30.030,1017
30/09/2019 10:19:30.034,1026
30/09/2019 10:19:30.038,1037
30/09/2019 10:19:30.042,1047
30/09/2019 10:19:30.046,1053
30/09/2019 10:19:30.050,1054
30/09/2019 10:19:30.054,1051
30/09/2019 10:19:30.058,1050
30/09/2019 10:19:30.062,1051
30/09/2019 10:19:30.066,1055
30/09/2019 10:19:30.070,1055
30/09/2019 10:19:30.074,1051
30/09/2019 10:19:30.078,1042
30/09/2019 10:19:30.082,1037
30/09/2019 10:19:30.086,1038
30/09/2019 10:19:30.090,1051
30/09/2019 10:19:30.094,1071
30/09/2019 10:19:30.098,1090
30/09/2019 10:19:30.102,1100
30/09/2019 10:19:30.106,1095
30/09/2019 10:19:30.110,1081
30/09/2019 10:19:30.114,1068
30/09/2019 10:19:30.118,1064
30/09/2019 10:19:30.122,1075
30/09/2019 10:19:30.126,1100
30/09/2019 10:19:30.130,1129
30/09/2019 10:19:30.134,1155
30/09/2019 10:19:30.138,1170
30/09/2019 10:19:30.142,1172
30/09/2019 10:19:30.146,1164
30/09/2019 10:19:30.150,1152
30/09/2019 10:19:30.154,1144
30/09/2019 10:19:30.158,1139
30/09/2019 10:19:30.162,1141
30/09/2019 10:19:30.166,1146
30/09/2019 10:19:30.170,1154
30/09/2019 10:19:30.174,1164
30/09/2019 10:19:30.178,1173
30/09/2019 10:19:30.182,1186
30/09/2019 10:19:30.186,1199
30/09/2019 10:19:30.190,1214
30/09/2019 10:19:30.194,1245
30/09/2019 10:19:30.198,1273
30/09/2019 10:19:30.202,1265
30/09/2019 10:19:30.206,1204
30/09/2019 10:19:30.210,1101
30/09/2019 10:19:30.214,986
30/09/2019 10:19:30.218,921
30/09/2019 10:19:30.222,954
30/09/2019 10:19:30.226,1091
30/09/2019 10:19:30.230,1301
30/09/2019 10:19:30.234,1530
30/09/2019 10:19:30.238,1724
30/09/2019 10:19:30.242,1852
30/09/2019 10:19:30.246,1902
30/09/2019 10:19:30.250,1898
30/09/2019 10:19:30.254,1867
30/09/2019 10:19:30.258,1824
30/09/2019 10:19:30.262,1806
30/09/2019 10:19:30.266,1799
30/09/2019 10:19:30.270,1802
30/09/2019 10:19:30.274,1811
30/09/2019 10:19:30.278,1836
30/09/2019 10:19:30.282,1916
30/09/2019 10:19:30.286,2019
30/09/2019 10:19:30.290,2126
30/09/2019 10:19:30.294,2222
30/09/2019 10:19:30.298,2307
30/09/2019 10:19:30.302,2412
30/09/2019 10:19:30.306,2560
30/09/2019 10:19:30.310,2746
30/09/2019 10:19:30.314,2927
30/09/2019 10:19:30.318,3067
30/09/2019 10:19:30.322,3133
30/09/2019 10:19:30.326,3153
30/09/2019 10:19:30.330,3156
30/09/2019 10:19:30.334,3156
30/09/2019 10:19:30.338,3166
30/09/2019 10:19:30.342,3155
30/09/2019 10:19:30.346,3120
30/09/2019 10:19:30.350,3077
30/09/2019 10:19:30.354,3038
30/09/2019 10:19:30.358,3011
30/09/2019 10:19:30.362,2994
30/09/2019 10:19:30.366,2983
30/09/2019 10:19:30.370,2975
30/09/2019 10:19:30.374,2966
30/09/2019 10:19:30.378,2955
30/09/2019 10:19:30.382,2949
30/09/2019 10:19:30.386,2945
30/09/2019 10:19:30.390,2949
30/09/2019 10:19:30.394,2955
30/09/2019 10:19:30.398,2950
30/09/2019 10:19:30.402,2939
30/09/2019 10:19:30.406,2923
30/09/2019 10:19:30.410,2909
30/09/2019 10:19:30.414,2910
30/09/2019 10:19:30.418,2928
30/09/2019 10:19:30.422,2962
30/09/2019 10:19:30.426,2997
30/09/2019 10:19:30.430,3033
30/09/2019 10:19:30.434,3063
30/09/2019 10:19:30.438,3097
30/09/2019 10:19:30.442,3131
30/09/2019 10:19:30.446,3162
30/09/2019 10:19:30.450,3184
30/09/2019 10:19:30.454,3185
30/09/2019 10:19:30.458,3172
30/09/2019 10:19:30.462,3158
30/09/2019 10:19:30.466,3150
30/09/2019 10:19:30.470,3146
30/09/2019 10:19:30.474,3134
30/09/2019 10:19:30.478,3110
30/09/2019 10:19:30.482,3068
30/09/2019 10:19:30.486,3031
30/09/2019 10:19:30.490,3006
30/09/2019 10:19:30.494,3012
30/09/2019 10:19:30.498,3041
30/09/2019 10:19:30.502,3082
30/09/2019 10:19:30.506,3123
30/09/2019 10:19:30.510,3155
30/09/2019 10:19:30.514,3181
30/09/2019 10:19:30.518,3203
30/09/2019 10:19:30.522,3220
30/09/2019 10:19:30.526,3231
30/09/2019 10:19:30.530,3231
30/09/2019 10:19:30.534,3220
30/09/2019 10:19:30.538,3195
30/09/2019 10:19:30.542,3163
30/09/2019 10:19:30.546,3130
30/09/2019 10:19:30.550,3106
30/09/2019 10:19:30.554,3090
30/09/2019 10:19:30.558,3089
30/09/2019 10:19:30.562,3093
30/09/2019 10:19:30.566,3095
30/09/2019 10:19:30.570,3094
30/09/2019 10:19:30.574,3092
30/09/2019 10:19:30.578,3090
30/09/2019 10:19:30.582,3091
30/09/2019 10:19:30.586,3098
30/09/2019 10:19:30.590,3105
30/09/2019 10:19:30.594,3107
30/09/2019 10:19:30.598,3103
30/09/2019 10:19:30.602,3086
30/09/2019 10:19:30.606,3068
30/09/2019 10:19:30.610,3049
30/09/2019 10:19:30.614,3042
30/09/2019 10:19:30.618,3035
30/09/2019 10:19:30.622,3033
30/09/2019 10:19:30.626,3026
30/09/2019 10:19:30.630,3016
30/09/2019 10:19:30.634,3003
30/09/2019 10:19:30.638,2991
30/09/2019 10:19:30.642,2982
30/09/2019 10:19:30.646,2969
30/09/2019 10:19:30.650,2954
30/09/2019 10:19:30.654,2942
30/09/2019 10:19:30.658,2932
30/09/2019 10:19:30.662,2928
30/09/2019 10:19:30.666,2931
30/09/2019 10:19:30.670,2936
30/09/2019 10:19:30.674,2931
30/09/2019 10:19:30.678,2921
30/09/2019 10:19:30.682,2904
30/09/2019 10:19:30.686,2884
30/09/2019 10:19:30.690,2865
30/09/2019 10:19:30.694,2856
30/09/2019 10:19:30.698,2842
30/09/2019 10:19:30.702,2829
30/09/2019 10:19:30.706,2810
30/09/2019 10:19:30.710,2791
30/09/2019 10:19:30.714,2776
30/09/2019 10:19:30.718,2768
30/09/2019 10:19:30.722,2770
30/09/2019 10:19:30.726,2777
30/09/2019 10:19:30.730,2777
30/09/2019 10:19:30.734,2771
30/09/2019 10:19:30.738,2757
30/09/2019 10:19:30.742,2740
30/09/2019 10:19:30.746,2721
30/09/2019 10:19:30.750,2722
30/09/2019 10:19:30.754,2722
30/09/2019 10:19:30.758,2716
30/09/2019 10:19:30.762,2686
30/09/2019 10:19:30.766,2625
30/09/2019 10:19:30.770,2543
30/09/2019 10:19:30.774,2462
30/09/2019 10:19:30.778,2406
30/09/2019 10:19:30.782,2381
30/09/2019 10:19:30.786,2377
30/09/2019 10:19:30.790,2375
30/09/2019 10:19:30.794,2366
30/09/2019 10:19:30.798,2351
30/09/2019 10:19:30.802,2332
30/09/2019 10:19:30.806,2318
30/09/2019 10:19:30.810,2311
30/09/2019 10:19:30.814,2296
30/09/2019 10:19:30.818,2276
30/09/2019 10:19:30.822,2253
30/09/2019 10:19:30.826,2231
30/09/2019 10:19:30.830,2212
30/09/2019 10:19:30.834,2195
30/09/2019 10:19:30.838,2177
30/09/2019 10:19:30.842,2158
30/09/2019 10:19:30.846,2139
30/09/2019 10:19:30.850,2123
30/09/2019 10:19:30.854,2113
30/09/2019 10:19:30.858,2111
30/09/2019 10:19:30.862,2112
30/09/2019 10:19:30.866,2116
30/09/2019 10:19:30.870,2116
30/09/2019 10:19:30.874,2108
30/09/2019 10:19:30.878,2095
30/09/2019 10:19:30.882,2082
30/09/2019 10:19:30.886,2075
30/09/2019 10:19:30.890,2075
30/09/2019 10:19:30.894,2086
30/09/2019 10:19:30.898,2096
30/09/2019 10:19:30.902,2099
30/09/2019 10:19:30.906,2088
30/09/2019 10:19:30.910,2073
30/09/2019 10:19:30.914,2059
30/09/2019 10:19:30.918,2052
30/09/2019 10:19:30.922,2052
30/09/2019 10:19:30.926,2055
30/09/2019 10:19:30.930,2057
30/09/2019 10:19:30.934,2060
30/09/2019 10:19:30.938,2061
30/09/2019 10:19:30.942,2063
30/09/2019 10:19:30.946,2066
30/09/2019 10:19:30.950,2063
30/09/2019 10:19:30.954,2052
30/09/2019 10:19:30.958,2037
30/09/2019 10:19:30.962,2015
30/09/2019 10:19:30.966,1999
30/09/2019 10:19:30.970,1994
30/09/2019 10:19:30.974,1998
30/09/2019 10:19:30.978,2009
30/09/2019 10:19:30.982,2019
30/09/2019 10:19:30.986,2021
30/09/2019 10:19:30.990,2015
30/09/2019 10:19:30.994,2004
30/09/2019 10:19:30.998,2004
30/09/2019 10:19:31.002,2023
30/09/2019 10:19:31.006,2059
30/09/2019 10:19:31.010,2113
30/09/2019 10:19:31.014,2173
30/09/2019 10:19:31.018,2228
30/09/2019 10:19:31.022,2271
30/09/2019 10:19:31.026,2309
30/09/2019 10:19:31.030,2330
30/09/2019 10:19:31.034,2333
30/09/2019 10:19:31.038,2326
30/09/2019 10:19:31.042,2324
30/09/2019 10:19:31.046,2344
30/09/2019 10:19:31.050,2389
30/09/2019 10:19:31.054,2454
30/09/2019 10:19:31.058,2510
30/09/2019 10:19:31.062,2532
30/09/2019 10:19:31.066,2522
30/09/2019 10:19:31.070,2483
30/09/2019 10:19:31.074,2445
30/09/2019 10:19:31.078,2417
30/09/2019 10:19:31.082,2410
30/09/2019 10:19:31.086,2417
30/09/2019 10:19:31.090,2428
30/09/2019 10:19:31.094,2438
30/09/2019 10:19:31.098,2441
30/09/2019 10:19:31.102,2443
30/09/2019 10:19:31.106,2438
30/09/2019 10:19:31.110,2433
30/09/2019 10:19:31.114,2434
30/09/2019 10:19:31.118,2439
30/09/2019 10:19:31.122,2450
30/09/2019 10:19:31.126,2450
30/09/2019 10:19:31.130,2445
30/09/2019 10:19:31.134,2433
30/09/2019 10:19:31.138,2420
30/09/2019 10:19:31.142,2412
30/09/2019 10:19:31.146,2409
30/09/2019 10:19:31.150,2409
30/09/2019 10:19:31.154,2405
30/09/2019 10:19:31.158,2402
30/09/2019 10:19:31.162,2399
30/09/2019 10:19:31.166,2399
30/09/2019 10:19:31.170,2398
30/09/2019 10:19:31.174,2400
30/09/2019 10:19:31.178,2399
30/09/2019 10:19:31.182,2385
30/09/2019 10:19:31.186,2369
30/09/2019 10:19:31.190,2352
30/09/2019 10:19:31.194,2339
30/09/2019 10:19:31.198,2341
30/09/2019 10:19:31.202,2353
30/09/2019 10:19:31.206,2369
30/09/2019 10:19:31.210,2384
30/09/2019 10:19:31.214,2387
30/09/2019 10:19:31.218,2383
30/09/2019 10:19:31.222,2377
30/09/2019 10:19:31.226,2369
30/09/2019 10:19:31.230,2364
30/09/2019 10:19:31.234,2359
30/09/2019 10:19:31.238,2351
30/09/2019 10:19:31.242,2344
30/09/2019 10:19:31.246,2341
30/09/2019 10:19:31.250,2343
30/09/2019 10:19:31.254,2350
30/09/2019 10:19:31.258,2358
30/09/2019 10:19:31.262,2361
30/09/2019 10:19:31.266,2360
30/09/2019 10:19:31.270,2352
30/09/2019 10:19:31.274,2343
30/09/2019 10:19:31.278,2335
30/09/2019 10:19:31.282,2334
30/09/2019 10:19:31.286,2337
30/09/2019 10:19:31.290,2340
30/09/2019 10:19:31.294,2342
30/09/2019 10:19:31.298,2337
30/09/2019 10:19:31.302,2333
30/09/2019 10:19:31.306,2329
30/09/2019 10:19:31.310,2332
30/09/2019 10:19:31.314,2339
30/09/2019 10:19:31.318,2345
30/09/2019 10:19:31.322,2347
30/09/2019 10:19:31.326,2348
30/09/2019 10:19:31.330,2352
30/09/2019 10:19:31.334,2356
30/09/2019 10:19:31.338,2362
30/09/2019 10:19:31.342,2362
30/09/2019 10:19:31.346,2362
30/09/2019 10:19:31.350,2361
30/09/2019 10:19:31.354,2359
30/09/2019 10:19:31.358,2362
30/09/2019 10:19:31.362,2366
30/09/2019 10:19:31.366,2370
30/09/2019 10:19:31.370,2368
30/09/2019 10:19:31.374,2368
30/09/2019 10:19:31.378,2366
30/09/2019 10:19:31.382,2363
30/09/2019 10:19:31.386,2360
30/09/2019 10:19:31.390,2359
30/09/2019 10:19:31.394,2353
30/09/2019 10:19:31.398,2339
30/09/2019 10:19:31.402,2328
30/09/2019 10:19:31.406,2321
30/09/2019 10:19:31.410,2323
30/09/2019 10:19:31.414,2333
30/09/2019 10:19:31.418,2350
30/09/2019 10:19:31.422,2365
30/09/2019 10:19:31.426,2374
30/09/2019 10:19:31.430,2373
30/09/2019 10:19:31.434,2365
30/09/2019 10:19:31.438,2352
30/09/2019 10:19:31.442,2339
30/09/2019 10:19:31.446,2335
30/09/2019 10:19:31.450,2341
30/09/2019 10:19:31.454,2358
30/09/2019 10:19:31.458,2380
30/09/2019 10:19:31.462,2398
30/09/2019 10:19:31.466,2404
30/09/2019 10:19:31.470,2403
30/09/2019 10:19:31.474,2401
30/09/2019 10:19:31.478,2402
30/09/2019 10:19:31.482,2410
30/09/2019 10:19:31.486,2418
30/09/2019 10:19:31.490,2424
30/09/2019 10:19:31.494,2422
30/09/2019 10:19:31.498,2418
30/09/2019 10:19:31.502,2407
30/09/2019 10:19:31.506,2399
30/09/2019 10:19:31.510,2399
30/09/2019 10:19:31.514,2408
30/09/2019 10:19:31.518,2422
30/09/2019 10:19:31.522,2429
30/09/2019 10:19:31.526,2426
30/09/2019 10:19:31.530,2415
30/09/2019 10:19:31.534,2401
30/09/2019 10:19:31.538,2397
30/09/2019 10:19:31.542,2404
30/09/2019 10:19:31.546,2419
30/09/2019 10:19:31.550,2427
30/09/2019 10:19:31.554,2427
30/09/2019 10:19:31.558,2421
30/09/2019 10:19:31.562,2415
30/09/2019 10:19:31.566,2412
30/09/2019 10:19:31.570,2411
30/09/2019 10:19:31.574,2412
30/09/2019 10:19:31.578,2412
30/09/2019 10:19:31.582,2407
30/09/2019 10:19:31.586,2405
30/09/2019 10:19:31.590,2402
30/09/2019 10:19:31.594,2399
30/09/2019 10:19:31.598,2394
30/09/2019 10:19:31.602,2391
30/09/2019 10:19:31.606,2389
30/09/2019 10:19:31.610,2390
30/09/2019 10:19:31.614,2394
30/09/2019 10:19:31.618,2394
30/09/2019 10:19:31.622,2393
30/09/2019 10:19:31.626,2390
30/09/2019 10:19:31.630,2386
30/09/2019 10:19:31.634,2385
30/09/2019 10:19:31.638,2383
30/09/2019 10:19:31.642,2383
30/09/2019 10:19:31.646,2384
30/09/2019 10:19:31.650,2386
30/09/2019 10:19:31.654,2385
30/09/2019 10:19:31.658,2383
30/09/2019 10:19:31.662,2381
30/09/2019 10:19:31.666,2379
30/09/2019 10:19:31.670,2377
30/09/2019 10:19:31.674,2374
30/09/2019 10:19:31.678,2375
30/09/2019 10:19:31.682,2378
30/09/2019 10:19:31.686,2384
30/09/2019 10:19:31.690,2390
30/09/2019 10:19:31.694,2395
30/09/2019 10:19:31.698,2394
30/09/2019 10:19:31.702,2388
30/09/2019 10:19:31.706,2378
30/09/2019 10:19:31.710,2371
30/09/2019 10:19:31.714,2371
30/09/2019 10:19:31.718,2375
30/09/2019 10:19:31.722,2377
30/09/2019 10:19:31.726,2371
30/09/2019 10:19:31.730,2360
30/09/2019 10:19:31.734,2344
30/09/2019 10:19:31.738,2332
30/09/2019 10:19:31.742,2329
30/09/2019 10:19:31.746,2335
30/09/2019 10:19:31.750,2347
30/09/2019 10:19:31.754,2357
30/09/2019 10:19:31.758,2360
30/09/2019 10:19:31.762,2355
30/09/2019 10:19:31.766,2346
30/09/2019 10:19:31.770,2335
30/09/2019 10:19:31.774,2327
30/09/2019 10:19:31.778,2322
30/09/2019 10:19:31.782,2322
30/09/2019 10:19:31.786,2324
30/09/2019 10:19:31.790,2327
30/09/2019 10:19:31.794,2326
30/09/2019 10:19:31.798,2323
30/09/2019 10:19:31.802,2316
30/09/2019 10:19:31.806,2311
30/09/2019 10:19:31.810,2310
30/09/2019 10:19:31.814,2312
30/09/2019 10:19:31.818,2317
30/09/2019 10:19:31.822,2317
30/09/2019 10:19:31.826,2310
30/09/2019 10:19:31.830,2297
30/09/2019 10:19:31.834,2288
30/09/2019 10:19:31.838,2286
30/09/2019 10:19:31.842,2292
30/09/2019 10:19:31.846,2303
30/09/2019 10:19:31.850,2314
30/09/2019 10:19:31.854,2317
30/09/2019 10:19:31.858,2313
30/09/2019 10:19:31.862,2309
30/09/2019 10:19:31.866,2303
30/09/2019 10:19:31.870,2301
30/09/2019 10:19:31.874,2305
30/09/2019 10:19:31.878,2308
30/09/2019 10:19:31.882,2307
30/09/2019 10:19:31.886,2305
30/09/2019 10:19:31.890,2295
30/09/2019 10:19:31.894,2282
30/09/2019 10:19:31.898,2274
30/09/2019 10:19:31.902,2288
30/09/2019 10:19:31.906,2329
30/09/2019 10:19:31.910,2387
30/09/2019 10:19:31.914,2446
30/09/2019 10:19:31.918,2476
30/09/2019 10:19:31.922,2466
30/09/2019 10:19:31.926,2420
30/09/2019 10:19:31.930,2364
30/09/2019 10:19:31.934,2317
30/09/2019 10:19:31.938,2290
30/09/2019 10:19:31.942,2284
30/09/2019 10:19:31.946,2288
30/09/2019 10:19:31.950,2288
30/09/2019 10:19:31.954,2287
30/09/2019 10:19:31.958,2283
30/09/2019 10:19:31.962,2278
30/09/2019 10:19:31.966,2274
30/09/2019 10:19:31.970,2273
30/09/2019 10:19:31.974,2275
30/09/2019 10:19:31.978,2279
30/09/2019 10:19:31.982,2283
30/09/2019 10:19:31.986,2280
30/09/2019 10:19:31.990,2273
30/09/2019 10:19:31.994,2268
30/09/2019 10:19:31.998,2270
30/09/2019 10:19:32.002,2279
30/09/2019 10:19:32.006,2285
30/09/2019 10:19:32.010,2286
30/09/2019 10:19:32.014,2278
30/09/2019 10:19:32.018,2270
30/09/2019 10:19:32.022,2267
30/09/2019 10:19:32.026,2273
30/09/2019 10:19:32.030,2284
30/09/2019 10:19:32.034,2290
30/09/2019 10:19:32.038,2290
30/09/2019 10:19:32.042,2284
30/09/2019 10:19:32.046,2275
30/09/2019 10:19:32.050,2269
30/09/2019 10:19:32.054,2267
30/09/2019 10:19:32.058,2267
30/09/2019 10:19:32.062,2271
30/09/2019 10:19:32.066,2274
30/09/2019 10:19:32.070,2276
30/09/2019 10:19:32.074,2276
30/09/2019 10:19:32.078,2269
30/09/2019 10:19:32.082,2262
30/09/2019 10:19:32.086,2258
30/09/2019 10:19:32.090,2258
30/09/2019 10:19:32.094,2262
30/09/2019 10:19:32.098,2267
30/09/2019 10:19:32.102,2264
30/09/2019 10:19:32.106,2262
30/09/2019 10:19:32.110,2259
30/09/2019 10:19:32.114,2256
30/09/2019 10:19:32.118,2256
30/09/2019 10:19:32.122,2260
30/09/2019 10:19:32.126,2258
30/09/2019 10:19:32.130,2251
30/09/2019 10:19:32.134,2239
30/09/2019 10:19:32.138,2227
30/09/2019 10:19:32.142,2219
30/09/2019 10:19:32.146,2220
30/09/2019 10:19:32.150,2229
30/09/2019 10:19:32.154,2244
30/09/2019 10:19:32.158,2256
30/09/2019 10:19:32.162,2265
30/09/2019 10:19:32.166,2267
30/09/2019 10:19:32.170,2265
30/09/2019 10:19:32.174,2261
30/09/2019 10:19:32.178,2262
30/09/2019 10:19:32.182,2261
30/09/2019 10:19:32.186,2264
30/09/2019 10:19:32.190,2267
30/09/2019 10:19:32.194,2273
30/09/2019 10:19:32.198,2275
30/09/2019 10:19:32.202,2276
30/09/2019 10:19:32.206,2272
30/09/2019 10:19:32.210,2266
30/09/2019 10:19:32.214,2262
30/09/2019 10:19:32.218,2261
30/09/2019 10:19:32.222,2267
30/09/2019 10:19:32.226,2271
30/09/2019 10:19:32.230,2273
30/09/2019 10:19:32.234,2275
30/09/2019 10:19:32.238,2272
30/09/2019 10:19:32.242,2275
30/09/2019 10:19:32.246,2283
30/09/2019 10:19:32.250,2289
30/09/2019 10:19:32.254,2290
30/09/2019 10:19:32.258,2288
30/09/2019 10:19:32.262,2286
30/09/2019 10:19:32.266,2288
30/09/2019 10:19:32.270,2298
30/09/2019 10:19:32.274,2312
30/09/2019 10:19:32.278,2322
30/09/2019 10:19:32.282,2315
30/09/2019 10:19:32.286,2300
30/09/2019 10:19:32.290,2283
30/09/2019 10:19:32.294,2272
30/09/2019 10:19:32.298,2275
30/09/2019 10:19:32.302,2292
30/09/2019 10:19:32.306,2310
30/09/2019 10:19:32.310,2318
30/09/2019 10:19:32.314,2321
30/09/2019 10:19:32.318,2318
30/09/2019 10:19:32.322,2309
30/09/2019 10:19:32.326,2301
30/09/2019 10:19:32.330,2294
30/09/2019 10:19:32.334,2284
30/09/2019 10:19:32.338,2272
30/09/2019 10:19:32.342,2262
30/09/2019 10:19:32.346,2256
30/09/2019 10:19:32.350,2259
30/09/2019 10:19:32.354,2266
30/09/2019 10:19:32.358,2270
30/09/2019 10:19:32.362,2265
30/09/2019 10:19:32.366,2249
30/09/2019 10:19:32.370,2224
30/09/2019 10:19:32.374,2198
30/09/2019 10:19:32.378,2177
30/09/2019 10:19:32.382,2166
30/09/2019 10:19:32.386,2162
30/09/2019 10:19:32.390,2165
30/09/2019 10:19:32.394,2170
30/09/2019 10:19:32.398,2170
30/09/2019 10:19:32.402,2170
30/09/2019 10:19:32.406,2219
30/09/2019 10:19:32.410,2162
30/09/2019 10:19:32.414,2082
30/09/2019 10:19:32.418,2033
30/09/2019 10:19:32.422,2105
30/09/2019 10:19:32.426,2362
30/09/2019 10:19:32.430,2760
30/09/2019 10:19:32.434,3160
30/09/2019 10:19:32.438,3400
30/09/2019 10:19:32.442,3399
30/09/2019 10:19:32.446,3216
30/09/2019 10:19:32.450,2976
30/09/2019 10:19:32.454,2777
30/09/2019 10:19:32.458,2654
30/09/2019 10:19:32.462,2648
30/09/2019 10:19:32.466,2592
30/09/2019 10:19:32.470,2538
30/09/2019 10:19:32.474,2490
30/09/2019 10:19:32.478,2445
30/09/2019 10:19:32.482,2402
30/09/2019 10:19:32.486,2353
30/09/2019 10:19:32.490,2295
30/09/2019 10:19:32.494,2226
30/09/2019 10:19:32.498,2136
30/09/2019 10:19:32.502,2038
30/09/2019 10:19:32.506,1942
30/09/2019 10:19:32.510,1864
30/09/2019 10:19:32.514,1811
30/09/2019 10:19:32.518,1784
30/09/2019 10:19:32.522,1770
30/09/2019 10:19:32.526,1758
30/09/2019 10:19:32.530,1746
30/09/2019 10:19:32.534,1729
30/09/2019 10:19:32.538,1719
30/09/2019 10:19:32.542,1711
30/09/2019 10:19:32.546,1711
30/09/2019 10:19:32.550,1714
30/09/2019 10:19:32.554,1714
30/09/2019 10:19:32.558,1710
30/09/2019 10:19:32.562,1705
30/09/2019 10:19:32.566,1700
30/09/2019 10:19:32.570,1700
30/09/2019 10:19:32.574,1697
30/09/2019 10:19:32.578,1691
30/09/2019 10:19:32.582,1677
30/09/2019 10:19:32.586,1662
30/09/2019 10:19:32.590,1649
30/09/2019 10:19:32.594,1642
30/09/2019 10:19:32.598,1644
30/09/2019 10:19:32.602,1647
30/09/2019 10:19:32.606,1646
30/09/2019 10:19:32.610,1641
30/09/2019 10:19:32.614,1636
30/09/2019 10:19:32.618,1635
30/09/2019 10:19:32.622,1640
30/09/2019 10:19:32.626,1644
30/09/2019 10:19:32.630,1641
30/09/2019 10:19:32.634,1634
30/09/2019 10:19:32.638,1628
30/09/2019 10:19:32.642,1631
30/09/2019 10:19:32.646,1640
30/09/2019 10:19:32.650,1651
30/09/2019 10:19:32.654,1666
30/09/2019 10:19:32.658,1677
30/09/2019 10:19:32.662,1685
30/09/2019 10:19:32.666,1691
30/09/2019 10:19:32.670,1697
30/09/2019 10:19:32.674,1702
30/09/2019 10:19:32.678,1710
30/09/2019 10:19:32.682,1718
30/09/2019 10:19:32.686,1731
30/09/2019 10:19:32.690,1753
30/09/2019 10:19:32.694,1766
30/09/2019 10:19:32.698,1773
30/09/2019 10:19:32.702,1766
30/09/2019 10:19:32.706,1751
30/09/2019 10:19:32.710,1744
30/09/2019 10:19:32.714,1751
30/09/2019 10:19:32.718,1772
30/09/2019 10:19:32.722,1804
30/09/2019 10:19:32.726,1841
30/09/2019 10:19:32.730,1861
30/09/2019 10:19:32.734,1859
30/09/2019 10:19:32.738,1847
30/09/2019 10:19:32.742,1841
30/09/2019 10:19:32.746,1857
30/09/2019 10:19:32.750,1885
30/09/2019 10:19:32.754,1911
30/09/2019 10:19:32.758,1908
30/09/2019 10:19:32.762,1860
30/09/2019 10:19:32.766,1775
30/09/2019 10:19:32.770,1681
30/09/2019 10:19:32.774,1601
30/09/2019 10:19:32.778,1554
30/09/2019 10:19:32.782,1543
30/09/2019 10:19:32.786,1545
30/09/2019 10:19:32.790,1545
30/09/2019 10:19:32.794,1546
30/09/2019 10:19:32.798,1549
30/09/2019 10:19:32.802,1561
30/09/2019 10:19:32.806,1581
30/09/2019 10:19:32.810,1608
30/09/2019 10:19:32.814,1638
30/09/2019 10:19:32.818,1657
30/09/2019 10:19:32.822,1666
30/09/2019 10:19:32.826,1652
30/09/2019 10:19:32.830,1616
30/09/2019 10:19:32.834,1559
30/09/2019 10:19:32.838,1494
30/09/2019 10:19:32.842,1441
30/09/2019 10:19:32.846,1415
30/09/2019 10:19:32.850,1420
30/09/2019 10:19:32.854,1458
30/09/2019 10:19:32.858,1521
30/09/2019 10:19:32.862,1601
30/09/2019 10:19:32.866,1697
30/09/2019 10:19:32.870,1810
30/09/2019 10:19:32.874,1928
30/09/2019 10:19:32.878,2049
30/09/2019 10:19:32.882,2152
30/09/2019 10:19:32.886,2226
30/09/2019 10:19:32.890,2277
30/09/2019 10:19:32.894,2315
30/09/2019 10:19:32.898,2349
30/09/2019 10:19:32.902,2392
30/09/2019 10:19:32.906,2427
30/09/2019 10:19:32.910,2456
30/09/2019 10:19:32.914,2473
30/09/2019 10:19:32.918,2479
30/09/2019 10:19:32.922,2484
30/09/2019 10:19:32.926,2494
30/09/2019 10:19:32.930,2487
30/09/2019 10:19:32.934,2463
30/09/2019 10:19:32.938,2434
30/09/2019 10:19:32.942,2435
30/09/2019 10:19:32.946,2504
30/09/2019 10:19:32.950,2653
30/09/2019 10:19:32.954,2836
30/09/2019 10:19:32.958,2998
30/09/2019 10:19:32.962,3088
30/09/2019 10:19:32.966,3102
30/09/2019 10:19:32.970,3061
30/09/2019 10:19:32.974,3006
30/09/2019 10:19:32.978,2954
30/09/2019 10:19:32.982,2918
30/09/2019 10:19:32.986,2871
30/09/2019 10:19:32.990,2808
30/09/2019 10:19:32.994,2735
30/09/2019 10:19:32.998,2664
30/09/2019 10:19:33.002,2603
30/09/2019 10:19:33.006,2556
30/09/2019 10:19:33.010,2520
30/09/2019 10:19:33.014,2493
30/09/2019 10:19:33.018,2468
30/09/2019 10:19:33.022,2449
30/09/2019 10:19:33.026,2423
30/09/2019 10:19:33.030,2405
30/09/2019 10:19:33.034,2387
30/09/2019 10:19:33.038,2374
30/09/2019 10:19:33.042,2363
30/09/2019 10:19:33.046,2357
30/09/2019 10:19:33.050,2351
30/09/2019 10:19:33.054,2345
30/09/2019 10:19:33.058,2331
30/09/2019 10:19:33.062,2289
30/09/2019 10:19:33.066,2228
30/09/2019 10:19:33.070,2159
30/09/2019 10:19:33.074,2099
30/09/2019 10:19:33.078,2069
30/09/2019 10:19:33.082,2061
30/09/2019 10:19:33.086,2071
30/09/2019 10:19:33.090,2076
30/09/2019 10:19:33.094,2071
30/09/2019 10:19:33.098,2054
30/09/2019 10:19:33.102,2041
30/09/2019 10:19:33.106,2027
30/09/2019 10:19:33.110,2021
30/09/2019 10:19:33.114,2021
30/09/2019 10:19:33.118,2021
30/09/2019 10:19:33.122,2018
30/09/2019 10:19:33.126,2013
30/09/2019 10:19:33.130,2000
30/09/2019 10:19:33.134,1986
30/09/2019 10:19:33.138,1976
30/09/2019 10:19:33.142,1967
30/09/2019 10:19:33.146,1963
30/09/2019 10:19:33.150,1964
30/09/2019 10:19:33.154,1960
30/09/2019 10:19:33.158,1957
30/09/2019 10:19:33.162,1952
30/09/2019 10:19:33.166,1949
30/09/2019 10:19:33.170,1946
30/09/2019 10:19:33.174,1943
30/09/2019 10:19:33.178,1937
30/09/2019 10:19:33.182,1930
30/09/2019 10:19:33.186,1924
30/09/2019 10:19:33.190,1921
30/09/2019 10:19:33.194,1922
30/09/2019 10:19:33.198,1924
30/09/2019 10:19:33.202,1922
30/09/2019 10:19:33.206,1922
30/09/2019 10:19:33.210,1917
30/09/2019 10:19:33.214,1911
30/09/2019 10:19:33.218,1902
30/09/2019 10:19:33.222,1894
30/09/2019 10:19:33.226,1890
30/09/2019 10:19:33.230,1890
30/09/2019 10:19:33.234,1895
30/09/2019 10:19:33.238,1901
30/09/2019 10:19:33.242,1907
30/09/2019 10:19:33.246,1907
30/09/2019 10:19:33.250,1903
30/09/2019 10:19:33.254,1896
30/09/2019 10:19:33.258,1888
30/09/2019 10:19:33.262,1884
30/09/2019 10:19:33.266,1882
30/09/2019 10:19:33.270,1882
30/09/2019 10:19:33.274,1880
30/09/2019 10:19:33.278,1877
30/09/2019 10:19:33.282,1870
30/09/2019 10:19:33.286,1860
30/09/2019 10:19:33.290,1853
30/09/2019 10:19:33.294,1847
30/09/2019 10:19:33.298,1844
30/09/2019 10:19:33.302,1846
30/09/2019 10:19:33.306,1853
30/09/2019 10:19:33.310,1860
30/09/2019 10:19:33.314,1867
30/09/2019 10:19:33.318,1871
30/09/2019 10:19:33.322,1868
30/09/2019 10:19:33.326,1857
30/09/2019 10:19:33.330,1845
30/09/2019 10:19:33.334,1838
30/09/2019 10:19:33.338,1837
30/09/2019 10:19:33.342,1835
30/09/2019 10:19:33.346,1835
30/09/2019 10:19:33.350,1830
30/09/2019 10:19:33.354,1822
30/09/2019 10:19:33.358,1815
30/09/2019 10:19:33.362,1813
30/09/2019 10:19:33.366,1815
30/09/2019 10:19:33.370,1821
30/09/2019 10:19:33.374,1828
30/09/2019 10:19:33.378,1835
30/09/2019 10:19:33.382,1841
30/09/2019 10:19:33.386,1845
30/09/2019 10:19:33.390,1849
30/09/2019 10:19:33.394,1854
30/09/2019 10:19:33.398,1857
30/09/2019 10:19:33.402,1863
30/09/2019 10:19:33.406,1869
30/09/2019 10:19:33.410,1872
30/09/2019 10:19:33.414,1874
30/09/2019 10:19:33.418,1877
30/09/2019 10:19:33.422,1887
30/09/2019 10:19:33.426,1906
30/09/2019 10:19:33.430,1927
30/09/2019 10:19:33.434,1940
30/09/2019 10:19:33.438,1941
30/09/2019 10:19:33.442,1928
30/09/2019 10:19:33.446,1904
30/09/2019 10:19:33.450,1880
30/09/2019 10:19:33.454,1855
30/09/2019 10:19:33.458,1840
30/09/2019 10:19:33.462,1825
30/09/2019 10:19:33.466,1801
30/09/2019 10:19:33.470,1761
30/09/2019 10:19:33.474,1702
30/09/2019 10:19:33.478,1624
30/09/2019 10:19:33.482,1549
30/09/2019 10:19:33.486,1484
30/09/2019 10:19:33.490,1441
30/09/2019 10:19:33.494,1426
30/09/2019 10:19:33.498,1426
30/09/2019 10:19:33.502,1433
30/09/2019 10:19:33.506,1443
30/09/2019 10:19:33.510,1455
30/09/2019 10:19:33.514,1471
30/09/2019 10:19:33.518,1484
30/09/2019 10:19:33.522,1489
30/09/2019 10:19:33.526,1493
30/09/2019 10:19:33.530,1494
30/09/2019 10:19:33.534,1491
30/09/2019 10:19:33.538,1487
30/09/2019 10:19:33.542,1476
30/09/2019 10:19:33.546,1454
30/09/2019 10:19:33.550,1418
30/09/2019 10:19:33.554,1364
30/09/2019 10:19:33.558,1290
30/09/2019 10:19:33.562,1198
30/09/2019 10:19:33.566,1105
30/09/2019 10:19:33.570,1019
30/09/2019 10:19:33.574,954
30/09/2019 10:19:33.578,911
30/09/2019 10:19:33.582,898
30/09/2019 10:19:33.586,903
30/09/2019 10:19:33.590,923
30/09/2019 10:19:33.594,956
30/09/2019 10:19:33.598,995
30/09/2019 10:19:33.602,1032
30/09/2019 10:19:33.606,1054
30/09/2019 10:19:33.610,1055
30/09/2019 10:19:33.614,1047
30/09/2019 10:19:33.618,1028
30/09/2019 10:19:33.622,1007
30/09/2019 10:19:33.626,990
30/09/2019 10:19:33.630,972
30/09/2019 10:19:33.634,958
30/09/2019 10:19:33.638,951
30/09/2019 10:19:33.642,952
30/09/2019 10:19:33.646,958
30/09/2019 10:19:33.650,970
30/09/2019 10:19:33.654,986
30/09/2019 10:19:33.658,1002
30/09/2019 10:19:33.662,1018
30/09/2019 10:19:33.666,1028
30/09/2019 10:19:33.670,1035
30/09/2019 10:19:33.674,1038
30/09/2019 10:19:33.678,1039
30/09/2019 10:19:33.682,1044
30/09/2019 10:19:33.686,1047
30/09/2019 10:19:33.690,1048
30/09/2019 10:19:33.694,1044
30/09/2019 10:19:33.698,1042
30/09/2019 10:19:33.702,1049
30/09/2019 10:19:33.706,1066
30/09/2019 10:19:33.710,1089
30/09/2019 10:19:33.714,1116
30/09/2019 10:19:33.718,1135
30/09/2019 10:19:33.722,1148
30/09/2019 10:19:33.726,1161
30/09/2019 10:19:33.730,1180
30/09/2019 10:19:33.734,1207
30/09/2019 10:19:33.738,1240
30/09/2019 10:19:33.742,1272
30/09/2019 10:19:33.746,1300
30/09/2019 10:19:33.750,1321
30/09/2019 10:19:33.754,1338
30/09/2019 10:19:33.758,1354
30/09/2019 10:19:33.762,1370
30/09/2019 10:19:33.766,1386
30/09/2019 10:19:33.770,1402
30/09/2019 10:19:33.774,1418
30/09/2019 10:19:33.778,1433
30/09/2019 10:19:33.782,1446
30/09/2019 10:19:33.786,1456
30/09/2019 10:19:33.790,1467
30/09/2019 10:19:33.794,1478
30/09/2019 10:19:33.798,1489
30/09/2019 10:19:33.802,1503
30/09/2019 10:19:33.806,1515
30/09/2019 10:19:33.810,1524
30/09/2019 10:19:33.814,1536
30/09/2019 10:19:33.818,1550
30/09/2019 10:19:33.822,1572
30/09/2019 10:19:33.826,1594
30/09/2019 10:19:33.830,1612
30/09/2019 10:19:33.834,1624
30/09/2019 10:19:33.838,1632
30/09/2019 10:19:33.842,1638
30/09/2019 10:19:33.846,1646
30/09/2019 10:19:33.850,1653
30/09/2019 10:19:33.854,1658
30/09/2019 10:19:33.858,1658
30/09/2019 10:19:33.862,1659
30/09/2019 10:19:33.866,1663
30/09/2019 10:19:33.870,1678
30/09/2019 10:19:33.874,1698
30/09/2019 10:19:33.878,1721
30/09/2019 10:19:33.882,1747
30/09/2019 10:19:33.886,1776
30/09/2019 10:19:33.890,1807
30/09/2019 10:19:33.894,1839
30/09/2019 10:19:33.898,1870
30/09/2019 10:19:33.902,1898
30/09/2019 10:19:33.906,1917
30/09/2019 10:19:33.910,1931
30/09/2019 10:19:33.914,1940
30/09/2019 10:19:33.918,1947
30/09/2019 10:19:33.922,1957
30/09/2019 10:19:33.926,1974
30/09/2019 10:19:33.930,1993
30/09/2019 10:19:33.934,2010
30/09/2019 10:19:33.938,2023
30/09/2019 10:19:33.942,2034
30/09/2019 10:19:33.946,2043
30/09/2019 10:19:33.950,2055
30/09/2019 10:19:33.954,2073
30/09/2019 10:19:33.958,2094
30/09/2019 10:19:33.962,2109
30/09/2019 10:19:33.966,2113
30/09/2019 10:19:33.970,2110
30/09/2019 10:19:33.974,2104
30/09/2019 10:19:33.978,2101
30/09/2019 10:19:33.982,2109
30/09/2019 10:19:33.986,2123
30/09/2019 10:19:33.990,2138
30/09/2019 10:19:33.994,2148
30/09/2019 10:19:33.998,2147
30/09/2019 10:19:34.002,2143
30/09/2019 10:19:34.006,2138
30/09/2019 10:19:34.010,2134
30/09/2019 10:19:34.014,2122
30/09/2019 10:19:34.018,2099
30/09/2019 10:19:34.022,2068
30/09/2019 10:19:34.026,2045
30/09/2019 10:19:34.030,2035
30/09/2019 10:19:34.034,2042
30/09/2019 10:19:34.038,2054
30/09/2019 10:19:34.042,2056
30/09/2019 10:19:34.046,2043
30/09/2019 10:19:34.050,2024
30/09/2019 10:19:34.054,2015
30/09/2019 10:19:34.058,2031
30/09/2019 10:19:34.062,2067
30/09/2019 10:19:34.066,2112
30/09/2019 10:19:34.070,2147
30/09/2019 10:19:34.074,2161
30/09/2019 10:19:34.078,2161
30/09/2019 10:19:34.082,2152
30/09/2019 10:19:34.086,2138
30/09/2019 10:19:34.090,2128
30/09/2019 10:19:34.094,2118
30/09/2019 10:19:34.098,2106
30/09/2019 10:19:34.102,2091
30/09/2019 10:19:34.106,2078
30/09/2019 10:19:34.110,2067
30/09/2019 10:19:34.114,2058
30/09/2019 10:19:34.118,2047
30/09/2019 10:19:34.122,2025
30/09/2019 10:19:34.126,1997
30/09/2019 10:19:34.130,1968
30/09/2019 10:19:34.134,1955
30/09/2019 10:19:34.138,1966
30/09/2019 10:19:34.142,1990
30/09/2019 10:19:34.146,2024
30/09/2019 10:19:34.150,2060
30/09/2019 10:19:34.154,2105
30/09/2019 10:19:34.158,2164
30/09/2019 10:19:34.162,2243
30/09/2019 10:19:34.166,2330
30/09/2019 10:19:34.170,2416
30/09/2019 10:19:34.174,2485
30/09/2019 10:19:34.178,2531
30/09/2019 10:19:34.182,2560
30/09/2019 10:19:34.186,2575
30/09/2019 10:19:34.190,2583
30/09/2019 10:19:34.194,2587
30/09/2019 10:19:34.198,2583
30/09/2019 10:19:34.202,2576
30/09/2019 10:19:34.206,2566
30/09/2019 10:19:34.210,2553
30/09/2019 10:19:34.214,2538
30/09/2019 10:19:34.218,2520
30/09/2019 10:19:34.222,2501
30/09/2019 10:19:34.226,2484
30/09/2019 10:19:34.230,2469
30/09/2019 10:19:34.234,2453
30/09/2019 10:19:34.238,2435
30/09/2019 10:19:34.242,2409
30/09/2019 10:19:34.246,2371
30/09/2019 10:19:34.250,2323
30/09/2019 10:19:34.254,2270
30/09/2019 10:19:34.258,2221
30/09/2019 10:19:34.262,2181
30/09/2019 10:19:34.266,2151
30/09/2019 10:19:34.270,2126
30/09/2019 10:19:34.274,2105
30/09/2019 10:19:34.278,2083
30/09/2019 10:19:34.282,2063
30/09/2019 10:19:34.286,2045
30/09/2019 10:19:34.290,2026
30/09/2019 10:19:34.294,2007
30/09/2019 10:19:34.298,1988
30/09/2019 10:19:34.302,1967
30/09/2019 10:19:34.306,1948
30/09/2019 10:19:34.310,1932
30/09/2019 10:19:34.314,1915
30/09/2019 10:19:34.318,1899
30/09/2019 10:19:34.322,1883
30/09/2019 10:19:34.326,1867
30/09/2019 10:19:34.330,1851
30/09/2019 10:19:34.334,1832
30/09/2019 10:19:34.338,1814
30/09/2019 10:19:34.342,1795
30/09/2019 10:19:34.346,1779
30/09/2019 10:19:34.350,1767
30/09/2019 10:19:34.354,1766
30/09/2019 10:19:34.358,1774
30/09/2019 10:19:34.362,1787
30/09/2019 10:19:34.366,1801
30/09/2019 10:19:34.370,1805
30/09/2019 10:19:34.374,1794
30/09/2019 10:19:34.378,1769
30/09/2019 10:19:34.382,1776
30/09/2019 10:19:34.386,1768
30/09/2019 10:19:34.390,1647
30/09/2019 10:19:34.394,1511
30/09/2019 10:19:34.398,1395
30/09/2019 10:19:34.402,1520
30/09/2019 10:19:34.406,2001
30/09/2019 10:19:34.410,2758
30/09/2019 10:19:34.414,3514
30/09/2019 10:19:34.418,3923
30/09/2019 10:19:34.422,3792
30/09/2019 10:19:34.426,3193
30/09/2019 10:19:34.430,2413
30/09/2019 10:19:34.434,1751
30/09/2019 10:19:34.438,1400
30/09/2019 10:19:34.442,1342
30/09/2019 10:19:34.446,1355
