2030
2031
2032
2031
2031
2032
2032
2032
2032
2032
2032
2032
2032
2032
2032
2032
2033
2033
2034
2034
2033
2032
2031
2031
2033
2036
2038
2039
2038
2035
2034
2034
2034
2035
2036
2035
2036
2036
2037
2038
2038
2038
2037
2036
2036
2036
2036
2036
2037
2037
2038
2038
2036
2035
2034
2035
2039
2042
2043
2042
2040
2037
2035
2037
2037
2038
2038
2039
2039
2039
2039
2038
2037
2038
2038
2040
2041
2044
2045
2044
2048
2045
2044
2040
2036
2035
2037
2041
2043
2044
2041
2038
2036
2034
2038
2038
2039
2039
2039
2039
2039
2038
2039
2046
2061
2089
2124
2160
2182
2180
2148
2091
2023
1961
1921
1911
1925
1955
1987
2012
2028
2037
2042
2045
2048
2051
2054
2056
2058
2059
2061
2062
2063
2063
2064
2064
2065
2065
2066
2068
2068
2070
2071
2074
2074
2075
2073
2073
2076
2081
2088
2092
2093
2092
2091
2091
2094
2099
2102
2106
2108
2111
2113
2114
2117
2118
2119
2119
2119
2120
2119
2119
2116
2113
2107
2102
2095
2088
2082
2075
2071
2066
2063
2057
2050
2046
2041
2038
2036
2035
2033
2032
2031
2031
2031
2031
2030
2030
2029
2030
2030
2031
2031
2031
2031
2033
2032
2033
2031
2030
2031
2033
2036
2038
2038
2036
2034
2032
2031
2033
2033
2034
2034
2034
2033
2033
2032
2033
2033
2033
2033
2032
2031
2030
2030
2029
2031
2032
2031
2030
2027
2026
2027
2029
2033
2034
2033
2031
2029
2028
2028
2029
2028
2028
2029
2029
2030
2030
2030
2030
2030
2030
2029
2029
2029
2029
2030
2031
2031
2031
2030
2028
2028
2028
2029
2032
2034
2035
2034
2032
2031
2030
2031
2031
2031
2031
2031
2031
2032
2033
2034
2034
2033
2032
2032
2032
2033
2033
2033
2034
2034
2033
2032
2030
2031
2032
2036
2038
2039
2038
2035
2034
2032
2033
2033
2034
2034
2035
2036
2035
2035
2034
2033
2034
2034
2034
2034
2034
2035
2034
2039
2040
2042
2040
2038
2037
2037
2039
2040
2041
2039
2037
2034
2031
2034
2033
2033
2033
2034
2034
2035
2035
2035
2036
2037
2038
2042
2051
2072
2102
2139
2174
2192
2183
2142
2079
2007
1946
1910
1901
1914
1938
1965
1988
2005
2020
2032
2040
2045
2048
2050
2053
2055
2057
2058
2059
2060
2061
2061
2063
2064
2065
2065
2067
2068
2069
2068
2067
2068
2072
2078
2082
2084
2084
2082
2082
2083
2087
2090
2094
2096
2098
2100
2103
2105
2110
2112
2113
2114
2114
2115
2116
2117
2117
2116
2114
2110
2106
2100
2095
2091
2086
2082
2075
2067
2059
2053
2048
2045
2041
2038
2034
2032
2030
2029
2028
2027
2027
2026
2025
2025
2025
2025
2026
2025
2028
2028
2028
2026
2024
2023
2025
2028
2032
2034
2033
2031
2029
2026
2029
2029
2030
2030
2030
2029
2029
2028
2028
2029
2028
2028
2028
2027
2027
2027
2027
2027
2028
2028
2027
2026
2025
2025
2027
2028
2029
2028
2027
2026
2025
2024
2025
2025
2024
2025
2025
2026
2025
2026
2026
2026
2024
2023
2021
2023
2026
2030
2034
2033
2030
2026
2022
2022
2024
2028
2031
2032
2032
2029
2027
2025
2026
2026
2028
2028
2028
2028
2028
2028
2030
2030
2031
2031
2030
2030
2029
2030
2029
2031
2031
2031
2030
2029
2027
2028
2030
2034
2036
2037
2034
2032
2029
2027
2029
2030
2033
2035
2037
2038
2038
2038
2036
2034
2033
2032
2032
2031
2031
2031
2030
2033
2032
2032
2029
2026
2026
2028
2033
2039
2043
2042
2037
2037
2046
2071
2105
2147
2178
2187
2167
2117
2047
1975
1921
1895
1898
1922
1953
1982
2003
2017
2029
2037
2042
2045
2047
2048
2051
2055
2058
2061
2060
2059
2058
2058
2059
2061
2062
2063
2064
2065
2067
2068
2069
2070
2071
2072
2074
2077
2079
2081
2083
2085
2089
2091
2093
2094
2095
2099
2104
2111
2116
2118
2117
2116
2115
2115
2117
2116
2116
2114
2111
2107
2102
2096
2090
2083
2079
2072
2065
2058
2051
2047
2043
2040
2038
2034
2030
2027
2025
2024
2027
2028
2027
2025
2023
2022
2021
2023
2024
2024
2024
2024
2024
2025
2026
2026
2027
2027
2027
2027
2027
2027
2027
2026
2028
2028
2029
2027
2026
2025
2026
2029
2032
2034
2033
2030
2028
2025
2027
2027
2027
2027
2026
2026
2026
2026
2026
2027
2027
2027
2027
2026
2026
2026
2026
2026
2027
2027
2026
2025
2024
2025
2027
2029
2031
2030
2029
2027
2026
2026
2026
2027
2027
2027
2027
2028
2028
2029
2029
2029
2029
2029
2029
2029
2030
2031
2032
2032
2032
2030
2029
2029
2029
2031
2033
2035
2035
2034
2032
2031
2031
2031
2032
2032
2031
2032
2032
2033
2035
2035
2035
2034
2033
2033
2033
2033
2034
2034
2035
2034
2035
2034
2032
2032
2033
2035
2038
2040
2039
2037
2035
2033
2035
2035
2036
2036
2036
2037
2037
2037
2037
2036
2037
2036
2036
2036
2037
2038
2036
2039
2038
2038
2035
2032
2033
2036
2044
2050
2052
2050
2046
2040
2035
2037
2036
2038
2038
2037
2037
2036
2036
2036
2036
2037
2037
2038
2038
2038
2038
2037
2037
2040
2047
2063
2091
2126
2161
2182
2176
2138
2075
2004
1946
1914
1912
1934
1964
1993
2015
2029
2038
2044
2048
2049
2052
2054
2056
2058
2059
2061
2061
2062
2062
2063
2063
2063
2064
2065
2068
2071
2073
2073
2073
2072
2073
2076
2078
2080
2081
2083
2084
2087
2089
2091
2094
2097
2101
2103
2106
2108
2110
2111
2115
2118
2120
2120
2118
2117
2116
2117
2119
2117
2113
2106
2100
2092
2087
2081
2075
2068
2062
2056
2051
2048
2044
2041
2038
2036
2035
2033
2033
2032
2030
2030
2030
2030
2031
2029
2029
2029
2030
2033
2034
2034
2033
2031
2031
2030
2031
2032
2032
2033
2033
2033
2033
2034
2034
2034
2034
2034
2033
2033
2033
2033
2033
2034
2034
2033
2032
2031
2031
2032
2033
2034
2033
2031
2030
2029
2029
2030
2030
2030
2029
2029
2029
2029
2030
2030
2030
2030
2029
2029
2029
2029
2029
2029
2030
2030
2031
2029
2028
2027
2026
2028
2031
2033
2033
2032
2030
2029
2029
2029
2030
2030
2029
2030
2030
2031
2032
2032
2033
2032
2031
2031
2031
2032
2032
2033
2034
2034
2034
2032
2031
2030
2031
2035
2038
2039
2038
2036
2034
2032
2034
2035
2036
2036
2036
2036
2036
2036
2036
2036
2036
2036
2036
2036
2037
2037
2036
2039
2038
2039
2036
2033
2032
2033
2038
2044
2046
2045
2041
2036
2033
2035
2036
2038
2039
2038
2039
2039
2039
2039
2039
2039
2039
2039
2039
2039
2039
2039
2039
2041
2039
2038
2036
2035
2037
2040
2044
2046
2045
2042
2040
2039
2038
2040
2040
2040
2040
2040
2040
2039
2039
2040
2042
2044
2045
2046
2046
2044
2043
2042
2040
2039
2038
2037
2036
2037
2038
2040
2039
2037
2035
2034
2036
2040
2043
2043
2040
2038
2036
2041
2054
2081
2114
2148
2174
2176
2151
2098
2031
1966
1921
1905
1915
1941
1970
1995
2012
2027
2040
2048
2054
2055
2053
2053
2054
2057
2060
2062
2062
2063
2063
2064
2065
2067
2068
2069
2070
2071
2071
2073
2074
2075
2077
2079
2080
2080
2080
2082
2086
2092
2097
2101
2102
2102
2103
2104
2108
2112
2115
2117
2119
2121
2123
2124
2125
2124
2123
2122
2120
2117
2114
2109
2103
2099
2092
2084
2075
2067
2061
2058
2056
2053
2048
2042
2038
2034
2033
2033
2032
2031
2029
2029
2029
2029
2029
2029
2029
2029
2029
2029
2028
2029
2030
2031
2033
2034
2034
2032
2030
2029
2030
2033
2038
2040
2040
2037
2034
2031
2031
2031
2032
2033
2031
2032
2032
2032
2032
2032
2032
2032
2031
2031
2031
2030
2029
2030
2030
2029
2029
2025
2022
2022
2025
2030
2034
2035
2032
2028
2024
2023
2025
2026
2027
2027
2027
2027
2028
2029
2029
2029
2029
2028
2028
2027
2027
2027
2027
2029
2029
2029
2025
2021
2020
2022
2029
2037
2041
2040
2035
2029
2025
2026
2027
2030
2031
2030
2030
2030
2030
2030
2030
2031
2030
2030
2031
2031
2031
2030
2032
2032
2033
2031
2028
2027
2028
2032
2037
2040
2039
2036
2032
2029
2030
2031
2033
2032
2033
2033
2035
2035
2036
2035
2034
2034
2034
2035
2036
2036
2036
2035
2038
2039
2041
2039
2038
2038
2040
2044
2046
2045
2041
2036
2033
2031
2035
2035
2036
2035
2035
2035
2035
2036
2037
2037
2039
2040
2041
2043
2050
2067
2095
2132
2167
2189
2182
2143
2080
2009
1948
1910
1901
1912
1937
1965
1988
2009
2025
2037
2044
2048
2052
2055
2057
2058
2060
2062
2063
2064
2064
2065
2066
2065
2067
2069
2071
2069
2068
2067
2070
2076
2082
2087
2087
2085
2083
2082
2085
2089
2093
2095
2097
2100
2103
2106
2109
2112
2115
2117
2118
2119
2120
2121
2121
2122
2122
2121
2118
2113
2107
2103
2099
2097
2093
2085
2076
2067
2059
2054
2049
2047
2043
2040
2037
2036
2034
2033
2032
2030
2029
2029
2029
2029
2029
2030
2030
2031
2031
2030
2028
2027
2027
2031
2036
2039
2039
2036
2033
2031
2031
2033
2036
2037
2037
2037
2037
2037
2037
2037
2038
2038
2037
2037
2037
2036
2036
2037
2037
2037
2036
2034
2032
2031
2033
2036
2039
2040
2039
2036
2034
2031
2033
2033
2034
2035
2035
2035
2035
2035
2035
2035
2035
2035
2035
2035
2035
2035
2034
2037
2036
2037
2035
2032
2031
2033
2038
2041
2043
2041
2038
2035
2033
2036
2036
2037
2036
2036
2036
2037
2037
2037
2037
2037
2037
2038
2038
2038
2038
2038
2039
2039
2038
2037
2036
2036
2037
2040
2042
2044
2042
2040
2038
2037
2037
2038
2039
2039
2039
2039
2039
2040
2040
2040
2039
2039
2039
2039
2040
2040
2039
2040
2041
2041
2040
2037
2036
2037
2041
2046
2048
2048
2045
2041
2039
2039
2042
2042
2042
2042
2042
2042
2042
2042
2042
2042
2043
2045
2047
2048
2049
2048
2048
2047
2046
2045
2044
2044
2043
2045
2046
2047
2046
2044
2043
2041
2041
2043
2044
2043
2043
2044
2045
2046
2048
2055
2072
2098
2130
2161
2179
2172
2136
2076
2011
1951
1915
1906
1921
1950
1983
2011
2030
2043
2048
2050
2051
2052
2057
2058
2060
2062
2062
2063
2064
2065
2065
2066
2066
2067
2068
2068
2069
2070
2071
2073
2076
2077
2078
2079
2079
2082
2086
2089
2092
2093
2094
2095
2097
2100
2104
2107
2109
2112
2116
2118
2121
2122
2122
2122
2122
2122
2120
2119
2116
2113
2109
2104
2099
2091
2082
2074
2067
2062
2059
2055
2051
2046
2041
2037
2035
2033
2032
2031
2030
2029
2028
2030
2031
2032
2030
2027
2025
2027
2031
2036
2039
2039
2037
2033
2031
2030
2029
2031
2031
2035
2037
2039
2038
2036
2034
2032
2033
2034
2036
2036
2037
2037
2036
2036
2035
2035
2036
2036
2036
2036
2036
2036
2035
2036
2035
2035
2033
2032
2031
2033
2037
2039
2041
2039
2036
2033
2031
2033
2033
2035
2034
2035
2035
2035
2036
2036
2035
2035
2035
2035
2036
2038
2040
2041
2042
2042
2042
2040
2040
2040
2042
2046
2048
2049
2049
2048
2048
2047
2048
2048
2048
2049
2049
2050
2051
2051
2051
2051
2050
2050
2050
2050
2051
2050
2049
2049
2051
2051
2051
2048
2047
2047
2049
2054
2056
2056
2052
2048
2047
2047
2049
2049
2049
2048
2048
2048
2048
2048
2048
2048
2049
2049
2049
2048
2049
2048
2048
2048
2048
2048
2048
2047
2047
2048
2050
2051
2051
2049
2049
2048
2047
2048
2048
2048
2048
2048
2047
2048
2048
2048
2049
2049
2049
2048
2048
2049
2050
2050
2055
2056
2057
2055
2052
2049
2049
2051
2053
2054
2052
2048
2046
2043
2046
2045
2046
2045
2044
2044
2044
2045
2045
2046
2046
2048
2048
2049
2050
2055
2069
2093
2125
2157
2177
2177
2149
2097
2031
1966
1919
1897
1903
1927
1959
1988
2009
2026
2038
2047
2053
2058
2061
2063
2065
2066
2067
2068
2068
2070
2070
2071
2074
2074
2075
2074
2074
2075
2077
2081
2085
2087
2088
2088
2087
2088
2091
2092
2095
2096
2098
2101
2104
2108
2112
2115
2117
2119
2120
2122
2124
2126
2127
2128
2129
2128
2127
2123
2119
2116
2114
2113
2111
2105
2096
2087
2078
2070
2066
2061
2056
2051
2048
2044
2041
2038
2036
2035
2034
2033
2032
2032
2032
2033
2032
2033
2033
2033
2032
2029
2029
2030
2034
2039
2042
2041
2037
2033
2029
2030
2032
2033
2036
2035
2035
2035
2034
2034
2034
2034
2034
2034
2034
2035
2035
2034
2033
2034
2032
2031
2029
2028
2030
2033
2035
2036
2035
2032
2030
2028
2028
2031
2031
2031
2031
2031
2031
2030
2030
2030
2030
2030
2031
2031
2031
2031
2031
2030
2032
2032
2031
2029
2027
2028
2031
2036
2040
2039
2036
2032
2030
2029
2033
2032
2033
2032
2032
2032
2032
2033
2033
2034
2033
2034
2034
2034
2034
2034
2033
2034
2034
2033
2033
2032
2033
2036
2038
2039
2039
2037
2035
2035
2034
2036
2037
2037
2036
2036
2035
2036
2036
2036
2037
2037
2037
2037
2037
2037
2038
2038
2039
2039
2039
2038
2037
2037
2038
2040
2041
2043
2043
2043
2044
2044
2046
2045
2045
2043
2041
2039
2039
2039
2039
2038
2038
2037
2037
2037
2037
2037
2037
2038
2039
2040
2040
2041
2041
2042
2047
2059
2082
2112
2147
2174
2183
2164
2116
2048
1976
1921
1893
1895
1919
1951
1981
2004
2020
2033
2042
2049
2053
2057
2059
2061
2064
2064
2064
2064
2064
2066
2069
2072
2073
2073
2072
2072
2072
2074
2076
2077
2078
2080
2082
2085
2087
2089
2091
2092
2094
2096
2099
2102
2105
2108
2113
2115
2117
2118
2119
2121
2125
2129
2131
2131
2129
2126
2124
2120
2120
2115
2110
2104
2097
2090
2082
2076
2069
2062
2057
2051
2048
2044
2041
2039
2035
2036
2033
2032
2029
2027
2027
2028
2032
2034
2035
2033
2031
2029
2028
2031
2030
2032
2031
2032
2032
2032
2032
2032
2033
2033
2034
2034
2035
2035
2035
2035
2035
2035
2034
2032
2031
2030
2032
2035
2037
2038
2036
2034
2031
2030
2030
2031
2030
2030
2030
2030
2030
2030
2030
2030
2029
2029
2029
2029
2029
2029
2027
2028
2030
2029
2029
2026
2024
2025
2028
2033
2035
2036
2033
2030
2028
2027
2029
2029
2031
2031
2031
2031
2031
2031
2031
2032
2032
2032
2032
2032
2032
2032
2032
2034
2034
2032
2031
2030
2031
2034
2036
2037
2037
2036
2035
2037
2036
2038
2036
2032
2033
2033
2034
2036
2036
2036
2036
2036
2036
2036
2036
2036
2036
2035
2038
2037
2038
2036
2035
2035
2037
2040
2042
2042
2040
2038
2037
2035
2038
2037
2038
2037
2038
2037
2038
2038
2038
2038
2039
2039
2039
2038
2038
2038
2038
2038
2038
2038
2038
2038
2038
2041
2043
2045
2045
2044
2041
2038
2036
2035
2034
2034
2033
2032
2032
2032
2033
2033
2033
2032
2031
2031
2030
2030
2029
2029
2029
2033
2047
2068
2099
2134
2160
2167
2144
2094
2027
1961
1914
1897
1908
1937
1970
1997
2014
2025
2033
2039
2044
2047
2048
2049
2049
2049
2049
2050
2051
2051
2053
2054
2054
2053
2052
2052
2055
2059
2064
2066
2066
2065
2063
2062
2066
2068
2071
2073
2076
2079
2081
2084
2086
2089
2093
2096
2099
2102
2105
2107
2108
2112
2112
2114
2112
2111
2110
2111
2113
2113
2110
2104
2095
2086
2077
2073
2066
2060
2053
2048
2044
2039
2036
2032
2030
2028
2026
2025
2025
2024
2023
2023
2022
2023
2023
2021
2021
2020
2021
2024
2027
2028
2027
2025
2024
2023
2024
2026
2027
2026
2026
2026
2027
2028
2027
2027
2026
2026
2026
2027
2027
2027
2026
2026
2027
2026
2026
2023
2021
2021
2024
2028
2031
2031
2028
2024
2022
2020
2023
2023
2024
2023
2023
2022
2022
2022
2023
2023
2023
2024
2024
2024
2024
2024
2024
2026
2026
2025
2024
2022
2022
2024
2027
2030
2031
2031
2029
2027
2025
2027
2028
2029
2029
2029
2029
2029
2029
2029
2029
2029
2030
2031
2032
2033
2034
2034
2037
2037
2038
2037
2036
2036
2038
2041
2044
2047
2046
2043
2041
2039
2041
2040
2041
2041
2040
2040
2040
2041
2041
2042
2042
2042
2043
2043
2042
2042
2041
2041
2042
2042
2042
2041
2040
2041
2043
2045
2046
2045
2043
2042
2041
2041
2042
2042
2042
2042
2042
2043
2043
2043
2043
2043
2043
2043
2042
2042
2042
2042
2044
2044
2045
2045
2045
2045
2046
2048
2048
2048
2046
2043
2040
2039
2040
2040
2040
2039
2039
2039
2040
2040
2041
2041
2042
2041
2041
2041
2041
2046
2058
2081
2114
2150
2177
2183
2160
2110
2044
1978
1930
1908
1912
1934
1963
1989
2011
2025
2037
2044
2049
2052
2054
2057
2058
2060
2061
2062
2064
2065
2066
2067
2067
2069
2069
2069
2069
2068
2068
2071
2076
2082
2087
2087
2085
2083
2081
2084
2087
2090
2094
2096
2098
2100
2102
2105
2108
2111
2114
2116
2118
2120
2121
2122
2122
2123
2122
2120
2116
2112
2110
2108
2106
2102
2095
2085
2076
2067
2061
2057
2051
2048
2044
2040
2037
2035
2033
2032
2031
2030
2030
2029
2029
2028
2028
2028
2030
2029
2028
2026
2025
2026
2029
2033
2036
2036
2034
2030
2029
2029
2032
2031
2032
2031
2031
2031
2031
2031
2031
2031
2031
2031
2031
2030
2030
2029
2029
2030
2030
2030
2028
2028
2027
2028
2029
2031
2031
2030
2030
2029
2027
2029
2029
2028
2027
2028
2028
2028
2028
2029
2029
2029
2030
2030
2030
2029
2029
2029
2030
2030
2030
2029
2029
2028
2028
2029
2031
2032
2032
2031
2030
2029
2030
2030
2031
2031
2031
2031
2031
2031
2032
2032
2032
2032
2032
2031
2032
2032
2033
2033
2034
2034
2032
2032
2031
2032
2033
2035
2037
2036
2035
2034
2033
2033
2034
2034
2033
2033
2033
2034
2035
2035
2035
2035
2035
2035
2035
2036
2035
2036
2036
2036
2037
2035
2034
2034
2034
2035
2037
2039
2039
2038
2037
2038
2040
2042
2043
2043
2042
2041
2039
2039
2039
2038
2038
2037
2036
2036
2035
2035
2036
2036
2038
2037
2036
2035
2035
2036
2038
2041
2048
2061
2084
2116
2152
2176
2183
2155
2099
2029
1960
1914
1896
1907
1933
1963
1989
2008
2025
2039
2048
2052
2051
2053
2052
2054
2055
2056
2057
2059
2064
2067
2069
2068
2065
2064
2063
2065
2066
2069
2070
2072
2073
2074
2075
2076
2078
2079
2080
2081
2081
2082
2082
2083
2087
2089
2092
2093
2094
2095
2099
2104
2108
2111
2109
2107
2105
2103
2103
2103
2100
2095
2090
2084
2079
2072
2065
2058
2051
2046
2041
2037
2033
2030
2026
2024
2023
2020
2019
2016
2015
2015
2018
2021
2023
2022
2020
2017
2015
2015
2018
2018
2020
2019
2020
2020
2020
2021
2021
2022
2023
2023
2024
2024
2024
2023
2023
2024
2025
2024
2022
2022
2021
2023
2025
2027
2027
2026
2025
2024
2021
2023
2022
2022
2021
2022
2022
2022
2022
2023
2023
2023
2023
2022
2022
2022
2022
2021
2024
2024
2024
2021
2018
2018
2021
2027
2031
2033
2030
2026
2023
2021
2023
2025
2025
2025
2025
2025
2025
2026
2026
2027
2027
2027
2027
2027
2027
2027
2028
2028
2029
2029
2028
2028
2027
2027
2029
2030
2032
2032
2032
2031
2030
2030
2030
2030
2030
2030
2030
2031
2031
2032
2032
2032
2032
2031
2031
2031
2032
2033
2033
2034
2035
2033
2032
2031
2031
2033
2035
2036
2037
2036
2034
2033
2032
2033
2033
2034
2034
2034
2034
2035
2035
2035
2036
2037
2038
2040
2041
2042
2041
2040
2039
2038
2037
2035
2033
2032
2033
2035
2038
2039
2037
2035
2034
2032
2035
2036
2036
2036
2036
2036
2036
2044
2061
2090
2126
2161
2181
2175
2139
2078
2008
1950
1914
1909
1925
1952
1981
2005
2022
2036
2044
2048
2048
2048
2048
2051
2053
2056
2057
2058
2058
2059
2060
2061
2062
2062
2063
2064
2065
2067
2067
2069
2069
2071
2072
2072
2072
2073
2076
2081
2086
2089
2090
2091
2091
2093
2095
2099
2101
2104
2107
2109
2111
2111
2111
2112
2112
2112
2111
2110
2108
2105
2101
2096
2091
2085
2078
2071
2064
2058
2054
2052
2049
2046
2041
2036
2033
2031
2031
2030
2029
2028
2027
2027
2027
2028
2028
2028
2028
2028
2029
2028
2029
2029
2028
2031
2031
2030
2028
2026
2026
2030
2035
2038
2037
2034
2031
2030
2030
2034
2034
2032
2031
2030
2030
2031
2031
2031
2031
2031
2031
2031
2030
2030
2030
2028
2031
2030
2031
2030
2028
2027
2027
2030
2032
2032
2032
2030
2029
2027
2029
2028
2029
2029
2029
2030
2030
2030
2031
2030
2031
2030
2030
2030
2030
2031
2030
2032
2033
2032
2031
2029
2028
2030
2033
2037
2038
2037
2034
2032
2030
2031
2033
2033
2033
2033
2033
2034
2034
2034
2034
2035
2035
2035
2035
2035
2035
2034
2035
2035
2035
2034
2033
2032
2033
2035
2038
2040
2040
2038
2036
2035
2035
2035
2036
2037
2036
2037
2037
2037
2038
2038
2038
2037
2037
2037
2037
2037
2037
2037
2038
2038
2038
2037
2035
2034
2035
2037
2040
2042
2041
2040
2038
2035
2037
2038
2039
2043
2044
2045
2045
2044
2042
2041
2039
2038
2037
2037
2037
2036
2035
2037
2036
2036
2035
2033
2034
2036
2039
2041
2042
2041
2038
2038
2044
2061
2088
2122
2159
2179
2176
2142
2082
2012
1949
1911
1902
1918
1948
1979
2004
2019
2031
2040
2045
2048
2048
2048
2051
2057
2064
2069
2069
2067
2064
2062
2063
2066
2068
2068
2069
2071
2072
2075
2076
2077
2079
2081
2082
2084
2085
2087
2089
2090
2095
2097
2098
2098
2097
2100
2106
2115
2122
2125
2123
2120
2118
2118
2122
2122
2123
2122
2120
2119
2116
2112
2108
2102
2097
2090
2084
2076
2069
2063
2056
2054
2050
2047
2041
2036
2031
2034
2036
2039
2039
2035
2032
2030
2029
2032
2032
2032
2029
2029
2029
2032
2032
2032
2033
2033
2033
2033
2033
2033
2033
2033
2034
2034
2033
2033
2032
2032
2030
2030
2031
2034
2038
2041
2041
2037
2033
2029
2027
2028
2030
2032
2031
2031
2031
2031
2031
2030
2030
2030
2030
2029
2029
2029
2030
2031
2030
2028
2025
2026
2028
2032
2035
2035
2032
2029
2028
2027
2028
2030
2029
2029
2030
2030
2031
2031
2031
2031
2031
2030
2030
2030
2030
2031
2031
2033
2034
2032
2030
2029
2028
2031
2035
2038
2038
2036
2032
2030
2029
2030
2031
2032
2032
2031
2031
2032
2033
2034
2036
2036
2034
2033
2033
2033
2034
2034
2036
2034
2033
2031
2031
2031
2034
2038
2040
2039
2036
2034
2032
2031
2034
2034
2035
2038
2041
2042
2042
2041
2039
2038
2037
2036
2036
2035
2035
2034
2032
2034
2034
2035
2034
2032
2031
2033
2038
2044
2048
2048
2045
2045
2053
2076
2109
2148
2180
2191
2175
2128
2059
1987
1929
1900
1901
1922
1954
1983
2005
2019
2032
2042
2048
2049
2048
2047
2049
2057
2067
2074
2074
2068
2063
2058
2060
2065
2067
2067
2066
2067
2069
2071
2074
2076
2078
2078
2079
2080
2082
2085
2085
2088
2092
2093
2094
2093
2093
2097
2105
2115
2123
2125
2122
2118
2114
2114
2119
2119
2119
2117
2114
2111
2107
2103
2099
2093
2087
2080
2073
2065
2059
2053
2050
2048
2045
2041
2036
2032
2029
2031
2034
2036
2035
2031
2028
2027
2029
2031
2031
2030
2029
2028
2029
2030
2031
2031
2031
2032
2031
2030
2031
2032
2033
2035
2036
2034
2033
2030
2028
2028
2029
2032
2034
2036
2036
2034
2032
2031
2031
2030
2030
2030
2030
2030
2029
2030
2030
2030
2030
2029
2028
2028
2028
2029
2028
2028
2029
2029
2028
2028
2027
2028
2029
2031
2032
2031
2031
2030
2029
2029
2029
2030
2030
2030
2031
2031
2032
2032
2032
2031
2031
2031
2031
2031
2031
2032
2032
2033
2032
2031
2029
2030
2031
2033
2035
2036
2035
2033
2032
2032
2032
2034
2033
2033
2033
2033
2033
2034
2035
2035
2035
2034
2034
2034
2034
2035
2036
2035
2036
2036
2035
2034
2032
2031
2032
2035
2038
2040
2039
2037
2035
2033
2035
2035
2036
2036
2037
2037
2037
2037
2036
2036
2036
2036
2036
2036
2036
2037
2038
2042
2043
2044
2043
2041
2040
2039
2040
2040
2040
2039
2035
2033
2030
2030
2030
2031
2031
2032
2032
2032
2031
2031
2029
2028
2027
2029
2038
2057
2087
2122
2154
2172
2161
2121
2056
1987
1931
1902
1904
1925
1955
1983
2003
2016
2026
2034
2040
2043
2045
2047
2048
2049
2050
2052
2053
2054
2055
2056
2057
2058
2058
2058
2061
2062
2062
2061
2060
2062
2065
2071
2075
2077
2076
2075
2075
2076
2081
2083
2087
2089
2091
2094
2097
2100
2102
2105
2107
2109
2111
2112
2112
2112
2111
2111
2110
2108
2104
2098
2091
2086
2081
2077
2073
2066
2059
2052
2046
2044
2040
2037
2034
2031
2028
2028
2027
2026
2026
2025
2025
2024
2024
2024
2025
2024
2027
2026
2027
2026
2024
2024
2025
2027
2030
2031
2031
2029
2027
2026
2028
2027
2028
2028
2027
2027
2027
2028
2028
2029
2029
2029
2028
2027
2027
2027
2027
2027
2027
2027
2025
2024
2022
2023
2025
2026
2027
2025
2024
2023
2022
2022
2023
2024
2023
2023
2023
2024
2024
2024
2024
2024
2024
2024
2024
2025
2025
2026
2026
2026
2026
2026
2025
2025
2025
2026
2028
2030
2031
2031
2029
2027
2026
2027
2027
2028
2028
2028
2028
2029
2030
2030
2030
2029
2029
2029
2029
2029
2030
2029
2030
2031
2030
2031
2029
2028
2029
2031
2033
2035
2035
2034
2032
2030
2031
2031
2031
2033
2033
2033
2033
2033
2032
2032
2033
2032
2033
2033
2034
2034
2033
2035
2035
2034
2033
2031
2032
2034
2037
2040
2040
2038
2036
2034
2033
2034
2034
2035
2035
2036
2037
2038
2036
2033
2031
2032
2037
2043
2047
2048
2046
2042
2038
2038
2037
2036
2034
2032
2033
2035
2037
2038
2037
2035
2033
2032
2033
2035
2035
2035
2036
2036
2035
2035
2039
2052
2076
2109
2146
2173
2179
2154
2101
2032
1966
1920
1903
1912
1939
1970
1998
2019
2033
2042
2047
2048
2048
2049
2052
2054
2056
2058
2059
2059
2060
2061
2063
2064
2065
2066
2067
2067
2068
2068
2069
2071
2073
2074
2074
2075
2076
2079
2084
2087
2089
2090
2091
2091
2094
2099
2103
2106
2107
2108
2110
2112
2115
2116
2117
2117
2117
2116
2114
2113
2110
2105
2104
2098
2093
2084
2075
2067
2062
2060
2058
2056
2050
2044
2038
2034
2033
2031
2031
2030
2029
2028
2028
2029
2029
2031
2031
2031
2031
2030
2030
2030
2030
2031
2032
2033
2032
2031
2030
2030
2032
2034
2036
2036
2035
2033
2032
2032
2032
2033
2033
2034
2034
2034
2034
2033
2033
2033
2033
2033
2032
2032
2032
2032
2032
2033
2032
2031
2029
2028
2029
2032
2035
2038
2037
2035
2032
2030
2029
2031
2031
2031
2032
2032
2033
2034
2034
2034
2033
2032
2032
2032
2032
2033
2034
2034
2035
2035
2034
2032
2030
2030
2032
2035
2038
2038
2037
2035
2033
2032
2034
2035
2036
2036
2038
2038
2038
2039
2038
2039
2038
2038
2038
2038
2039
2039
2038
2040
2039
2040
2039
2037
2037
2037
2040
2042
2044
2043
2040
2039
2037
2038
2038
2039
2040
2039
2040
2039
2039
2039
2039
2039
2040
2040
2041
2040
2040
2040
2040
2041
2040
2040
2038
2037
2038
2039
2042
2044
2046
2045
2045
2046
2047
2048
2048
2050
2049
2048
2048
2046
2044
2043
2042
2042
2042
2042
2042
2042
2042
2042
2043
2042
2043
2041
2041
2042
2044
2047
2051
2062
2081
2109
2144
2176
2193
2182
2141
2075
2003
1942
1907
1900
1918
1947
1978
2001
2019
2031
2041
2048
2051
2056
2057
2058
2059
2059
2060
2063
2067
2071
2073
2072
2069
2068
2066
2070
2074
2075
2077
2076
2076
2077
2078
2080
2083
2085
2087
2088
2090
2092
2094
2095
2101
2102
2106
2107
2108
2110
2113
2118
2121
2122
2122
2120
2119
2118
2118
2116
2114
2110
2106
2101
2096
2090
2084
2077
2071
2065
2059
2054
2049
2046
2042
2040
2039
2037
2034
2032
2030
2030
2031
2033
2034
2034
2033
2031
2030
2030
2030
2031
2031
2031
2032
2033
2034
2034
2034
2033
2033
2033
2033
2034
2033
2034
2034
2035
2035
2034
2031
2030
2030
2034
2037
2039
2039
2036
2033
2031
2030
2032
2031
2032
2032
2032
2032
2033
2032
2032
2031
2030
2030
2030
2031
2032
2032
2032
2032
2032
2031
2029
2028
2029
2030
2033
2035
2035
2034
2032
2030
2029
2031
2032
2032
2032
2033
2033
2032
2032
2031
2032
2031
2032
2032
2032
2033
2033
2033
2033
2032
2032
2031
2030
2030
2031
2032
2035
2036
2035
2034
2033
2032
2033
2033
2035
2034
2034
2035
2035
2035
2035
2035
2036
2036
2036
2037
2037
2037
2037
2037
2037
2037
2035
2035
2034
2035
2037
2039
2040
2040
2037
2036
2035
2036
2038
2038
2039
2039
2039
2039
2038
2038
2038
2038
2038
2038
2038
2038
2038
2038
2038
2038
2038
2038
2037
2036
2036
2038
2041
2044
2046
2046
2045
2043
2042
2042
2042
2042
2040
2039
2038
2038
2037
2037
2037
2037
2037
2037
2037
2037
2037
2036
2038
2038
2037
2036
2035
2039
2054
2080
2113
2148
2173
2175
2150
2096
2032
1966
1920
1904
1914
1939
1969
1994
2011
2023
2032
2038
2041
2044
2045
2047
2048
2051
2052
2053
2052
2052
2052
2055
2058
2062
2064
2062
2061
2060
2060
2063
2064
2065
2066
2067
2069
2071
2074
2076
2078
2081
2082
2084
2086
2088
2091
2094
2097
2101
2102
2104
2105
2105
2107
2107
2108
2110
2111
2112
2112
2110
2105
2097
2090
2082
2077
2072
2067
2061
2055
2049
2045
2040
2037
2034
2032
2030
2029
2027
2028
2027
2025
2023
2021
2020
2023
2027
2031
2032
2030
2027
2024
2022
2024
2025
2026
2027
2028
2028
2029
2029
2029
2028
2028
2028
2028
2029
2030
2031
2032
2034
2035
2034
2034
2032
2032
2033
2035
2037
2038
2038
2036
2034
2031
2032
2032
2032
2034
2034
2034
2034
2034
2033
2033
2033
2032
2032
2032
2033
2033
2032
2033
2032
2033
2032
2031
2031
2032
2034
2037
2037
2036
2034
2032
2031
2032
2033
2034
2034
2034
2034
2034
2034
2034
2034
2034
2034
2034
2034
2034
2034
2034
2034
2035
2035
2034
2033
2032
2033
2036
2038
2040
2039
2036
2035
2034
2035
2036
2037
2037
2037
2037
2037
2037
2037
2037
2037
2037
2037
2037
2038
2038
2038
2038
2039
2039
2039
2037
2036
2036
2038
2041
2043
2043
2042
2040
2038
2037
2038
2038
2039
2039
2039
2039
2039
2039
2039
2039
2039
2039
2039
2039
2039
2038
2038
2039
2039
2039
2038
2037
2037
2038
2040
2042
2043
2043
2043
2042
2044
2046
2046
2044
2041
2040
2039
2040
2040
2039
2039
2038
2038
2037
2038
2038
2038
2037
2039
2040
2040
2038
2037
2035
2039
2050
2071
2101
2134
2164
2181
2173
2138
2078
2009
1947
1910
1903
1920
1950
1980
2004
2020
2031
2040
2045
2048
2050
2052
2054
2056
2057
2057
2057
2057
2059
2062
2065
2067
2067
2067
2066
2066
2067
2068
2069
2070
2071
2073
2075
2077
2079
2081
2083
2084
2086
2088
2091
2093
2096
2099
2103
2104
2105
2106
2107
2109
2114
2118
2122
2122
2119
2116
2113
2110
2108
2105
2101
2096
2091
2085
2078
2072
2065
2059
2053
2048
2044
2040
2037
2034
2032
2031
2030
2029
2027
2025
2025
2026
2028
2031
2031
2030
2028
2026
2025
2027
2028
2029
2029
2029
2030
2029
2030
2030
2030
2029
2029
2029
2030
2030
2031
2029
2031
2029
2030
2027
2026
2025
2026
2029
2032
2033
2031
2028
2026
2024
2026
2025
2027
2026
2026
2025
2025
2025
2025
2025
2025
2025
2025
2026
2027
2027
2027
2027
2027
2025
2026
2024
2024
2024
2026
2028
2030
2030
2029
2028
2026
2026
2027
2027
2029
2030
2030
2029
2029
2028
2028
2028
2029
2029
2030
2030
2030
2030
2030
2031
2030
2031
2030
2029
2029
2030
2033
2035
2036
2036
2034
2032
2030
2031
2031
2032
2033
2033
2033
2033
2033
2033
2033
2034
2034
2035
2034
2034
2034
2034
2035
2035
2035
2035
2033
2032
2033
2035
2038
2039
2039
2038
2036
2035
2038
2039
2041
2041
2041
2041
2042
2041
2040
2039
2038
2037
2036
2034
2035
2034
2033
2035
2036
2036
2036
2034
2033
2035
2038
2042
2045
2044
2048
2059
2083
2118
2156
2184
2190
2164
2108
2036
1966
1916
1897
1905
1931
1964
1991
2011
2025
2036
2044
2048
2052
2053
2054
2055
2057
2059
2063
2066
2066
2066
2065
2064
2064
2065
2067
2068
2070
2071
2073
2074
2075
2076
2078
2079
2081
2082
2084
2085
2088
2090
2095
2097
2098
2099
2101
2104
2110
2116
2121
2122
2121
2118
2117
2116
2118
2117
2117
2115
2112
2109
2104
2099
2092
2084
2077
2070
2064
2059
2054
2050
2046
2044
2040
2037
2033
2031
2030
2030
2032
2034
2034
2032
2031
2029
2028
2029
2030
2030
2030
2030
2031
2031
2031
2031
2032
2032
2032
2032
2033
2033
2034
2034
2034
2034
2033
2032
2031
2031
2032
2034
2036
2037
2036
2034
2032
2030
2031
2031
2032
2031
2031
2030
2030
2030
2029
2029
2029
2030
2030
2030
2031
2030
2030
2030
2030
2030
2028
2028
2027
2028
2030
2032
2033
2033
2030
2029
2028
2028
2030
2029
2031
2031
2032
2030
2028
2027
2027
2030
2034
2037
2036
2034
2031
2028
2029
2031
2032
2032
2030
2030
2030
2031
2034
2036
2036
2035
2033
2031
2030
2032
2032
2034
2033
2033
2033
2033
2034
2034
2035
2035
2035
2035
2035
2035
2035
2034
2035
2035
2035
2034
2033
2033
2035
2036
2038
2038
2036
2035
2034
2033
2035
2036
2037
2036
2036
2035
2035
2036
2038
2039
2039
2038
2037
2036
2035
2034
2036
2039
2041
2042
2042
2041
2040
2041
2044
2045
2046
2043
2039
2036
2034
2034
2034
2035
2035
2035
2035
2036
2037
2037
2037
2037
2037
2036
2037
2044
2060
2088
2123
2159
2180
2178
2143
2082
2012
1952
1916
1911
1928
1957
1985
2007
2021
2032
2040
2046
2048
2050
2052
2054
2055
2056
2057
2058
2059
2060
2062
2063
2064
2065
2067
2067
2067
2066
2065
2067
2071
2075
2079
2081
2081
2080
2079
2079
2083
2084
2088
2091
2094
2097
2100
2103
2105
2107
2108
2110
2112
2113
2115
2115
2115
2116
2115
2113
2111
2106
2102
2098
2095
2092
2087
2080
2072
2064
2056
2052
2048
2045
2043
2040
2038
2035
2033
2032
2031
2030
2030
2030
2030
2031
2031
2030
2031
2031
2031
2030
2029
2029
2030
2033
2036
2038
2037
2035
2032
2030
2031
2032
2033
2033
2033
2032
2032
2032
2032
2032
2033
2033
2033
2032
2032
2032
2032
2032
2031
2030
2031
2030
2028
2029
2030
2032
2034
2034
2032
2030
2028
2028
2028
2028
2030
2030
2030
2030
2030
2030
2029
2030
2030
2030
2031
2031
2031
2031
2030
2031
2031
2031
2030
2029
2029
2031
2034
2036
2036
2035
2032
2030
2029
2031
2031
2033
2033
2034
2033
2033
2032
2032
2033
2033
2034
2034
2034
2034
2033
2033
2034
2034
2034
2033
2032
2032
2034
2037
2039
2039
2037
2036
2034
2033
2034
2035
2035
2035
2035
2035
2035
2035
2035
2036
2038
2038
2038
2037
2036
2036
2035
2038
2038
2038
2035
2034
2034
2037
2043
2048
2050
2048
2045
2040
2037
2037
2036
2037
2036
2035
2034
2034
2034
2035
2035
2035
2035
2035
2034
2034
2035
2036
2038
2040
2045
2057
2080
2113
2151
2182
2192
2171
2117
2046
1973
1920
1897
1902
1926
1957
1985
2005
2019
2030
2037
2044
2048
2051
2054
2055
2056
2057
2058
2059
2063
2062
2062
2060
2059
2061
2065
2071
2076
2078
2075
2072
2070
2069
2072
2074
2077
2078
2080
2082
2085
2087
2089
2092
2095
2097
2100
2103
2105
2108
2110
2112
2114
2114
2114
2112
2111
2111
2114
2117
2116
2111
2103
2093
2085
2081
2076
2072
2066
2060
2055
2049
2045
2042
2039
2036
2034
2033
2031
2030
2029
2027
2028
2028
2028
2026
2023
2022
2024
2028
2033
2036
2035
2032
2029
2026
2027
2027
2029
2030
2031
2032
2032
2032
2031
2030
2030
2031
2032
2032
2032
2032
2030
2029
2029
2030
2029
2028
2027
2027
2030
2034
2035
2034
2030
2026
2025
2026
2027
2029
2028
2027
2027
2028
2029
2030
2030
2029
2028
2027
2027
2027
2029
2029
2030
2030
2029
2028
2025
2024
2026
2030
2034
2036
2036
2032
2029
2025
2026
2028
2030
2030
2031
2030
2030
2030
2030
2029
2030
2031
2032
2032
2032
2031
2031
2030
2033
2033
2032
2030
2028
2028
2030
2035
2039
2040
2039
2037
2037
2037
2040
2040
2039
2037
2035
2034
2034
2033
2032
2032
2032
2032
2033
2034
2035
2034
2034
2035
2034
2033
2034
2033
2034
2039
2052
2075
2107
2142
2174
2191
2182
2144
2078
2004
1939
1899
1891
1907
1938
1970
1996
2014
2027
2036
2042
2047
2049
2052
2055
2058
2057
2057
2054
2054
2057
2063
2070
2074
2074
2070
2067
2065
2065
2069
2071
2074
2075
2077
2078
2079
2080
2082
2084
2086
2089
2091
2094
2097
2100
2104
2108
2110
2111
2112
2113
2115
2116
2117
2119
2122
2124
2124
2122
2115
2107
2099
2091
2086
2082
2077
2070
2063
2056
2052
2049
2047
2044
2041
2036
2033
2030
2031
2031
2029
2025
2022
2021
2025
2030
2035
2037
2035
2030
2027
2024
2028
2029
2030
2030
2031
2031
2031
2031
2031
2032
2032
2032
2033
2033
2033
2033
2032
2033
2033
2034
2032
2030
2029
2031
2034
2037
2038
2036
2033
2030
2028
2029
2030
2031
2031
2031
2030
2030
2029
2029
2029
2029
2030
2030
2030
2030
2030
2030
2029
2029
2030
2029
2028
2027
2028
2031
2034
2036
2034
2032
2030
2030
2030
2031
2031
2029
2028
2029
2031
2033
2033
2032
2031
2031
2032
2032
2032
2032
2032
2031
2032
2032
2033
2032
2031
2031
2033
2035
2036
2036
2035
2033
2032
2032
2033
2034
2034
2034
2034
2034
2035
2035
2035
2036
2036
2036
2036
2036
2036
2036
2034
2036
2036
2036
2035
2034
2034
2036
2038
2040
2041
2039
2037
2036
2034
2035
2036
2036
2037
2038
2040
2042
2043
2043
2042
2041
2039
2038
2038
2038
2038
2036
2038
2036
2036
2035
2034
2035
2036
2038
2040
2040
2039
2036
2035
2033
2037
2047
2068
2099
2136
2168
2181
2166
2120
2054
1987
1934
1909
1914
1938
1970
1998
2018
2032
2039
2044
2046
2048
2050
2055
2061
2063
2063
2061
2059
2058
2058
2062
2062
2063
2064
2065
2066
2067
2069
2070
2070
2071
2072
2074
2075
2077
2079
2082
2085
2087
2088
2088
2090
2094
2099
2106
2110
2112
2112
2111
2111
2113
2115
2116
2117
2117
2116
2115
2114
2112
2108
2104
2098
2091
2084
2077
2071
2065
2060
2056
2051
2047
2041
2036
2033
2034
2037
2040
2040
2036
2031
2028
2025
2027
2029
2029
2030
2030
2031
2031
2031
2031
2030
2031
2031
2032
2032
2033
2033
2033
2035
2034
2033
2032
2031
2031
2034
2036
2039
2038
2036
2033
2031
2031
2033
2033
2033
2033
2033
2032
2032
2032
2032
2032
2032
2032
2032
2032
2032
2031
2031
2031
2031
2030
2029
2029
2029
2031
2033
2035
2035
2033
2031
2030
2028
2029
2030
2031
2032
2032
2032
2032
2032
2031
2032
2031
2031
2032
2032
2032
2032
2032
2032
2033
2033
2033
2031
2030
2031
2033
2036
2039
2039
2038
2035
2033
2032
2034
2034
2035
2035
2035
2035
2035
2036
2036
2036
2036
2036
2036
2036
2036
2036
2035
2036
2037
2036
2036
2035
2035
2037
2039
2041
2041
2039
2037
2036
2036
2037
2038
2037
2036
2036
2035
2036
2037
2038
2039
2039
2038
2037
2036
2036
2037
2038
2041
2041
2040
2038
2035
2035
2037
2041
2043
2045
2043
2041
2039
2038
2038
2039
2039
2039
2038
2038
2038
2039
2039
2039
2039
2039
2039
2039
2040
2040
2041
2041
2042
2042
2040
2040
2039
2041
2045
2048
2051
2051
2049
2048
2045
2044
2043
2043
2042
2041
2041
2041
2041
2040
2040
2040
2039
2039
2038
2039
2039
2039
2039
2041
2041
2040
2038
2037
2044
2062
2092
2128
2163
2184
2183
2153
2096
2029
1963
1919
1904
1915
1942
1974
2000
2017
2030
2039
2046
2050
2054
2057
2060
2063
2065
2067
2067
2066
2065
2066
2068
2072
2075
2077
2077
2075
2074
2073
2076
2078
2080
2082
2083
2085
2087
2088
2090
2092
2094
2096
2099
2102
2105
2107
2109
2113
2116
2119
2120
2120
2122
2123
2126
2127
2128
2127
2124
2121
2117
2114
2109
2105
2099
2092
2086
2079
2073
2067
2061
2055
2049
2045
2040
2036
2034
2030
2028
2027
2025
2024
2023
2023
2024
2025
2026
2026
2025
2025
2024
2023
2024
2025
2025
2025
2026
2026
2027
2028
2027
2028
2027
2028
2028
2027
2027
2026
2024
2025
2025
2025
2024
2023
2022
2023
2026
2028
2029
2028
2025
2023
2021
2022
2022
2023
2024
2024
2022
2019
2017
2017
2021
2024
2027
2026
2023
2020
2018
2018
2018
2022
2022
2021
2020
2019
2020
2022
2026
2028
2028
2025
2023
2022
2021
2023
2024
2024
2024
2023
2024
2024
2024
2025
2025
2026
2025
2025
2025
2025
2026
2026
2028
2029
2029
2026
2023
2023
2024
2029
2033
2034
2032
2028
2025
2025
2026
2029
2030
2030
2030
2030
2030
2030
2030
2031
2031
2031
2032
2031
2031
2031
2032
2032
2035
2033
2032
2030
2028
2030
2034
2038
2040
2039
2035
2033
2032
2032
2036
2037
2038
2040
2041
2041
2039
2038
2036
2035
2034
2033
2033
2032
2032
2032
2032
2033
2033
2032
2031
2031
2031
2033
2035
2036
2037
2036
2034
2033
2036
2049
2073
2106
2143
2173
2181
2160
2109
2040
1970
1918
1897
1904
1931
1964
1992
2011
2026
2035
2042
2045
2047
2048
2052
2056
2060
2061
2061
2060
2059
2058
2060
2062
2064
2065
2066
2067
2067
2068
2069
2070
2072
2073
2075
2076
2078
2080
2082
2085
2087
2090
2091
2093
2096
2099
2103
2108
2112
2114
2115
2116
2117
2118
2119
2120
2120
2119
2118
2116
2112
2107
2101
2095
2089
2082
2076
2069
2063
2057
2051
2048
2043
2039
2035
2033
2032
2032
2033
2033
2030
2028
2026
2026
2026
2027
2028
2028
2028
2028
2028
2028
2028
2028
2028
2029
2029
2030
2030
2030
2030
2030
2031
2031
2031
2030
2030
2031
2033
2035
2036
2035
2034
2032
2031
2030
2031
2031
2032
2031
2031
2030
2030
2029
2029
2029
2029
2030
2030
2029
2029
2029
2028
2029
2029
2029
2027
2026
2026
2027
2030
2033
2033
2032
2029
2028
2026
2028
2029
2029
2030
2030
2030
2030
2030
2031
2031
2031
2030
2032
2031
2030
2030
2028
2030
2032
2033
2032
2029
2028
2028
2032
2035
2038
2037
2033
2031
2030
2031
2033
2033
2032
2032
2032
2032
2033
2033
2034
2034
2034
2034
2033
2033
2033
2033
2033
2036
2035
2034
2032
2031
2031
2035
2039
2041
2040
2037
2034
2033
2032
2036
2036
2036
2036
2035
2036
2036
2037
2037
2037
2037
2036
2036
2036
2037
2036
2037
2037
2037
2037
2035
2035
2035
2037
2040
2042
2043
2042
2041
2041
2043
2044
2044
2043
2041
2040
2039
2038
2039
2038
2038
2037
2036
2036
2035
2035
2035
2035
2036
2037
2036
2035
2034
2034
2035
2037
2039
2044
2054
2076
2106
2141
2170
2177
2155
2104
2037
1971
1923
1905
1914
1941
1973
2000
2018
2030
2038
2044
2048
2050
2052
2054
2053
2053
2054
2058
2062
2066
2068
2066
2064
2062
2063
2065
2066
2068
2069
2070
2071
2073
2074
2076
2077
2078
2080
2082
2084
2086
2088
2091
2094
2096
2098
2100
2103
2105
2110
2114
2118
2120
2119
2118
2117
2116
2117
2117
2115
2113
2110
2104
2099
2093
2087
2080
2073
2067
2060
2055
2050
2046
2041
2038
2036
2033
2032
2030
2028
2027
2027
2029
2031
2031
2030
2028
2026
2025
2027
2027
2028
2028
2029
2028
2028
2028
2028
2029
2029
2030
2030
2030
2031
2031
2031
2033
2033
2033
2032
2032
2031
2033
2034
2035
2034
2032
2031
2029
2029
2030
2031
2031
2030
2030
2029
2029
2029
2029
2029
2029
2030
2029
2028
2030
2029
2028
2030
2030
2030
2029
2028
2027
2028
2031
2034
2036
2033
2032
2029
2028
2028
2029
2030
2030
2030
2030
2030
2030
2031
2031
2031
2031
2032
2031
2031
2031
2032
2032
2033
2033
2032
2031
2030
2031
2033
2035
2037
2036
2034
2033
2032
2032
2033
2034
2034
2034
2034
2034
2035
2035
2035
2035
2034
2034
2034
2034
2034
2035
2035
2037
2036
2035
2033
2032
2032
2035
2038
2041
2041
2039
2037
2035
2033
2035
2034
2035
2035
2036
2038
2039
2040
2041
2041
2042
2044
2045
2045
2045
2043
2042
2041
2040
2038
2035
2034
2034
2037
2040
2042
2041
2038
2036
2033
2035
2036
2039
2040
2040
2042
2043
2043
2046
2055
2074
2104
2141
2175
2194
2186
2147
2082
2010
1946
1906
1895
1910
1939
1971
1998
2018
2033
2042
2047
2050
2052
2055
2057
2059
2061
2062
2064
2065
2065
2067
2067
2068
2069
2070
2071
2072
2073
2074
2075
2076
2077
2079
2079
2081
2084
2087
2091
2093
2094
2094
2096
2097
2100
2104
2107
2110
2113
2115
2117
2118
2119
2120
2121
2121
2121
2120
2118
2116
2112
2108
2102
2095
2089
2081
2074
2070
2066
2062
2058
2051
2045
2040
2035
2034
2034
2032
2032
2030
2029
2028
2027
2027
2027
2027
2028
2029
2029
2029
2029
2029
2028
2030
2030
2030
2029
2028
2028
2030
2034
2036
2037
2035
2032
2031
2029
2031
2032
2031
2031
2030
2030
2030
2030
2031
2031
2030
2030
2030
2028
2030
2030
2029
2030
2028
2028
2028
2027
2029
2030
2032
2032
2032
2030
2029
2027
2027
2027
2027
2027
2027
2027
2028
2028
2028
2028
2028
2028
2028
2027
2027
2027
2027
2028
2027
2030
2029
2028
2026
2024
2025
2028
2033
2035
2035
2031
2028
2027
2026
2029
2028
2029
2029
2029
2029
2030
2030
2031
2031
2030
2030
2030
2030
2030
2030
2031
2032
2031
2032
2030
2030
2030
2031
2034
2036
2037
2035
2033
2031
2030
2032
2032
2033
2033
2033
2033
2033
2034
2034
2034
2034
2033
2033
2033
2034
2035
2034
2036
2036
2035
2033
2031
2030
2032
2037
2041
2043
2042
2039
2038
2037
2041
2042
2042
2041
2040
2039
2038
2037
2036
2035
2034
2033
2033
2033
2033
2034
2032
2033
2033
2033
2032
2031
2031
2031
2034
2035
2036
2041
2050
2073
2104
2141
2170
2177
2155
2104
2036
1967
1917
1897
1905
1932
1965
1993
2013
2026
2036
2042
2046
2048
2049
2051
2053
2055
2058
2060
2062
2063
2063
2062
2062
2062
2064
2065
2067
2068
2070
2070
2072
2073
2074
2076
2077
2079
2081
2083
2086
2088
2090
2093
2095
2098
2101
2103
2105
2108
2112
2117
2121
2123
2123
2123
2122
2122
2123
2122
2120
2117
2113
2108
2103
2096
2090
2083
2076
2069
2063
2057
2051
2047
2042
2040
2037
2033
2030
2028
2027
2028
2030
2031
2031
2029
2027
2025
2024
2026
2027
2028
2028
2027
2027
2027
2027
2028
2029
2029
2030
2030
2029
2029
2028
2028
2029
2029
2029
2028
2026
2026
2026
2028
2028
2027
2026
2024
2022
2022
2022
2021
2020
2019
2018
2019
2019
2019
2019
2019
2019
2018
2018
2018
2018
2018
2018
2018
2021
2020
2019
2016
2015
2016
2019
2024
2026
2026
2023
2021
2020
2020
2023
2022
2022
2023
2023
2024
2024
2024
2024
2024
2024
2023
2023
2024
2024
2024
2026
2026
2025
2025
2024
2024
2026
2028
2032
2032
2032
2030
2028
2027
2027
2028
2029
2029
2029
2029
2029
2030
2031
2031
2031
2031
2030
2030
2030
2030
2031
2031
2033
2033
2033
2031
2029
2029
2031
2036
2040
2041
2038
2034
2032
2030
2032
2032
2033
2033
2034
2035
2035
2036
2037
2038
2040
2040
2040
2039
2039
2038
2037
2037
2036
2036
2034
2033
2033
2035
2037
2039
2039
2037
2035
2033
2032
2033
2033
2033
2033
2032
2034
2045
2065
2097
2134
2167
2180
2165
2120
2052
1980
1923
1894
1897
1922
1956
1988
2011
2027
2040
2048
2053
2055
2055
2055
2055
2058
2060
2061
2062
2063
2063
2064
2065
2066
2067
2067
2068
2069
2070
2071
2072
2074
2075
2078
2079
2082
2083
2084
2087
2091
2096
2100
2103
2105
2106
2107
2109
2113
2116
2120
2122
2124
2125
2126
2127
2127
2128
2127
2126
2123
2119
2113
2107
2099
2093
2086
2078
2071
2063
2057
2052
2048
2046
2041
2036
2030
2027
2024
2025
2026
2026
2024
2022
2023
2025
2030
2035
2038
2037
2034
2031
2029
2029
2031
2033
2034
2034
2034
2033
2032
2032
2036
2041
2045
2047
2045
2041
2038
2038
2039
2041
2041
2041
2039
2038
2038
2038
2039
2039
2039
2038
2037
2036
2036
2037
2037
2038
2039
2038
2037
2036
2035
2037
2039
2041
2043
2042
2040
2039
2038
2038
2039
2039
2040
2040
2040
2041
2041
2041
2041
2041
2040
2041
2041
2042
2041
2041
2042
2043
2042
2042
2040
2038
2039
2043
2047
2049
2048
2047
2044
2041
2041
2043
2043
2044
2044
2044
2045
2045
2045
2045
2044
2042
2042
2042
2042
2042
2042
2043
2044
2044
2043
2042
2041
2041
2043
2045
2047
2046
2045
2043
2041
2041
2042
2043
2044
2044
2044
2044
2043
2043
2042
2042
2042
2042
2042
2043
2043
2044
2044
2044
2043
2043
2041
2039
2039
2042
2045
2048
2049
2048
2048
2047
2048
2050
2050
2050
2048
2046
2045
2044
2043
2042
2041
2040
2040
2040
2040
2041
2041
2041
2041
2041
2041
2040
2040
2039
2040
2042
2044
2049
2061
2085
2118
2155
2185
2192
2169
2115
2044
1974
1926
1908
1917
1944
1976
2002
2020
2032
2041
2047
2050
2053
2055
2057
2058
2059
2060
2061
2063
2064
2066
2067
2067
2066
2067
2068
2070
2071
2071
2072
2073
2074
2075
2077
2078
2080
2082
2084
2087
2089
2091
2093
2094
2099
2101
2103
2103
2102
2103
2107
2115
2122
2126
2125
2122
2119
2116
2117
2117
2114
2109
2104
2099
2094
2088
2082
2076
2069
2063
2057
2052
2048
2044
2040
2038
2039
2036
2034
2029
2025
2025
2029
2035
2039
2039
2035
2031
2027
2026
2028
2027
2030
2029
2030
2031
2032
2032
2032
2032
2031
2031
2031
2031
2032
2032
2033
2034
2033
2031
2028
2026
2027
2030
2035
2038
2037
2034
2030
2028
2028
2028
2029
2029
2029
2029
2029
2029
2029
2029
2029
2028
2028
2027
2028
2028
2029
2028
2031
2030
2029
2026
2024
2024
2027
2032
2036
2037
2036
2032
2029
2026
2027
2027
2030
2030
2030
2031
2031
2031
2032
2032
2033
2033
2032
2032
2032
2031
2033
2034
2035
2034
2032
2030
2029
2031
2035
2039
2040
2039
2035
2030
2028
2030
2031
2033
2034
2034
2035
2034
2034
2034
2034
2034
2034
2034
2034
2034
2034
2033
2034
2034
2034
2033
2032
2032
2034
2037
2040
2041
2039
2035
2032
2030
2031
2032
2032
2031
2030
2029
2028
2027
2026
2026
2026
2027
2027
2028
2028
2028
2029
2029
2031
2031
2031
2029
2029
2031
2037
2043
2048
2048
2045
2041
2037
2035
2035
2036
2036
2035
2035
2036
2037
2038
2038
2037
2037
2037
2038
2038
2039
2038
2038
2038
2038
2036
2032
2033
2044
2068
2105
2145
2178
2189
2171
2124
2058
1991
1938
1912
1915
1939
1970
1998
2018
2030
2038
2044
2048
2050
2052
2052
2054
2054
2057
2059
2060
2059
2057
2057
2060
2064
2069
2071
2071
2068
2067
2067
2069
2071
2072
2073
2074
2076
2079
2082
2084
2086
2088
2090
2092
2095
2097
2099
2101
2104
2109
2110
2111
2109
2108
2111
2116
2123
2126
2126
2121
2114
2109
2104
2101
2094
2090
2082
2076
2070
2064
2059
2054
2049
2045
2042
2039
2037
2034
2031
2030
2029
2030
2029
2028
2028
2030
2033
2037
2039
2037
2034
2031
2029
2030
2031
2031
2031
2031
2031
2031
2031
2031
2031
2031
2031
2031
2031
2031
2030
2031
2030
2032
2032
2031
2027
2024
2023
2026
2031
2035
2036
2033
2028
2025
2022
2025
2026
2027
2026
2026
2026
2027
2026
2025
2023
2022
2022
2024
2025
2025
2024
2021
2023
2023
2024
2024
2023
2023
2024
2027
2030
2031
2029
2028
2025
2024
2024
2025
2025
2026
2027
2027
2027
2027
2027
2027
2028
2028
2030
2030
2031
2029
2027
2027
2028
2032
2034
2035
2033
2032
2032
2033
2035
2035
2033
2031
2030
2031
2033
2033
2032
2032
2032
2032
2032
2033
2033
2034
2034
2034
2034
2034
2033
2033
2034
2035
2035
2034
2033
2032
2033
2035
2038
2040
2039
2037
2035
2033
2035
2038
2041
2042
2043
2042
2042
2040
2038
2036
2034
2034
2034
2034
2035
2034
2034
2034
2035
2036
2036
2036
2035
2035
2036
2038
2040
2043
2051
2071
2101
2138
2173
2189
2178
2135
2070
2001
1945
1917
1917
1939
1968
1996
2015
2028
2036
2042
2046
2049
2051
2053
2053
2053
2054
2055
2059
2061
2063
2062
2061
2060
2060
2061
2063
2064
2065
2065
2066
2067
2068
2070
2071
2073
2074
2076
2077
2079
2080
2080
2085
2087
2089
2091
2091
2092
2094
2098
2102
2105
2107
2106
2105
2103
2103
2103
2102
2101
2098
2095
2092
2088
2084
2080
2076
2071
2066
2060
2056
2051
2048
2046
2044
2043
2040
2038
2036
2035
2036
2038
2040
2039
2038
2036
2034
2034
2034
2035
2035
2035
2036
2036
2037
2037
2037
2037
2036
2036
2036
2037
2036
2037
2037
2039
2038
2037
2034
2033
2033
2037
2041
2044
2043
2040
2036
2034
2032
2034
2033
2034
2033
2033
2033
2033
2033
2032
2032
2031
2031
2031
2032
2032
2033
2032
2033
2033
2032
2030
2029
2029
2031
2034
2037
2037
2035
2033
2031
2030
2031
2031
2032
2031
2032
2032
2031
2032
2032
2032
2031
2031
2032
2032
2032
2032
2031
2033
2032
2031
2028
2025
2025
2028
2033
2037
2038
2035
2030
2026
2024
2026
2029
2030
2031
2031
2031
2030
2029
2029
2029
2030
2031
2032
2032
2034
2034
2035
2035
2034
2034
2033
2033
2034
2037
2039
2040
2039
2036
2031
2028
2026
2027
2028
2028
2028
2028
2028
2029
2030
2029
2029
2028
2028
2028
2029
2031
2031
2035
2045
2065
2096
2134
2168
2186
2178
2139
2078
2008
1948
1912
1903
1918
1945
1974
1996
2012
2024
2032
2037
2041
2043
2045
2047
2048
2049
2050
2051
2052
2053
2053
2055
2057
2058
2058
2058
2059
2060
2063
2066
2067
2067
2065
2065
2065
2067
2069
2071
2072
2073
2075
2077
2080
2082
2085
2087
2090
2092
2094
2095
2097
2096
2099
2099
2099
2097
2095
2093
2091
2091
2090
2087
2083
2077
2072
2066
2062
2056
2051
2047
2043
2041
2038
2036
2034
2032
2030
2027
2025
2023
2022
2021
2021
2021
2021
2021
2020
2019
2019
2020
2023
2027
2030
2031
2031
2029
2029
2029
2030
2031
2031
2030
2031
2030
2030
2030
2029
2028
2028
2028
2027
2027
2027
2027
2026
2029
2029
2028
2025
2023
2022
2025
2030
2034
2035
2032
2028
2026
2024
2026
2026
2026
2026
2025
2026
2026
2026
2026
2026
2025
2026
2027
2027
2028
2028
2027
2028
2029
2028
2027
2025
2025
2026
2029
2031
2032
2030
2028
2026
2025
2026
2027
2029
2029
2030
2030
2029
2030
2029
2029
2030
2031
2032
2033
2033
2033
2032
2033
2033
2032
2029
2027
2025
2027
2032
2036
2038
2036
2032
2029
2028
2031
2035
2037
2038
2039
2039
2038
2036
2034
2032
2030
2030
2030
2030
2031
2031
2031
2031
2031
2032
2031
2031
2030
2031
2032
2034
2036
2039
2050
2072
2105
2145
2179
2192
2176
2129
2061
1993
1938
1910
1911
1931
1960
1987
2007
2021
2030
2033
2037
2039
2043
2047
2048
2048
2047
2047
2048
2056
2062
2063
2060
2056
2054
2057
2062
2067
2067
2060
2053
2049
2048
2053
2055
2056
2056
2057
2058
2061
2066
2069
2074
2075
2078
2081
2086
2092
2096
2101
2105
2111
2116
2118
2118
2111
2106
2100
2097
2097
2098
2098
2093
2087
2081
2075
2073
2071
2070
2066
2060
2055
2051
2052
2050
2048
2044
2039
2037
2037
2042
2043
2043
2041
2038
2037
2036
2038
2038
2039
2041
2043
2044
2042
2042
2039
2037
2039
2039
2040
2038
2038
2038
2038
2039
2040
2039
2038
2037
2036
2037
2040
2041
2042
2040
2037
2035
2033
2034
2034
2034
2034
2034
2035
2036
2036
2036
2036
2034
2032
2031
2030
2030
2029
2028
2026
2027
2025
2024
2022
2020
2019
2022
2025
2029
2030
2028
2026
2024
2023
2025
2024
2025
2025
2025
2025
2025
2024
2023
2022
2020
2020
2021
2022
2023
2024
2023
2024
2024
2024
2022
2021
2020
2022
2025
2027
2028
2027
2025
2024
2024
2027
2029
2031
2032
2033
2033
2031
2029
2027
2026
2025
2026
2026
2026
2026
2026
2025
2027
2027
2026
2024
2021
2020
2022
2027
2033
2039
2048
2066
2096
2134
2171
2191
2180
2136
2067
1993
1930
1895
1888
1905
1934
1963
1986
2004
2018
2027
2034
2039
2042
2043
2043
2044
2045
2048
2050
2053
2056
2056
2055
2055
2055
2056
2059
2061
2062
2064
2065
2067
2068
2070
2072
2074
2077
2080
2083
2085
2087
2088
2089
2092
2094
2098
2100
2102
2105
2108
2112
2115
2115
2115
2114
2113
2113
2114
2114
2114
2111
2108
2104
2100
2095
2089
2083
2076
2070
2064
2059
2053
2049
2045
2043
2042
2039
2036
2034
2032
2033
2035
2036
2037
2035
2032
2031
2030
2032
2034
2034
2034
2033
2033
2033
2033
2034
2034
2035
2036
2036
2037
2036
2036
2035
2037
2036
2037
2036
2034
2033
2034
2036
2039
2039
2038
2035
2033
2033
2035
2035
2035
2034
2033
2032
2032
2031
2032
2032
2033
2033
2033
2033
2033
2033
2034
2034
2035
2035
2034
2033
2032
2032
2034
2037
2039
2038
2036
2034
2032
2033
2034
2035
2035
2036
2037
2037
2038
2037
2035
2033
2032
2031
2030
2030
2030
2030
2031
2033
2033
2032
2029
2026
2026
2031
2037
2042
2043
2045
2054
2077
2111
2152
2181
2189
2165
2110
2038
1965
1910
1885
1890
1915
1948
1979
2001
2017
2028
2036
2043
2048
2049
2050
2050
2052
2055
2058
2062
2062
2061
2060
2059
2059
2062
2063
2065
2066
2068
2069
2070
2071
2072
2074
2075
2077
2079
2081
2083
2086
2088
2093
2095
2096
2096
2096
2098
2103
2111
2118
2121
2119
2115
2112
2110
2112
2112
2111
2108
2104
2100
2095
2090
2084
2079
2073
2067
2060
2054
2049
2044
2040
2036
2033
2031
2028
2027
2025
2025
2025
2026
2027
2025
2024
2023
2021
2023
2024
2024
2024
2023
2023
2023
2023
2023
2024
2023
2024
2024
2024
2025
2024
2024
2024
2025
2025
2025
2025
2024
2024
2025
2026
2027
2027
2026
2024
2024
2023
2024
2024
2025
2024
2023
2023
2023
2023
2024
2024
2025
2024
2024
2024
2023
2023
2022
2024
2024
2024
2023
2022
2023
2024
2026
2027
2027
2026
2024
2023
2022
2024
2024
2025
2025
2024
2025
2025
2025
2026
2026
2027
2027
2027
2027
2027
2027
2027
2029
2029
2028
2026
2024
2023
2025
2029
2035
2037
2038
2035
2032
2030
2030
2030
2030
2029
2029
2028
2027
2027
2027
2027
2029
2028
2028
2028
2028
2027
2028
2028
2032
2032
2037
2051
2077
2113
2153
2181
2181
2147
2083
2007
1940
1898
1892
1907
1938
1971
1996
2013
2025
2034
2039
2043
2046
2047
2048
2050
2052
2053
2054
2056
2057
2058
2057
2057
2057
2059
2062
2065
2067
2068
2068
2070
2071
2074
2076
2078
2079
2081
2083
2085
2088
2090
2093
2095
2097
2100
2103
2105
2108
2109
2112
2114
2115
2114
2113
2113
2114
2116
2117
2116
2111
2105
2098
2090
2085
2080
2074
2069
2063
2058
2052
2048
2044
2041
2039
2036
2035
2034
2033
2032
2031
2032
2032
2032
2031
2030
2030
2030
2033
2035
2036
2036
2033
2032
2031
2032
2033
2034
2035
2035
2035
2035
2035
2034
2034
2034
2035
2036
2036
2033
2031
2029
2030
2033
2037
2038
2036
2032
2030
2030
2032
2034
2035
2033
2031
2030
2030
2031
2032
2032
2031
2031
2031
2031
2030
2030
2029
2030
2030
2030
2031
2031
2029
2030
2030
2030
2029
2028
2028
2029
2031
2033
2034
2033
2031
2030
2030
2031
2032
2032
2032
2032
2031
2032
2032
2032
2033
2033
2033
2033
2032
2031
2031
2031
2031
2033
2033
2033
2031
2030
2030
2032
2035
2037
2037
2036
2034
2033
2032
2033
2034
2034
2034
2034
2034
2034
2034
2034
2035
2035
2035
2035
2034
2034
2034
2034
2035
2036
2036
2034
2031
2031
2033
2037
2041
2042
2040
2037
2033
2032
2032
2033
2034
2034
2034
2034
2033
2031
2030
2031
2033
2035
2036
2037
2037
2037
2036
2034
2036
2033
2030
2028
2026
2027
2030
2035
2038
2037
2033
2030
2028
2027
2031
2031
2031
2030
2030
2035
2048
2071
2103
2139
2167
2172
2149
2098
2031
1967
1922
1906
1915
1941
1970
1995
2011
2023
2034
2040
2045
2047
2047
2047
2048
2050
2051
2053
2053
2054
2055
2056
2058
2059
2059
2060
2060
2061
2062
2063
2065
2065
2068
2071
2072
2073
2073
2075
2078
2082
2087
2090
2092
2092
2092
2093
2096
2099
2102
2105
2107
2108
2109
2109
2109
2109
2109
2108
2107
2105
2102
2099
2093
2089
2083
2077
2070
2063
2057
2054
2052
2050
2048
2043
2038
2034
2032
2032
2033
2034
2034
2033
2032
2032
2031
2031
2032
2033
2033
2034
2034
2035
2034
2034
2034
2034
2033
2032
2032
2031
2031
2033
2035
2036
2034
2033
2031
2029
2030
2031
2031
2031
2031
2030
2031
2030
2030
2029
2029
2029
2029
2029
2029
2028
2027
2027
2028
2027
2028
2027
2026
2026
2027
2029
2030
2029
2028
2026
2025
2024
2026
2026
2027
2027
2027
2027
2027
2028
2028
2029
2029
2029
2029
2029
2028
2028
2028
2028
2029
2028
2028
2027
2027
2029
2031
2032
2033
2031
2030
2029
2028
2029
2030
2030
2030
2029
2030
2029
2029
2029
2029
2029
2030
2030
2030
2030
2030
2028
2031
2031
2032
2031
2029
2028
2029
2031
2034
2035
2034
2032
2031
2029
2030
2029
2030
2030
2031
2032
2033
2032
2032
2031
2031
2030
2032
2032
2033
2035
2037
2039
2040
2039
2037
2034
2031
2031
2032
2034
2036
2035
2033
2031
2029
2030
2031
2032
2032
2031
2031
2033
2035
2035
2037
2042
2054
2080
2113
2151
2179
2185
2162
2112
2042
1972
1918
1893
1896
1922
1956
1986
2007
2020
2028
2034
2039
2045
2047
2049
2051
2053
2056
2058
2059
2060
2060
2060
2060
2061
2063
2064
2066
2067
2069
2070
2070
2069
2069
2071
2074
2079
2082
2084
2083
2083
2083
2085
2089
2092
2095
2097
2100
2103
2104
2106
2107
2108
2110
2111
2111
2111
2111
2110
2107
2107
2104
2099
2092
2084
2078
2075
2075
2074
2069
2061
2051
2044
2039
2037
2036
2034
2032
2031
2030
2029
2028
2028
2028
2029
2030
2030
2030
2030
2030
2030
2029
2030
2030
2029
2030
2030
2031
2033
2034
2035
2034
2032
2030
2029
2031
2032
2032
2031
2031
2030
2031
2031
2030
2030
2028
2029
2029
2029
2030
2029
2028
2028
2028
2028
2028
2027
2026
2026
2026
2028
2029
2029
2028
2027
2027
2027
2028
2028
2027
2027
2026
2027
2027
2027
2028
2028
2028
2028
2028
2028
2028
2028
2028
2028
2028
2029
2029
2028
2028
2029
2030
2031
2032
2032
2031
2030
2030
2030
2031
2031
2031
2031
2031
2031
2032
2032
2032
2032
2032
2032
2032
2032
2032
2032
2033
2033
2033
2032
2032
2032
2035
2039
2041
2042
2041
2038
2037
2035
2034
2033
2032
2031
2032
2033
2035
2035
2034
2034
2034
2033
2034
2034
2035
2036
2037
2041
2055
2077
2107
2143
2174
2187
2173
2129
2063
1989
1928
1893
1889
1908
1944
1976
2002
2020
2031
2038
2041
2044
2048
2050
2053
2054
2055
2056
2057
2058
2060
2063
2063
2064
2063
2062
2062
2064
2068
2071
2074
2074
2073
2073
2073
2076
2077
2080
2082
2084
2087
2090
2093
2096
2099
2101
2102
2105
2107
2109
2111
2112
2115
2115
2115
2112
2109
2107
2106
2108
2108
2105
2098
2088
2079
2070
2066
2061
2056
2052
2048
2044
2040
2037
2034
2032
2031
2030
2029
2028
2028
2027
2026
2028
2027
2028
2026
2025
2025
2025
2028
2030
2031
2032
2030
2028
2027
2028
2028
2029
2029
2028
2027
2027
2028
2030
2031
2032
2031
2031
2030
2031
2031
2030
2029
2029
2029
2028
2026
2025
2025
2028
2032
2035
2034
2030
2026
2024
2024
2026
2028
2028
2027
2025
2026
2026
2027
2029
2029
2028
2027
2026
2026
2028
2027
2028
2028
2027
2027
2025
2024
2024
2027
2032
2034
2034
2031
2028
2026
2026
2027
2028
2029
2029
2029
2029
2028
2028
2029
2029
2030
2030
2031
2030
2030
2031
2029
2033
2032
2031
2030
2029
2030
2032
2035
2037
2035
2033
2030
2030
2030
2033
2033
2033
2032
2032
2032
2032
2032
2033
2033
2033
2033
2033
2033
2033
2033
2033
2035
2035
2035
2032
2030
2029
2032
2038
2043
2046
2045
2042
2038
2035
2036
2035
2034
2033
2033
2033
2033
2034
2034
2033
2032
2031
2031
2031
2032
2033
2032
2034
2036
2035
2035
2041
2058
2088
2128
2165
2183
2169
2123
2055
1984
1927
1900
1901
1924
1956
1987
2010
2025
2034
2041
2045
2048
2050
2051
2053
2055
2056
2058
2061
2061
2061
2059
2057
2056
2059
2065
2070
2072
2071
2069
2067
2066
2070
2072
2074
2075
2077
2080
2084
2087
2089
2091
2091
2092
2095
2099
2103
2106
2106
2110
2112
2114
2113
2109
2106
2107
2112
2119
2123
2120
2112
2101
2091
2086
2081
2076
2072
2066
2060
2054
2049
2045
2041
2038
2035
2034
2032
2031
2030
2028
2029
2029
2028
2027
2024
2023
2024
2028
2033
2036
2035
2030
2026
2024
2025
2028
2030
2031
2030
2029
2029
2029
2030
2030
2030
2030
2029
2029
2029
2030
2029
2029
2030
2029
2028
2025
2023
2024
2027
2031
2035
2034
2031
2027
2023
2021
2023
2024
2026
2026
2027
2027
2026
2025
2025
2025
2026
2027
2027
2026
2026
2026
2026
2027
2028
2027
2025
2024
2024
2026
2030
2033
2033
2031
2028
2027
2027
2028
2029
2029
2029
2028
2029
2029
2029
2030
2030
2031
2031
2031
2031
2030
2030
2030
2031
2031
2032
2031
2030
2030
2031
2034
2037
2038
2037
2034
2032
2030
2031
2033
2033
2033
2033
2033
2033
2033
2033
2034
2033
2033
2033
2033
2034
2034
2033
2034
2035
2035
2033
2032
2030
2031
2034
2038
2042
2042
2040
2036
2033
2032
2032
2033
2033
2034
2034
2034
2035
2036
2037
2037
2036
2035
2035
2035
2034
2036
2036
2038
2037
2036
2035
2035
2037
2041
2045
2047
2047
2044
2041
2038
2036
2037
2035
2035
2035
2035
2035
2034
2034
2035
2035
2035
2035
2035
2034
2034
2034
2033
2036
2042
2057
2080
2112
2146
2169
2171
2141
2085
2015
1951
1913
1904
1922
1952
1983
2005
2021
2031
2039
2045
2048
2048
2049
2049
2051
2052
2054
2055
2055
2058
2058
2060
2059
2055
2053
2053
2057
2064
2071
2073
2071
2067
2064
2066
2068
2073
2076
2077
2080
2081
2083
2085
2087
2090
2092
2095
2098
2101
2103
2104
2108
2108
2110
2109
2107
2106
2107
2109
2110
2109
2104
2097
2090
2081
2078
2071
2067
2061
2055
2049
2046
2041
2037
2034
2032
2030
2029
2028
2028
2027
2026
2026
2026
2026
2024
2024
2023
2024
2027
2029
2031
2030
2028
2025
2024
2025
2027
2027
2028
2028
2028
2028
2029
2028
2028
2028
2028
2028
2026
2025
2025
2025
2028
2032
2032
2031
2027
2024
2022
2024
2027
2029
2029
2028
2026
2025
2024
2026
2026
2027
2026
2026
2026
2026
2025
2026
2026
2026
2026
2026
2026
2027
2027
2026
2027
2027
2027
2027
2027
2027
2027
2029
2030
2031
2030
2029
2027
2027
2028
2028
2029
2028
2029
2028
2028
2029
2029
2030
2030
2031
2030
2030
2030
2030
2029
2031
2031
2032
2031
2029
2028
2029
2031
2033
2035
2034
2033
2031
2031
2032
2032
2032
2030
2030
2030
2030
2031
2032
2033
2034
2034
2034
2034
2033
2032
2032
2032
2034
2034
2033
2031
2030
2030
2033
2035
2038
2039
2038
2036
2035
2033
2035
2034
2035
2035
2035
2036
2036
2037
2037
2036
2036
2036
2037
2037
2037
2037
2037
2037
2037
2039
2039
2039
2040
2042
2044
2045
2045
2043
2039
2036
2033
2035
2035
2036
2035
2035
2035
2035
2036
2037
2037
2036
2035
2035
2035
2035
2036
2040
2054
2078
2111
2144
2168
2172
2149
2102
2040
1977
1928
1905
1909
1931
1963
1990
2012
2025
2035
2042
2046
2048
2049
2051
2053
2054
2056
2056
2058
2059
2059
2062
2062
2063
2062
2061
2061
2062
2066
2070
2073
2074
2073
2073
2073
2075
2078
2080
2082
2083
2085
2086
2089
2092
2094
2096
2099
2101
2104
2107
2109
2110
2110
2112
2112
2112
2111
2111
2110
2109
2108
2104
2099
2091
2084
2078
2072
2067
2062
2056
2051
2048
2044
2040
2037
2034
2032
2031
2031
2030
2029
2029
2029
2029
2029
2029
2029
2027
2027
2028
2029
2032
2033
2033
2031
2030
2030
2030
2031
2031
2031
2031
2030
2031
2031
2031
2031
2031
2031
2031
2031
2030
2030
2030
2029
2029
2029
2029
2029
2029
2028
2029
2029
2031
2031
2031
2029
2027
2027
2026
2027
2028
2027
2027
2027
2027
2028
2028
2029
2029
2029
2028
2028
2027
2027
2027
2028
2029
2029
2029
2028
2026
2027
2029
2031
2032
2032
2031
2030
2029
2030
2029
2030
2030
2029
2031
2030
2030
2030
2030
2031
2033
2034
2034
2033
2032
2032
2032
2036
2036
2034
2031
2028
2029
2033
2038
2042
2042
2038
2034
2032
2031
2034
2032
2032
2031
2030
2030
2030
2031
2031
2032
2032
2032
2032
2031
2030
2030
2031
2033
2035
2037
2036
2036
2035
2036
2038
2038
2038
2036
2032
2031
2028
2030
2030
2031
2031
2031
2032
2032
2033
2032
2033
2033
2035
2036
2038
2047
2063
2090
2129
2164
2187
2182
2147
2087
2017
1954
1913
1899
1906
1928
1956
1980
2001
2017
2028
2037
2043
2047
2048
2050
2051
2052
2054
2055
2056
2058
2059
2060
2060
2062
2062
2063
2062
2061
2062
2065
2069
2073
2076
2076
2075
2074
2075
2077
2080
2083
2084
2087
2089
2092
2095
2097
2099
2102
2104
2107
2109
2111
2112
2112
2112
2112
2111
2109
2105
2101
2098
2095
2093
2088
2082
2073
2065
2058
2052
2049
2046
2042
2038
2036
2033
2031
2029
2027
2026
2025
2025
2026
2026
2026
2026
2026
2026
2026
2026
2026
2026
2027
2027
2029
2029
2030
2030
2028
2028
2028
2029
2029
2029
2029
2028
2029
2029
2029
2029
2030
2030
2029
2029
2028
2027
2026
2025
2026
2026
2025
2025
2024
2024
2024
2026
2027
2027
2026
2025
2023
2023
2024
2024
2024
2023
2023
2022
2023
2023
2024
2025
2025
2025
2024
2024
2024
2024
2024
2025
2026
2027
2025
2024
2022
2023
2025
2027
2029
2028
2027
2025
2024
2025
2025
2027
2027
2027
2027
2027
2027
2027
2028
2029
2029
2029
2029
2030
2030
2031
2030
2032
2031
2031
2030
2028
2028
2030
2033
2036
2037
2035
2034
2032
2030
2033
2033
2033
2033
2033
2033
2033
2033
2033
2034
2034
2034
2034
2034
2034
2035
2038
2040
2041
2042
2040
2038
2037
2038
2041
2043
2042
2038
2033
2030
2030
2035
2038
2041
2039
2036
2034
2033
2034
2035
2037
2036
2035
2038
2048
2071
2103
2138
2172
2183
2165
2115
2043
1969
1914
1895
1907
1939
1974
2000
2015
2023
2033
2040
2048
2051
2052
2055
2055
2056
2057
2058
2060
2061
2062
2063
2064
2065
2064
2067
2067
2068
2068
2066
2067
2069
2074
2079
2082
2083
2082
2082
2081
2086
2088
2092
2094
2097
2100
2103
2106
2109
2111
2114
2116
2118
2119
2120
2120
2120
2119
2119
2116
2112
2108
2102
2097
2093
2088
2082
2074
2066
2058
2051
2047
2044
2040
2036
2034
2031
2030
2029
2028
2028
2027
2026
2026
2026
2026
2026
2026
2026
2026
2027
2027
2027
2026
2026
2026
2027
2028
2029
2028
2027
2026
2026
2027
2027
2027
2027
2026
2026
2025
2025
2026
2026
2026
2026
2026
2025
2025
2025
2024
2025
2025
2025
2024
2023
2023
2023
2024
2026
2025
2024
2023
2021
2021
2022
2023
2023
2022
2023
2023
2023
2023
2022
2022
2022
2021
2021
2021
2021
2021
2021
2023
2023
2023
2021
2020
2019
2021
2024
2026
2027
2026
2024
2023
2022
2024
2023
2024
2023
2023
2024
2024
2024
2025
2025
2025
2024
2024
2025
2026
2027
2027
2027
2029
2027
2026
2023
2023
2023
2027
2031
2034
2033
2031
2029
2029
2029
2034
2034
2033
2032
2031
2030
2029
2029
2029
2028
2027
2025
2024
2024
2024
2025
2025
2027
2026
2026
2024
2022
2021
2023
2030
2046
2071
2105
2141
2169
2174
2152
2098
2028
1957
1908
1890
1901
1930
1963
1991
2008
2020
2028
2033
2038
2041
2042
2047
2047
2048
2047
2046
2047
2049
2054
2059
2061
2059
2056
2054
2053
2056
2058
2059
2061
2062
2064
2065
2067
2069
2070
2072
2074
2077
2080
2083
2086
2088
2091
2093
2096
2097
2099
2101
2102
2106
2108
2110
2110
2108
2106
2103
2101
2099
2096
2092
2086
2080
2073
2066
2060
2053
2048
2044
2040
2037
2033
2030
2027
2025
2024
2022
2021
2020
2019
2019
2020
2023
2024
2024
2023
2021
2021
2021
2022
2023
2023
2024
2024
2024
2025
2024
2025
2024
2025
2025
2025
2026
2026
2025
2025
2025
2026
2026
2026
2025
2024
2024
2025
2027
2028
2027
2025
2023
2022
2023
2023
2024
2024
2023
2023
2022
2022
2022
2023
2023
2023
2024
2023
2024
2024
2023
2025
2025
2025
2024
2023
2023
2024
2026
2028
2028
2026
2025
2025
2026
2027
2027
2027
2026
2026
2026
2027
2028
2028
2029
2029
2029
2028
2029
2029
2029
2029
2030
2029
2029
2030
2029
2028
2028
2030
2032
2034
2034
2033
2031
2030
2031
2030
2031
2032
2031
2031
2031
2030
2032
2032
2031
2031
2031
2032
2033
2033
2033
2032
2034
2035
2036
2036
2037
2037
2040
2042
2042
2040
2036
2032
2030
2029
2030
2030
2030
2030
2030
2031
2032
2032
2033
2032
2032
2031
2031
2031
2035
2047
2069
2103
2142
2174
2185
2166
2116
2047
1976
1922
1897
1900
1922
1954
1981
2002
2016
2025
2031
2035
2039
2042
2044
2045
2046
2047
2047
2048
2049
2050
2051
2050
2053
2055
2056
2055
2052
2050
2052
2058
2066
2073
2074
2071
2067
2065
2067
2071
2075
2078
2080
2083
2085
2088
2090
2092
2095
2097
2100
2102
2104
2105
2105
2106
2105
2104
2102
2099
2096
2094
2092
2090
2085
2079
2071
2062
2055
2050
2046
2043
2039
2035
2033
2030
2029
2027
2026
2025
2025
2024
2024
2024
2024
2024
2024
2025
2025
2024
2023
2022
2022
2025
2028
2030
2031
2028
2026
2025
2025
2027
2028
2028
2028
2028
2028
2027
2027
2027
2027
2028
2028
2028
2028
2028
2027
2027
2027
2027
2027
2027
2026
2026
2025
2027
2027
2028
2028
2026
2026
2025
2027
2027
2027
2027
2027
2027
2027
2026
2027
2028
2028
2026
2024
2024
2026
2030
2033
2035
2033
2029
2026
2024
2025
2027
2030
2031
2031
2030
2029
2028
2028
2029
2030
2030
2030
2030
2030
2030
2030
2031
2031
2031
2032
2031
2031
2031
2032
2032
2033
2033
2034
2033
2032
2031
2032
2034
2036
2038
2037
2036
2034
2033
2035
2035
2036
2036
2036
2037
2037
2036
2038
2038
2037
2036
2036
2035
2035
2037
2039
2041
2044
2046
2046
2044
2043
2041
2041
2043
2044
2044
2042
2040
2039
2036
2038
2037
2037
2038
2038
2039
2039
2039
2039
2040
2040
2041
2045
2056
2078
2110
2148
2182
2195
2178
2127
2056
1985
1931
1908
1912
1936
1965
1990
2010
2023
2036
2043
2048
2050
2053
2055
2057
2060
2061
2062
2062
2062
2063
2063
2065
2066
2066
2070
2070
2071
2071
2068
2067
2068
2074
2082
2088
2089
2087
2084
2082
2084
2087
2092
2096
2098
2101
2103
2105
2107
2108
2111
2113
2115
2116
2117
2118
2117
2119
2117
2115
2111
2106
2102
2098
2096
2092
2086
2079
2070
2063
2055
2053
2048
2046
2044
2041
2039
2037
2035
2035
2034
2033
2033
2033
2033
2033
2034
2034
2033
2035
2034
2036
2035
2035
2034
2035
2038
2040
2042
2041
2039
2038
2036
2037
2036
2038
2038
2038
2038
2038
2037
2035
2035
2035
2035
2035
2035
2035
2035
2034
2034
2034
2034
2033
2032
2032
2031
2032
2033
2033
2033
2031
2031
2031
2032
2031
2032
2031
2031
2031
2032
2033
2034
2036
2037
2036
2036
2035
2035
2036
2036
2037
2037
2037
2037
2036
2036
2037
2038
2039
2039
2038
2037
2036
2036
2037
2038
2038
2038
2038
2037
2037
2037
2037
2038
2038
2039
2040
2040
2041
2041
2042
2043
2042
2042
2041
2041
2041
2042
2043
2043
2043
2042
2042
2044
2046
2048
2048
2048
2047
2045
2044
2043
2042
2043
2042
2041
2039
2037
2037
2037
2039
2040
2041
2041
2040
2039
2038
2040
2041
2043
2050
2065
2089
2120
2156
2185
2194
2176
2125
2054
1981
1925
1897
1899
1922
1953
1982
2004
2020
2032
2041
2048
2051
2054
2056
2059
2060
2058
2055
2053
2054
2057
2060
2061
2059
2055
2053
2051
2054
2056
2058
2059
2061
2064
2066
2068
2069
2071
2072
2074
2077
2080
2083
2086
2089
2093
2098
2100
2100
2099
2100
2103
2109
2116
2118
2116
2112
2107
2104
2103
2102
2097
2093
2086
2079
2072
2065
2059
2052
2048
2042
2038
2033
2030
2028
2025
2025
2022
2022
2020
2018
2018
2018
2020
2022
2023
2023
2022
2021
2020
2021
2021
2022
2023
2022
2023
2023
2022
2022
2022
2022
2023
2023
2024
2024
2025
2024
2024
2024
2024
2024
2023
2023
2023
2023
2025
2026
2025
2024
2023
2022
2022
2023
2023
2023
2023
2022
2023
2022
2022
2022
2021
2022
2022
2023
2023
2023
2023
2022
2022
2022
2023
2022
2022
2022
2022
2024
2026
2027
2026
2025
2024
2022
2023
2024
2026
2026
2025
2025
2024
2024
2024
2024
2025
2026
2026
2026
2026
2026
2025
2027
2027
2027
2026
2025
2025
2026
2028
2030
2030
2028
2027
2026
2026
2028
2029
2029
2029
2029
2028
2028
2028
2028
2029
2030
2031
2030
2030
2030
2030
2030
2031
2031
2032
2032
2031
2030
2030
2031
2033
2035
2036
2035
2034
2032
2031
2031
2031
2033
2032
2033
2033
2033
2032
2033
2033
2034
2034
2036
2037
2039
2040
2040
2039
2036
2034
2032
2030
2030
2031
2033
2035
2036
2036
2035
2033
2031
2032
2032
2032
2033
2033
2032
2033
2040
2056
2084
2119
2155
2177
2174
2141
2081
2009
1949
1910
1902
1917
1947
1979
2007
2028
2042
2049
2050
2048
2048
2047
2052
2053
2055
2055
2057
2060
2061
2062
2061
2059
2059
2061
2063
2065
2068
2068
2067
2070
2071
2072
2071
2070
2070
2075
2081
2088
2089
2088
2086
2087
2093
2102
2107
2109
2107
2105
2105
2108
2111
2112
2112
2112
2112
2112
2111
2109
2106
2102
2097
2092
2086
2078
2069
2061
2057
2057
2057
2054
2048
2041
2034
2029
2027
2028
2028
2027
2026
2026
2026
2026
2026
2026
2026
2025
2025
2026
2026
2027
2027
2027
2029
2029
2028
2026
2025
2026
2029
2034
2036
2036
2033
2030
2028
2026
2029
2031
2031
2030
2029
2028
2028
2029
2031
2031
2030
2029
2027
2026
2027
2026
2026
2027
2027
2027
2024
2023
2022
2024
2028
2032
2033
2031
2027
2024
2022
2025
2026
2027
2027
2026
2027
2027
2028
2028
2028
2028
2028
2028
2028
2028
2028
2027
2029
2030
2031
2029
2026
2025
2026
2029
2033
2035
2034
2031
2028
2027
2029
2030
2032
2031
2031
2030
2031
2032
2032
2033
2033
2033
2033
2033
2033
2032
2032
2033
2034
2035
2033
2032
2031
2032
2036
2039
2041
2040
2037
2035
2033
2033
2034
2036
2035
2035
2035
2035
2036
2037
2038
2037
2036
2036
2036
2037
2039
2041
2042
2043
2040
2038
2035
2034
2036
2039
2043
2047
2047
2044
2040
2037
2036
2037
2039
2039
2039
2040
2040
2040
2040
2040
2040
2040
2040
2039
2039
2038
2037
2038
2041
2041
2042
2040
2038
2040
2043
2048
2050
2050
2046
2042
2038
2037
2037
2037
2037
2036
2036
2037
2038
2039
2040
2040
2039
2039
2039
2040
2039
2046
2058
2085
2117
2152
2175
2175
2148
2095
2032
1972
1929
1914
1922
1946
1976
2003
2021
2035
2043
2048
2052
2054
2055
2057
2059
2060
2061
2062
2063
2064
2065
2066
2066
2068
2068
2067
2065
2065
2069
2076
2083
2087
2085
2082
2080
2080
2083
2087
2090
2094
2096
2098
2100
2102
2104
2107
2111
2114
2116
2118
2119
2120
2121
2123
2124
2124
2121
2117
2114
2113
2114
2115
2113
2106
2096
2085
2076
2070
2066
2062
2057
2053
2049
2046
2044
2042
2041
2040
2040
2039
2037
2035
2033
2032
2031
2034
2034
2034
2032
2031
2032
2034
2038
2040
2040
2038
2035
2034
2032
2036
2036
2037
2036
2036
2035
2035
2035
2035
2035
2035
2035
2035
2035
2035
2035
2034
2033
2034
2033
2033
2033
2032
2033
2033
2034
2034
2032
2031
2030
2030
2031
2032
2032
2031
2031
2030
2030
2030
2030
2031
2031
2031
2031
2031
2031
2031
2031
2031
2031
2032
2031
2031
2030
2031
2032
2033
2034
2033
2032
2032
2031
2031
2031
2031
2032
2033
2034
2035
2036
2036
2035
2036
2035
2034
2035
2035
2037
2038
2039
2040
2039
2037
2035
2034
2034
2037
2040
2041
2041
2039
2037
2037
2036
2038
2038
2038
2038
2038
2038
2038
2038
2038
2038
2039
2039
2038
2037
2037
2037
2037
2041
2042
2044
2043
2041
2041
2041
2043
2044
2044
2042
2039
2036
2033
2035
2034
2036
2036
2037
2037
2038
2037
2037
2038
2040
2041
2043
2050
2067
2094
2129
2167
2190
2187
2153
2092
2019
1953
1911
1898
1909
1934
1963
1987
2006
2021
2032
2040
2046
2049
2052
2054
2056
2056
2058
2059
2060
2061
2062
2064
2065
2066
2067
2068
2069
2068
2067
2067
2070
2075
2081
2084
2083
2081
2080
2080
2082
2086
2089
2091
2093
2096
2099
2101
2103
2105
2108
2111
2113
2115
2116
2116
2115
2114
2114
2112
2110
2106
2101
2097
2093
2089
2084
2076
2068
2060
2053
2048
2046
2041
2038
2035
2033
2031
2030
2029
2028
2027
2026
2026
2026
2026
2026
2025
2026
2028
2028
2027
2025
2024
2025
2028
2032
2035
2034
2032
2029
2027
2026
2029
2029
2030
2029
2029
2028
2028
2028
2029
2029
2029
2029
2029
2028
2028
2027
2027
2027
2027
2027
2026
2025
2024
2026
2027
2028
2028
2027
2026
2025
2025
2025
2025
2025
2024
2024
2024
2025
2026
2026
2027
2025
2023
2022
2023
2027
2030
2032
2031
2027
2026
2023
2023
2023
2026
2027
2028
2029
2029
2028
2027
2027
2027
2026
2026
2026
2026
2027
2027
2028
2028
2028
2029
2029
2028
2028
2027
2028
2028
2031
2032
2032
2030
2028
2027
2027
2030
2033
2034
2034
2032
2031
2030
2030
2031
2031
2031
2031
2032
2032
2032
2032
2032
2032
2032
2032
2032
2032
2033
2033
2033
2035
2034
2034
2032
2030
2030
2032
2035
2038
2039
2038
2035
2032
2030
2032
2032
2035
2037
2039
2040
2041
2040
2038
2036
2035
2034
2033
2033
2033
2033
2032
2034
2034
2033
2032
2031
2031
2032
2035
2037
2038
2036
2036
2044
2062
2093
2129
2161
2176
2164
2122
2057
1988
1932
1903
1904
1927
1960
1990
2011
2025
2034
2040
2046
2048
2048
2048
2049
2053
2058
2064
2066
2065
2061
2059
2059
2060
2063
2065
2065
2066
2068
2069
2070
2071
2071
2073
2074
2076
2078
2081
2083
2085
2086
2090
2092
2093
2095
2097
2101
2106
2110
2114
2115
2115
2115
2114
2115
2117
2116
2115
2114
2112
2109
2105
2099
2093
2085
2079
2072
2066
2060
2053
2048
2043
2042
2038
2036
2032
2028
2026
2026
2029
2032
2033
2031
2027
2025
2022
2025
2025
2027
2027
2027
2027
2027
2027
2027
2028
2028
2029
2030
2030
2030
2030
2029
2030
2031
2031
2030
2029
2028
2028
2031
2033
2033
2031
2029
2028
2027
2028
2029
2028
2028
2027
2027
2028
2028
2028
2028
2028
2027
2027
2027
2026
2026
2026
2027
2026
2028
2028
2027
2027
2027
2028
2029
2030
2030
2029
2028
2028
2028
2027
2028
2028
2028
2028
2029
2029
2029
2029
2030
2029
2030
2029
2028
2028
2028
2029
2031
2031
2032
2030
2028
2028
2030
2031
2034
2034
2032
2031
2030
2029
2031
2031
2031
2031
2031
2031
2032
2032
2033
2032
2032
2032
2031
2031
2032
2031
2033
2035
2033
2032
2030
2028
2029
2032
2037
2039
2039
2037
2035
2033
2032
2033
2033
2034
2034
2035
2036
2036
2036
2035
2035
2035
2035
2035
2036
2036
2036
2035
2037
2037
2036
2034
2033
2033
2034
2037
2040
2040
2038
2036
2034
2033
2035
2036
2039
2040
2042
2043
2043
2042
2040
2039
2038
2037
2036
2036
2036
2035
2035
2035
2034
2033
2031
2030
2030
2034
2039
2043
2044
2041
2036
2035
2044
2065
2097
2133
2163
2176
2163
2120
2056
1989
1935
1910
1912
1936
1968
1997
2017
2029
2038
2044
2048
2048
2049
2050
2053
2056
2059
2062
2062
2060
2059
2058
2059
2062
2063
2063
2064
2065
2067
2068
2069
2070
2071
2072
2074
2076
2078
2080
2081
2083
2085
2089
2091
2092
2092
2094
2098
2104
2110
2114
2114
2112
2110
2110
2111
2114
2115
2113
2112
2109
2106
2102
2098
2093
2086
2080
2074
2067
2061
2055
2050
2046
2043
2039
2036
2033
2030
2030
2030
2031
2031
2029
2028
2026
2026
2026
2027
2027
2026
2027
2027
2028
2028
2028
2028
2028
2029
2029
2029
2029
2028
2029
2029
2030
2031
2030
2029
2028
2028
2029
2030
2030
2030
2029
2029
2028
2028
2027
2027
2027
2026
2026
2027
2026
2027
2026
2027
2026
2026
2027
2026
2026
2024
2024
2026
2027
2028
2027
2025
2024
2025
2027
2029
2031
2029
2027
2026
2025
2026
2026
2027
2027
2027
2028
2028
2029
2029
2029
2029
2028
2028
2028
2028
2028
2028
2030
2030
2030
2028
2026
2026
2027
2031
2034
2035
2034
2031
2029
2027
2028
2029
2030
2029
2030
2031
2032
2032
2032
2031
2030
2030
2030
2031
2031
2032
2032
2034
2034
2033
2031
2030
2030
2032
2035
2037
2037
2035
2033
2032
2032
2033
2034
2034
2034
2034
2035
2035
2035
2035
2035
2034
2034
2034
2034
2034
2034
2035
2035
2036
2036
2033
2031
2032
2036
2042
2046
2046
2044
2040
2039
2039
2039
2038
2035
2032
2031
2032
2033
2035
2034
2034
2034
2035
2035
2035
2035
2035
2036
2037
2040
2046
2058
2082
2113
2150
2179
2187
2165
2112
2042
1971
1918
1895
1900
1923
1954
1982
2003
2019
2031
2039
2045
2048
2050
2052
2054
2056
2057
2056
2058
2059
2060
2061
2061
2061
2063
2065
2068
2070
2070
2070
2070
2070
2072
2074
2075
2077
2078
2079
2081
2082
2084
2087
2090
2092
2095
2098
2100
2103
2105
2107
2110
2111
2112
2111
2111
2111
2112
2112
2112
2109
2104
2099
2092
2088
2082
2076
2070
2063
2058
2051
2047
2043
2039
2037
2034
2032
2030
2028
2027
2026
2026
2027
2027
2026
2024
2023
2024
2026
2029
2031
2030
2028
2026
2026
2027
2028
2028
2028
2028
2028
2029
2030
2030
2031
2030
2030
2029
2029
2029
2029
2029
2028
2029
2030
2030
2030
2028
2026
2025
2027
2030
2030
2031
2028
2026
2025
2025
2026
2026
2026
2026
2026
2027
2027
2027
2027
2026
2026
2026
2026
2026
2026
2026
2026
2028
2027
2027
2026
2024
2025
2026
2029
2031
2032
2031
2029
2027
2025
2027
2026
2027
2027
2028
2029
2030
2030
2029
2029
2028
2028
2028
2028
2029
2029
2029
2031
2031
2030
2028
2027
2027
2028
2031
2034
2034
2033
2031
2029
2028
2029
2030
2031
2031
2032
2032
2031
2031
2031
2031
2030
2031
2031
2031
2031
2032
2032
2032
2033
2033
2031
2030
2029
2032
2036
2039
2040
2038
2034
2032
2031
2031
2033
2033
2034
2035
2037
2039
2040
2040
2039
2038
2038
2037
2036
2036
2035
2035
2033
2033
2032
2031
2031
2031
2033
2035
2037
2038
2036
2034
2032
2031
2032
2042
2059
2087
2122
2156
2176
2170
2134
2073
2002
1942
1906
1901
1921
1952
1983
2005
2022
2032
2039
2043
2045
2047
2050
2054
2058
2061
2060
2059
2057
2056
2059
2060
2061
2062
2062
2063
2064
2065
2066
2068
2069
2070
2072
2073
2075
2077
2078
2082
2084
2086
2087
2088
2090
2095
2101
2107
2110
2110
2109
2110
2111
2115
2116
2116
2116
2115
2113
2112
2109
2106
2101
2096
2090
2084
2077
2069
2062
2056
2050
2046
2042
2038
2034
2031
2028
2027
2027
2027
2026
2024
2023
2022
2022
2022
2022
2022
2022
2022
2023
2023
2023
2023
2023
2023
2023
2024
2024
2024
2024
2024
2025
2026
2026
2026
2025
2025
2025
2026
2028
2027
2027
2024
2023
2022
2023
2023
2023
2023
2023
2023
2023
2022
2022
2021
2021
2021
2021
2021
2021
2020
2022
2022
2022
2021
2020
2018
2018
2021
2024
2027
2027
2025
2023
2021
2019
2020
2021
2022
2022
2023
2023
2024
2023
2023
2023
2023
2023
2024
2024
2024
2024
2024
2026
2025
2025
2024
2021
2020
2021
2024
2030
2034
2035
2031
2026
2022
2022
2023
2025
2028
2027
2028
2028
2028
2028
2028
2029
2028
2029
2029
2029
2029
2030
2030
2030
2030
2028
2026
2026
2028
2032
2036
2036
2035
2031
2029
2027
2029
2029
2030
2031
2031
2031
2032
2031
2031
2031
2031
2032
2033
2033
2033
2033
2032
2032
2033
2033
2032
2031
2030
2031
2035
2039
2041
2042
2040
2039
2037
2036
2036
2035
2034
2033
2033
2033
2032
2032
2031
2031
2031
2032
2032
2033
2034
2033
2033
2034
2033
2033
2034
2043
2061
2091
2128
2162
2179
2167
2125
2061
1992
1938
1909
1909
1931
1961
1991
2012
2025
2034
2040
2045
2048
2050
2051
2053
2054
2054
2056
2056
2057
2058
2058
2060
2061
2063
2065
2065
2065
2065
2065
2067
2068
2070
2071
2072
2074
2076
2077
2079
2082
2084
2086
2089
2092
2094
2097
2100
2103
2106
2107
2111
2112
2113
2114
2114
2115
2115
2115
2114
2111
2107
2103
2098
2092
2087
2081
2074
2068
2063
2057
2052
2046
2040
2036
2035
2037
2038
2039
2035
2031
2028
2025
2025
2025
2027
2028
2029
2031
2031
2030
2029
2027
2027
2027
2028
2030
2030
2031
2031
2031
2032
2033
2033
2033
2033
2033
2033
2033
2033
2034
2033
2035
2034
2034
2031
2029
2028
2030
2033
2035
2036
2035
2032
2030
2029
2030
2029
2030
2029
2029
2030
2030
2030
2030
2030
2029
2029
2029
2029
2030
2030
2030
2031
2033
2032
2030
2028
2027
2029
2033
2037
2038
2036
2033
2030
2028
2029
2032
2031
2033
2033
2034
2033
2033
2033
2033
2033
2033
2033
2034
2034
2035
2035
2036
2035
2035
2034
2033
2034
2035
2037
2039
2039
2039
2036
2035
2034
2034
2035
2035
2035
2035
2035
2036
2036
2036
2036
2037
2037
2037
2037
2037
2037
2036
2035
2037
2036
2037
2035
2034
2035
2037
2041
2043
2043
2042
2040
2040
2040
2043
2042
2041
2039
2038
2037
2037
2036
2036
2035
2035
2035
2035
2036
2036
2035
2037
2036
2037
2038
2039
2040
2046
2060
2085
2119
2156
2184
2190
2168
2116
2047
1977
1924
1900
1903
1926
1956
1983
2004
2020
2032
2040
2046
2049
2052
2053
2055
2057
2058
2059
2060
2060
2061
2063
2065
2067
2068
2067
2067
2067
2069
2071
2072
2073
2074
2075
2076
2078
2080
2082
2084
2086
2088
2090
2093
2095
2097
2100
2103
2105
2108
2109
2110
2111
2114
2117
2119
2120
2119
2116
2114
2110
2107
2102
2097
2091
2085
2079
2073
2067
2061
2056
2050
2046
2042
2039
2036
2034
2033
2032
2032
2030
2028
2026
2026
2028
2030
2032
2032
2030
2028
2027
2027
2028
2029
2029
2029
2031
2031
2032
2032
2032
2032
2032
2031
2031
2031
2031
2030
2031
2032
2033
2032
2031
2030
2028
2028
2030
2032
2034
2034
2032
2030
2029
2027
2029
2029
2029
2028
2029
2030
2030
2030
2030
2028
2027
2028
2028
2028
2029
2029
2029
2030
2029
2030
2029
2026
2024
2024
2028
2033
2038
2038
2035
2030
2025
2025
2026
2028
2031
2030
2031
2030
2030
2029
2029
2029
2029
2029
2030
2030
2031
2031
2031
2031
2031
2030
2028
2028
2029
2032
2036
2036
2035
2033
2030
2029
2030
2031
2032
2032
2032
2032
2032
2032
2032
2032
2033
2033
2033
2033
2034
2034
2034
2033
2034
2033
2033
2034
2035
2037
2041
2044
2045
2043
2039
2036
2033
2032
2034
2034
2034
2034
2034
2034
2034
2034
2034
2034
2034
2034
2035
2036
2036
2036
2041
2055
2081
2116
2152
2177
2179
2151
2095
2024
1957
1911
1894
1906
1934
1969
1996
2014
2026
2035
2041
2046
2048
2050
2052
2054
2055
2057
2057
2058
2059
2059
2061
2063
2064
2064
2064
2065
2066
2070
2073
2075
2074
2074
2074
2075
2077
2079
2079
2082
2085
2089
2094
2098
2100
2102
2104
2106
2109
2111
2113
2115
2116
2117
2118
2119
2118
2116
2113
2111
2110
2108
2106
2099
2090
2080
2071
2064
2059
2054
2049
2044
2041
2037
2035
2033
2031
2029
2028
2027
2026
2026
2025
2025
2026
2026
2027
2025
2023
2023
2025
2028
2032
2034
2033
2031
2027
2024
2025
2026
2028
2028
2028
2029
2029
2030
2030
2029
2029
2029
2029
2029
2029
2029
2028
2029
2029
2029
2028
2024
2023
2023
2026
2030
2034
2034
2031
2028
2025
2023
2025
2025
2026
2026
2027
2028
2028
2027
2025
2025
2025
2026
2027
2029
2028
2027
2026
2028
2028
2029
2029
2026
2025
2024
2027
2033
2038
2039
2035
2028
2022
2018
2017
2018
2020
2019
2021
2021
2022
2023
2024
2024
2024
2025
2026
2027
2027
2027
2027
2027
2027
2025
2022
2020
2021
2026
2031
2033
2031
2026
2021
2017
2018
2019
2021
2022
2022
2022
2023
2023
2024
2024
2025
2025
2025
2025
2025
2025
2025
2025
2027
2026
2024
2023
2022
2024
2025
2028
2030
2031
2032
2033
2032
2029
2029
2025
2024
2024
2025
2026
2027
2028
2029
2031
2032
2033
2033
2033
2033
2031
2029
2030
2029
2028
2026
2024
2023
2024
2027
2029
2030
2029
2027
2026
2025
2026
2027
2026
2025
2025
2031
2046
2070
2103
2139
2164
2166
2138
2083
2015
1952
1909
1899
1913
1942
1972
1995
2012
2024
2034
2042
2047
2048
2047
2046
2046
2048
2049
2052
2052
2052
2053
2054
2055
2056
2058
2059
2059
2060
2060
2061
2062
2064
2066
2068
2071
2071
2071
2072
2074
2079
2084
2089
2090
2090
2090
2091
2094
2097
2101
2103
2104
2106
2107
2108
2109
2109
2109
2108
2105
2103
2099
2095
2090
2084
2081
2073
2065
2058
2052
2049
2048
2047
2044
2039
2033
2029
2027
2025
2028
2026
2025
2026
2026
2026
2026
2026
2026
2026
2026
2026
2026
2026
2027
2027
2026
2028
2029
2029
2027
2025
2025
2027
2031
2035
2036
2035
2032
2029
2027
2029
2030
2031
2029
2029
2029
2029
2029
2029
2030
2030
2030
2029
2028
2027
2027
2027
2027
2030
2027
2026
2021
2020
2022
2029
2036
2039
2036
2029
2023
2020
2020
2024
2025
2028
2027
2028
2027
2027
2027
2027
2028
2028
2029
2029
2029
2030
2030
2029
2030
2030
2029
2027
2026
2027
2031
2035
2036
2035
2032
2029
2027
2027
2030
2031
2031
2031
2031
2031
2031
2031
2031
2031
2032
2032
2032
2032
2032
2031
2031
2032
2032
2032
2032
2032
2032
2034
2035
2036
2035
2034
2033
2032
2033
2035
2035
2035
2036
2037
2038
2039
2039
2039
2038
2039
2039
2039
2040
2040
2039
2039
2040
2040
2040
2039
2038
2038
2040
2043
2047
2048
2048
2047
2046
2045
2045
2043
2042
2042
2041
2042
2042
2042
2043
2043
2043
2044
2044
2043
2043
2042
2042
2044
2044
2044
2046
2054
2075
2105
2143
2177
2191
2178
2134
2068
1998
1941
1910
1908
1928
1959
1988
2010
2025
2037
2045
2050
2054
2056
2057
2058
2059
2060
2063
2064
2065
2065
2065
2066
2069
2072
2073
2073
2072
2071
2072
2073
2077
2078
2078
2079
2080
2081
2083
2086
2088
2090
2092
2094
2096
2098
2100
2103
2105
2108
2112
2113
2116
2116
2116
2116
2117
2120
2122
2121
2119
2113
2107
2101
2096
2091
2086
2079
2073
2067
2063
2057
2052
2048
2044
2041
2038
2036
2035
2035
2033
2033
2032
2032
2030
2029
2029
2031
2033
2035
2036
2036
2034
2032
2030
2031
2031
2032
2033
2033
2034
2035
2035
2035
2034
2034
2034
2033
2033
2033
2033
2033
2033
2035
2033
2031
2029
2027
2029
2032
2036
2037
2035
2031
2028
2027
2027
2030
2030
2030
2030
2030
2030
2029
2029
2029
2029
2028
2029
2029
2030
2030
2030
2031
2030
2030
2029
2028
2028
2029
2032
2034
2034
2033
2031
2030
2029
2030
2030
2030
2031
2031
2031
2031
2031
2031
2031
2031
2031
2031
2032
2032
2032
2032
2030
2033
2032
2032
2030
2029
2030
2032
2036
2037
2037
2034
2031
2030
2029
2033
2032
2033
2033
2034
2035
2037
2038
2039
2040
2040
2039
2038
2036
2035
2034
2033
2033
2032
2032
2031
2031
2031
2032
2034
2035
2035
2034
2033
2034
2035
2039
2044
2055
2078
2110
2148
2179
2189
2170
2121
2052
1980
1923
1893
1892
1913
1943
1974
1997
2014
2026
2034
2041
2046
2050
2054
2056
2057
2057
2057
2057
2059
2061
2061
2062
2062
2064
2065
2067
2068
2069
2070
2070
2071
2072
2072
2074
2075
2078
2080
2083
2085
2086
2088
2090
2094
2098
2102
2105
2107
2109
2111
2113
2113
2115
2115
2114
2114
2114
2112
2111
2108
2104
2099
2093
2087
2080
2074
2067
2062
2057
2050
2047
2042
2037
2034
2032
2032
2032
2032
2031
2029
2027
2025
2025
2025
2026
2026
2027
2028
2029
2026
2024
2024
2025
2030
2033
2034
2031
2027
2023
2022
2022
2022
2021
2019
2019
2022
2025
2027
2028
2026
2024
2022
2021
2021
2021
2022
2021
2022
2022
2023
2023
2022
2022
2021
2021
2021
2022
2022
2023
2022
2024
2024
2022
2021
2019
2018
2019
2023
2027
2030
2029
2026
2022
2020
2020
2021
2021
2024
2023
2023
2023
2023
2023
2023
2023
2023
2024
2024
2025
2026
2026
2026
2026
2026
2024
2023
2024
2025
2028
2031
2031
2031
2028
2026
2025
2026
2027
2028
2029
2029
2029
2029
2028
2029
2028
2029
2029
2029
2030
2030
2030
2030
2030
2031
2030
2031
2029
2029
2030
2032
2035
2036
2036
2033
2032
2030
2030
2032
2032
2033
2034
2034
2033
2033
2034
2035
2036
2038
2040
2040
2040
2039
2038
2036
2035
2033
2033
2032
2031
2032
2033
2035
2036
2036
2035
2033
2033
2032
2033
2034
2033
2032
2033
2041
2058
2086
2120
2154
2172
2165
2128
2065
1996
1935
1900
1898
1917
1948
1978
2000
2015
2025
2035
2041
2045
2046
2045
2045
2046
2048
2050
2050
2052
2052
2053
2054
2055
2056
2057
2058
2059
2060
2061
2062
2064
2065
2067
2069
2071
2072
2073
2075
2076
2080
2084
2087
2090
2091
2093
2096
2098
2100
2103
2106
2108
2109
2111
2111
2111
2111
2110
2109
2106
2103
2098
2093
2087
2081
2076
2068
2064
2056
2049
2044
2039
2036
2033
2031
2028
2025
2022
2020
2020
2019
2020
2019
2018
2018
2018
2018
2019
2019
2019
2020
2020
2020
2020
2021
2020
2022
2023
2023
2022
2021
2021
2023
2025
2027
2028
2026
2024
2022
2021
2022
2022
2023
2023
2024
2024
2025
2025
2024
2023
2022
2022
2021
2021
2022
2022
2021
2022
2022
2023
2021
2018
2017
2017
2021
2025
2029
2029
2026
2021
2017
2017
2018
2020
2021
2021
2021
2020
2020
2020
2020
2020
2020
2021
2021
2022
2022
2022
2024
2023
2024
2023
2021
2022
2022
2025
2028
2028
2028
2025
2023
2022
2024
2025
2026
2027
2026
2026
2026
2025
2026
2026
2026
2027
2027
2027
2027
2027
2027
2026
2028
2027
2028
2027
2027
2028
2030
2033
2034
2033
2031
2029
2028
2027
2031
2031
2031
2032
2031
2031
2031
2033
2035
2037
2038
2039
2038
2037
2035
2033
2032
2033
2032
2032
2031
2030
2031
2033
2035
2036
2036
2034
2032
2031
2030
2032
2031
2031
2036
2050
2076
2111
2149
2175
2178
2151
2094
2024
1958
1914
1901
1914
1945
1977
2003
2019
2029
2036
2042
2048
2051
2052
2053
2052
2052
2053
2055
2057
2058
2058
2059
2059
2060
2061
2062
2064
2065
2066
2068
2069
2070
2071
2072
2075
2076
2078
2079
2079
2082
2084
2089
2093
2097
2099
2099
2101
2102
2106
2108
2110
2112
2113
2114
2115
2115
2115
2113
2112
2109
2105
2100
2094
2088
2081
2075
2070
2064
2058
2052
2048
2044
2042
2042
2041
2040
2038
2036
2035
2034
2034
2035
2035
2034
2036
2036
2037
2037
2037
2036
2036
2037
2037
2038
2037
2038
2037
2039
2039
2039
2038
2036
2036
2038
2041
2044
2045
2044
2043
2042
2040
2042
2042
2042
2042
2043
2043
2043
2043
2041
2040
2039
2039
2038
2039
2039
2040
2040
2040
2042
2039
2037
2035
2034
2035
2039
2043
2045
2043
2039
2035
2033
2033
2036
2036
2037
2037
2037
2037
2037
2037
2036
2036
2036
2037
2037
2037
2038
2038
2039
2038
2038
2037
2035
2036
2036
2039
2042
2042
2042
2039
2037
2035
2037
2038
2038
2039
2038
2037
2037
2037
2038
2038
2038
2038
2038
2039
2041
2043
2044
2044
2046
2044
2042
2039
2036
2035
2037
2041
2042
2042
2039
2036
2035
2033
2036
2036
2037
2037
2038
2040
2041
2042
2044
2050
2067
2096
2132
2169
2191
2188
2153
2094
2022
1957
1913
1898
1909
1935
1966
1992
2013
2028
2038
2046
2049
2052
2052
2054
2055
2057
2059
2059
2060
2061
2062
2064
2065
2067
2068
2068
2068
2068
2070
2071
2072
2073
2074
2076
2077
2081
2084
2086
2087
2087
2088
2090
2094
2098
2100
2103
2105
2106
2108
2109
2111
2113
2114
2114
2114
2112
2111
2111
2109
2106
2103
2102
2101
2101
2099
2094
2087
2080
2076
2074
2071
2069
2063
2055
2048
2045
2042
2042
2042
2042
2042
2043
2045
2048
2053
2060
2066
2070
2071
2069
2066
2066
2067
2071
2075
2080
2082
2084
2085
2085
2085
2085
2084
2083
2082
2082
2080
2079
2077
2077
2076
2075
2075
2075
2074
2073
2072
2071
2071
2070
2070
2069
2069
2068
2067
2066
2066
2066
2067
2069
2070
2069
2068
2065
2063
2062
2062
2062
2062
2060
2058
2055
2054
2055
2056
2057
2056
2054
2052
2051
2052
2053
2052
2054
2053
2052
2050
2048
2048
2050
2053
2056
2057
2055
2051
2049
2048
2049
2049
2048
2048
2048
2053
2057
2060
2059
2055
2050
2048
2048
2048
2051
2053
2053
2052
2052
2051
2048
2046
2046
2048
2053
2059
2060
2058
2051
2047
2045
2047
2048
2050
2048
2046
2044
2043
2041
2041
2040
2042
2043
2044
2044
2044
2043
2043
2043
2043
2042
2042
2043
2045
2048
2053
2064
2085
2113
2148
2182
2202
2197
2164
2104
2033
1969
1927
1914
1925
1950
1978
2001
2018
2031
2040
2047
2049
2052
2052
2055
2055
2056
2055
2055
2056
2058
2061
2063
2064
2062
2059
2056
2055
2058
2059
2061
2063
2064
2066
2068
2070
2072
2074
2075
2077
2077
2078
2081
2084
2087
2090
2092
2093
2093
2094
2095
2097
2100
2102
2103
2102
2100
2098
2097
2095
2093
2090
2086
2082
2078
2074
2069
2063
2057
2050
2046
2042
2040
2037
2036
2034
2032
2030
2030
2028
2027
2025
2025
2026
2027
2028
2029
2028
2027
2027
2027
2026
2027
2028
2029
2031
2032
2031
2031
2030
2030
2030
2030
2030
2029
2030
2030
2030
2030
2030
2029
2029
2030
2032
2034
2035
2035
2034
2032
2030
2028
2027
2026
2025
2024
2024
2025
2025
2027
2028
2029
2029
2029
2030
2029
2029
2029
2029
2029
2031
2031
2030
2029
2030
2031
2034
2034
2033
2031
2027
2024
2024
2023
2025
2025
2025
2023
2023
2024
2026
2029
2031
2033
2033
2032
2031
2030
2029
2028
2028
2028
2027
2025
2022
2019
2017
2018
2021
2025
2027
2027
2025
2023
2023
2025
2027
2029
2031
2032
2033
2033
2033
2033
2032
2032
2030
2030
2030
2030
2030
2029
2029
2028
2028
2028
2028
2031
2035
2042
2046
2047
2043
2038
2033
2030
2031
2032
2033
2032
2031
2031
2030
2031
2031
2031
2031
2031
2031
2031
2031
2030
2029
2027
2031
2044
2067
2101
2139
2170
2181
2161
2113
2044
1976
1926
1905
1911
1937
1966
1991
2008
2020
2030
2036
2040
2043
2044
2045
2045
2046
2048
2049
2051
2050
2051
2051
2050
2051
2050
2050
2052
2057
2063
2068
2070
2069
2066
2064
2066
2068
2070
2073
2074
2076
2079
2082
2084
2084
2084
2084
2086
2089
2092
2094
2095
2097
2099
2099
2099
2098
2096
2098
2100
2101
2099
2090
2077
2060
2045
2030
2022
2013
2008
2003
1998
1994
1990
1985
1982
1980
1979
1978
1977
1977
1978
1977
1979
1979
1980
1980
1980
1980
1982
1983
1983
1981
1976
1971
1966
1964
1966
1968
1972
1973
1973
1971
1969
1968
1969
1972
1975
1976
1975
1973
1972
1973
1976
1979
1980
1979
1976
1975
1975
1977
1981
1984
1985
1984
1981
1979
1977
1977
1978
1979
1978
1979
1981
1983
1985
1986
1986
1985
1984
1985
1986
1986
1985
1985
1984
1984
1985
1984
1983
1983
1984
1986
1990
1994
1999
2003
2006
2008
2005
2000
1994
1991
1994
2000
2006
2007
2004
2001
2002
2006
2013
2017
2018
2017
2015
2015
2019
2020
2019
2015
2011
2009
2010
2014
2018
2021
2022
2022
2020
2018
2018
2018
2018
2017
2017
2018
2019
2022
2027
2040
2063
2095
2133
2163
2174
2154
2103
2033
1963
1913
1892
1897
1922
1952
1980
2000
2016
2029
2037
2040
2039
2037
2039
2044
2048
2051
2052
2051
2049
2048
2049
2051
2052
2052
2053
2054
2056
2056
2056
2057
2058
2060
2061
2061
2061
2062
2066
2072
2075
2077
2076
2075
2075
2080
2083
2084
2084
2083
2086
2089
2092
2093
2092
2091
2091
2094
2096
2096
2094
2088
2085
2081
2077
2071
2064
2057
2051
2048
2048
2047
2043
2036
2030
2025
2026
2026
2027
2028
2027
2025
2023
2022
2021
2022
2023
2023
2023
2023
2022
2022
2022
2023
2024
2023
2023
2022
2022
2025
2028
2030
2031
2030
2029
2028
2029
2029
2030
2029
2027
2026
2024
2024
2024
2023
2023
2022
2021
2021
2022
2023
2024
2023
2022
2021
2022
2022
2022
2021
2021
2022
2023
2024
2024
2023
2023
2022
2022
2022
2022
2022
2021
2021
2021
2021
2022
2023
2024
2024
2025
2026
2027
2028
2028
2028
2029
2029
2029
2029
2028
2028
2029
2031
2031
2032
2030
2028
2027
2026
2026
2028
2028
2029
2029
2029
2028
2028
2028
2028
2029
2029
2029
2029
2030
2031
2031
2033
2033
2032
2031
2032
2034
2037
2041
2042
2040
2037
2033
2031
2029
2030
2030
2030
2031
2032
2033
2033
2034
2034
2034
2034
2033
2033
2032
2033
2035
2035
2039
2047
2062
2089
2122
2158
2183
2185
2158
2102
2032
1965
1922
1908
1920
1949
1979
2004
2021
2035
2044
2050
2054
2057
2059
2060
2062
2063
2064
2065
2066
2068
2069
2069
2069
2068
2067
2068
2071
2075
2078
2080
2079
2078
2077
2078
2081
2083
2086
2088
2089
2091
2093
2094
2096
2098
2099
2102
2105
2107
2108
2108
2109
2112
2114
2117
2117
2115
2114
2114
2114
2115
2113
2108
2100
2092
2084
2079
2074
2068
2063
2058
2054
2052
2049
2047
2044
2041
2038
2037
2036
2036
2035
2033
2035
2035
2035
2033
2030
2028
2029
2034
2041
2044
2043
2038
2034
2030
2032
2033
2034
2035
2034
2034
2034
2034
2034
2033
2033
2033
2034
2033
2033
2032
2031
2032
2033
2032
2031
2027
2025
2026
2029
2034
2036
2035
2032
2029
2027
2027
2029
2028
2028
2028
2028
2029
2029
2030
2030
2030
2030
2029
2029
2030
2029
2030
2030
2031
2032
2030
2028
2027
2027
2030
2033
2036
2035
2033
2031
2030
2030
2031
2032
2032
2031
2032
2033
2033
2032
2031
2031
2030
2030
2031
2031
2031
2031
2030
2031
2032
2033
2030
2028
2028
2030
2035
2040
2043
2042
2038
2037
2034
2033
2032
2031
2031
2032
2034
2034
2033
2031
2029
2029
2029
2031
2031
2031
2031
2031
2034
2037
2037
2037
2043
2057
2087
2127
2166
2189
2184
2145
2082
2009
1945
1905
1894
1906
1934
1965
1991
2011
2025
2034
2040
2044
2046
2048
2049
2051
2051
2054
2055
2056
2056
2055
2054
2055
2059
2064
2069
2070
2067
2064
2062
2063
2066
2068
2071
2073
2075
2076
2078
2080
2082
2084
2086
2088
2090
2093
2095
2097
2099
2103
2104
2104
2102
2100
2100
2105
2112
2116
2116
2110
2101
2093
2087
2084
2079
2076
2069
2063
2058
2052
2048
2044
2040
2038
2035
2034
2032
2031
2029
2028
2028
2027
2028
2026
2025
2025
2027
2032
2035
2036
2033
2030
2027
2024
2027
2027
2028
2028
2028
2029
2029
2029
2029
2028
2028
2028
2029
2029
2030
2029
2027
2029
2028
2027
2026
2024
2023
2024
2028
2032
2035
2033
2030
2026
2023
2025
2025
2027
2027
2026
2025
2025
2025
2026
2026
2026
2026
2026
2026
2026
2027
2026
2028
2028
2028
2027
2026
2026
2025
2024
2025
2027
2030
2033
2035
2033
2030
2027
2025
2024
2026
2027
2028
2028
2028
2028
2029
2029
2029
2029
2029
2029
2029
2029
2030
2031
2030
2028
2027
2027
2029
2032
2035
2035
2033
2031
2029
2029
2030
2032
2032
2033
2035
2038
2039
2040
2039
2037
2033
2030
2029
2028
2028
2029
2029
2029
2029
2028
2027
2027
2028
2029
2031
2032
2033
2032
2031
2030
2035
2048
2072
2105
2141
2169
2175
2153
2101
2034
1967
1920
1903
1913
1939
1970
1996
2013
2025
2033
2037
2040
2043
2045
2048
2050
2052
2053
2052
2052
2052
2052
2054
2055
2056
2056
2058
2059
2060
2062
2063
2064
2065
2065
2066
2068
2069
2071
2073
2075
2077
2079
2080
2081
2083
2086
2091
2096
2099
2100
2100
2099
2099
2101
2102
2103
2103
2102
2102
2100
2097
2094
2090
2086
2080
2075
2069
2064
2059
2053
2049
2047
2041
2038
2031
2027
2025
2028
2033
2037
2038
2033
2027
2023
2021
2024
2026
2028
2028
2028
2028
2028
2028
2028
2028
2028
2029
2029
2029
2029
2028
2026
2029
2028
2027
2026
2024
2024
2026
2030
2032
2032
2029
2026
2024
2022
2026
2026
2026
2026
2026
2026
2026
2025
2024
2024
2024
2024
2024
2024
2024
2024
2022
2024
2024
2025
2024
2023
2023
2024
2027
2029
2029
2028
2026
2024
2023
2024
2025
2025
2025
2025
2024
2024
2024
2025
2026
2026
2026
2027
2027
2027
2026
2026
2026
2027
2027
2027
2027
2026
2027
2027
2029
2029
2029
2028
2027
2027
2027
2028
2029
2029
2029
2029
2030
2030
2030
2031
2031
2031
2030
2030
2030
2031
2033
2035
2037
2038
2038
2037
2034
2032
2031
2032
2034
2035
2034
2033
2030
2029
2029
2028
2030
2030
2030
2031
2031
2032
2033
2034
2035
2038
2049
2070
2102
2138
2169
2181
2162
2115
2047
1976
1922
1898
1904
1930
1962
1989
2007
2019
2028
2036
2042
2046
2047
2048
2048
2050
2052
2054
2056
2056
2056
2056
2056
2057
2059
2060
2062
2062
2063
2063
2063
2065
2068
2071
2073
2074
2074
2074
2076
2077
2081
2083
2085
2087
2090
2093
2095
2098
2101
2102
2104
2104
2106
2107
2108
2108
2107
2107
2106
2103
2099
2094
2088
2083
2080
2077
2073
2067
2059
2050
2044
2040
2037
2035
2034
2032
2031
2029
2028
2027
2026
2026
2026
2026
2026
2027
2027
2027
2028
2028
2028
2027
2025
2024
2025
2028
2032
2033
2033
2030
2027
2025
2024
2026
2026
2027
2026
2026
2026
2026
2025
2025
2025
2025
2024
2024
2024
2024
2024
2024
2025
2024
2024
2023
2021
2021
2023
2025
2027
2026
2025
2023
2021
2021
2024
2024
2025
2025
2025
2025
2025
2025
2025
2024
2025
2025
2026
2026
2026
2026
2024
2026
2027
2028
2027
2025
2023
2023
2026
2030
2033
2033
2030
2027
2024
2025
2027
2027
2029
2028
2029
2031
2033
2035
2036
2036
2035
2034
2032
2031
2029
2029
2029
2030
2029
2028
2026
2025
2026
2029
2032
2034
2033
2030
2030
2031
2034
2037
2044
2059
2085
2121
2159
2184
2184
2152
2093
2022
1954
1908
1891
1899
1923
1954
1981
2002
2017
2027
2034
2039
2044
2047
2049
2051
2052
2053
2053
2054
2056
2057
2058
2058
2060
2061
2062
2063
2064
2065
2066
2067
2069
2070
2072
2073
2075
2078
2079
2080
2081
2082
2085
2088
2093
2097
2099
2101
2101
2102
2103
2105
2106
2107
2107
2107
2107
2106
2105
2104
2102
2097
2092
2085
2078
2072
2067
2062
2057
2052
2048
2042
2037
2034
2033
2033
2033
2033
2030
2028
2026
2025
2025
2025
2026
2026
2027
2027
2028
2029
2028
2028
2028
2027
2027
2027
2028
2028
2027
2029
2028
2027
2028
2025
2023
2023
2026
2030
2034
2035
2032
2028
2024
2023
2024
2026
2028
2028
2026
2024
2023
2024
2027
2030
2031
2030
2027
2025
2023
2024
2024
2026
2025
2023
2020
2018
2017
2021
2026
2030
2031
2027
2023
2020
2019
2021
2022
2022
2022
2022
2021
2021
2021
2020
2020
2020
2019
2018
2017
2017
2017
2017
2018
2017
2016
2015
2014
2016
2019
2024
2028
2029
2028
2026
2022
2019
2020
2020
2020
2020
2020
2020
2019
2020
2020
2021
2021
2022
2022
2022
2022
2022
2022
2022
2023
2033
2049
2078
2114
2149
2169
2161
2122
2057
1984
1923
1890
1889
1911
1946
1977
1999
2014
2024
2031
2036
2039
2041
2043
2044
2045
2047
2048
2048
2049
2050
2051
2052
2052
2053
2053
2055
2057
2059
2060
2060
2060
2061
2062
2064
2065
2067
2069
2071
2073
2075
2077
2080
2082
2084
2087
2089
2091
2093
2096
2097
2100
2101
2100
2099
2098
2098
2099
2100
2099
2097
2091
2085
2078
2072
2067
2061
2056
2050
2047
2043
2039
2036
2033
2031
2029
2028
2027
2026
2026
2025
2026
2027
2026
2026
2026
2025
2026
2027
2029
2030
2030
2030
2028
2028
2028
2029
2029
2029
2028
2029
2029
2029
2028
2027
2027
2027
2028
2028
2028
2027
2027
2027
2028
2028
2027
2025
2024
2023
2025
2027
2029
2030
2029
2027
2026
2024
2024
2025
2025
2025
2025
2026
2026
2027
2027
2027
2026
2026
2025
2025
2025
2026
2026
2028
2028
2028
2027
2026
2025
2025
2028
2030
2032
2032
2030
2028
2027
2029
2031
2032
2033
2033
2032
2030
2029
2027
2026
2026
2025
2025
2025
2026
2027
2027
2028
2030
2029
2027
2024
2022
2022
2026
2035
2048
2070
2098
2133
2163
2175
2161
2113
2045
1974
1922
1898
1904
1929
1961
1990
2009
2022
2031
2036
2040
2042
2043
2046
2047
2048
2048
2048
2050
2052
2055
2057
2057
2056
2055
2055
2055
2058
2060
2061
2063
2064
2065
2067
2068
2070
2071
2073
2075
2077
2079
2080
2082
2083
2087
2089
2093
2093
2093
2093
2096
2101
2105
2107
2106
2102
2099
2095
2095
2093
2092
2087
2082
2077
2071
2066
2060
2055
2050
2047
2043
2040
2037
2035
2033
2031
2031
2029
2028
2027
2026
2028
2028
2030
2030
2030
2029
2028
2029
2029
2030
2030
2029
2029
2028
2029
2029
2030
2030
2030
2030
2030
2029
2029
2029
2029
2029
2029
2029
2029
2028
2027
2026
2027
2028
2030
2031
2030
2028
2027
2026
2026
2025
2026
2025
2026
2026
2026
2027
2027
2027
2026
2026
2026
2026
2027
2027
2028
2028
2027
2027
2025
2025
2025
2025
2028
2029
2029
2029
2027
2026
2025
2026
2027
2027
2027
2027
2028
2029
2029
2030
2030
2031
2032
2033
2033
2032
2031
2029
2030
2029
2028
2026
2025
2026
2029
2032
2033
2033
2031
2029
2029
2029
2032
2033
2037
2048
2072
2105
2144
2177
2189
2171
2121
2052
1982
1927
1899
1898
1917
1946
1973
1994
2011
2021
2029
2035
2041
2046
2049
2051
2052
2050
2049
2050
2052
2053
2056
2058
2059
2059
2060
2060
2061
2062
2064
2065
2067
2069
2070
2071
2073
2075
2076
2077
2077
2078
2081
2086
2091
2095
2097
2096
2095
2095
2097
2099
2101
2103
2103
2102
2102
2101
2099
2097
2095
2092
2088
2084
2079
2074
2068
2061
2058
2052
2048
2043
2038
2035
2035
2036
2037
2035
2033
2029
2027
2025
2028
2028
2028
2029
2029
2030
2030
2030
2030
2029
2029
2030
2030
2031
2031
2030
2028
2030
2029
2030
2029
2027
2026
2025
2027
2030
2032
2033
2031
2028
2026
2026
2025
2025
2026
2026
2026
2026
2026
2026
2026
2026
2026
2026
2026
2026
2025
2025
2025
2027
2027
2026
2024
2023
2023
2026
2030
2032
2032
2031
2029
2028
2028
2029
2028
2027
2026
2026
2025
2025
2026
2026
2026
2026
2027
2027
2026
2026
2025
2027
2028
2029
2031
2036
2052
2080
2119
2159
2186
2187
2156
2097
2023
1954
1905
1884
1889
1913
1943
1971
1994
2011
2024
2032
2037
2040
2043
2044
2047
2048
2050
2053
2053
2054
2053
2053
2054
2057
2061
2064
2065
2064
2064
2064
2063
2067
2068
2069
2071
2073
2075
2078
2081
2082
2084
2085
2087
2090
2092
2096
2099
2101
2102
2103
2104
2104
2104
2103
2103
2104
2104
2103
2099
2093
2088
2081
2076
2070
2065
2059
2054
2049
2046
2043
2040
2037
2034
2032
2030
2028
2027
2027
2027
2027
2028
2028
2027
2025
2024
2024
2027
2030
2032
2031
2030
2027
2026
2026
2028
2028
2029
2029
2029
2028
2028
2028
2028
2028
2028
2028
2028
2028
2029
2029
2029
2028
2028
2025
2023
2023
2025
2029
2032
2033
2031
2027
2025
2023
2025
2025
2026
2026
2025
2025
2026
2026
2025
2025
2025
2026
2026
2026
2027
2027
2026
2026
2026
2025
2025
2026
2026
2029
2032
2035
2038
2037
2034
2031
2028
2026
2027
2026
2026
2026
2026
2027
2027
2027
2028
2028
2028
2028
2028
2029
2029
2028
2029
2036
2051
2079
2114
2151
2175
2174
2141
2079
2003
1934
1891
1881
1899
1934
1968
1995
2012
2023
2031
2037
2041
2045
2047
2049
2051
2052
2053
2054
2055
2055
2058
2060
2060
2059
2058
2059
2062
2067
2071
2073
2073
2071
2071
2071
2074
2078
2079
2081
2083
2086
2089
2092
2095
2098
2100
2103
2105
2106
2108
2109
2110
2112
2113
2113
2112
2109
2107
2104
2102
2099
2095
2089
2081
2073
2066
2060
2055
2049
2046
2041
2038
2036
2034
2033
2031
2030
2029
2028
2028
2027
2028
2028
2027
2030
2029
2029
2027
2025
2026
2028
2033
2035
2036
2033
2030
2029
