2043
2037
2032
2028
2029
2027
2027
2026
2025
2025
2025
2025
2025
2026
2027
2028
2028
2029
2029
2030
2030
2031
2031
2032
2031
2031
2031
2031
2033
2035
2036
2035
2034
2032
2032
2032
2033
2034
2033
2033
2032
2031
2031
2031
2031
2031
2031
2030
2030
2030
2030
2030
2031
2031
2030
2030
2028
2028
2028
2030
2032
2034
2034
2033
2031
2031
2031
2031
2032
2032
2031
2031
2031
2031
2031
2031
2031
2032
2032
2031
2031
2031
2031
2032
2033
2033
2032
2030
2029
2029
2031
2034
2036
2037
2036
2034
2032
2031
2032
2032
2033
2033
2034
2034
2034
2034
2034
2035
2035
2035
2035
2035
2034
2035
2034
2036
2036
2036
2035
2034
2034
2035
2037
2039
2040
2038
2036
2035
2034
2036
2038
2039
2039
2038
2038
2039
2039
2040
2040
2039
2039
2039
2040
2041
2041
2040
2041
2039
2037
2035
2034
2035
2037
2038
2038
2037
2035
2032
2038
2056
2088
2118
2124
2092
2027
1947
1883
1857
1870
1908
1953
1988
2014
2032
2044
2050
2051
2051
2052
2054
2054
2054
2055
2057
2060
2063
2065
2065
2063
2062
2061
2062
2063
2064
2065
2065
2066
2066
2067
2067
2068
2069
2070
2071
2073
2074
2075
2076
2077
2078
2079
2081
2083
2085
2090
2095
2099
2102
2103
2102
2102
2102
2105
2108
2110
2111
2111
2111
2111
2110
2110
2108
2105
2101
2095
2089
2082
2075
2067
2061
2055
2049
2045
2040
2037
2035
2035
2036
2036
2034
2031
2029
2028
2029
2031
2032
2033
2033
2032
2032
2033
2033
2034
2035
2035
2036
2036
2036
2037
2037
2037
2037
2037
2037
2036
2035
2035
2037
2039
2041
2041
2039
2036
2035
2035
2035
2035
2035
2034
2033
2033
2033
2033
2034
2034
2034
2033
2033
2033
2033
2033
2033
2034
2033
2032
2032
2030
2030
2031
2033
2036
2037
2037
2035
2033
2032
2032
2032
2032
2033
2033
2033
2033
2034
2034
2034
2034
2033
2033
2033
2033
2033
2034
2034
2035
2035
2035
2034
2033
2033
2034
2036
2037
2037
2037
2036
2036
2036
2036
2036
2036
2035
2036
2036
2037
2037
2038
2038
2037
2037
2037
2037
2037
2038
2037
2038
2038
2037
2035
2033
2033
2034
2037
2038
2039
2038
2036
2035
2033
2034
2034
2033
2033
2033
2033
2034
2034
2034
2033
2030
2027
2025
2024
2023
2024
2023
2026
2025
2024
2021
2015
2014
2028
2058
2095
2115
2097
2040
1959
1886
1847
1847
1879
1922
1961
1989
2009
2022
2030
2032
2032
2032
2034
2035
2037
2038
2040
2041
2041
2042
2041
2041
2040
2042
2044
2047
2048
2048
2047
2046
2045
2045
2047
2048
2049
2049
2050
2051
2052
2053
2054
2055
2057
2059
2061
2064
2065
2067
2069
2072
2074
2076
2079
2081
2086
2091
2095
2097
2095
2093
2091
2089
2091
2092
2091
2089
2085
2081
2076
2070
2063
2056
2049
2044
2039
2035
2031
2028
2026
2024
2023
2021
2021
2018
2017
2018
2019
2022
2023
2024
2023
2022
2022
2022
2025
2026
2027
2026
2027
2028
2029
2031
2032
2033
2033
2033
2033
2033
2033
2033
2032
2033
2034
2033
2032
2030
2030
2031
2034
2037
2037
2036
2033
2031
2030
2031
2032
2032
2032
2032
2032
2032
2033
2033
2033
2033
2033
2033
2033
2033
2033
2033
2034
2034
2034
2034
2034
2033
2034
2035
2037
2038
2038
2037
2036
2035
2036
2036
2036
2036
2036
2036
2036
2037
2037
2038
2038
2037
2036
2036
2037
2038
2038
2039
2040
2040
2040
2038
2036
2036
2037
2038
2039
2038
2036
2035
2032
2033
2034
2034
2033
2033
2032
2030
2027
2033
2054
2087
2115
2118
2085
2021
1949
1896
1879
1896
1932
1969
1995
2014
2027
2038
2044
2046
2046
2045
2044
2043
2044
2046
2047
2047
2047
2047
2048
2048
2049
2049
2049
2050
2050
2050
2051
2052
2053
2053
2056
2056
2057
2056
2055
2055
2058
2062
2066
2069
2071
2070
2070
2070
2073
2075
2079
2082
2085
2089
2092
2094
2096
2098
2099
2101
2102
2103
2104
2104
2103
2102
2098
2094
2087
2079
2073
2068
2065
2062
2057
2051
2045
2040
2037
2036
2036
2035
2034
2034
2033
2032
2032
2032
2032
2032
2033
2033
2033
2033
2034
2033
2035
2036
2036
2035
2034
2034
2036
2040
2044
2046
2044
2041
2038
2036
2037
2038
2039
2039
2038
2038
2038
2038
2038
2038
2038
2038
2038
2037
2037
2037
2037
2037
2038
2037
2038
2036
2035
2035
2036
2038
2040
2040
2039
2037
2036
2035
2036
2037
2037
2038
2038
2038
2038
2038
2038
2038
2037
2036
2035
2034
2033
2032
2031
2032
2032
2032
2032
2032
2032
2032
2033
2032
2029
2031
2046
2074
2104
2115
2094
2039
1967
1905
1876
1883
1916
1959
1995
2021
2035
2042
2043
2042
2043
2045
2048
2048
2049
2050
2051
2051
2052
2054
2056
2058
2058
2057
2056
2056
2057
2057
2058
2058
2058
2059
2060
2061
2063
2064
2066
2067
2068
2069
2070
2071
2072
2073
2076
2078
2080
2082
2084
2087
2091
2096
2100
2102
2103
2103
2103
2103
2104
2105
2106
2105
2103
2100
2096
2091
2084
2077
2069
2062
2055
2049
2045
2042
2038
2037
2035
2033
2030
2027
2026
2027
2030
2032
2032
2030
2028
2027
2026
2029
2029
2030
2031
2031
2033
2034
2034
2034
2033
2033
2033
2033
2033
2034
2035
2035
2037
2036
2036
2034
2032
2031
2031
2033
2036
2039
2039
2036
2033
2031
2031
2031
2032
2032
2032
2032
2032
2032
2032
2031
2032
2032
2032
2033
2033
2033
2033
2033
2031
2031
2030
2029
2030
2031
2033
2035
2036
2035
2033
2032
2031
2031
2032
2034
2034
2035
2034
2034
2034
2034
2034
2035
2035
2035
2036
2037
2037
2036
2036
2035
2033
2031
2029
2028
2029
2034
2038
2042
2041
2037
2033
2027
2024
2024
2037
2064
2098
2118
2105
2054
1981
1912
1873
1872
1901
1941
1978
2005
2024
2038
2047
2048
2048
2048
2048
2049
2052
2055
2057
2057
2055
2054
2054
2054
2057
2057
2057
2058
2058
2059
2059
2060
2060
2061
2062
2062
2063
2064
2065
2066
2067
2068
2069
2070
2070
2071
2073
2077
2080
2084
2086
2087
2089
2091
2095
2097
2099
2101
2102
2103
2104
2104
2105
2105
2105
2104
2102
2098
2092
2085
2078
2071
2065
2058
2051
2046
2039
2035
2033
2033
2034
2033
2030
2028
2025
2024
2025
2024
2024
2025
2025
2025
2025
2026
2027
2028
2029
2029
2029
2029
2030
2030
2031
2031
2032
2032
2032
2031
2030
2030
2031
2032
2033
2033
2032
2031
2030
2029
2030
2030
2029
2029
2029
2029
2028
2028
2028
2028
2028
2028
2028
2028
2028
2027
2027
2028
2028
2028
2027
2026
2026
2027
2029
2031
2031
2030
2028
2027
2026
2027
2027
2027
2027
2027
2028
2028
2028
2028
2028
2028
2028
2028
2028
2028
2028
2027
2029
2029
2028
2028
2027
2027
2028
2030
2032
2033
2031
2029
2028
2027
2028
2028
2028
2028
2029
2029
2029
2029
2030
2029
2029
2030
2030
2030
2031
2032
2033
2034
2034
2033
2033
2032
2032
2033
2035
2038
2040
2040
2038
2036
2034
2033
2033
2032
2033
2034
2033
2033
2033
2033
2033
2032
2030
2026
2030
2049
2082
2114
2120
2088
2020
1938
1877
1853
1870
1912
1957
1993
2016
2031
2041
2045
2046
2048
2048
2050
2051
2052
2053
2054
2055
2055
2056
2056
2057
2058
2058
2059
2059
2060
2061
2061
2061
2061
2061
2062
2065
2068
2070
2071
2071
2070
2070
2070
2073
2075
2077
2079
2080
2082
2084
2086
2089
2092
2094
2097
2099
2101
2103
2104
2104
2106
2106
2106
2106
2104
2103
2103
2103
2101
2096
2087
2077
2068
2060
2055
2050
2047
2042
2037
2034
2031
2029
2027
2026
2025
2025
2024
2024
2024
2024
2024
2025
2026
2027
2027
2027
2027
2028
2029
2031
2032
2032
2030
2029
2028
2028
2029
2029
2030
2030
2030
2030
2030
2031
2031
2031
2031
2030
2030
2029
2029
2028
2029
2029
2029
2028
2025
2024
2025
2027
2029
2030
2030
2028
2026
2025
2025
2026
2027
2027
2027
2027
2027
2027
2028
2028
2028
2028
2027
2027
2027
2027
2027
2028
2029
2029
2028
2026
2025
2026
2029
2032
2035
2035
2033
2031
2029
2028
2030
2030
2030
2030
2030
2031
2031
2031
2031
2031
2030
2030
2031
2031
2031
2031
2031
2033
2032
2031
2030
2028
2028
2031
2034
2037
2037
2035
2033
2031
2030
2032
2032
2033
2034
2034
2034
2034
2034
2035
2035
2037
2037
2036
2034
2033
2032
2032
2032
2031
2030
2029
2029
2030
2032
2034
2032
2029
2037
2060
2093
2117
2111
2066
1997
1928
1887
1883
1908
1946
1981
2006
2023
2036
2044
2048
2048
2048
2048
2048
2049
2049
2050
2049
2049
2050
2052
2054
2056
2056
2055
2054
2053
2053
2055
2056
2058
2058
2059
2059
2060
2061
2062
2063
2064
2065
2066
2067
2068
2069
2069
2073
2074
2076
2076
2077
2079
2082
2087
2092
2094
2095
2094
2093
2093
2094
2096
2096
2096
2095
2093
2090
2087
2082
2077
2071
2066
2059
2053
2048
2043
2038
2035
2032
2029
2027
2025
2024
2025
2026
2027
2027
2026
2025
2024
2024
2025
2026
2027
2028
2028
2028
2029
2029
2031
2031
2032
2032
2032
2033
2033
2033
2034
2034
2035
2036
2035
2033
2032
2032
2034
2037
2038
2037
2034
2032
2031
2030
2032
2031
2031
2031
2031
2031
2031
2031
2032
2032
2032
2032
2033
2033
2033
2033
2033
2034
2035
2035
2034
2033
2032
2032
2033
2034
2034
2034
2033
2032
2032
2033
2033
2034
2033
2034
2035
2035
2036
2036
2035
2035
2034
2033
2032
2032
2031
2030
2031
2031
2030
2029
2028
2029
2030
2032
2033
2033
2029
2026
2033
2054
2087
2112
2109
2069
2002
1932
1885
1875
1897
1935
1972
2000
2019
2033
2042
2045
2045
2047
2048
2048
2047
2047
2048
2049
2052
2055
2056
2055
2054
2054
2054
2056
2055
2055
2056
2056
2057
2058
2058
2058
2058
2059
2060
2061
2063
2064
2066
2067
2068
2069
2071
2072
2073
2075
2078
2082
2087
2091
2093
2094
2094
2095
2097
2099
2100
2101
2102
2102
2102
2100
2097
2093
2087
2081
2074
2067
2061
2054
2048
2043
2040
2035
2031
2027
2025
2024
2026
2028
2028
2027
2025
2023
2022
2021
2022
2022
2023
2024
2025
2026
2026
2026
2026
2027
2027
2028
2029
2030
2030
2030
2030
2031
2031
2031
2030
2029
2030
2032
2034
2035
2035
2033
2030
2029
2028
2029
2029
2029
2029
2029
2028
2028
2028
2028
2028
2028
2029
2029
2029
2028
2028
2027
2029
2029
2028
2026
2025
2025
2028
2031
2034
2034
2031
2028
2026
2026
2028
2029
2030
2030
2030
2030
2031
2031
2032
2032
2032
2032
2031
2031
2031
2030
2031
2031
2031
2031
2031
2030
2031
2032
2035
2036
2036
2035
2033
2032
2032
2034
2035
2035
2035
2035
2034
2035
2035
2036
2037
2037
2037
2037
2037
2038
2038
2038
2037
2037
2037
2035
2033
2032
2032
2034
2036
2038
2038
2036
2030
2025
2032
2055
2092
2119
2116
2073
2002
1929
1882
1873
1898
1937
1974
2002
2022
2036
2046
2048
2050
2050
2050
2050
2049
2050
2053
2056
2059
2060
2058
2056
2055
2055
2058
2059
2059
2059
2059
2059
2060
2060
2060
2061
2062
2063
2064
2065
2067
2068
2068
2071
2071
2072
2072
2072
2073
2076
2081
2088
2094
2096
2096
2095
2094
2096
2097
2099
2101
2102
2102
2102
2102
2102
2100
2098
2094
2089
2084
2077
2071
2064
2059
2052
2048
2041
2035
2032
2030
2031
2033
2034
2033
2029
2026
2023
2023
2024
2026
2027
2028
2029
2029
2029
2030
2030
2031
2032
2033
2034
2034
2033
2033
2032
2034
2034
2033
2031
2028
2030
2033
2037
2041
2040
2037
2033
2031
2030
2031
2032
2032
2031
2030
2030
2028
2026
2025
2025
2025
2025
2026
2025
2025
2024
2023
2024
2025
2025
2024
2023
2023
2024
2027
2029
2029
2027
2025
2023
2021
2023
2025
2026
2026
2026
2026
2026
2025
2025
2025
2025
2025
2025
2026
2025
2025
2024
2025
2026
2026
2025
2024
2024
2025
2028
2031
2032
2030
2028
2026
2026
2027
2030
2030
2030
2029
2029
2029
2030
2031
2031
2032
2032
2032
2032
2031
2031
2030
2031
2031
2031
2031
2030
2030
2030
2033
2035
2037
2037
2035
2033
2031
2032
2033
2034
2034
2033
2032
2033
2035
2038
2039
2038
2035
2031
2028
2029
2030
2031
2033
2032
2028
2026
2034
2059
2095
2121
2114
2067
1991
1914
1868
1861
1890
1932
1972
2001
2020
2035
2045
2048
2048
2049
2050
2051
2052
2053
2054
2055
2054
2055
2057
2057
2057
2056
2054
2055
2057
2061
2065
2066
2064
2062
2061
2062
2065
2066
2067
2067
2068
2069
2071
2073
2075
2076
2077
2079
2081
2083
2086
2089
2092
2095
2098
2098
2100
2099
2100
2103
2108
2112
2116
2116
2114
2110
2106
2104
2101
2097
2093
2086
2079
2072
2065
2058
2053
2048
2043
2039
2036
2034
2033
2032
2031
2031
2028
2027
2025
2025
2027
2031
2035
2037
2036
2033
2030
2029
2029
2031
2032
2033
2034
2034
2034
2034
2034
2034
2034
2035
2035
2036
2035
2036
2035
2033
2034
2034
2034
2034
2033
2033
2034
2036
2037
2036
2034
2032
2031
2031
2033
2033
2033
2032
2032
2033
2032
2032
2032
2033
2033
2033
2033
2033
2033
2033
2032
2033
2033
2033
2033
2033
2034
2035
2036
2037
2036
2035
2033
2032
2032
2033
2034
2035
2035
2035
2035
2035
2034
2034
2035
2035
2035
2036
2037
2037
2037
2037
2038
2038
2038
2037
2036
2036
2036
2037
2039
2039
2039
2037
2036
2036
2036
2037
2038
2038
2038
2038
2037
2036
2036
2036
2037
2037
2038
2038
2038
2038
2038
2038
2039
2039
2039
2039
2039
2040
2042
2044
2044
2042
2039
2037
2035
2035
2036
2035
2035
2035
2035
2035
2035
2033
2030
2029
2043
2072
2106
2124
2105
2048
1971
1902
1868
1871
1903
1944
1980
2006
2026
2040
2047
2048
2048
2048
2048
2049
2051
2052
2052
2053
2053
2054
2054
2055
2055
2056
2056
2056
2057
2057
2058
2058
2060
2061
2061
2061
2061
2061
2063
2065
2068
2069
2069
2068
2067
2068
2070
2072
2075
2078
2081
2083
2086
2088
2090
2092
2093
2095
2096
2097
2098
2099
2098
2099
2099
2098
2095
2091
2088
2084
2081
2077
2072
2064
2055
2048
2041
2036
2032
2029
2027
2024
2023
2022
2021
2020
2019
2018
2017
2017
2018
2019
2019
2020
2020
2021
2021
2021
2019
2019
2020
2022
2026
2028
2028
2026
2023
2023
2022
2025
2025
2025
2024
2024
2024
2023
2023
2022
2021
2021
2020
2020
2021
2021
2021
2021
2022
2020
2019
2017
2015
2017
2019
2024
2026
2025
2022
2018
2016
2017
2020
2021
2021
2020
2020
2020
2019
2021
2020
2020
2020
2020
2020
2021
2021
2021
2022
2023
2022
2022
2021
2021
2022
2024
2027
2028
2027
2026
2025
2025
2025
2027
2027
2028
2028
2028
2028
2028
2027
2027
2027
2028
2028
2028
2028
2027
2027
2027
2027
2027
2027
2025
2022
2021
2032
2059
2094
2119
2112
2067
1997
1927
1883
1877
1901
1940
1976
2002
2019
2031
2038
2041
2042
2043
2043
2044
2046
2047
2048
2050
2051
2051
2051
2050
2051
2052
2055
2057
2058
2057
2057
2056
2055
2057
2057
2058
2059
2059
2061
2062
2064
2065
2067
2068
2069
2070
2071
2073
2074
2076
2079
2082
2086
2088
2090
2091
2093
2097
2100
2104
2105
2105
2104
2102
2101
2101
2100
2097
2093
2088
2082
2075
2069
2062
2056
2051
2047
2042
2039
2036
2034
2032
2032
2031
2030
2028
2027
2027
2028
2030
2031
2032
2031
2030
2030
2029
2031
2032
2033
2033
2034
2034
2034
2034
2035
2036
2036
2037
2037
2037
2036
2036
2036
2038
2038
2038
2036
2035
2034
2035
2037
2039
2039
2038
2036
2035
2034
2034
2034
2034
2034
2034
2034
2034
2034
2034
2034
2033
2033
2033
2033
2033
2033
2034
2034
2035
2034
2033
2032
2031
2032
2035
2038
2040
2039
2038
2036
2035
2034
2036
2036
2038
2039
2039
2039
2039
2038
2039
2039
2039
2040
2041
2042
2041
2040
2038
2038
2039
2040
2040
2038
2035
2034
2034
2038
2039
2039
2037
2035
2034
2032
2032
2041
2064
2096
2118
2111
2065
1994
1921
1875
1868
1893
1933
1972
2001
2022
2038
2048
2051
2050
2049
2050
2052
2057
2060
2061
2060
2058
2057
2056
2058
2060
2061
2061
2061
2061
2061
2062
2063
2063
2064
2065
2066
2067
2067
2068
2069
2071
2072
2073
2073
2073
2074
2077
2080
2084
2087
2089
2090
2091
2093
2097
2100
2103
2104
2105
2106
2107
2108
2109
2110
2110
2110
2108
2105
2100
2094
2087
2080
2074
2066
2059
2052
2047
2044
2043
2042
2041
2038
2034
2030
2027
2025
2026
2025
2025
2025
2026
2027
2027
2028
2029
2029
2029
2029
2029
2029
2030
2030
2031
2031
2032
2032
2031
2031
2031
2034
2036
2037
2036
2033
2031
2028
2028
2029
2029
2030
2030
2030
2029
2030
2030
2030
2030
2029
2029
2029
2029
2030
2029
2030
2031
2030
2029
2027
2026
2027
2030
2032
2034
2034
2031
2029
2027
2027
2029
2030
2031
2031
2031
2031
2031
2031
2031
2031
2031
2031
2031
2032
2033
2033
2034
2035
2035
2034
2032
2031
2032
2034
2036
2039
2039
2037
2035
2033
2033
2034
2035
2036
2037
2037
2037
2038
2038
2039
2039
2039
2039
2040
2040
2041
2040
2038
2037
2036
2034
2033
2031
2031
2033
2037
2040
2041
2038
2032
2025
2028
2048
2084
2117
2123
2087
2017
1934
1871
1849
1867
1908
1954
1989
2015
2033
2045
2050
2050
2050
2050
2051
2052
2052
2054
2056
2058
2060
2059
2059
2057
2057
2057
2058
2060
2061
2062
2063
2063
2062
2062
2062
2063
2065
2066
2067
2068
2069
2070
2070
2073
2074
2075
2076
2076
2078
2083
2088
2092
2095
2095
2095
2096
2097
2102
2104
2106
2106
2106
2106
2107
2107
2107
2105
2102
2097
2092
2085
2078
2070
2063
2057
2051
2046
2041
2036
2033
2031
2030
2031
2030
2028
2026
2024
2024
2025
2025
2025
2025
2025
2026
2027
2028
2029
2030
2030
2030
2030
2030
2030
2031
2031
2030
2032
2031
2031
2030
2029
2029
2031
2034
2035
2034
2032
2030
2029
2028
2029
2029
2029
2029
2029
2029
2029
2029
2029
2028
2028
2028
2028
2028
2027
2028
2028
2028
2029
2029
2028
2027
2026
2026
2027
2029
2029
2029
2028
2027
2026
2027
2027
2028
2028
2028
2029
2029
2029
2030
2029
2029
2029
2029
2029
2029
2030
2029
2030
2030
2031
2030
2030
2030
2030
2031
2033
2034
2033
2032
2031
2030
2031
2032
2034
2034
2033
2032
2031
2030
2029
2029
2028
2028
2029
2029
2029
2030
2030
2030
2027
2027
2040
2067
2100
2118
2103
2051
1978
1912
1877
1880
1911
1953
1987
2010
2025
2036
2041
2042
2043
2043
2044
2044
2045
2046
2047
2048
2048
2049
2049
2050
2049
2049
2049
2049
2050
2053
2055
2056
2056
2055
2055
2054
2055
2055
2056
2058
2059
2060
2061
2062
2063
2065
2067
2069
2072
2074
2076
2078
2080
2082
2085
2087
2088
2089
2089
2091
2095
2099
2100
2100
2097
2094
2091
2088
2085
2080
2074
2068
2063
2057
2051
2046
2040
2036
2033
2030
2029
2028
2026
2024
2022
2023
2022
2022
2020
2020
2021
2024
2026
2027
2027
2025
2024
2023
2024
2026
2027
2029
2029
2029
2029
2029
2028
2029
2029
2029
2029
2029
2029
2029
2029
2029
2031
2030
2029
2028
2026
2025
2027
2030
2032
2033
2031
2028
2026
2026
2028
2029
2029
2029
2028
2028
2028
2028
2028
2028
2028
2028
2028
2029
2029
2028
2028
2029
2029
2029
2029
2029
2030
2031
2032
2034
2034
2034
2032
2032
2031
2033
2034
2034
2035
2034
2034
2033
2032
2032
2032
2032
2031
2030
2030
2031
2031
2031
2032
2031
2029
2026
2032
2053
2086
2113
2112
2073
2007
1934
1886
1874
1894
1933
1973
2004
2026
2041
2048
2049
2048
2047
2048
2049
2052
2052
2053
2054
2054
2054
2055
2056
2056
2056
2056
2056
2058
2061
2063
2064
2063
2062
2061
2061
2063
2065
2066
2066
2067
2068
2069
2071
2072
2074
2075
2077
2078
2080
2083
2086
2089
2093
2096
2098
2099
2099
2100
2102
2106
2109
2111
2110
2108
2105
2101
2099
2094
2089
2083
2076
2070
2063
2057
2051
2047
2043
2040
2037
2035
2034
2032
2032
2031
2031
2030
2030
2027
2026
2026
2028
2033
2037
2039
2038
2035
2032
2031
2032
2033
2036
2036
2037
2037
2036
2036
2036
2036
2036
2037
2037
2037
2037
2037
2037
2037
2036
2035
2034
2033
2033
2035
2037
2038
2038
2036
2033
2032
2030
2032
2032
2033
2034
2034
2035
2035
2034
2034
2034
2034
2034
2035
2035
2035
2035
2034
2035
2035
2035
2034
2034
2033
2034
2036
2037
2038
2036
2034
2033
2031
2033
2034
2035
2035
2036
2036
2036
2035
2035
2036
2036
2037
2037
2037
2037
2037
2037
2038
2038
2037
2037
2036
2036
2038
2039
2040
2039
2037
2035
2033
2032
2033
2034
2035
2035
2035
2035
2034
2031
2027
2030
2048
2081
2113
2119
2086
2019
1939
1879
1858
1875
1914
1955
1988
2011
2030
2045
2052
2053
2051
2049
2049
2050
2052
2053
2054
2055
2056
2057
2058
2058
2059
2059
2059
2059
2059
2060
2061
2061
2063
2063
2064
2063
2063
2063
2064
2068
2071
2074
2074
2074
2074
2074
2077
2079
2081
2084
2085
2088
2090
2094
2097
2099
2101
2102
2104
2105
2106
2108
2109
2109
2109
2108
2105
2100
2094
2089
2084
2080
2074
2067
2058
2050
2045
2040
2038
2035
2033
2031
2030
2029
2028
2027
2026
2026
2026
2026
2026
2027
2028
2028
2028
2031
2031
2031
2030
2029
2029
2032
2035
2037
2038
2036
2034
2031
2030
2030
2031
2031
2031
2032
2031
2031
2030
2030
2029
2028
2028
2028
2028
2028
2028
2028
2029
2028
2027
2027
2025
2025
2026
2028
2029
2030
2029
2028
2027
2026
2024
2023
2022
2023
2024
2026
2027
2027
2026
2025
2024
2024
2024
2024
2023
2023
2023
2022
2022
2022
2022
2021
2020
2020
2022
2024
2025
2025
2024
2023
2023
2021
2022
2022
2023
2024
2025
2025
2025
2024
2023
2023
2024
2025
2027
2027
2027
2026
2026
2028
2028
2029
2028
2026
2026
2027
2030
2033
2034
2034
2032
2032
2031
2034
2035
2036
2036
2037
2037
2037
2038
2038
2038
2038
2038
2039
2040
2040
2039
2038
2037
2036
2036
2035
2035
2035
2036
2037
2039
2039
2036
2031
2031
2047
2078
2112
2124
2099
2037
1959
1895
1867
1877
1912
1954
1987
2011
2028
2039
2046
2047
2047
2049
2049
2050
2049
2049
2049
2052
2056
2059
2059
2058
2055
2055
2054
2056
2056
2057
2057
2058
2059
2060
2061
2062
2062
2063
2064
2065
2067
2067
2068
2068
2068
2070
2072
2073
2075
2077
2080
2083
2086
2088
2089
2090
2091
2091
2093
2095
2096
2097
2098
2097
2097
2096
2094
2093
2090
2086
2081
2076
2070
2063
2056
2051
2047
2042
2037
2033
2030
2028
2028
2028
2028
2026
2025
2023
2022
2023
2023
2023
2023
2024
2025
2026
2027
2027
2026
2026
2027
2028
2029
2030
2031
2030
2031
2030
2030
2028
2027
2027
2028
2031
2032
2033
2032
2029
2028
2027
2027
2028
2028
2028
2029
2029
2029
2029
2029
2028
2029
2029
2030
2031
2031
2031
2032
2032
2033
2033
2033
2031
2030
2031
2032
2034
2035
2036
2035
2033
2032
2032
2032
2032
2033
2035
2036
2036
2036
2036
2035
2036
2036
2037
2037
2037
2037
2037
2038
2040
2041
2041
2040
2039
2039
2042
2044
2046
2045
2043
2042
2042
2043
2045
2044
2043
2041
2040
2041
2042
2044
2044
2042
2042
2042
2043
2042
2041
2038
2035
2042
2059
2091
2120
2128
2103
2047
1977
1919
1893
1899
1929
1968
2000
2026
2042
2052
2056
2056
2056
2057
2057
2058
2059
2060
2060
2061
2062
2062
2062
2061
2063
2063
2063
2063
2061
2061
2063
2066
2069
2070
2069
2067
2066
2065
2068
2069
2070
2071
2072
2074
2075
2076
2077
2078
2080
2082
2084
2086
2088
2090
2092
2095
2097
2098
2100
2099
2099
2099
2100
2102
2104
2103
2101
2096
2090
2084
2078
2071
2065
2058
2052
2048
2043
2039
2037
2035
2034
2032
2031
2030
2028
2028
2027
2027
2028
2028
2028
2027
2026
2028
2030
2033
2034
2035
2034
2033
2034
2034
2035
2036
2036
2037
2037
2038
2039
2039
2039
2039
2038
2038
2038
2038
2038
2038
2039
2039
2039
2037
2036
2036
2037
2039
2041
2041
2040
2038
2037
2036
2038
2040
2040
2040
2039
2039
2039
2039
2039
2039
2038
2038
2039
2039
2040
2040
2039
2040
2041
2040
2039
2038
2038
2039
2042
2044
2045
2044
2043
2041
2040
2041
2042
2043
2043
2044
2043
2042
2041
2040
2039
2038
2038
2037
2037
2038
2038
2039
2039
2039
2036
2033
2036
2052
2084
2114
2121
2090
2025
1948
1889
1868
1883
1921
1963
1997
2022
2038
2048
2052
2052
2052
2053
2055
2057
2058
2059
2059
2060
2060
2061
2061
2061
2061
2061
2063
2065
2068
2070
2070
2068
2067
2066
2067
2070
2070
2073
2073
2073
2073
2074
2076
2079
2081
2084
2085
2086
2086
2088
2090
2091
2095
2097
2099
2100
2101
2102
2105
2108
2111
2112
2110
2108
2106
2103
2102
2099
2093
2086
2079
2072
2064
2057
2053
2048
2045
2041
2036
2033
2031
2031
2031
2033
2033
2032
2030
2027
2026
2027
2029
2032
2033
2033
2031
2028
2027
2028
2030
2032
2033
2033
2033
2033
2033
2033
2034
2034
2034
2033
2033
2032
2033
2034
2035
2037
2036
2035
2032
2030
2030
2032
2037
2040
2040
2038
2035
2032
2031
2033
2034
2035
2035
2035
2035
2036
2036
2037
2037
2038
2038
2038
2038
2038
2039
2040
2039
2038
2037
2034
2032
2032
2035
2037
2039
2040
2039
2038
2036
2035
2035
2034
2031
2029
2040
2065
2099
2119
2106
2056
1981
1910
1870
1869
1899
1943
1982
2012
2032
2044
2048
2048
2048
2050
2055
2059
2062
2062
2060
2059
2058
2059
2060
2061
2061
2062
2062
2063
2063
2064
2064
2064
2065
2066
2067
2068
2069
2069
2071
2072
2073
2072
2071
2072
2076
2081
2086
2089
2089
2089
2088
2090
2094
2098
2101
2104
2106
2108
2109
2110
2110
2112
2112
2112
2112
2110
2107
2102
2096
2090
2083
2074
2067
2058
2052
2048
2046
2046
2044
2041
2036
2032
2030
2030
2031
2031
2031
2031
2031
2031
2031
2031
2031
2032
2033
2034
2035
2036
2036
2036
2035
2035
2035
2035
2034
2033
2034
2036
2038
2040
2039
2037
2035
2033
2031
2032
2031
2033
2032
2032
2031
2031
2032
2033
2034
2035
2035
2033
2033
2032
2031
2031
2033
2034
2034
2033
2031
2030
2032
2035
2037
2037
2034
2030
2027
2025
2028
2029
2029
2029
2029
2029
2029
2029
2029
2028
2024
2024
2036
2064
2096
2112
2094
2042
1967
1901
1865
1866
1897
1939
1979
2010
2030
2041
2045
2044
2043
2045
2048
2049
2050
2050
2050
2051
2052
2053
2054
2055
2054
2054
2053
2053
2054
2055
2056
2059
2059
2059
2058
2057
2057
2061
2066
2069
2070
2069
2067
2067
2068
2072
2073
2075
2077
2079
2081
2084
2087
2091
2094
2096
2097
2098
2098
2099
2099
2100
2102
2103
2101
2098
2093
2089
2085
2081
2076
2069
2060
2052
2045
2039
2036
2033
2031
2029
2027
2026
2025
2026
2026
2026
2026
2026
2025
2026
2027
2028
2028
2030
2030
2030
2029
2028
2028
2031
2033
2037
2037
2035
2031
2028
2025
2028
2033
2037
2039
2037
2033
2029
2025
2025
2026
2027
2027
2029
2028
2028
2029
2029
2029
2030
2029
2028
2027
2027
2029
2031
2033
2034
2033
2031
2029
2029
2029
2030
2031
2032
2031
2031
2031
2031
2031
2032
2032
2032
2032
2032
2032
2033
2033
2034
2035
2034
2035
2033
2033
2033
2035
2037
2038
2038
2036
2034
2032
2031
2031
2031
2032
2033
2033
2034
2034
2032
2028
2027
2037
2063
2097
2118
2106
2057
1983
1915
1874
1871
1899
1938
1976
2005
2028
2044
2051
2050
2048
2046
2046
2048
2051
2052
2054
2054
2054
2054
2054
2053
2054
2055
2057
2058
2058
2058
2057
2056
2058
2057
2059
2058
2058
2059
2062
2066
2068
2068
2067
2066
2066
2067
2071
2073
2075
2076
2078
2079
2081
2083
2085
2087
2089
2090
2091
2092
2092
2092
2092
2093
2094
2093
2091
2086
2082
2077
2073
2070
2065
2059
2051
2046
2040
2036
2033
2030
2029
2027
2026
2025
2024
2024
2025
2025
2026
2026
2027
2027
2027
2028
2028
2029
2029
2029
2028
2028
2029
2030
2032
2034
2034
2032
2031
2030
2030
2030
2031
2031
2031
2032
2031
2031
2031
2031
2031
2031
2030
2030
2030
2029
2030
2030
2030
2031
2030
2029
2028
2028
2030
2032
2033
2033
2033
2032
2031
2031
2032
2032
2033
2033
2034
2034
2034
2033
2031
2030
2029
2028
2029
2029
2029
2029
2029
2031
2031
2031
2029
2028
2026
2024
2028
2046
2076
2104
2113
2089
2032
1963
1906
1882
1891
1924
1964
1996
2019
2033
2042
2045
2045
2045
2047
2048
2049
2049
2050
2051
2051
2050
2050
2049
2050
2053
2056
2058
2058
2057
2056
2055
2056
2057
2058
2059
2060
2061
2062
2063
2064
2065
2065
2067
2068
2070
2072
2074
2076
2078
2080
2081
2082
2083
2085
2088
2091
2095
2097
2098
2096
2095
2094
2094
2094
2093
2091
2088
2084
2079
2073
2066
2060
2054
2049
2045
2042
2038
2035
2033
2030
2030
2028
2027
2025
2023
2023
2026
2030
2032
2033
2031
2029
2027
2027
2030
2032
2033
2033
2033
2033
2032
2032
2031
2032
2033
2034
2034
2034
2033
2031
2029
2030
2030
2031
2030
2029
2029
2029
2031
2032
2032
2030
2028
2026
2025
2027
2028
2028
2029
2029
2029
2029
2028
2028
2028
2029
2029
2030
2030
2029
2029
2029
2030
2031
2031
2029
2025
2023
2023
2026
2029
2031
2030
2027
2025
2025
2025
2027
2026
2026
2024
2020
2019
2029
2051
2081
2100
2089
2047
1981
1917
1879
1874
1900
1938
1973
2000
2017
2028
2035
2038
2040
2042
2043
2043
2043
2043
2044
2045
2045
2046
2046
2047
2047
2048
2048
2049
2049
2050
2050
2051
2052
2052
2053
2054
2055
2056
2057
2057
2057
2058
2060
2063
2066
2067
2068
2068
2069
2069
2072
2074
2076
2078
2080
2082
2084
2086
2087
2088
2089
2089
2090
2089
2089
2088
2086
2083
2079
2073
2066
2059
2054
2050
2048
2046
2043
2039
2035
2032
2029
2030
2030
2030
2030
2030
2030
2030
2030
2031
2031
2031
2031
2032
2032
2033
2034
2035
2036
2036
2037
2036
2035
2034
2034
2036
2038
2040
2040
2038
2036
2034
2033
2034
2034
2035
2035
2034
2034
2033
2033
2033
2033
2034
2034
2035
2035
2036
2035
2035
2036
2035
2034
2033
2033
2033
2035
2037
2038
2038
2037
2036
2036
2036
2036
2036
2036
2036
2037
2037
2038
2038
2038
2038
2038
2039
2039
2039
2038
2037
2034
2034
2034
2033
2031
2029
2030
2033
2037
2040
2040
2037
2032
2027
2027
2042
2070
2098
2109
2088
2035
1968
1910
1882
1889
1919
1958
1992
2018
2034
2044
2047
2048
2048
2050
2051
2050
2050
2053
2058
2061
2063
2061
2058
2057
2056
2058
2060
2061
2062
2062
2062
2063
2064
2065
2067
2068
2070
2069
2068
2068
2069
2072
2077
2080
2081
2079
2078
2077
2080
2084
2089
2091
2093
2094
2095
2097
2099
2100
2101
2101
2101
2102
2102
2102
2102
2100
2098
2094
2090
2084
2078
2071
2065
2059
2055
2050
2047
2042
2039
2036
2036
2036
2036
2035
2034
2033
2032
2033
2034
2034
2034
2034
2034
2035
2036
2036
2037
2037
2038
2037
2037
2037
2036
2036
2035
2035
2036
2035
2034
2033
2033
2034
2035
2036
2036
2034
2033
2031
2031
2030
2031
2031
2031
2032
2032
2032
2032
2032
2032
2032
2032
2032
2032
2032
2032
2031
2031
2031
2032
2031
2031
2031
2031
2033
2035
2036
2035
2035
2034
2033
2034
2035
2036
2036
2035
2035
2034
2033
2031
2030
2030
2030
2030
2030
2031
2032
2031
2032
2032
2030
2026
2025
2038
2065
2097
2113
2094
2040
1966
1901
1868
1872
1904
1946
1982
2010
2029
2041
2048
2048
2048
2048
2050
2051
2052
2053
2054
2055
2055
2056
2055
2055
2055
2054
2056
2058
2061
2063
2064
2064
2063
2061
2061
2062
2063
2066
2068
2069
2069
2070
2071
2073
2074
2076
2078
2080
2082
2084
2086
2088
2092
2093
2094
2094
2094
2096
2100
2106
2109
2109
2106
2102
2100
2098
2098
2095
2091
2085
2078
2071
2064
2059
2053
2048
2045
2041
2038
2036
2035
2033
2032
2033
2033
2033
2031
2029
2030
2033
2038
2042
2043
2040
2037
2035
2034
2036
2038
2038
2037
2037
2037
2036
2036
2036
2036
2036
2036
2036
2036
2035
2034
2033
2034
2034
2034
2032
2031
2031
2031
2033
2035
2036
2035
2033
2032
2030
2032
2032
2033
2033
2032
2031
2031
2031
2032
2033
2034
2034
2033
2033
2033
2033
2034
2036
2036
2037
2037
2035
2035
2035
2035
2037
2037
2036
2035
2033
2031
2031
2031
2031
2032
2032
2032
2032
2032
2031
2028
2027
2037
2061
2095
2117
2105
2056
1981
1908
1864
1858
1885
1927
1969
2001
2025
2042
2049
2050
2048
2048
2049
2051
2052
2054
2054
2055
2056
2057
2058
2058
2058
2058
2058
2059
2060
2061
2063
2063
2064
2065
2065
2065
2066
2067
2069
2071
2074
2075
2075
2075
2075
2075
2078
2080
2083
2085
2088
2090
2091
2092
2094
2096
2097
2098
2099
2100
2101
2101
2101
2102
2102
2100
2097
2093
2088
2083
2077
2072
2067
2060
2053
2048
2042
2038
2035
2033
2031
2030
2029
2029
2028
2028
2028
2029
2030
2030
2031
2032
2033
2033
2034
2034
2033
2033
2032
2032
2034
2036
2038
2039
2039
2038
2036
2035
2035
2035
2035
2035
2035
2034
2034
2034
2034
2034
2034
2034
2034
2034
2034
2034
2034
2034
2036
2036
2036
2034
2032
2033
2036
2040
2043
2044
2041
2039
2037
2036
2038
2038
2038
2036
2035
2035
2034
2034
2034
2035
2035
2035
2035
2035
2036
2035
2032
2031
2039
2062
2093
2115
2107
2062
1991
1919
1873
1865
1889
1931
1972
2006
2029
2044
2051
2053
2052
2053
2054
2056
2058
2059
2060
2061
2061
2061
2062
2061
2063
2064
2064
2064
2063
2062
2064
2067
2071
2073
2072
2071
2070
2071
2073
2075
2076
2077
2078
2079
2080
2081
2084
2086
2088
2090
2092
2094
2096
2098
2098
2102
2104
2105
2105
2104
2103
2104
2106
2109
2110
2108
2104
2098
2091
2085
2078
2071
2064
2058
2052
2048
2044
2041
2039
2037
2035
2033
2033
2032
2032
2033
2034
2035
2036
2036
2035
2033
2033
2035
2038
2040
2042
2041
2038
2036
2034
2034
2035
2036
2035
2035
2035
2034
2034
2034
2034
2034
2034
2034
2033
2033
2033
2034
2034
2035
2034
2033
2031
2031
2032
2035
2038
2039
2038
2036
2035
2034
2036
2037
2038
2038
2038
2038
2039
2039
2038
2037
2036
2035
2034
2033
2033
2032
2032
2033
2034
2035
2035
2034
2033
2032
2032
2030
2035
2049
2079
2108
2116
2090
2029
1951
1885
1855
1864
1901
1947
1987
2016
2035
2047
2052
2052
2053
2054
2055
2057
2058
2059
2059
2058
2058
2060
2062
2065
2067
2068
2066
2065
2065
2066
2067
2069
2070
2071
2072
2073
2074
2075
2077
2078
2079
2081
2082
2084
2086
2087
2089
2092
2094
2096
2097
2098
2100
2103
2107
2111
2114
2115
2114
2112
2111
2113
2113
2114
2113
2111
2107
2102
2096
2089
2083
2076
2069
2063
2057
2052
2048
2046
2045
2043
2042
2039
2038
2038
2040
2043
2046
2047
2045
2043
2042
2041
2043
2044
2045
2045
2044
2044
2044
2043
2043
2043
2043
2043
2043
2043
2043
2043
2042
2042
2042
2042
2041
2039
2038
2039
2040
2043
2044
2043
2041
2039
2039
2039
2039
2039
2039
2039
2039
2039
2039
2039
2039
2040
2040
2040
2040
2040
2040
2040
2040
2040
2041
2041
2040
2039
2039
2040
2043
2045
2045
2044
2043
2043
2043
2043
2043
2043
2042
2041
2040
2039
2038
2038
2039
2039
2039
2039
2040
2039
2039
2038
2038
2035
2042
2062
2094
2120
2120
2082
2014
1937
1882
1867
1888
1928
1973
2006
2029
2044
2053
2056
2056
2056
2057
2059
2060
2061
2061
2062
2062
2064
2065
2066
2067
2067
2066
2065
2065
2066
2068
2071
2073
2073
2073
2072
2071
2072
2074
2075
2077
2077
2079
2080
2082
2084
2085
2086
2087
2089
2091
2093
2095
2096
2097
2099
2100
2100
2100
2100
2101
2103
2104
2105
2104
2103
2100
2096
2093
2088
2083
2078
2072
2066
2060
2055
2051
2048
2044
2041
2039
2038
2037
2037
2037
2037
2037
2037
2037
2036
2036
2037
2038
2041
2043
2043
2042
2039
2038
2037
2038
2038
2039
2039
2039
2039
2038
2038
2038
2038
2038
2037
2037
2037
2036
2036
2035
2036
2035
2035
2033
2031
2031
2033
2037
2039
2040
2039
2037
2034
2033
2034
2034
2036
2037
2037
2037
2037
2037
2038
2039
2038
2037
2036
2035
2034
2033
2033
2035
2035
2035
2033
2032
2032
2034
2037
2038
2035
2033
2042
2067
2098
2118
2107
2060
1990
1923
1884
1882
1909
1949
1986
2014
2031
2044
2048
2049
2049
2049
2051
2053
2054
2055
2054
2053
2053
2055
2058
2060
2061
2061
2060
2059
2060
2060
2061
2062
2062
2063
2064
2065
2066
2067
2068
2069
2070
2072
2073
2074
2075
2077
2079
2080
2081
2082
2084
2086
2090
2094
2098
2099
2099
2098
2098
2099
2099
2100
2100
2099
2097
2095
2092
2087
2082
2076
2070
2064
2058
2053
2048
2045
2041
2040
2037
2035
2032
2029
2029
2032
2036
2039
2039
2038
2035
2034
2033
2036
2036
2037
2037
2038
2038
2038
2038
2038
2038
2038
2038
2038
2038
2037
2038
2037
2038
2037
2037
2035
2034
2034
2035
2036
2038
2038
2037
2035
2033
2031
2032
2033
2034
2034
2035
2035
2035
2035
2035
2035
2035
2036
2035
2036
2036
2037
2037
2038
2037
2036
2033
2031
2030
2030
2032
2034
2035
2035
2035
2034
2033
2033
2033
2031
2027
2031
2048
2078
2106
2113
2084
2024
1952
1896
1874
1887
1922
1963
1996
2020
2036
2045
2048
2047
2048
2050
2053
2055
2055
2054
2053
2053
2054
2055
2056
2057
2057
2057
2058
2059
2060
2061
2061
2062
2063
2064
2066
2067
2069
2069
2072
2072
2073
2072
2072
2073
2076
2081
2085
2087
2087
2087
2087
2087
2092
2093
2096
2097
2098
2099
2100
2100
2101
2101
2101
2101
2100
2098
2094
2088
2080
2075
2069
2064
2057
2052
2048
2044
2043
2042
2041
2038
2035
2034
2032
2034
2034
2035
2035
2035
2035
2036
2036
2037
2037
2038
2039
2039
2039
2039
2039
2039
2039
2040
2040
2039
2037
2036
2036
2039
2041
2042
2041
2039
2037
2036
2036
2037
2038
2038
2037
2037
2036
2036
2037
2037
2037
2036
2034
2033
2033
2036
2039
2041
2040
2038
2036
2033
2033
2034
2037
2039
2041
2042
2041
2040
2040
2040
2041
2041
2041
2041
2041
2042
2042
2041
2040
2039
2038
2038
2037
2037
2037
2038
2037
2040
2039
2039
2037
2032
2028
2034
2055
2090
2120
2122
2086
2018
1939
1884
1865
1881
1920
1963
1997
2023
2040
2050
2055
2054
2054
2055
2056
2058
2059
2061
2062
2062
2063
2062
2061
2061
2063
2066
2068
2069
2069
2067
2067
2067
2069
2071
2072
2072
2072
2073
2074
2075
2076
2078
2079
2080
2082
2083
2085
2087
2088
2091
2094
2095
2096
2097
2098
2099
2102
2105
2107
2108
2107
2106
2105
2104
2103
2102
2100
2096
2091
2085
2078
2071
2065
2059
2054
2050
2047
2045
2042
2040
2039
2037
2036
2035
2034
2034
2036
2038
2039
2040
2039
2038
2037
2038
2040
2042
2043
2043
2043
2042
2042
2042
2041
2041
2041
2041
2040
2040
2040
2040
2039
2037
2039
2037
2037
2035
2034
2034
2036
2039
2041
2041
2038
2036
2034
2033
2036
2036
2036
2036
2036
2036
2036
2036
2036
2036
2036
2036
2037
2036
2037
2036
2035
2036
2036
2037
2037
2036
2035
2036
2037
2039
2041
2039
2038
2036
2034
2036
2037
2037
2038
2038
2038
2038
2038
2039
2039
2040
2040
2040
2040
2040
2041
2040
2040
2041
2040
2041
2039
2039
2040
2042
2047
2049
2049
2048
2044
2041
2040
2041
2041
2041
2040
2040
2041
2041
2042
2041
2039
2035
2036
2048
2077
2111
2125
2104
2048
1969
1901
1865
1868
1902
1947
1989
2020
2040
2051
2056
2056
2055
2057
2058
2060
2061
2061
2063
2064
2065
2065
2065
2065
2066
2066
2068
2068
2069
2069
2071
2071
2072
2071
2069
2069
2072
2076
2080
2082
2082
2081
2080
2079
2082
2083
2086
2087
2089
2091
2094
2096
2098
2099
2101
2102
2104
2105
2106
2107
2107
2108
2108
2108
2106
2104
2103
2102
2101
2099
2094
2087
2078
2070
2063
2059
2056
2052
2048
2046
2043
2042
2041
2040
2040
2039
2038
2038
2038
2039
2040
2040
2041
2042
2043
2042
2041
2041
2042
2044
2046
2048
2047
2045
2043
2042
2042
2042
2043
2042
2041
2041
2041
2040
2040
2039
2039
2039
2039
2039
2040
2040
2040
2039
2039
2039
2038
2037
2037
2038
2040
2043
2044
2043
2040
2038
2036
2037
2038
2039
2039
2039
2039
2039
2039
2039
2038
2038
2038
2039
2039
2039
2039
2038
2039
2040
2039
2039
2037
2036
2037
2040
2044
2046
2045
2042
2040
2039
2039
2040
2040
2041
2040
2039
2039
2039
2039
2039
2039
2039
2039
2039
2039
2040
2040
2040
2041
2041
2040
2038
2037
2038
2040
2045
2048
2048
2046
2043
2040
2039
2040
2040
2040
2039
2038
2038
2038
2038
2038
2038
2038
2038
2036
2032
2033
2047
2077
2110
2122
2097
2036
1956
1890
1862
1873
1910
1954
1990
2015
2033
2045
2051
2052
2052
2053
2054
2055
2056
2056
2057
2058
2059
2060
2060
2061
2061
2061
2061
2062
2066
2066
2066
2064
2061
2061
2064
2069
2072
2073
2071
2069
2069
2069
2074
2075
2076
2077
2078
2080
2082
2084
2086
2088
2090
2091
2094
2096
2097
2099
2100
2101
2102
2101
2100
2098
2097
2097
2098
2098
2095
2091
2085
2078
2072
2066
2060
2055
2050
2046
2043
2040
2038
2036
2035
2034
2034
2034
2034
2034
2034
2035
2035
2035
2036
2035
2035
2035
2036
2039
2041
2042
2041
2040
2039
2038
2039
2039
2039
2039
2039
2038
2038
2038
2038
2037
2037
2037
2038
2038
2038
2038
2037
2037
2037
2037
2036
2035
2034
2035
2037
2039
2040
2040
2038
2036
2035
2035
2036
2036
2036
2036
2036
2036
2037
2036
2036
2036
2036
2036
2037
2037
2038
2038
2037
2037
2037
2037
2037
2037
2038
2040
2042
2041
2040
2038
2038
2041
2044
2046
2046
2044
2042
2041
2041
2040
2040
2039
2038
2038
2039
2039
2039
2039
2040
2039
2039
2039
2037
2032
2034
2048
2080
2115
2130
2111
2053
1979
1914
1882
1889
1922
1964
1998
2022
2038
2048
2051
2052
2053
2054
2056
2057
2058
2058
2059
2058
2060
2060
2061
2060
2060
2060
2062
2065
2068
2069
2068
2065
2066
2065
2068
2069
2070
2071
2071
2072
2073
2075
2076
2078
2080
2082
2083
2085
2086
2088
2090
2093
2096
2098
2100
2100
2100
2102
2105
2108
2110
2109
2107
2104
2103
2102
2101
2098
2094
2087
2080
2073
2066
2061
2056
2052
2048
2045
2042
2039
2037
2036
2036
2036
2036
2035
2033
2031
2031
2034
2038
2041
2042
2041
2039
2037
2037
2039
2040
2040
2040
2041
2041
2041
2042
2042
2042
2042
2041
2040
2039
2039
2039
2040
2041
2041
2040
2038
2036
2036
2038
2040
2041
2041
2040
2038
2037
2036
2037
2037
2037
2037
2037
2038
2038
2039
2039
2039
2038
2038
2038
2038
2038
2037
2037
2039
2038
2038
2036
2034
2034
2037
2041
2045
2046
2044
2042
2040
2039
2042
2042
2044
2044
2043
2041
2040
2039
2038
2038
2038
2038
2038
2038
2038
2039
2039
2040
2039
2035
2033
2041
2065
2099
2121
2113
2066
1995
1924
1882
1878
1905
1945
1984
2012
2032
2046
2053
2055
2054
2055
2056
2057
2059
2059
2060
2061
2061
2062
2063
2063
2063
2062
2063
2064
2066
2069
2070
2071
2070
2069
2069
2070
2071
2072
2073
2075
2076
2078
2079
2079
2080
2081
2083
2085
2088
2090
2092
2095
2096
2099
2101
2102
2103
2104
2105
2107
2110
2111
2111
2110
2107
2105
2102
2099
2095
2090
2083
2076
2070
2063
2058
2053
2049
2046
2043
2041
2039
2037
2036
2035
2036
2036
2036
2035
2034
2034
2036
2038
2040
2041
2040
2039
2039
2038
2040
2040
2041
2041
2040
2040
2040
2041
2041
2041
2041
2041
2041
2041
2040
2040
2039
2039
2039
2039
2039
2038
2037
2038
2039
2041
2041
2041
2039
2038
2038
2039
2039
2039
2039
2039
2039
2039
2040
2040
2040
2040
2040
2040
2040
2039
2039
2039
2039
2041
2041
2041
2038
2037
2037
2039
2044
2047
2047
2045
2041
2039
2037
2039
2040
2040
2039
2040
2040
2041
2041
2042
2041
2041
2041
2041
2041
2041
2041
2041
2042
2042
2043
2041
2040
2040
2041
2043
2046
2047
2046
2045
2044
2044
2046
2046
2046
2044
2043
2042
2042
2042
2042
2041
2041
2041
2041
2041
2040
2037
2034
2043
2065
2099
2123
2117
2073
2003
1931
1885
1877
1901
1939
1977
2005
2027
2042
2050
2054
2054
2055
2057
2058
2060
2060
2060
2061
2061
2062
2063
2063
2064
2065
2066
2067
2067
2066
2066
2067
2069
2072
2073
2074
2073
2073
2073
2074
2075
2077
2078
2079
2081
2082
2084
2085
2087
2089
2091
2093
2096
2098
2100
2102
2105
2107
2108
2107
2107
2107
2108
2110
2111
2111
2110
2106
2102
2096
2092
2086
2080
2074
2068
2062
2057
2052
2048
2045
2042
2040
2038
2037
2036
2036
2035
2036
2036
2036
2036
2035
2035
2037
2039
2042
2044
2043
2042
2040
2039
2039
2041
2041
2042
2041
2042
2042
2042
2042
2041
2041
2041
2041
2041
2041
2041
2040
2040
2041
2040
2039
2038
2037
2038
2040
2043
2045
2044
2041
2038
2037
2037
2039
2040
2040
2039
2039
2039
2039
2039
2039
2039
2039
2040
2040
2040
2040
2040
2040
2040
2041
2041
2040
2039
2038
2038
2041
2043
2044
2043
2041
2040
2040
2041
2042
2043
2042
2042
2042
2042
2042
2042
2042
2043
2043
2043
2043
2042
2042
2042
2042
2044
2044
2044
2042
2041
2041
2043
2046
2048
2048
2046
2044
2043
2043
2046
2046
2047
2046
2046
2045
2046
2047
2048
2046
2045
2045
2047
2049
2052
2052
2050
2048
2044
2042
2041
2041
2042
2043
2044
2047
2046
2042
2037
2042
2062
2098
2126
2126
2084
2012
1933
1881
1868
1890
1931
1972
2004
2027
2043
2053
2058
2058
2060
2061
2062
2062
2061
2062
2064
2068
2071
2072
2070
2068
2066
2065
2068
2069
2070
2071
2071
2072
2072
2073
2074
2074
2075
2076
2077
2077
2079
2080
2081
2083
2084
2085
2086
2087
2088
2091
2095
2099
2102
2104
2104
2105
2106
2107
2108
2110
2111
2111
2112
2112
2112
2111
2109
2106
2102
2097
2092
2086
2080
2073
2066
2060
2055
2050
2047
2043
2041
2040
2040
2040
2039
2037
2036
2036
2036
2037
2037
2038
2038
2039
2039
2040
2040
2040
2040
2040
2041
2042
2042
2042
2042
2041
2042
2042
2042
2041
2040
2040
2041
2043
2043
2042
2040
2038
2037
2036
2038
2038
2039
2039
2039
2039
2039
2038
2038
2038
2038
2038
2038
2038
2038
2038
2037
2038
2038
2037
2038
2037
2037
2038
2039
2041
2042
2041
2040
2039
2038
2039
2039
2038
2039
2039
2039
2040
2039
2039
2039
2039
2040
2041
2041
2041
2041
2040
2041
2042
2042
2042
2041
2040
2040
2042
2044
2046
2046
2044
2042
2041
2042
2044
2046
2046
2046
2045
2043
2042
2041
2042
2042
2042
2042
2041
2041
2041
2041
2042
2042
2039
2039
2049
2077
2111
2131
2120
2071
1997
1928
1889
1888
1917
1959
1995
2021
2038
2048
2054
2055
2055
2056
2057
2058
2059
2060
2060
2061
2061
2063
2064
2065
2064
2062
2061
2062
2065
2068
2071
2071
2071
2070
2069
2069
2072
2072
2073
2074
2075
2076
2078
2080
2081
2082
2083
2084
2086
2088
2090
2093
2094
2099
2099
2101
2101
2101
2103
2107
2112
2115
2116
2114
2111
2108
2105
2103
2098
2094
2088
2081
2075
2068
2063
2058
2053
2049
2046
2042
2040
2038
2037
2037
2037
2037
2036
2035
2034
2034
2036
2039
2041
2042
2041
2040
2039
2039
2040
2041
2042
2042
2043
2044
2044
2044
2044
2044
2044
2044
2044
2045
2045
2045
2044
2044
2044
2043
2043
2042
2041
2041
2042
2043
2044
2044
2043
2042
2041
2041
2042
2043
2043
2043
2043
2043
2042
2042
2043
2042
2043
2043
2042
2043
2043
2043
2043
2044
2043
2043
2042
2042
2042
2043
2046
2048
2048
2048
2046
2044
2043
2044
2044
2046
2046
2045
2045
2045
2046
2046
2047
2047
2047
2046
2044
2043
2042
2041
2042
2043
2042
2043
2041
2040
2041
2042
2041
2045
2059
2088
2116
2125
2099
2041
1966
1906
1880
1891
1925
1966
2000
2025
2042
2053
2058
2059
2058
2059
2060
2061
2063
2063
2062
2062
2062
2063
2067
2070
2072
2071
2068
2066
2066
2067
2070
2071
2072
2072
2073
2073
2075
2075
2076
2078
2078
2079
2080
2081
2083
2084
2087
2089
2091
2094
2095
2096
2099
2103
2107
2111
2113
2113
2113
2113
2113
2114
2114
2114
2114
2112
2110
2107
2102
2096
2089
2081
2074
2067
2062
2056
2052
2048
2046
2044
2042
2040
2038
2037
2037
2038
2039
2039
2039
2038
2037
2037
2038
2038
2039
2039
2040
2041
2042
2042
2043
2043
2043
2043
2043
2043
2044
2044
2044
2045
2044
2044
2043
2042
2042
2043
2044
2045
2045
2043
2041
2040
2039
2040
2040
2040
2040
2041
2041
2041
2041
2041
2041
2040
2040
2040
2040
2040
2040
2040
2040
2041
2041
2040
2039
2039
2040
2042
2044
2044
2044
2042
2041
2040
2040
2041
2041
2041
2041
2042
2042
2042
2042
2042
2042
2042
2042
2043
2043
2044
2043
2044
2044
2043
2042
2041
2041
2043
2045
2047
2047
2045
2043
2042
2043
2044
2046
2046
2046
2046
2045
2046
2046
2046
2046
2047
2048
2048
2048
2048
2048
2047
2045
2045
2044
2043
2041
2042
2044
2047
2047
2046
2041
2037
2041
2061
2095
2127
2133
2103
2038
1961
1898
1872
1881
1916
1959
1995
2022
2041
2053
2059
2060
2059
2062
2063
2063
2063
2062
2062
2065
2069
2073
2074
2074
2071
2070
2068
2070
2071
2072
2073
2073
2073
2074
2075
2076
2077
2078
2079
2080
2082
2083
2084
2085
2086
2089
2090
2091
2090
2092
2095
2101
2108
2111
2112
2111
2110
2111
2114
2117
2118
2119
2119
2119
2119
2119
2117
2115
2111
2106
2100
2094
2086
2079
2072
2066
2061
2056
2052
2048
2044
2042
2041
2042
2043
2042
2041
2039
2038
2038
2039
2039
2040
2040
2040
2041
2041
2042
2043
2043
2044
2044
2043
2044
2043
2044
2045
2045
2046
2045
2043
2042
2041
2042
2044
2045
2045
2044
2043
2042
2041
2042
2042
2042
2042
2042
2042
2043
2043
2042
2042
2042
2042
2042
2042
2042
2042
2042
2043
2042
2043
2042
2041
2041
2042
2043
2045
2045
2044
2043
2042
2041
2042
2043
2044
2044
2043
2043
2043
2043
2044
2044
2044
2043
2043
2043
2043
2044
2044
2044
2044
2044
2044
2043
2043
2044
2045
2047
2048
2048
2046
2044
2043
2044
2044
2046
2046
2046
2046
2046
2046
2046
2046
2046
2046
2046
2046
2046
2046
2046
2046
2047
2047
2047
2048
2048
2048
2049
2050
2050
2050
2049
2049
2049
2049
2051
2051
2050
2050
2048
2048
2047
2047
2046
2046
2047
2048
2048
2047
2044
2039
2042
2062
2096
2129
2134
2099
2030
1949
1889
1868
1884
1922
1964
1997
2022
2042
2054
2061
2061
2060
2061
2062
2063
2064
2065
2066
2067
2067
2068
2068
2068
2068
2070
2070
2071
2070
2069
2069
2071
2074
2077
2078
2078
2077
2076
2076
2078
2079
2080
2081
2082
2083
2084
2086
2088
2090
2092
2095
2097
2099
2101
2103
2105
2107
2109
2111
2112
2112
2112
2113
2114
2115
2116
2114
2111
2106
2101
2096
2091
2085
2077
2069
2062
2056
2052
2048
2045
2042
2039
2036
2035
2033
2032
2031
2033
2034
2034
2033
2031
2031
2032
2035
2039
2042
2041
2039
2037
2035
2036
2037
2038
2038
2038
2038
2038
2038
2038
2039
2039
2039
2038
2038
2038
2037
2036
2037
2039
2038
2037
2035
2033
2034
2036
2039
2041
2040
2038
2036
2034
2033
2035
2035
2035
2035
2035
2035
2036
2036
2036
2036
2035
2035
2035
2034
2035
2036
2036
2038
2038
2037
2036
2034
2034
2036
2039
2041
2042
2040
2038
2037
2036
2038
2038
2039
2039
2038
2038
2038
2038
2038
2038
2038
2038
2038
2039
2040
2040
2040
2041
2041
2041
2040
2039
2038
2039
2041
2044
2046
2045
2044
2041
2038
2038
2038
2038
2038
2039
2039
2040
2039
2039
2038
2034
2034
2045
2071
2107
2131
2123
2076
2005
1933
1888
1882
1908
1949
1988
2017
2036
2048
2052
2053
2052
2053
2055
2057
2058
2060
2060
2061
2061
2061
2061
2062
2063
2064
2065
2065
2065
2066
2066
2067
2068
2068
2068
2068
2069
2071
2074
2076
2078
2077
2077
2077
2077
2080
2082
2084
2086
2088
2090
2091
2093
2096
2099
2101
2104
2106
2107
2108
2109
2109
2111
2111
2112
2110
2108
2106
2104
2101
2096
2090
2082
2074
2067
2061
2056
2051
2047
2045
2042
2041
2039
2038
2037
2037
2036
2036
2036
2036
2036
2036
2036
2037
2038
2039
2039
2039
2038
2040
2042
2044
2046
2046
2045
2043
2042
2042
2043
2044
2044
2044
2044
2044
2044
2044
2044
2044
2044
2043
2043
2042
2042
2042
2042
2042
2042
2041
2040
2040
2040
2041
2043
2044
2044
2043
2042
2041
2041
2041
2041
2041
2041
2041
2042
2042
2043
2043
2043
2043
2043
2043
2043
2043
2044
2044
2046
2045
2045
2044
2043
2044
2047
2049
2052
2053
2050
2048
2044
2041
2043
2042
2043
2043
2042
2044
2045
2045
2043
2040
2037
2034
2039
2056
2089
2121
2134
2114
2056
1982
1914
1879
1881
1914
1959
1999
2028
2044
2053
2057
2057
2058
2060
2062
2064
2064
2064
2065
2066
2067
2067
2067
2067
2067
2068
2069
2070
2071
2072
2072
2073
2072
2071
2070
2072
2075
2079
2082
2083
2082
2080
2080
2081
2083
2086
2088
2091
2093
2095
2097
2098
2101
2104
2106
2109
2112
2114
2115
2115
2116
2118
2117
2117
2114
2112
2111
2111
2110
2106
2099
2088
2077
2068
2061
2058
2053
2050
2047
2045
2043
2041
2040
2038
2037
2037
2037
2037
2038
2038
2038
2038
2039
2039
2039
2038
2038
2039
2041
2045
2047
2047
2045
2044
2042
2043
2044
2045
2045
2045
2044
2044
2044
2044
2044
2044
2043
2043
2043
2043
2043
2042
2042
2042
2041
2041
2040
2039
2040
2042
2044
2046
2045
2044
2042
2042
2042
2042
2042
2042
2042
2042
2041
2043
2042
2042
2042
2042
2042
2042
2042
2042
2042
2042
2042
2043
2043
2042
2041
2040
2042
2044
2047
2047
2046
2044
2043
2043
2045
2046
2047
2047
2047
2047
2047
2047
2048
2048
2049
2049
2048
2047
2045
2044
2044
2044
2045
2044
2044
2044
2044
2045
2045
2044
2041
2046
2065
2099
2127
2126
2086
2014
1935
1881
1866
1888
1929
1972
2005
2030
2047
2056
2061
2061
2060
2062
2062
2066
2067
2067
2066
2064
2065
2067
2071
2074
2075
2075
2073
2071
2069
2072
2072
2074
2074
2075
2076
2077
2078
2079
2080
2081
2082
2083
2085
2086
2088
2089
2092
2093
2096
2096
2098
2100
2103
2108
2113
2117
2118
2118
2118
2117
2119
2120
2122
2122
2121
2120
2119
2116
2111
2105
2097
2089
2082
2075
2068
2062
2057
2052
2049
2047
2043
2040
2037
2036
2037
2040
2041
2041
2040
2038
2037
2037
2038
2040
2041
2041
2042
2042
2043
2043
2043
2043
2043
2044
2044
2044
2044
2044
2043
2043
2043
2042
2041
2041
2042
2043
2046
2046
2046
2044
2041
2040
2039
2041
2042
2042
2042
2042
2042
2041
2041
2041
2041
2042
2042
2042
2042
2042
2042
2041
2042
2042
2042
2041
2040
2040
2042
2045
2048
2048
2048
2045
2043
2040
2043
2044
2045
2045
2044
2042
2041
2040
2041
2042
2044
2044
2044
2044
2043
2043
2042
2044
2045
2045
2044
2043
2042
2044
2048
2049
2050
2048
2047
2045
2045
2046
2048
2047
2047
2046
2046
2047
2046
2046
2047
2048
2048
2048
2048
2048
2048
2048
2048
2048
2049
2049
2048
2049
2050
2052
2053
2052
2050
2048
2046
2045
2046
2048
2048
2048
2048
2047
2043
2039
2045
2067
2102
2132
2132
2092
2019
1938
1881
1866
1889
1929
1972
2003
2026
2043
2056
2065
2068
2067
2066
2064
2064
2065
2068
2068
2069
2069
2070
2070
2071
2072
2073
2073
2073
2073
2072
2073
2074
2074
2076
2077
2078
2078
2077
2077
2079
2082
2084
2087
2088
2088
2088
2088
2090
2092
2095
2097
2099
2101
2104
2107
2109
2111
2113
2114
2115
2116
2116
2117
2117
2117
2118
2117
2114
2109
2103
2098
2093
2089
2083
2076
2068
2060
2054
2050
2048
2046
2043
2041
2039
2038
2038
2038
2038
2038
2038
2037
2038
2039
2040
2041
2041
2042
2042
2042
2041
2040
2040
2042
2044
2047
2047
2046
2044
2042
2040
2041
2042
2042
2043
2043
2042
2042
2041
2041
2040
2040
2039
2039
2039
2039
2039
2039
2039
2039
2038
2037
2037
2038
2039
2040
2041
2040
2039
2037
2036
2036
2037
2038
2038
2038
2039
2039
2039
2039
2038
2039
2039
2039
2039
2040
2040
2040
2040
2039
2040
2039
2039
2038
2038
2039
2041
2044
2046
2046
2045
2043
2042
2041
2043
2043
2044
2044
2044
2044
2043
2042
2041
2041
2041
2041
2041
2041
2041
2041
2041
2042
2042
2042
2039
2035
2040
2059
2092
2124
2133
2106
2046
1972
1912
1887
1897
1930
1970
2002
2026
2042
2050
2054
2054
2055
2056
2057
2058
2059
2060
2061
2061
2062
2062
2063
2062
2062
2063
2066
2069
2071
2071
2070
2068
2067
2067
2070
2070
2072
2072
2073
2074
2076
2077
2078
2079
2080
2082
2083
2085
2087
2089
2092
2095
2098
2100
2101
2102
2104
2107
2111
2113
2113
2112
2111
2110
2110
2110
2108
2105
2101
2095
2089
2082
2075
2069
2063
2057
2052
2048
2046
2044
2042
2040
2040
2039
2038
2036
2034
2034
2036
2038
2041
2042
2041
2040
2038
2037
2038
2039
2040
2040
2041
2042
2043
2044
2044
2044
2044
2044
2044
2044
2044
2044
2044
2044
2043
2044
2043
2042
2041
2041
2043
2044
2045
2044
2042
2040
2039
2040
2041
2042
2041
2041
2041
2041
2041
2041
2041
2041
2040
2040
2041
2041
2042
2043
2043
2043
2043
2043
2042
2042
2042
2043
2044
2044
2042
2041
2038
2038
2038
2039
2040
2041
2041
2041
2041
2039
2035
2038
2053
2083
2115
2127
2106
2048
1976
1914
1885
1892
1924
1965
1999
2025
2043
2054
2058
2058
2056
2056
2056
2058
2060
2061
2062
2062
2063
2064
2064
2064
2065
2065
2066
2067
2068
2069
2070
2070
2070
2072
2072
2073
2072
2073
2075
2077
2081
2083
2084
2084
2083
2083
2084
2087
2090
2092
2094
2096
2099
2101
2104
2106
2108
2110
2111
2113
2114
2114
2114
2114
2113
2113
2109
2103
2096
2089
2084
2080
2076
2070
2062
2054
2048
2046
2043
2043
2040
2039
2037
2036
2036
2036
2036
2037
2037
2038
2039
2039
2040
2040
2040
2041
2042
2043
2042
2041
2042
2043
2046
2048
2048
2047
2045
2043
2043
2045
2045
2046
2045
2044
2044
2044
2045
2045
2045
2044
2044
2043
2043
2043
2043
2043
2042
2044
2043
2043
2041
2040
2040
2043
2046
2047
2046
2044
2042
2042
2041
2044
2043
2043
2043
2043
2044
2044
2045
2045
2046
2046
2046
2046
2047
2047
2048
2048
2048
2048
2048
2046
2044
2043
2043
2044
2046
2046
2046
2045
2044
2044
2044
2043
2040
2037
2046
2070
2105
2129
2121
2074
2001
1928
1883
1876
1902
1943
1983
2013
2035
2048
2056
2058
2057
2059
2061
2064
2067
2067
2067
2066
2065
2066
2067
2068
2069
2069
2069
2070
2070
2072
2073
2073
2074
2074
2075
2076
2077
2078
2080
2080
2081
2081
2081
2082
2085
2088
2092
2094
2095
2096
2096
2097
2100
2103
2106
2109
2111
2113
2115
2116
2117
2117
2118
2118
2119
2118
2117
2115
2111
2105
2098
2089
2081
2074
2068
2063
2059
2055
2051
2048
2044
2041
2040
2039
2040
2039
2039
2039
2039
2039
2039
2039
2040
2040
2041
2041
2042
2043
2044
2044
2043
2044
2044
2043
2042
2041
2042
2044
2046
2047
2047
2045
2043
2041
2040
2042
2043
2043
2042
2042
2042
2042
2042
2042
2042
2042
2042
2042
2042
2042
2042
2041
2042
2042
2043
2042
2041
2040
2041
2043
2045
2047
2045
2042
2040
2039
2041
2042
2043
2044
2043
2042
2041
2041
2039
2040
2039
2037
2036
2035
2035
2034
2034
2035
2035
2035
2035
2034
2033
2034
2035
2037
2038
2038
2036
2035
2034
2035
2036
2038
2038
2037
2037
2037
2037
2038
2039
2039
2039
2039
2039
2038
2038
2037
2038
2039
2038
2038
2038
2038
2040
2042
2045
2046
2045
2044
2042
2041
2042
2044
2044
2045
2044
2043
2042
2041
2041
2041
2041
2041
2041
2041
2041
2041
2039
2036
2035
2046
2073
2107
2128
2114
2063
1987
1915
1873
1869
1898
1938
1978
2008
2030
2045
2053
2056
2056
2057
2058
2060
2061
2062
2063
2063
2064
2065
2066
2066
2069
2068
2068
2066
2065
2065
2068
2073
2076
2076
2075
2072
2072
2072
2075
2077
2078
2078
2080
2082
2084
2084
2083
2084
2087
2091
2096
2100
2101
2100
2101
2102
2105
2108
2110
2110
2110
2113
2115
2118
2118
2117
2114
2112
2108
2107
2103
2099
2093
2086
2079
2072
2066
2060
2055
2050
2047
2044
2042
2041
2040
2039
2038
2038
2038
2038
2037
2037
2038
2041
2043
2045
2045
2043
2041
2041
2040
2042
2042
2043
2044
2044
2044
2044
2043
2043
2043
2043
2043
2043
2043
2043
2042
2042
2042
2042
2042
2041
2041
2041
2042
2043
2044
2044
2043
2041
2040
2039
2040
2041
2042
2042
2042
2041
2041
2041
2040
2040
2041
2041
2042
2042
2042
2041
2040
2042
2042
2042
2042
2042
2042
2043
2044
2045
2046
2045
2043
2042
2042
2043
2044
2045
2045
2045
2044
2043
2043
2043
2044
2044
2045
2045
2045
2045
2045
2045
2046
2045
2045
2045
2044
2044
2044
2046
2048
2049
2049
2048
2046
2045
2044
2045
2045
2047
2047
2047
2047
2047
2047
2047
2048
2048
2048
2048
2048
2049
2049
2050
2050
2049
2048
2045
2044
2044
2045
2048
2048
2049
2048
2047
2044
2040
2038
2046
2070
2106
2133
2128
2082
2007
1929
1878
1868
1893
1935
1978
2009
2033
2048
2059
2063
2062
2061
2060
2062
2065
2068
2071
2072
2071
2069
2068
2066
2068
2069
2069
2070
2071
2071
2072
2073
2074
2074
2074
2074
2075
2076
2078
2079
2080
2082
2083
2083
2083
2082
2083
2087
2091
2095
2098
2099
2098
2099
2101
2103
2106
2108
2110
2112
2114
2115
2115
2115
2114
2114
2113
2112
2111
2108
2103
2098
2092
2085
2078
2070
2063
2057
2054
2052
2051
2049
2046
2042
2038
2035
2035
2036
2037
2038
2038
2038
2039
2039
2039
2040
2040
2040
2041
2041
2042
2043
2044
2044
2044
2044
2043
2042
2042
2043
2045
2047
2047
2046
2044
2042
2040
2041
2041
2041
2041
2041
2041
2041
2041
2041
2041
2041
2040
2040
2040
2040
2041
2041
2040
2041
2040
2040
2039
2039
2040
2041
2043
2044
2043
2041
2040
2039
2040
2041
2042
2043
2042
2042
2041
2041
2041
2040
2041
2041
2042
2043
2044
2044
2044
2043
2044
2044
2043
2043
2043
2043
2045
2048
2049
2048
2048
2045
2043
2042
2043
2043
2044
2044
2044
2043
2042
2042
2042
2042
2043
2041
2038
2044
2065
2099
2130
2136
2103
2037
1961
1902
1881
1898
1937
1980
2012
2034
2047
2053
2055
2056
2057
2058
2060
2060
2061
2062
2063
2064
2064
2065
2066
2066
2066
2067
2067
2068
2068
2070
2070
2070
2069
2069
2070
2073
2077
2079
2080
2079
2078
2078
2079
2081
2083
2084
2085
2087
2090
2092
2095
2098
2100
2102
2104
2106
2108
2110
2112
2113
2115
2115
2115
2114
2113
2111
2111
2110
2108
2103
2095
2085
2076
2067
2062
2057
2053
2050
2048
2045
2043
2042
2040
2038
2037
2037
2036
2036
2037
2037
2037
2039
2040
2039
2039
2038
2039
2041
2044
2047
2048
2046
2044
2043
2043
2044
2045
2045
2045
2045
2045
2045
2045
2044
2044
2044
2044
2044
2044
2044
2044
2044
2045
2044
2043
2043
2041
2041
2042
2044
2047
2047
2046
2044
2042
2041
2041
2042
2043
2043
2043
2043
2043
2044
2044
2043
2043
2044
2044
2044
2044
2045
2044
2044
2045
2045
2044
2044
2043
2044
2046
2048
2049
2048
2048
2046
2046
2047
2047
2048
2047
2046
2045
2044
2044
2044
2044
2044
2045
2045
2045
2046
2044
2041
2038
2048
2072
2106
2128
2120
2074
2003
1931
1887
1880
1904
1943
1982
2012
2035
2049
2058
2061
2060
2060
2062
2063
2064
2065
2066
2067
2068
2069
2069
2069
2069
2071
2071
2071
2070
2070
2071
2072
2075
2077
2078
2078
2077
2077
2077
2078
2080
2081
2083
2084
2085
2086
2088
2090
2092
2095
2097
2099
2101
2103
2105
2108
2111
2113
2115
2116
2117
2118
2120
2119
2119
2119
2118
2118
2116
2111
2104
2094
2085
2076
2071
2065
2061
2055
2051
2048
2047
2045
2043
2042
2040
2039
2038
2038
2039
2039
2040
2040
2039
2039
2041
2044
2047
2048
2048
2046
2044
2043
2044
2044
2044
2045
2044
2044
2045
2045
2046
2045
2045
2044
2043
2043
2043
2043
2043
2044
2044
2043
2041
2040
2040
2042
2044
2046
2046
2044
2042
2040
2040
2041
2042
2042
2041
2041
2042
2042
2043
2043
2043
2042
2042
2042
2043
2043
2043
2043
2045
2045
2044
2043
2042
2042
2044
2047
2048
2048
2046
2043
2042
2042
2045
2045
2045
2045
2044
2044
2045
2045
2045
2045
2045
2045
2045
2045
2046
2046
2047
2047
2047
2047
2047
2046
2047
2048
2048
2050
2051
2050
2049
2048
2048
2049
2050
2051
2051
2050
2049
2048
2048
2047
2047
2046
2047
2047
2048
2048
2048
2046
2041
2041
2054
2084
2118
2134
2115
2057
1980
1911
1876
1878
1910
1952
1990
2019
2040
2054
2062
2064
2063
2063
2064
2065
2066
2068
2068
2069
2070
2071
2071
2071
2071
2072
2072
2072
2072
2073
2074
2076
2078
2078
2078
2078
2078
2078
2080
2082
2083
2084
2085
2086
2087
2089
2091
2092
2094
2096
2099
2101
2103
2106
2107
2111
2113
2115
2116
2116
2117
2119
2121
2123
2123
2122
2121
2118
2115
2111
2106
2100
2093
2087
2080
2073
2066
2060
2055
2050
2048
2046
2045
2043
2042
2041
2040
2041
2040
2040
2039
2038
2040
2042
2046
2048
2047
2045
2043
2042
2042
2046
2046
2047
2046
2046
2045
2045
2046
2046
2046
2046
2046
2046
2045
2045
2045
2044
2046
2046
2045
2043
2042
2042
2044
2048
2049
2049
2046
2043
2041
2040
2043
2044
2044
2043
2043
2043
2044
2044
2044
2044
2044
2044
2043
2044
2044
2044
2043
2044
2044
2044
2043
2042
2042
2043
2045
2046
2047
2046
2045
2044
2043
2044
2044
2045
2044
2045
2045
2045
2046
2046
2046
2046
2045
2045
2045
2045
2045
2044
2045
2045
2046
2045
2045
2045
2045
2047
2048
2048
2047
2046
2045
2044
2045
2045
2046
2046
2047
2048
2048
2048
2047
2047
2046
2046
2046
2047
2048
2048
2049
2050
2049
2048
2046
2044
2043
2044
2046
2048
2048
2048
2048
2046
2044
2041
2037
2043
2063
2099
2130
2134
2097
2026
1945
1885
1866
1885
1926
1970
2004
2029
2045
2055
2059
2058
2058
2059
2063
2067
2069
2070
2069
2067
2066
2066
2066
2068
2069
2069
2070
2070
2071
2071
2071
2072
2073
2073
2074
2075
2076
2076
2077
2077
2078
2080
2081
2082
2083
2085
2087
2089
2092
2094
2096
2096
2097
2099
2102
2105
2107
2109
2110
2111
2112
2112
2113
2113
2114
2114
2113
2111
2108
2104
2099
2094
2088
2080
2073
2065
2058
2054
2052
2050
2048
2046
2042
2039
2037
2036
2036
2036
2037
2037
2038
2038
2038
2038
2038
2038
2039
2040
2040
2040
2040
2040
2041
2043
2042
2043
2041
2040
2040
2042
2044
2046
2045
2043
2042
2041
2041
2043
2042
2042
2041
2040
2040
2040
2041
2041
2041
2040
2040
2040
2040
2040
2040
2039
2041
2041
2040
2038
2037
2037
2039
2043
2045
2046
2043
2040
2038
2036
2039
2039
2039
2039
2040
2040
2041
2041
2041
2041
2041
2041
2041
2042
2042
2043
2043
2044
2045
2044
2043
2042
2042
2044
2046
2048
2049
2049
2048
2046
2043
2043
2043
2042
2041
2041
2041
2042
2042
2043
2043
2042
2042
2040
2037
2039
2053
2084
2119
2136
2119
2063
1987
1920
1886
1891
1925
1967
2001
2023
2037
2047
2052
2055
2056
2057
2058
2059
2060
2061
2062
2062
2061
2061
2062
2063
2064
2066
2066
2067
2068
2068
2067
2067
2067
2068
2071
2074
2076
2077
2076
2074
2074
2074
2076
2079
2081
2083
2084
2083
2083
2084
2089
2095
2101
2104
2105
2104
2104
2104
2106
2109
2110
2110
2110
2111
2113
2114
2114
2111
2105
2099
2092
2085
2078
2073
2066
2060
2056
2052
2048
2046
2044
2041
2040
2039
2038
2037
2036
2036
2036
2035
2036
2036
2037
2036
2036
2037
2039
2042
2045
2046
2045
2042
2041
2040
2042
2043
2044
2044
2044
2044
2045
2044
2044
2044
2044
2044
2043
2043
2043
2042
2042
2043
2043
2042
2042
2041
2040
2041
2044
2046
2047
2046
2043
2042
2041
2042
2043
2043
2043
2042
2042
2043
2043
2043
2043
2043
2044
2044
2045
2044
2045
2045
2046
2047
2047
2047
2046
2045
2046
2048
2049
2049
2048
2045
2043
2042
2042
2044
2044
2044
2044
2044
2043
2044
2043
2040
2039
2050
2077
2110
2129
2116
2066
1993
1925
1886
1885
1911
1950
1987
2017
2040
2056
2065
2064
2060
2058
2057
2060
2061
2062
2063
2064
2065
2066
2067
2068
2068
2069
2069
2069
2069
2069
2070
2070
2072
2073
2073
2072
2072
2073
2076
2080
2083
2084
2083
2082
2082
2083
2085
2087
2089
2090
2093
2096
2099
2102
2105
2107
2109
2110
2112
2113
2114
2115
2115
2117
2117
2115
2114
2109
2105
2100
2095
2090
2084
2077
2069
2062
2055
2051
2048
2045
2044
2042
2041
2040
2039
2038
2038
2038
2037
2037
2037
2039
2040
2041
2043
2042
2040
2038
2037
2038
2041
2045
2047
2048
2046
2044
2043
2042
2043
2044
2044
2044
2044
2044
2043
2043
2043
2043
2043
2043
2043
2042
2042
2042
2043
2043
2043
2043
2042
2041
2041
2041
2043
2045
2046
2046
2044
2042
2041
2041
2042
2042
2043
2043
2043
2043
2042
2042
2042
2042
2043
2043
2043
2043
2043
2043
2043
2044
2044
2044
2044
2044
2044
2046
2048
2049
2049
2048
2048
2047
2047
2047
2047
2047
2045
2045
2044
2044
2044
2043
2044
2044
2045
2045
2045
2042
2038
2041
2059
2093
2125
2131
2098
2031
1950
1889
1866
1881
1919
1962
1998
2024
2043
2055
2060
2061
2060
2060
2062
2064
2066
2068
2068
2069
2069
2069
2068
2070
2070
2070
2073
2073
2072
2071
2071
2072
2074
2078
2081
2081
2079
2077
2077
2078
2081
2084
2085
2086
2087
2089
2091
2093
2096
2098
2100
2102
2104
2106
2109
2111
2114
2117
2119
2120
2121
2121
2121
2122
2124
2125
2123
2120
2115
2108
2100
2093
2085
2078
2071
2065
2060
2055
2051
2048
2046
2044
2042
2041
2040
2040
2039
2039
2041
2041
2041
2040
2039
2039
2041
2044
2047
2048
2047
2045
2044
2043
2044
2044
2045
2045
2045
2045
2045
2045
2045
2045
2044
2044
2043
2043
2043
2043
2043
2044
2044
2044
2043
2042
2041
2042
2044
2045
2046
2045
2043
2042
2041
2042
2043
2043
2044
2043
2043
2043
2042
2043
2043
2043
2043
2043
2043
2044
2044
2044
2044
2044
2044
2043
2043
2042
2043
2045
2046
2047
2047
2045
2044
2043
2043
2044
2045
2045
2045
2045
2045
2045
2045
2045
2045
2046
2046
2046
2046
2046
2046
2046
2046
2045
2046
2045
2045
2046
2047
2048
2048
2049
2049
2048
2048
2047
2048
2048
2049
2049
2049
2049
2048
2049
2049
2050
2052
2052
2051
2050
2048
2048
2047
2048
2047
2047
2047
2047
2048
2048
2046
2043
2051
2076
2112
2135
2125
2076
1997
1919
1872
1866
1894
1938
1979
2011
2035
2050
2060
2063
2063
2063
2064
2065
2067
2067
2068
2068
2068
2069
2070
2072
2074
2075
2075
2074
2073
2072
2074
2074
2076
2077
2077
2077
2077
2077
2079
2081
2083
2084
2085
2085
2086
2087
2089
2091
2093
2094
2096
2097
2100
2104
2109
2112
2114
2115
2115
2115
2116
2118
2120
2120
2120
2120
2120
2119
2118
2115
2111
2106
2099
2091
2084
2077
2070
2064
2059
2054
2050
2047
2044
2043
2042
2041
2039
2038
2039
2042
2045
2048
2046
2043
2040
2038
2038
2041
2043
2044
2044
2044
2044
2045
2045
2045
2045
2045
2044
2044
2045
2045
2045
2043
2042
2042
2043
2046
2048
2047
2046
2043
2042
2040
2041
2042
2042
2042
2042
2043
2043
2043
2042
2042
2042
2042
2041
2041
2041
2041
2042
2043
2043
2043
2042
2041
2041
2042
2044
2045
2045
2044
2042
2041
2041
2042
2043
2043
2043
2043
2043
2043
2044
2043
2043
2043
2043
2043
2043
2044
2044
2044
2043
2045
2043
2043
2042
2041
2042
2044
2047
2048
2048
2046
2044
2043
2042
2043
2043
2044
2045
2047
2047
2047
2046
2046
2046
2046
2047
2047
2047
2048
2048
2049
2049
2049
2048
2045
2044
2044
2045
2047
2048
2048
2047
2045
2045
2043
2041
2039
2048
2072
2108
2134
2128
2080
2003
1924
1874
1865
1892
1935
1978
2009
2031
2048
2057
2060
2060
2060
2061
2064
2067
2069
2069
2068
2067
2066
2066
2067
2068
2069
2070
2070
2070
2070
2071
2072
2072
2073
2074
2075
2075
2076
2076
2076
2078
2079
2081
2081
2081
2082
2085
2088
2091
2094
2094
2095
2096
2098
2102
2105
2106
2109
2110
2110
2111
2112
2113
2114
2116
2116
2115
2113
2110
2107
2101
2098
2092
2085
2078
2070
2063
2058
2054
2052
2049
2046
2042
2039
2037
2037
2037
2037
2037
2036
2036
2036
2037
2038
2038
2039
2039
2040
2040
2041
2041
2041
2041
2042
2043
2044
2042
2039
2039
2040
2044
2048
2049
2048
2044
2041
2039
2040
2040
2040
2040
2040
2040
2041
2041
2041
2041
2040
2040
2040
2040
2040
2040
2040
2041
2041
2041
2039
2039
2040
2042
2044
2045
2045
2043
2041
2040
2039
2040
2040
2040
2040
2041
2041
2041
2041
2041
2042
2042
2043
2043
2043
2044
2044
2044
2045
2045
2045
2045
2044
2045
2046
2047
2048
2048
2047
2045
2043
2041
2040
2040
2040
2041
2042
2042
2042
2042
2041
2037
2037
2048
2076
2111
2133
2124
2074
2003
1932
1889
1883
1909
1950
1989
2019
2039
2051
2056
2056
2055
2055
2057
2058
2060
2061
2062
2062
2063
2063
2064
2064
2064
2065
2065
2066
2067
2067
2068
2069
2070
2070
2070
2070
2070
2071
2073
2076
2078
2079
2079
2078
2078
2079
2082
2084
2087
2089
2090
2092
2094
2097
2099
2102
2105
2107
2108
2110
2111
2111
2112
2112
2112
2111
2109
2106
2103
2099
2094
2089
2082
2074
2066
2059
2054
2050
2048
2045
2042
2040
2039
2037
2036
2036
2035
2036
2036
2036
2037
2037
2037
2037
2039
2038
2039
2038
2039
2040
2042
2044
2045
2044
2043
2042
2043
2043
2045
2044
2044
2043
2043
2044
2043
2043
2043
2042
2042
2043
2044
2044
2043
2042
2041
2041
2041
2042
2041
2041
2040
2041
2042
2043
2043
2042
2041
2041
2042
2043
2044
2044
2043
2043
2043
2044
2045
2045
2045
2046
2046
2046
2045
2044
2043
2042
2042
2042
2042
2042
2041
2040
2041
2042
2044
2045
2045
2043
2038
2039
2051
2081
2114
2130
2112
2057
1983
1917
1883
1887
1918
1959
1995
2022
2040
2050
2056
2057
2058
2059
2060
2061
2061
2062
2064
2066
2068
2068
2068
2067
2066
2066
2067
2068
2069
2069
2070
2071
2072
2073
2073
2074
2075
2076
2077
2078
2079
2081
2082
2084
2086
2087
2087
2086
2087
2091
2096
2102
2106
2108
2108
2108
2109
2110
2113
2114
2116
2117
2117
2118
2117
2116
2113
2110
2105
2099
2093
2086
2078
2071
2064
2060
2055
2050
2047
2044
2042
2042
2043
2044
2042
2040
2038
2037
2037
2038
2039
2039
2040
2041
2041
2042
2042
2043
2044
2044
2045
2045
2046
2046
2046
2046
2046
2046
2045
2044
2044
2044
2046
2048
2049
2048
2047
2045
2044
2042
2043
2044
2046
2046
2044
2042
2040
2042
2045
2048
2050
2048
2046
2043
2041
2042
2042
2044
2044
2044
2044
2043
2043
2043
2045
2047
2048
2048
2048
2046
2045
2046
2047
2048
2048
2048
2048
2048
2048
2048
2048
2048
2048
2047
2046
2045
2045
2044
2045
2045
2046
2046
2045
2045
2044
2042
2039
2045
2065
2098
2126
2127
2091
2022
1944
1887
1868
1887
1927
1969
2003
2028
2044
2055
2060
2061
2061
2062
2062
2064
2065
2065
2067
2066
2066
2066
2068
2070
2072
2073
2072
2071
2071
2071
2073
2073
2075
2075
2076
2076
2077
2078
2079
2080
2081
2082
2083
2084
2085
2087
2088
2092
2094
2096
2097
2098
2100
2103
2108
2112
2115
2116
2116
2116
2116
2118
2118
2119
2118
2117
2115
2112
2107
2102
2094
2086
2079
2071
2064
2058
2053
2048
2047
2044
2042
2039
2037
2037
2038
2039
2040
2040
2039
2038
2037
2037
2038
2039
2040
2040
2041
2041
2042
2043
2043
2043
2043
2043
2043
2042
2043
2043
2042
2043
2043
2044
2042
2040
2038
2039
2041
2044
2046
2045
2043
2041
2039
2038
2040
2040
2040
2041
2041
2041
2041
2041
2041
2041
2041
2041
2041
2042
2042
2042
2042
2042
2041
2041
2040
2039
2041
2043
2045
2046
2045
2043
2041
2040
2041
2042
2042
2043
2043
2043
2043
2043
2043
2043
2043
2042
2042
2043
2043
2043
2045
2044
2046
2045
2045
2044
2043
2044
2046
2048
2049
2050
2049
2048
2048
2046
2047
2046
2045
2044
2044
2043
2043
2043
2044
2045
2045
2045
2044
2040
2037
2047
2073
2110
2134
2124
2071
1990
1911
1865
1861
1891
1936
1977
2008
2030
2046
2056
2060
2061
2060
2062
2063
2064
2064
2065
2066
2067
2068
2068
2069
2069
2070
2070
2071
2071
2072
2072
2072
2073
2074
2076
2078
2079
2079
2078
2078
2079
2081
2083
2084
2085
2086
2087
2089
2090
2094
2096
2098
2100
2103
2105
2109
2111
2113
2115
2116
2117
2117
2117
2117
2118
2119
2121
2120
2117
2112
2106
2100
2093
2086
2078
2071
2065
2059
2054
2050
2047
2044
2042
2041
2040
2039
2038
2038
2037
2039
2039
2039
2039
2038
2038
2039
2042
2044
2046
2045
2043
2042
2041
2042
2044
2043
2043
2042
2042
2042
2043
2043
2043
2043
2042
2042
2041
2042
2041
2041
2041
2042
2041
2041
2039
2038
2038
2040
2042
2044
2043
2042
2040
2038
2038
2039
2039
2040
2039
2040
2040
2040
2040
2040
2040
2040
2040
2040
2040
2041
2041
2041
2042
2042
2041
2039
2038
2038
2040
2043
2046
2046
2045
2042
2040
2039
2040
2041
2041
2041
2042
2043
2043
2043
2043
2043
2042
2043
2043
2043
2043
2043
2043
2044
2044
2043
2043
2042
2043
2044
2046
2048
2048
2047
2046
2044
2044
2046
2047
2048
2048
2048
2047
2046
2045
2044
2043
2043
2042
2043
2043
2044
2044
2043
2039
2036
2041
2062
2096
2125
2127
2090
2021
1942
1884
1864
1881
1921
1963
2000
2024
2042
2052
2057
2057
2057
2058
2060
2061
2062
2063
2064
2065
2065
2065
2065
2066
2066
2066
2066
2066
2067
2068
2070
2072
2073
2073
2072
2071
2072
2073
2075
2076
2077
2079
2080
2081
2082
2083
2084
2086
2088
2090
2092
2095
2097
2098
2101
2103
2105
2105
2106
2107
2108
2111
2113
2114
2112
2110
2108
2106
2104
2101
2097
2090
2083
2076
2070
2064
2058
2054
2050
2047
2043
2040
2038
2037
2037
2037
2037
2036
2035
2034
2033
2035
2037
2039
2040
2040
2039
2038
2039
2040
2040
2040
2040
2040
2040
2040
2040
2040
2041
2041
2041
2040
2040
2040
2040
2039
2039
2040
2039
2038
2037
2036
2035
2037
2039
2041
2041
2039
2038
2037
2037
2039
2039
2038
2037
2037
2037
2038
2038
2039
2039
2038
2038
2038
2038
2039
2039
2040
2041
2041
2040
2040
2039
2041
2043
2045
2045
2044
2042
2040
2038
2039
2039
2038
2038
2038
2038
2039
2039
2039
2039
2039
2038
2037
2034
2035
2049
2079
2113
2131
2115
2060
1985
1917
1881
1885
1918
1962
1998
2022
2037
2047
2051
2053
2054
2055
2056
2057
2058
2059
2059
2060
2060
2061
2061
2061
2062
2062
2063
2064
2065
2066
2066
2065
2063
2063
2065
2069
2074
2076
2076
2075
2074
2073
2075
2077
2079
2081
2083
2085
2087
2088
2090
2093
2096
2098
2101
2103
2106
2107
2108
2110
2111
2111
2112
2111
2111
2110
2110
2108
2104
2097
2089
2080
2072
2065
2060
2055
2050
2047
2044
2042
2040
2038
2037
2036
2035
2034
2034
2035
2035
2035
2035
2036
2036
2036
2036
2036
2037
2040
2043
2045
2045
2043
2041
2040
2040
2041
2042
2042
2042
2042
2042
2042
2042
2041
2041
2041
2041
2041
2042
2041
2041
2040
2040
2040
2040
2039
2039
2039
2039
2040
2041
2041
2040
2039
2038
2039
2040
2041
2042
2041
2041
2041
2041
2041
2042
2042
2044
2044
2044
2044
2043
2042
2041
2041
2041
2041
2039
2037
2036
2036
2039
2041
2042
2041
2040
2038
2034
2034
2044
2070
2104
2125
2116
2069
1997
1926
1884
1880
1906
1947
1985
2014
2033
2047
2053
2056
2056
2056
2055
2055
2056
2059
2062
2065
2065
2064
2062
2062
2062
2064
2065
2065
2065
2065
2066
2067
2068
2069
2070
2070
2071
2071
2072
2073
2074
2075
2077
2079
2080
2080
2081
2082
2086
2089
2093
2096
2097
2098
2100
2101
2104
2106
2108
2108
2109
2110
2111
2111
2110
2109
2107
2103
2098
2093
2086
2080
2072
2067
2061
2055
2049
2044
2039
2037
2038
2039
2039
2038
2034
2032
2031
2031
2034
2034
2035
2035
2036
2036
2037
2037
2038
2038
2039
2040
2040
2041
2041
2041
2041
2042
2041
2041
2039
2039
2040
2041
2043
2044
2043
2042
2040
2039
2039
2039
2039
2040
2039
2039
2039
2039
2039
2039
2039
2039
2040
2040
2041
2040
2040
2039
2041
2040
2040
2039
2038
2038
2039
2042
2044
2044
2043
2041
2039
2038
2040
2040
2042
2042
2042
2042
2041
2040
2041
2042
2044
2045
2046
2046
2046
2046
2045
2046
2046
2047
2046
2045
2044
2045
2046
2047
2047
2044
2042
2040
2039
2042
2043
2044
2044
2043
2040
2036
2040
2058
2091
2122
2127
2094
2028
1949
1890
1868
1884
1922
1965
1999
2023
2040
2052
2060
2062
2062
2062
2061
2061
2062
2063
2065
2066
2066
2067
2067
2067
2067
2068
2069
2070
2071
2071
2071
2071
2072
2073
2075
2077
2077
2076
2075
2075
2077
2080
2085
2086
2087
2086
2087
2088
2091
2094
2096
2098
2101
2103
2106
2108
2111
2112
2114
2115
2115
2115
2115
2115
2114
2115
2114
2111
2107
2100
2093
2086
2081
2077
2073
2067
2059
2052
2047
2045
2043
2041
2040
2038
2037
2037
2037
2037
2038
2038
2038
2038
2039
2039
2040
2040
2040
2042
2042
2042
2041
2040
2040
2043
2046
2048
2048
2047
2044
2042
2041
2042
2042
2042
2042
2042
2042
2043
2043
2043
2042
2041
2041
2040
2040
2041
2041
2040
2041
2041
2041
2040
2037
2036
2037
2041
2045
2047
2046
2042
2039
2038
2038
2040
2040
2040
2040
2041
2041
2042
2042
2041
2041
2041
2041
2041
2041
2041
2041
2041
2042
2042
2041
2039
2038
2039
2041
2045
2047
2047
2045
2043
2041
2041
2041
2042
2042
2043
2043
2044
2044
2044
2044
2043
2043
2043
2044
2044
2044
2045
2044
2045
2044
2044
2042
2041
2041
2044
2047
2049
2050
2048
2046
2044
2042
2044
2046
2047
2047
2047
2047
2048
2048
2048
2048
2048
2047
2046
2045
2045
2045
2044
2045
2046
2045
2045
2042
2038
2037
2048
2076
2112
2136
2125
2073
1994
1917
1869
1862
1888
1930
1972
2006
2033
2051
2061
2063
2060
2058
2059
2062
2064
2065
2066
2066
2067
2066
2066
2067
2068
2071
2073
2074
2074
2072
2072
2071
2072
2073
2075
2076
2076
2077
2077
2078
2079
2080
2081
2084
2084
2085
2086
2087
2089
2092
2096
2098
2099
2099
2099
2102
2105
2111
2114
2115
2115
2114
2114
2115
2116
2116
2116
2114
2113
2110
2107
2103
2097
2090
2082
2075
2068
2062
2056
2052
2048
2046
2045
2043
2039
2036
2035
2037
2040
2043
2044
2042
2040
2040
2040
2041
2041
2039
2038
2038
2039
2041
2042
2042
2042
2042
2042
2042
2042
2042
2042
2041
2043
2044
2043
2042
2041
2040
2041
2042
2043
2044
2043
2042
2040
2039
2040
2040
2040
2040
2040
2040
2041
2041
2041
2041
2040
2040
2040
2040
2041
2041
2040
2041
2042
2041
2040
2038
2038
2040
2043
2045
2046
2044
2042
2040
2040
2040
2042
2042
2042
2043
2043
2043
2043
2043
2042
2042
2042
2042
2042
2042
2043
2043
2043
2043
2043
2042
2041
2041
2043
2044
2046
2046
2045
2044
2042
2041
2042
2042
2043
2044
2045
2045
2046
2045
2045
2045
2045
2045
2045
2045
2046
2047
2047
2048
2048
2047
2045
2043
2041
2042
2043
2045
2047
2047
2046
2044
2042
2041
2038
2035
2039
2058
2093
2125
2130
2095
2024
1941
1880
1857
1875
1915
1960
1995
2021
2038
2050
2055
2056
2055
2057
2060
2063
2065
2065
2064
2063
2062
2062
2064
2065
2066
2066
2066
2066
2067
2067
2068
2068
2069
2070
2070
2071
2072
2072
2073
2075
2075
2076
2076
2077
2079
2081
2084
2086
2088
2088
2089
2090
2092
2096
2098
2100
2103
2104
2106
2107
2108
2109
2110
2110
2110
2109
2109
2107
2104
2100
2095
2090
2083
2077
2068
2061
2054
2050
2048
2046
2043
2039
2036
2034
2033
2033
2033
2033
2033
2033
2033
2033
2033
2034
2034
2035
2035
2036
2036
2036
2037
2038
2038
2039
2039
2037
2035
2035
2036
2039
2042
2043
2041
2038
2036
2034
2035
2036
2036
2035
2035
2035
2035
2036
2036
2036
2035
2035
2034
2034
2034
2034
2034
2035
2036
2035
2034
2033
2032
2033
2035
2037
2038
2037
2036
2034
2033
2033
2034
2035
2035
2035
2035
2036
2036
2036
2036
2036
2036
2037
2037
2037
2038
2038
2040
2040
2040
2038
2036
2036
2038
2041
2043
2043
2041
2037
2035
2034
2034
2036
2035
2035
2036
2037
2037
2037
2036
2032
2031
2043
2070
2105
2127
2118
2070
1997
1925
1882
1877
1903
1943
1982
2012
2033
2047
2052
2052
2050
2049
2051
2053
2055
2057
2058
2058
2058
2058
2058
2058
2058
2059
2060
2060
2061
2062
2063
2064
2064
2064
2064
2064
2065
2066
2068
2071
2073
2073
2073
2073
2074
2075
2077
2079
2081
2083
2085
2087
2090
2092
2095
2097
2099
2101
2102
2104
2105
2106
2105
2107
2106
2106
2104
2101
2097
2093
2088
2083
2076
2069
2061
2054
2048
2046
2042
2040
2038
2036
2034
2033
2031
2031
2031
2031
2031
2032
2032
2032
2032
2032
2034
2034
2034
2034
2034
2035
2037
2039
2041
2041
2040
2039
2038
2039
2039
2039
2039
2039
2039
2038
2038
2038
2038
2038
2038
2038
2038
2038
2036
2037
2037
2037
2037
2036
2036
2036
2036
2037
2039
2040
2039
2038
2036
2036
2035
2037
2039
2040
2040
2039
2039
2039
2039
2039
2040
2040
2040
2040
2040
2041
2042
2041
2041
2039
2037
2036
2035
2034
2035
2037
2040
2042
2041
2039
2037
2035
2032
2031
2041
2065
2099
2122
2116
2072
2002
1931
1885
1877
1901
1940
1979
2009
2029
2043
2051
2053
2052
2052
2051
2053
2056
2059
2062
2062
2061
2060
2059
2058
2060
2060
2061
2061
2062
2063
2064
2065
2065
2066
2067
2067
2069
2070
2071
2070
2069
2072
2074
2078
2081
2081
2080
2080
2082
2086
2091
2093
2094
2094
2095
2098
2101
2103
2105
2107
2108
2108
2109
2109
2109
2108
2107
2104
2099
2094
2087
2081
2074
2068
2062
2055
2048
2043
2040
2040
2041
2041
2040
2037
2033
2031
2030
2032
2032
2033
2033
2034
2034
2034
2035
2035
2036
2037
2038
2038
2039
2039
2040
2040
2041
2041
2041
2039
2039
2039
2040
2042
2043
2043
2041
2039
2038
2037
2038
2039
2039
2039
2038
2038
2038
2037
2037
2037
2038
2038
2038
2038
2038
2038
2037
2038
2038
2038
2037
2035
2035
2036
2038
2041
2042
2041
2039
2038
2038
2040
2041
2041
2041
2041
2041
2042
2042
2042
2042
2042
2043
2043
2044
2043
2042
2040
2040
2039
2039
2038
2038
2038
2039
2041
2042
2043
2041
2036
2033
2040
2063
2098
2124
2119
2076
2004
1929
1879
1868
1891
1932
1974
2005
2028
2043
2052
2055
2055
2055
2056
2058
2059
2061
2062
2063
2064
2065
2064
2064
2065
2065
2066
2067
2067
2067
2067
2068
2068
2069
2070
2071
2072
2072
2073
2074
2074
2076
2077
2079
2081
2083
2085
2085
2086
2087
2090
2095
2099
2102
2103
2104
2106
2107
2110
2112
2113
2113
2113
2114
2114
2114
2113
2111
2108
2102
2096
2089
2082
2075
2068
2063
2058
2053
2048
2044
2040
2039
2039
2040
2040
2038
2037
2036
2035
2037
2037
2038
2038
2038
2038
2039
2040
2040
2041
2040
2040
2040
2041
2041
2042
2042
2043
2042
2042
2041
2041
2040
2041
2043
2044
2045
2043
2041
2040
2039
2039
2040
2040
2041
2041
2040
2040
2040
2040
2039
2039
2039
2039
2040
2040
2040
2041
2040
2041
2041
2039
2037
2036
2037
2040
2044
2046
2045
2043
2040
2039
2038
2040
2040
2041
2041
2042
2042
2042
2041
2041
2042
2042
2042
2042
2043
2043
2043
2044
2044
2043
2042
2041
2040
2041
2043
2045
2046
2045
2044
2042
2041
2041
2042
2043
2044
2044
2045
2045
2044
2044
2045
2045
2046
2046
2047
2047
2047
2047
2047
2048
2047
2048
2047
2046
2046
2046
2048
2048
2048
2045
2043
2041
2041
2043
2044
2045
2043
2039
2037
2048
2074
2110
2132
2120
2068
1990
1915
1870
1866
1895
1939
1980
2011
2033
2048
2055
2059
2060
2061
2063
2064
2064
2064
2064
2065
2066
2067
2068
2068
2068
2069
2069
2070
2071
2071
2072
2072
2073
2073
2073
2074
2074
2076
2076
2078
2078
2079
2080
2082
2085
2087
2088
2089
2089
2090
2092
2095
2097
2099
2101
2103
2105
2108
2110
2111
2112
2112
2112
2112
2112
2113
2113
2113
2112
2109
2105
2098
2091
2084
2078
2073
2068
2063
2058
2052
2048
2043
2042
2040
2039
2038
2038
2037
2038
2038
2038
2039
2039
2039
2040
2040
2041
2041
2041
2042
2043
2042
2041
2040
2039
2041
2043
2045
2046
2044
2042
2040
2038
2040
2040
2040
2040
2040
2040
2040
2040
2040
2039
2038
2037
2037
2037
2038
2039
2038
2039
2039
2039
2038
2036
2036
2036
2038
2039
2040
2040
2039
2038
2036
2037
2037
2037
2038
2038
2039
2039
2039
2039
2038
2038
2038
2038
2038
2039
2039
2039
2039
2040
2039
2038
2036
2034
2034
2037
2041
2043
2044
2042
2039
2038
2037
2039
2039
2040
2040
2040
2040
2040
2040
2040
2040
2040
2040
2041
2041
2041
2042
2042
2044
2043
2043
2042
2041
2041
2042
2045
2046
2047
2046
2045
2044
2043
2043
2042
2042
2041
2041
2041
2041
2041
2041
2042
2042
2042
2040
2035
2035
2048
2077
2114
2132
2112
2050
1966
1891
1854
1861
1899
1946
1985
2011
2030
2043
2052
2056
2056
2056
2057
2059
2060
2061
2061
2062
2062
2063
2063
2063
2064
2064
2064
2065
2065
2066
2066
2066
2067
2068
2070
2072
2072
2073
2072
2072
2071
2071
2072
2075
2079
2083
2084
2084
2083
2084
2086
2089
2093
2095
2096
2098
2099
2101
2103
2105
2106
2107
2106
2105
2106
2107
2109
2109
2107
2103
2097
2090
2084
2078
2071
2065
2058
2052
2048
2044
2041
2039
2037
2034
2033
2031
2031
2031
2030
2031
2032
2032
2032
2031
2030
2031
2034
2037
2038
2038
2037
2035
2034
2034
2036
2036
2036
2035
2035
2036
2036
2036
2036
2035
2035
2034
2034
2034
2034
2034
2033
2034
2034
2033
2031
2029
2030
2032
2034
2036
2035
2034
2032
2031
2030
2031
2031
2031
2030
2031
2031
2031
2031
2031
2031
2031
2031
2031
2031
2031
2031
2031
2032
2032
2032
2031
2030
2029
2030
2031
2033
2035
2034
2032
2031
2031
2032
2033
2033
2034
2034
2034
2034
2034
2034
2034
2035
2035
2036
2036
2036
2035
2034
2033
2034
2033
2032
2030
2028
2029
2032
2036
2038
2038
2033
2027
2029
2048
2084
2116
2127
2099
2036
1959
1897
1871
1883
1919
1961
1994
2018
2033
2043
2047
2047
2048
2048
2049
2049
2049
2050
2052
2054
2056
2058
2057
2056
2055
2054
2056
2057
2059
2060
2061
2061
2062
2062
2062
2063
2064
2064
2066
2067
2068
2069
2069
2072
2073
2075
2075
2075
2077
2079
2084
2088
2091
2092
2093
2093
2094
2097
2099
2101
2102
2102
2103
2103
2103
2102
2101
2099
2096
2091
2085
2078
2070
2063
2058
2053
2048
2044
2040
2037
2035
2034
2034
2033
2032
2030
2029
2028
2029
2030
2030
2031
2031
2031
2031
2032
2033
2033
2034
2035
2035
2034
2034
2034
2034
2034
2035
2035
2034
2034
2033
2032
2033
2034
2035
2036
2035
2034
2033
2032
2032
2032
2031
2032
2032
2031
2032
2032
2032
2031
2031
2031
2031
2031
2031
2031
2031
2032
2032
2032
2031
2030
2029
2030
2032
2035
2036
2036
2035
2034
2032
2034
2034
2034
2034
2034
2035
2036
2036
2036
2035
2034
2033
2032
2031
2031
2031
2031
2033
2033
2033
2032
2031
2030
2028
2027
2035
2054
2086
2113
2116
2083
2020
1945
1889
1869
1885
1923
1964
1996
2018
2033
2042
2046
2046
2046
2047
2048
2050
2052
2053
2053
2052
2052
2052
2054
2056
2059
2060
2060
2058
2057
2057
2059
2060
2061
2062
2062
2063
2064
2064
2066
2066
2067
2068
2069
2070
2072
2074
2075
2078
2081
2082
2083
2083
2084
2087
2092
2098
2102
2104
2103
2101
2100
2100
2102
2103
2103
2103
2101
2098
2093
2088
2081
2074
2068
2061
2056
2051
2048
2043
2041
2038
2036
2034
2031
2030
2029
2031
2033
2034
2034
2033
2032
2031
2031
2033
2034
2036
2037
2037
2037
2037
2037
2038
2038
2039
2039
2039
2040
2040
2040
2039
2041
2040
2039
2038
2036
2037
2038
2042
2044
2044
2041
2038
2036
2035
2037
2038
2039
2039
2039
2039
2039
2038
2039
2039
2039
2039
2039
2039
2039
2039
2038
2039
2039
2039
2039
2039
2039
2040
2042
2043
2044
2044
2043
2042
2042
2043
2044
2044
2044
2045
2045
2044
2043
2042
2041
2040
2040
2040
2041
2041
2040
2041
2041
2042
2042
2040
2036
2036
2048
2078
2113
2129
2110
2053
1976
1908
1872
1876
1908
1951
1988
2017
2036
2048
2055
2057
2057
2058
2059
2060
2061
2062
2063
2064
2065
2066
2066
2065
2065
2065
2066
2069
2072
2073
2073
2072
2071
2070
2072
2073
2074
2075
2075
2077
2078
2079
2081
2082
2083
2084
2085
2087
2089
2091
2093
2096
2099
2101
2102
2103
2104
2108
2113
2116
2118
2117
2116
2114
2113
2113
2113
2111
2107
2102
2096
2089
2082
2076
2069
2063
2057
2053
2049
2047
2045
2042
2042
2041
2041
2039
2037
2036
2036
2038
2041
2043
2044
2043
2042
2041
2043
2044
2045
2046
2046
2046
2046
2046
2046
2046
2045
2046
2045
2045
2043
2042
2042
2044
2047
2048
2048
2046
2041
2039
2039
2042
2044
2045
2043
2042
2041
2040
2041
2040
2041
2042
2042
2042
2042
2042
2042
2041
2041
2041
2041
2041
2042
2042
2041
2043
2043
2042
2040
2038
2038
2040
2044
2047
2048
2046
2043
2041
2039
2041
2042
2043
2043
2043
2043
2043
2043
2042
2042
2042
2042
2043
2043
2043
2043
2041
2042
2042
2042
2042
2041
2041
2042
2045
2047
2048
2047
2045
2044
2043
2045
2045
2046
2046
2047
2047
2048
2047
2046
2044
2043
2042
2041
2041
2041
2041
2041
2042
2042
2040
2034
2031
2042
2070
2109
2133
2120
2063
1979
1901
1856
1856
1888
1934
1975
2006
2028
2043
2051
2054
2054
2054
2055
2057
2058
2059
2059
2059
2060
2061
2061
2061
2061
2061
2063
2064
2066
2066
2066
2065
2066
2067
2069
2070
2070
2070
2070
2071
2073
2073
2075
2076
2078
2080
2081
2083
2084
2086
2087
2090
2093
2095
2097
2098
2099
2101
2104
2108
2111
2112
2112
2111
2110
2109
2110
2109
2107
2104
2100
2095
2089
2083
2076
2069
2062
2056
2050
2048
2044
2042
2039
2039
2038
2037
2035
2033
2033
2035
2037
2040
2041
2040
2039
2038
2038
2040
2040
2039
2039
2039
2040
2040
2041
2041
2041
2040
2040
2040
2040
2040
2040
2039
2040
2041
2041
2039
2036
2033
2033
2037
2042
2045
2045
2042
2038
2036
2036
2037
2038
2038
2038
2038
2038
2038
2038
2038
2038
2038
2037
2038
2038
2038
2038
2038
2039
2038
2037
2034
2033
2034
2037
2041
2044
2044
2041
2038
2036
2035
2037
2038
2039
2039
2039
2039
2040
2039
2039
2039
2039
2039
2039
2040
2040
2040
2040
2041
2040
2040
2038
2037
2037
2040
2044
2046
2046
2044
2041
2039
2037
2040
2041
2042
2042
2043
2044
2044
2044
2044
2044
2044
2044
2044
2045
2045
2045
2044
2046
2046
2046
2043
2040
2039
2039
2042
2045
2046
2045
2043
2041
2039
2038
2035
2036
2048
2079
2114
2131
2111
2049
1967
1893
1856
1860
1896
1942
1982
2011
2033
2048
2056
2057
2056
2056
2057
2060
2063
2065
2066
2064
2063
2063
2064
2065
2066
2066
2066
2066
2067
2067
2068
2069
2070
2071
2072
2073
2074
2074
2075
2076
2077
2079
2079
2080
2081
2083
2085
2090
2092
2093
2092
2092
2095
2098
2103
2107
2108
2108
2109
2110
2111
2113
2114
2114
2114
2114
2114
2112
2110
2108
2104
2099
2092
2085
2077
2069
2062
2057
2055
2054
2051
2048
2043
2039
2036
2036
2036
2037
2037
2037
2038
2038
2039
2039
2040
2040
2040
2040
2041
2041
2042
2041
2044
2044
2044
2042
2040
2038
2039
2043
2046
2047
2046
2043
2040
2038
2039
2039
2040
2039
2039
2038
2039
2039
2039
2039
2038
2038
2038
2038
2039
2039
2038
2039
2038
2038
2036
2035
2034
2036
2039
2041
2043
2041
2039
2037
2036
2037
2038
2039
2039
2038
2038
2038
2038
2038
2038
2038
2038
2038
2038
2038
2037
2038
2038
2040
2041
2040
2037
2035
2036
2039
2044
2047
2047
2044
2040
2038
2038
2041
2042
2042
2040
2039
2038
2037
2036
2036
2036
2036
2037
2038
2038
2038
2036
2034
2033
2043
2070
2104
2127
2120
2074
2002
1928
1881
1871
1896
1937
1977
2009
2029
2044
2049
2051
2051
2051
2053
2055
2056
2058
2058
2059
2059
2060
2059
2059
2061
2061
2061
2060
2058
2059
2061
2066
2070
2071
2070
2068
2066
2065
2068
2069
2071
2072
2073
2074
2075
2077
2078
2080
2081
2084
2087
2090
2092
2093
2092
2094
2095
2098
2100
2102
2102
2103
2105
2106
2107
2107
2105
2102
2099
2095
2090
2085
2078
2071
2064
2058
2052
2048
2045
2041
2039
2036
2035
2033
2032
2031
2030
2031
2031
2031
2031
2031
2031
2032
2034
2036
2036
2035
2033
2032
2033
2035
2039
2041
2042
2040
2038
2036
2035
2036
2037
2037
2036
2036
2035
2036
2036
2036
2037
2037
2037
2036
2034
2033
2034
2036
2037
2038
2037
2036
2035
2034
2035
2035
2035
2035
2035
2036
2036
2037
2037
2037
2037
2037
2037
2038
2038
2039
2039
2041
2041
2040
2037
2034
2033
2034
2036
2038
2038
2038
2036
2035
2034
2035
2035
2035
2032
2030
2039
2062
2095
2120
2117
2076
2008
1936
1888
1877
1900
1940
1980
2010
2029
2041
2047
2048
2048
2050
2054
2057
2057
2056
2055
2055
2055
2056
2057
2058
2059
2060
2061
2061
2062
2062
2062
2063
2063
2064
2064
2066
2067
2068
2069
2070
2070
2068
2068
2070
2074
2080
2085
2087
2086
2084
2083
2084
2088
2092
2096
2098
2100
2102
2104
2105
2106
2106
2106
2107
2107
2107
2106
2103
2098
2093
2086
2079
2072
2064
2058
2054
2050
2048
2045
2041
2037
2035
2033
2033
2033
2033
2032
2032
2032
2032
2032
2033
2033
2034
2034
2035
2036
2037
2037
2037
2039
2039
2039
2038
2038
2038
2039
2040
2042
2042
2041
2039
2038
2037
2038
2039
2039
2039
2038
2038
2037
2037
2037
2038
2039
2039
2039
2038
2038
2037
2036
2038
2038
2038
2038
2037
2037
2039
2042
2043
2043
2042
2040
2039
2039
2041
2041
2041
2039
2038
2037
2036
2036
2037
2037
2037
2037
2038
2038
2037
2037
2035
2032
2033
2044
2071
2104
2122
2108
2056
1983
1913
1875
1873
1902
1944
1984
2014
2035
2048
2054
2055
2053
2054
2055
2057
2059
2060
2060
2060
2060
2061
2061
2063
2064
2064
2064
2063
2062
2063
2065
2068
2070
2071
2070
2070
2069
2070
2072
2073
2074
2075
2076
2078
2079
2081
2083
2084
2086
2088
2090
2093
2095
2098
2100
2104
2105
2106
2106
2106
2107
2110
2113
2116
2115
2113
2109
2105
2100
2095
2088
2081
2074
2067
2061
2056
2051
2048
2045
2042
2039
2037
2036
2035
2035
2035
2036
2036
2036
2035
2034
2034
2035
2037
2040
2042
2042
2040
2039
2038
2039
2040
2040
2041
2042
2042
2042
2041
2041
2041
2040
2040
2040
2040
2040
2040
2040
2040
2041
2041
2039
2037
2035
2036
2038
2042
2044
2044
2041
2038
2036
2036
2038
2039
2039
2039
2039
2039
2039
2039
2039
2039
2040
2041
2041
2042
2042
2042
2042
2043
2043
2043
2042
2041
2041
2043
2045
2047
2046
2043
2040
2038
2036
2038
2038
2040
2040
2041
2041
2041
2041
2040
2036
2033
2038
2057
2092
2123
2126
2088
2019
1935
1874
1851
1868
1908
1955
1995
2025
2044
2054
2057
2055
2054
2056
2059
2061
2062
2063
2063
2063
2064
2064
2065
2065
2066
2066
2067
2068
2068
2068
2069
2070
2071
2071
2071
2072
2073
2075
2077
2079
2079
2079
2080
2081
2083
2085
2087
2088
2090
2092
2094
2096
2099
2102
2105
2108
2110
2112
2113
2114
2114
2115
2117
2117
2117
2116
2113
2110
2106
2101
2094
2087
2079
2070
2063
2056
2052
2048
2046
2043
2041
2039
2037
2036
2036
2036
2036
2035
2035
2036
2036
2036
2037
2038
2039
2039
2038
2037
2037
2038
2041
2043
2044
2042
2040
2039
2038
2040
2040
2040
2039
2038
2038
2039
2039
2039
2039
2039
2038
2038
2038
2038
2038
2037
2039
2039
2039
2037
2035
2034
2035
2039
2042
2044
2042
2039
2036
2035
2035
2037
2037
2037
2037
2037
2038
2038
2038
2039
2038
2038
2038
2038
2039
2038
2038
2039
2040
2039
2038
2035
2035
2037
2041
2045
2046
2044
2041
2038
2036
2038
2040
2040
2040
2040
2041
2041
2040
2040
2041
2041
2042
2042
2041
2041
2042
2042
2043
2043
2043
2042
2042
2042
2043
2045
2046
2046
2044
2042
2040
2038
2039
2040
2041
2041
2041
2040
2037
2032
2038
2059
2095
2126
2126
2084
2008
1924
1866
1851
1875
1918
1961
1994
2019
2037
2051
2059
2060
2059
2058
2058
2059
2060
2062
2063
2064
2064
2064
2064
2064
2065
2065
2066
2067
2067
2068
2069
2069
2070
2070
2071
2072
2073
2073
2074
2075
2077
2080
2082
2083
2083
2083
2084
2085
2088
2090
2093
2095
2097
2099
2101
2102
2105
2106
2108
2110
2111
2111
2111
2111
2111
2112
2111
2109
2107
2103
2098
2092
2086
2079
2071
2063
2057
2052
2048
2046
2042
2039
2037
2035
2034
2034
2033
2034
2034
2035
2036
2036
2037
2037
2037
2037
2037
2038
2039
2039
2039
2039
2039
2039
2040
2040
2040
2039
2039
2039
2039
2039
2038
2038
2038
2038
2038
2037
2037
2037
2038
2037
2038
2037
2036
2036
2035
2035
2036
2037
2037
2036
2035
2034
2035
2036
2038
2039
2038
2036
2035
2034
2035
2035
2035
2035
2035
2036
2036
2036
2037
2037
2036
2036
2036
2036
2036
2036
2035
2037
2038
2038
2037
2035
2035
2036
2038
2041
2041
2040
2039
2037
2036
2037
2038
2038
2038
2038
2039
2039
2039
2040
2040
2040
2040
2040
2041
2041
2042
2041
2042
2042
2043
2042
2040
2039
2039
2042
2044
2045
2043
2039
2037
2035
2036
2038
2038
2038
2037
2035
2032
2036
2054
2088
2120
2128
2096
2029
1949
1887
1862
1877
1917
1960
1994
2017
2033
2045
2051
2055
2058
2058
2057
2055
2054
2055
2058
2059
2059
2060
2060
2061
2061
2061
2061
2062
2062
2063
2064
2065
2066
2066
2067
2067
2068
2069
2069
2069
2070
2072
2075
2077
2079
2079
2079
2080
2081
2083
2085
2088
2091
2093
2096
2097
2099
2100
2100
2101
2102
2103
2103
2103
2103
2101
2102
2100
2098
2094
2088
2082
2076
2071
2066
2060
2054
2048
2043
2039
2038
2036
2035
2034
2032
2031
2031
2030
2030
2031
2031
2032
2033
2034
2034
2034
2034
2035
2035
2036
2037
2037
2037
2037
2038
2039
2040
2040
2039
2038
2037
2037
2038
2038
2038
2037
2037
2036
2036
2036
2036
2036
2036
2036
2036
2036
2036
2035
2035
2036
2035
2034
2033
2033
2034
2035
2037
2038
2038
2036
2034
2033
2035
2036
2037
2037
2037
2037
2038
2039
2039
2040
2040
2039
2039
2038
2039
2039
2039
2039
2039
2038
2037
2036
2034
2033
2033
2035
2037
2039
2039
2038
2037
2034
2033
2029
2034
2055
2089
2119
2125
2092
2026
1948
1890
1868
1884
1923
1966
2000
2023
2040
2048
2051
2050
2048
2049
2053
2057
2060
2061
2061
2060
2058
2058
2058
2059
2060
2061
2062
2062
2063
2064
2064
2065
2065
2066
2067
2068
2069
2070
2070
2072
2073
2075
2075
2076
2076
2078
2082
2086
2089
2090
2091
2091
2093
2097
2100
2103
2105
2106
2107
2109
2109
2110
2110
2109
2108
2107
2105
2101
2097
2091
2083
2077
2069
2062
2054
2048
2043
2042
2044
2045
2044
2040
2035
2030
2028
2030
2030
2032
2031
2032
2032
2032
2033
2033
2034
2035
2036
2037
2037
2038
2038
2038
2038
2039
2039
2038
2038
2038
2038
2040
2041
2041
2039
2038
2037
2036
2037
2037
2037
2037
2037
2037
2037
2036
2037
2037
2037
2037
2037
2036
2036
2036
2036
2036
2036
2036
2036
2036
2036
2037
2038
2039
2039
2039
2037
2036
2036
2036
2037
2038
2038
2038
2038
2038
2037
2037
2037
2038
2038
2039
2039
2039
2038
2038
2038
2039
2040
2041
2040
2040
2040
2041
2042
2043
2043
2042
2042
2042
2043
2044
2044
2042
2040
2039
2038
2038
2038
2039
2039
2040
2040
2040
2039
2036
2032
2036
2055
2089
2120
2126
2093
2025
1945
1884
1861
1876
1914
1958
1994
2020
2038
2050
2055
2054
2053
2054
2057
2059
2061
2062
2062
2062
2062
2061
2061
2062
2063
2064
2065
2066
2066
2065
2065
2066
2068
2070
2072
2070
2068
2068
2069
2075
2078
2081
2079
2078
2077
2077
2081
2084
2086
2087
2089
2091
2094
2096
2099
2101
2106
2107
2109
2109
2109
2109
2110
2112
2115
2115
2113
2109
2104
2098
2092
2085
2078
2071
2065
2059
2053
2049
2046
2042
2039
2037
2035
2034
2033
2033
2033
2035
2035
2035
2034
2032
2032
2034
2037
2040
2041
2040
2038
2037
2036
2038
2039
2039
2040
2040
2040
2040
2040
2040
2039
2039
2039
2038
2038
2038
2039
2039
2038
2040
2038
2037
2036
2034
2035
2037
2040
2041
2041
2039
2037
2035
2034
2036
2036
2037
2037
2038
2037
2037
2037
2037
2037
2036
2037
2037
2037
2038
2038
2037
2038
2037
2037
2036
2036
2036
2037
2039
2040
2041
2040
2039
2037
2035
2037
2037
2038
2038
2038
2038
2038
2038
2038
2038
2039
2039
2039
2040
2040
2040
2038
2040
2039
2039
2039
2038
2038
2039
2042
2044
2044
2043
2041
2040
2039
2041
2041
2042
2042
2042
2042
2042
2042
2042
2042
2043
2044
2045
2045
2044
2043
2041
2040
2040
2040
2040
2040
2040
2041
2041
2042
2040
2035
2034
2048
2079
2115
2132
2111
2048
1965
1891
1854
1860
1896
1942
1983
2012
2033
2047
2054
2056
2056
2056
2058
2059
2060
2061
2061
2062
2063
2064
2065
2065
2065
2064
2065
2066
2068
2069
2069
2069
2069
2069
2070
2071
2073
2075
2076
2077
2077
2077
2077
2078
2080
2083
2084
2086
2086
2087
2089
2091
2095
2099
2102
2104
2105
2106
2106
2109
2110
2111
2112
2112
2113
2113
2113
2112
2110
2107
2102
2097
2090
2083
2076
2068
2062
2057
2051
2047
2041
2038
2036
2037
2037
2037
2035
2034
2032
2032
2033
2034
2034
2034
2034
2035
2036
2037
2037
2037
2037
2037
2038
2038
2038
2038
2038
2038
2039
2039
2037
2035
2034
2035
2037
2040
2042
2042
2039
2037
2035
2034
2036
2036
2036
2036
2036
2036
2035
2035
2035
2035
2035
2035
2035
2036
2036
2036
2036
2037
2036
2035
2033
2033
2034
2036
2039
2040
2040
2038
2036
2035
2035
2036
2037
2038
2038
2038
2037
2037
2037
2037
2037
2037
2038
2038
2038
2038
2038
2038
2038
2039
2039
2037
2035
2034
2037
2040
2044
2045
2043
2040
2038
2035
2038
2039
2040
2040
2040
2040
2040
2039
2039
2040
2041
2042
2043
2043
2043
2043
2042
2043
2043
2043
2043
2043
2044
2046
2047
2047
2045
2043
2041
2039
2039
2040
2041
2043
2043
2043
2042
2039
2034
2035
2050
2083
2118
2133
2108
2045
1961
1891
1858
1865
1903
1947
1986
2014
2034
2048
2056
2058
2057
2056
2056
2057
2058
2060
2060
2061
2061
2061
2061
2062
2062
2063
2063
2064
2065
2066
2067
2067
2067
2068
2068
2069
2070
2070
2071
2072
2074
2076
2079
2080
2080
2080
2080
2081
2084
2086
2089
2090
2093
2094
2097
2099
2101
2104
2106
2108
2108
2108
2107
2107
2108
2108
2109
2107
2105
2101
2097
2093
2088
2082
2075
2067
2060
2054
2048
2046
2042
2039
2037
2035
2034
2034
2033
2033
2033
2032
2032
2032
2033
2034
2035
2035
2037
2037
2036
2037
2036
2035
2036
2038
2040
2041
2041
2040
2039
2037
2036
2036
2036
2036
2036
2037
2037
2036
2036
2035
2034
2034
2034
2034
2035
2035
2035
2035
2034
2034
2033
2032
2031
2032
2034
2037
2038
2037
2035
2033
2032
2033
2034
2035
2035
2034
2034
2035
2035
2035
2034
2034
2034
2034
2035
2035
2035
2035
2035
2036
2037
2037
2036
2035
2035
2037
2039
2041
2041
2040
2039
2038
2038
2038
2039
2038
2038
2037
2036
2035
2034
2034
2034
2034
2034
2035
2035
2035
2034
2031
2030
2038
2060
2094
2121
2121
2084
2018
1944
1892
1875
1892
1930
1969
2002
2025
2039
2047
2048
2048
2049
2050
2052
2052
2053
2052
2052
2053
2055
2059
2061
2062
2060
2058
2056
2055
2057
2060
2063
2065
2066
2065
2064
2063
2064
2066
2067
2069
2070
2070
2071
2072
2074
2076
2078
2079
2081
2084
2086
2089
2091
2093
2096
2098
2100
2101
2101
2102
2104
2108
2110
2111
2110
2107
2103
2099
2096
2092
2086
2079
2072
2064
2058
2052
2048
2045
2042
2039
2036
2035
2033
2031
2030
2029
2029
2030
2030
2030
2030
2030
2031
2033
2034
2034
2033
2033
2034
2034
2036
2036
2036
2035
2034
2033
2035
2037
2039
2040
2039
2039
2038
2037
2038
2037
2037
2037
2037
2036
2036
2034
2033
2034
2036
2039
2040
2038
2036
2035
2033
2034
2033
2033
2033
2034
2034
2035
2035
2035
2035
2035
2035
2035
2035
2035
2035
2034
2036
2036
2036
2035
2034
2034
2035
2037
2040
2041
2040
2039
2038
2038
2038
2038
2039
2038
2038
2038
2038
2037
2036
2036
2035
2035
2035
2036
2036
2037
2037
2037
2036
2033
2029
2033
2052
2086
2117
2122
2087
2019
1940
1882
1862
1881
1921
1964
1998
2021
2038
2048
2053
2053
2052
2052
2053
2054
2056
2057
2058
2059
2058
2060
2060
2060
2058
2057
2057
2060
2064
2068
2069
2068
2065
2063
2062
2064
2066
2067
2069
2070
2071
2072
2073
2074
2075
2077
2078
2081
2083
2086
2088
2089
2093
2094
2096
2097
2098
2100
2102
2106
2109
2111
2110
2107
2106
2103
2104
2102
2099
2093
2087
2080
2073
2066
2060
2054
2049
2046
2042
2039
2036
2034
2032
2032
2032
2030
2030
2028
2027
2029
2033
2037
2038
2037
2034
2032
2031
2032
2034
2035
2036
2036
2036
2036
2036
2036
2036
2036
2036
2036
2037
2036
2036
2036
2036
2035
2036
2035
2034
2033
2034
2036
2037
2038
2037
2035
2033
2033
2033
2034
2036
2035
2034
2034
2033
2033
2034
2035
2035
2036
2035
2035
2034
2034
2035
2035
2036
2036
2035
2034
2034
2035
2036
2038
2039
2038
2036
2035
2035
2035
2037
2037
2037
2036
2035
2035
2035
2036
2037
2037
2036
2036
2036
2037
2038
2038
2037
2038
2038
2038
2036
2036
2034
2035
2039
2042
2044
2043
2041
2039
2037
2039
2039
2039
2040
2040
2041
2042
2042
2042
2041
2040
2038
2038
2038
2038
2038
2037
2039
2039
2039
2036
2031
2028
2040
2068
2107
2131
2119
2064
1983
1906
1860
1857
1887
1930
1972
2003
2026
2043
2051
2055
2054
2053
2055
2056
2058
2059
2060
2061
2061
2061
2061
2060
2060
2061
2063
2065
2067
2068
2067
2066
2065
2064
2065
2066
2068
2069
2070
2071
2072
2074
2074
2075
2076
2077
2079
2081
2083
2085
2087
2090
2091
2093
2094
2095
2097
2102
2107
2112
2114
2113
2110
2108
2106
2107
2106
2106
2104
2102
2098
2093
2086
2079
2073
2066
2060
2054
2049
2045
2041
2038
2036
2034
2032
2030
2028
2028
2029
2031
2033
2034
2033
2031
2031
2030
2033
2033
2035
2035
2035
2035
2034
2035
2035
2035
2036
2036
2036
2036
2035
2035
2034
2035
2034
2033
2033
2031
2031
2032
2035
2038
2040
2038
2035
2031
2030
2030
2031
2032
2033
2033
2032
2032
2032
2031
2031
2031
2031
2032
2032
2032
2032
2031
2032
2031
2031
2032
2031
2031
2031
2032
2033
2034
2035
2034
2033
2032
2032
2032
2032
2033
2032
2032
2032
2032
2032
2033
2033
2033
2033
2033
2033
2033
2033
2032
2034
2034
2034
2034
2033
2033
2035
2037
2038
2038
2037
2036
2035
2035
2036
2037
2037
2037
2037
2037
2037
2037
2037
2038
2039
2040
2040
2040
2039
2039
2038
2038
2037
2036
2035
2034
2034
2037
2039
2040
2038
2032
2029
2040
2068
2106
2127
2113
2056
1974
1897
1854
1853
1885
1930
1972
2004
2027
2042
2051
2054
2052
2054
2056
2056
2057
2056
2057
2059
2062
2064
2062
2060
2059
2061
2065
2069
2070
2068
2065
2063
2062
2065
2067
2069
2070
2070
2071
2072
2072
2074
2075
2077
2079
2080
2082
2082
2083
2085
2087
2091
2095
2098
2100
2100
2101
2102
2104
2107
2109
2110
2111
2111
2111
2111
2111
2110
2109
2106
2101
2096
2090
2083
2076
2068
2064
2056
2051
2045
2039
2036
2036
2038
2040
2039
2036
2031
2028
2027
2030
2031
2033
2032
2033
2033
2034
2034
2034
2035
2035
2036
2036
2036
2037
2037
2036
2037
2037
2037
2035
2035
2035
2036
2038
2039
2038
2037
2034
2033
2032
2034
2034
2034
2033
2033
2033
2032
2032
2032
2032
2033
2033
2033
2033
2034
2033
2033
2033
2033
2033
2033
2032
2032
2033
2034
2035
2035
2035
2034
2033
2033
2033
2034
2035
2035
2034
2034
2034
2034
2034
2035
2035
2035
2035
2035
2035
2035
2035
2035
2035
2036
2036
2036
2036
2037
2038
2039
2039
2039
2038
2038
2038
2038
2039
2040
2040
2040
2040
2039
2038
2036
2036
2035
2035
2035
2035
2035
2036
2036
2035
2035
2034
2030
2030
2044
2075
2111
2130
2114
2058
1979
1908
1870
1872
1904
1948
1985
2012
2030
2042
2048
2050
2049
2050
2052
2052
2053
2054
2054
2055
2056
2058
2059
2059
2058
2058
2058
2059
2061
2062
2062
2062
2062
2062
2062
2064
2065
2065
2066
2067
2068
2070
2071
2072
2073
2074
2075
2077
2079
2080
2082
2083
2087
2090
2092
2094
2095
2096
2098
2101
2104
2105
2105
2104
2103
2103
2103
2102
2099
2095
2091
2085
2079
2072
2066
2060
2054
2048
2045
2042
2039
2037
2035
2034
2032
2031
2031
2029
2029
2029
2031
2033
2035
2035
2034
2033
2032
2032
2033
2034
2036
2036
2036
2037
2037
2037
2038
2038
2038
2038
2038
2038
2038
2038
2038
2039
2038
2038
2037
2036
2036
2038
2040
2041
2040
2038
2036
2035
2034
2035
2036
2036
2037
2037
2037
2036
2036
2036
2036
2036
2036
2036
2036
2037
2038
2038
2038
2038
2038
2037
2037
2038
2039
2041
2043
2044
2043
2042
2040
2037
2037
2036
2036
2036
2036
2035
2035
2035
2036
2036
2037
2037
2036
2033
2031
2038
2059
2094
2122
2121
2082
2011
1934
1881
1868
1890
1931
1972
2003
2024
2038
2048
2051
2051
2052
2053
2054
2055
2056
2057
2057
2058
2059
2059
2060
2061
2061
2061
2061
2061
2063
2064
2064
2064
2065
2067
2069
2070
2071
2071
2071
2071
2072
2074
2076
2077
2078
2079
2081
2083
2085
2088
2091
2093
2095
2097
2099
2101
2103
2105
2107
2109
2110
2109
2109
2109
2109
2109
2108
2104
2099
2092
2085
2078
2072
2065
2059
2052
2048
2044
2040
2038
2036
2034
2032
2032
2031
2030
2029
2029
2029
2031
2032
2033
2033
2032
2032
2033
2035
2037
2038
2037
2036
2035
2034
2036
2036
2036
2036
2036
2036
2036
2036
2036
2036
2036
2036
2035
2035
2035
2035
2035
2035
2035
2035
2034
2033
2033
2033
2034
2036
2036
2036
2035
2034
2034
2034
2033
2033
2033
2034
2035
2035
2035
2035
2035
2035
2035
2034
2034
2035
2035
2035
2036
2036
2036
2035
2033
2033
2034
2037
2039
2041
2040
2039
2037
2036
2037
2038
2039
2039
2040
2040
2041
2041
2041
2040
2038
2037
2035
2035
2035
2035
2036
2035
2037
2037
2036
2035
2032
2029
2031
2047
2077
2111
2128
2107
2048
1966
1893
1855
1858
1892
1938
1979
2009
2029
2043
2050
2052
2052
2053
2054
2056
2057
2057
2059
2059
2059
2059
2059
2060
2061
2064
2066
2066
2065
2064
2063
2062
2065
2066
2067
2068
2068
2069
2069
2070
2071
2073
2075
2076
2078
2079
2081
2082
2084
2087
2089
2091
2093
2094
2097
2101
2105
2109
2110
2110
2109
2108
2109
2110
2112
2111
2110
2109
2106
2102
2097
2091
2083
2074
2066
2060
2056
2054
2051
2047
2042
2036
2033
2030
2029
2029
2031
2033
2034
2035
