2077
2076
2074
2074
2072
2072
2070
2071
2072
2069
2070
2069
2068
2068
2065
2065
2062
2065
2067
2067
2067
2064
2061
2059
2058
2061
2060
2060
2058
2058
2060
2061
2062
2059
2054
2054
2055
2057
2055
2051
2048
2048
2050
2050
2050
2050
2051
2052
2051
2050
2049
2048
2048
2049
2049
2049
2048
2048
2048
2048
2048
2048
2047
2048
2047
2047
2047
2047
2048
2045
2047
2047
2047
2045
2042
2042
2041
2046
2050
2049
2049
2046
2041
2038
2037
2039
2041
2044
2043
2042
2042
2042
2043
2041
2038
2038
2037
2040
2041
2040
2042
2041
2039
2040
2039
2039
2040
2041
2043
2042
2043
2042
2041
2042
2040
2040
2040
2041
2043
2041
2042
2040
2039
2040
2040
2044
2042
2044
2045
2042
2040
2036
2033
2034
2036
2039
2041
2040
2039
2040
2041
2045
2044
2041
2036
2034
2036
2039
2041
2041
2040
2040
2039
2038
2036
2038
2039
2041
2042
2039
2038
2037
2036
2038
2037
2038
2039
2039
2039
2038
2039
2038
2038
2039
2038
2038
2038
2038
2039
2038
2039
2038
2036
2038
2037
2037
2037
2037
2038
2038
2039
2039
2037
2037
2035
2035
2035
2036
2037
2036
2037
2037
2036
2036
2033
2034
2034
2036
2037
2035
2035
2034
2032
2034
2033
2032
2033
2032
2034
2034
2034
2033
2032
2033
2034
2034
2031
2031
2032
2032
2034
2033
2030
2030
2029
2031
2031
2032
2032
2032
2031
2031
2029
2028
2026
2029
2029
2030
2030
2030
2029
2029
2027
2027
2026
2028
2028
2029
2030
2029
2028
2028
2027
2027
2025
2027
2028
2029
2030
2029
2029
2028
2027
2026
2025
2028
2028
2028
2027
2027
2029
2031
2031
2031
2026
2026
2026
2028
2029
2027
2028
2028
2027
2024
2020
2019
2021
2025
2026
2025
2024
2023
2023
2023
2023
2023
2023
2024
2025
2023
2024
2023
2022
2024
2022
2022
2022
2023
2025
2023
2024
2023
2022
2022
2021
2022
2020
2022
2024
2023
2026
2026
2025
2025
2020
2018
2017
2019
2020
2021
2022
2023
2023
2020
2017
2018
2019
2022
2023
2021
2021
2019
2019
2020
2020
2020
2020
2020
2022
2020
2021
2020
2019
2019
2018
2019
2019
2020
2021
2019
2020
2018
2018
2018
2018
2022
2021
2023
2022
2017
2017
2015
2015
2018
2019
2019
2017
2015
2014
2013
2014
2016
2016
2014
2012
2011
2013
2015
2016
2015
2015
2014
2015
2014
2011
2012
2013
2016
2016
2013
2012
2010
2011
2012
2012
2012
2013
2013
2012
2012
2013
2013
2012
2013
2013
2013
2013
2013
2014
2014
2015
2015
2013
2013
2011
2012
2012
2014
2016
2013
2013
2012
2011
2013
2011
2011
2011
2011
2011
2011
2013
2013
2013
2012
2010
2010
2009
2012
2013
2011
2011
2010
2010
2010
2009
2009
2010
2011
2011
2010
2010
2009
2008
2009
2008
2008
2008
2009
2010
2010
2011
2009
2008
2009
2008
2008
2009
2010
2012
2010
2012
2012
2011
2011
2009
2009
2009
2011
2012
2011
2011
2010
2009
2009
2007
2007
2007
2009
2010
2009
2010
2009
2008
2008
2006
2006
2006
2008
2009
2007
2009
2008
2007
2007
2005
2006
2004
2007
2009
2008
2012
2011
2012
2010
2007
2007
2005
2008
2009
2010
2010
2011
2009
2005
2003
2002
2006
2008
2010
2010
2010
2010
2008
2008
2007
2007
2007
2008
2010
2008
2009
2009
2008
2010
2009
2009
2009
2009
2011
2009
2010
2010
2009
2009
2008
2009
2007
2010
2011
2012
2014
2015
2016
2015
2011
2009
2004
2006
2009
2011
2014
2014
2013
2010
2008
2011
2011
2013
2012
2013
2012
2012
2012
2011
2010
2012
2012
2013
2014
2013
2013
2012
2012
2011
2010
2012
2013
2014
2014
2014
2014
2013
2011
2011
2010
2014
2018
2018
2016
2011
2009
2010
2012
2014
2014
2014
2012
2013
2015
2015
2018
2018
2016
2014
2010
2011
2013
2015
2017
2017
2015
2015
2015
2015
2013
2016
2017
2019
2017
2013
2013
2012
2013
2016
2016
2016
2016
2016
2016
2016
2017
2017
2016
2016
2015
2015
2015
2016
2019
2018
2018
2018
2016
2018
2017
2017
2018
2018
2020
2019
2019
2019
2017
2019
2017
2018
2019
2019
2020
2019
2020
2019
2018
2019
2017
2019
2020
2021
2022
2020
2020
2019
2019
2021
2020
2021
2021
2021
2022
2020
2021
2020
2020
2021
2019
2020
2019
2020
2019
2016
2017
2017
2017
2016
2010
2010
2009
2012
2013
2009
2008
2007
2005
2005
2004
2004
2003
2002
2003
2002
2002
2000
1998
1999
1998
1999
1998
1998
1999
1998
1999
1999
1999
2000
1998
1999
2000
2001
2003
2002
2004
2004
2004
2006
2004
2005
2005
2007
2007
2006
2009
2008
2011
2013
2011
2013
2010
2010
2010
2008
2010
2011
2012
2010
2007
2006
2007
2008
2008
2007
2007
2007
2007
2008
2006
2006
2006
2006
2007
2005
2006
2005
2004
2005
2003
2003
2003
2004
2006
2004
2004
2004
2002
2002
2001
2003
2000
2003
2006
2005
2007
2004
2004
2004
2002
2005
2005
2007
2007
2006
2005
2005
2005
2005
2004
2006
2006
2008
2007
2007
2007
2007
2007
2007
2006
2009
2009
2010
2010
2009
2013
2017
2018
2017
2012
2010
2010
2012
2016
2018
2020
2019
2019
2018
2018
2022
2021
2023
2022
2018
2020
2019
2018
2016
2012
2011
2013
2017
2018
2016
2015
2014
2013
2014
2013
2013
2012
2012
2013
2013
2012
2011
2009
2008
2007
2009
2009
2010
2008
2004
2004
2003
2004
2005
2003
2002
2003
2003
2003
2002
2003
2003
2003
2002
2000
1999
1997
1999
2002
2002
2004
2005
2004
2005
2005
2007
2010
2012
2016
2016
2016
2015
2012
2012
2011
2011
2010
2009
2010
2009
2010
2010
2009
2011
2009
2010
2011
2012
2014
2013
2015
2015
2016
2018
2016
2017
2018
2019
2021
2020
2021
2021
2020
2021
2018
2019
2018
2018
2020
2018
2019
2019
2019
2018
2015
2018
2019
2021
2020
2016
2016
2015
2016
2019
2018
2018
2018
2018
2020
2022
2022
2021
2018
2019
2019
2020
2020
2021
2021
2019
2021
2021
2021
2021
2018
2018
2017
2018
2020
2018
2018
2017
2015
2015
2013
2014
2011
2012
2012
2012
2016
2015
2016
2013
2009
2008
2006
2008
2008
2009
2009
2010
2008
2004
2000
1999
2003
2007
2010
2009
2006
2004
2002
2003
2004
2004
2005
2007
2008
2008
2010
2010
2009
2011
2009
2010
2010
2011
2013
2011
2013
2013
2012
2013
2012
2013
2011
2015
2018
2018
2018
2014
2012
2011
2011
2014
2013
2015
2016
2015
2014
2013
2013
2012
2011
2013
2013
2015
2014
2014
2014
2014
2014
2014
2013
2015
2015
2016
2015
2014
2017
2021
2022
2022
2017
2015
2016
2018
2021
2023
2024
2024
2026
2028
2031
2035
2035
2036
2038
2037
2040
2042
2045
2048
2049
2052
2053
2057
2059
2061
2063
2065
2066
2067
2068
2072
2074
2077
2079
2080
2081
2080
2080
2080
2080
2082
2083
2083
2082
2082
2081
2082
2082
2082
2082
2083
2084
2085
2086
2086
2086
2085
2083
2084
2084
2088
2088
2086
2080
2071
2062
2058
2058
2063
2067
2069
2066
2061
2055
2048
2045
2043
2040
2039
2037
2038
2037
2038
2038
2037
2036
2035
2033
2032
2030
2031
2031
2032
2032
2032
2031
2031
2030
2029
2028
2030
2029
2030
2030
2029
2028
2027
2026
2024
2021
2023
2022
2023
2023
2022
2023
2020
2020
2020
2018
2021
2026
2022
2012
2007
1985
1981
2020
2121
2288
2487
2664
2772
2798
2769
2733
2708
2698
2715
2707
2696
2683
2673
2664
2655
2644
2634
2624
2614
2605
2601
2594
2589
2585
2579
2576
2572
2568
2565
2561
2562
2561
2561
2560
2558
2558
2559
2558
2555
2550
2550
2551
2551
2546
2540
2536
2534
2535
2536
2534
2530
2527
2525
2525
2524
2522
2520
2516
2514
2512
2510
2509
2508
2508
2504
2505
2503
2502
2502
2498
2498
2498
2500
2505
2506
2510
2512
2514
2515
2514
2514
2510
2510
2509
2505
2506
2504
2502
2498
2490
2485
2480
2478
2478
2476
2474
2474
2472
2469
2465
2463
2460
2459
2457
2454
2453
2450
2447
2445
2441
2440
2437
2437
2435
2430
2431
2429
2428
2425
2418
2415
2412
2411
2410
2405
2401
2395
2393
2390
2388
2388
2385
2382
2379
2376
2376
2373
2370
2367
2362
2360
2359
2362
2365
2365
2363
2358
2354
2352
2350
2351
2349
2349
2347
2345
2343
2340
2339
2337
2335
2335
2332
2329
2312
2322
2342
2351
2344
2290
2186
2056
1933
1842
1794
1783
1797
1823
1831
1846
1856
1858
1867
1879
1890
1894
1891
1887
1883
1886
1885
1887
1890
1897
1915
1945
1981
2007
2018
2019
2013
2017
2032
2059
2082
2093
2095
2087
2078
2072
2071
2072
2070
2070
2068
2065
2064
2062
2059
2057
2053
2053
2051
2050
2048
2046
2043
2040
2036
2033
2029
2029
2026
2025
2023
2021
2018
2015
2012
2010
2006
2007
2006
2006
2005
2003
2001
2001
1999
1997
1994
1993
1991
1991
1989
1986
1982
1978
1974
1969
1963
1962
1958
1955
1951
1946
1941
1936
1932
1927
1922
1921
1917
1915
1911
1908
1906
1905
1904
1904
1904
1906
1907
1910
1911
1913
1918
1922
1925
1924
1921
1922
1925
1929
1929
1928
1927
1927
1928
1929
1931
1931
1933
1933
1934
1933
1932
1931
1928
1928
1927
1926
1926
1925
1926
1922
1924
1924
1924
1927
1924
1927
1928
1931
1938
1939
1944
1948
1953
1959
1964
1971
1974
1981
1987
1991
1999
2004
2010
2014
2014
2016
2017
2022
2029
2035
2041
2047
2050
2053
2057
2063
2067
2073
2076
2081
2084
2087
2089
2089
2091
2094
2095
2098
2100
2101
2105
2106
2107
2109
2109
2113
2114
2114
2113
2112
2112
2112
2111
2112
2113
2115
2118
2117
2114
2110
2108
2110
2111
2113
2112
2110
2111
2112
2112
2110
2113
2114
2116
2116
2113
2114
2114
2116
2119
2118
2119
2120
2119
2121
2121
2122
2123
2123
2126
2127
2127
2127
2126
2128
2128
2130
2131
2132
2133
2133
2136
2137
2138
2140
2139
2140
2142
2143
2147
2147
2148
2149
2148
2150
2151
2152
2153
2153
2155
2155
2156
2157
2156
2158
2157
2157
2158
2159
2161
2160
2161
2161
2161
2162
2160
2161
2161
2160
2162
2160
2160
2160
2158
2158
2156
2155
2154
2155
2157
2155
2154
2152
2150
2150
2147
2145
2137
2128
2118
2107
2097
2091
2089
2092
2094
2100
2102
2102
2102
2101
2101
2101
2099
2099
2097
2098
2098
2098
2099
2099
2098
2097
2095
2095
2093
2095
2095
2095
2096
2095
2093
2092
2091
2090
2089
2091
2091
2091
2092
2092
2092
2092
2090
2090
2088
2089
2088
2087
2087
2091
2103
2118
2135
2147
2152
2154
2151
2149
2146
2143
2142
2142
2139
2135
2130
2127
2128
2130
2130
2130
2129
2129
2128
2129
2129
2129
2130
2130
2131
2129
2129
2128
2125
2125
2121
2119
2117
2116
2118
2116
2116
2115
2115
2116
2117
2120
2119
2122
2123
2121
2125
2126
2126
2125
2119
2116
2113
2114
2115
2115
2115
2115
2112
2106
2099
2094
2089
2089
2090
2089
2091
2090
2089
2089
2087
2088
2087
2087
2088
2085
2085
2085
2085
2086
2085
2085
2085
2085
2085
2083
2084
2081
2081
2081
2079
2081
2080
2082
2080
2076
2076
2074
2076
2077
2075
2073
2069
2068
2066
2067
2071
2074
2073
2070
2066
2063
2066
2070
2075
2075
2074
2074
2073
2072
2072
2074
2074
2075
2072
2067
2065
2063
2062
2061
2058
2055
2052
2049
2048
2046
2045
2040
2034
2030
2029
2033
2039
2049
2064
2079
2099
2116
2128
2133
2131
2126
2123
2127
2138
2146
2151
2149
2147
2147
2151
2158
2165
2167
2162
2151
2141
2132
2129
2127
2126
2121
2112
2098
2082
2067
2063
2064
2067
2073
2073
2072
2070
2070
2072
2072
2072
2071
2070
2072
2074
2080
2083
2088
2085
2079
2072
2067
2068
2073
2074
2071
2061
2048
2035
2027
2025
2028
2029
2032
2034
2036
2027
2020
2021
2038
2077
2118
2132
2100
2039
1989
1984
2034
2121
2216
2271
2276
2245
2191
2128
2075
2035
2003
1983
1970
1969
1969
1971
1979
1980
1976
1975
1975
1974
1973
1973
1971
1972
1972
1971
1971
1967
1968
1968
1964
1960
1954
1951
1950
1952
1954
1952
1948
1944
1945
1951
1962
1973
1982
1985
1986
1976
1961
1945
1934
1937
1952
1973
1990
1996
1997
1992
1992
1994
1999
2002
2001
2000
1998
1995
1996
1998
1998
1994
1993
2000
2016
2042
2067
2084
2094
2091
2089
2086
2085
2089
2090
2090
2087
2087
2087
2087
2088
2088
2089
2090
2091
2092
2091
2090
2092
2093
2097
2099
2101
2103
2105
2107
2108
2109
2113
2115
2117
2119
2119
2120
2120
2120
2119
2118
2124
2128
2130
2128
2122
2118
2117
2117
2119
2118
2117
2116
2116
2117
2116
2116
2114
2109
2106
2102
2101
2101
2101
2101
2099
2097
2095
2093
2093
2089
2089
2088
2087
2088
2085
2085
2085
2085
2087
2087
2090
2093
2098
2105
2110
2118
2125
2133
2142
2148
2157
2165
2172
2179
2182
2188
2191
2195
2199
2201
2206
2210
2214
2219
2220
2220
2225
2232
2237
2231
2215
2187
2158
2138
2129
2133
2140
2146
2151
2148
2153
2158
2164
2170
2173
2178
2181
2185
2192
2200
2214
2228
2240
2249
2252
2255
2255
2256
2257
2254
2252
2249
2246
2243
2237
2236
2231
2227
2222
2213
2209
2204
2202
2201
2197
2193
2189
2183
2180
2176
2173
2169
2165
2162
2156
2152
2146
2140
2135
2127
2121
2115
2110
2106
2100
2097
2094
2090
2089
2084
2083
2081
2081
2080
2076
2074
2071
2070
2071
2070
2071
2070
2071
2070
2067
2068
2066
2066
2065
2062
2061
2056
2058
2058
2056
2054
2049
2046
2045
2046
2048
2048
2048
2046
2044
2043
2043
2042
2041
2039
2039
2040
2040
2041
2038
2036
2033
2029
2026
2021
2021
2019
2019
2018
2015
2014
2012
2010
2007
2003
2002
1999
1999
1997
1994
1993
1991
1991
1990
1988
1990
1989
1990
1990
1988
1987
1984
1980
1975
1969
1966
1960
1955
1948
1940
1931
1922
1912
1899
1885
1874
1858
1844
1826
1802
1778
1756
1741
1736
1737
1742
1738
1728
1710
1702
1679
1644
1610
1589
1607
1673
1761
1833
1855
1827
1774
1719
1689
1655
1621
1583
1558
1576
1632
1716
1814
1893
1942
1964
1970
1975
2003
2024
2048
2061
2036
2002
1977
1977
2020
2080
2136
2168
2171
2155
2136
2124
2119
2124
2121
2123
2126
2134
2145
2158
2176
2198
2223
2253
2286
2325
2363
2399
2427
2483
2541
2595
2614
2577
2479
2353
2236
2158
2125
2128
2154
2189
2209
2247
2270
2294
2310
2330
2348
2364
2381
2395
2411
2426
2440
2457
2472
2489
2506
2525
2545
2564
2582
2598
2612
2627
2638
2648
2653
2656
2660
2667
2675
2684
2692
2702
2709
2716
2721
2724
2727
2731
2735
2739
2744
2751
2756
2761
2765
2768
2773
2779
2785
2790
2791
2792
2787
2781
2771
2759
2746
2734
2722
2712
2706
2709
2708
2702
2738
2778
2800
2750
2625
2443
2259
2125
2041
1979
1907
1830
1771
1727
1749
1780
1803
1804
1804
1805
1808
1810
1815
1818
1820
1818
1813
1814
1818
1822
1813
1799
1791
1802
1836
1887
1934
1959
1959
1938
1910
1884
1867
1858
1845
1838
1833
1833
1835
1844
1858
1875
1901
1925
1945
1957
1957
1954
1944
1934
1923
1908
1900
1892
1886
1882
1877
1874
1872
1872
1874
1875
1877
1877
1878
1880
1880
1883
1885
1887
1890
1890
1893
1894
1895
1897
1897
1898
1898
1900
1902
1904
1910
1915
1921
1924
1923
1923
1921
1921
1920
1919
1921
1920
1922
1925
1925
1925
1923
1920
1919
1917
1920
1921
1924
1926
1928
1929
1929
1930
1929
1927
1928
1929
1931
1935
1941
1949
1956
1962
1964
1962
1961
1957
1957
1957
1957
1960
1960
1961
1961
1960
1961
1960
1961
1960
1959
1960
1960
1962
1962
1966
1971
1978
1986
1990
1992
1991
1989
1986
1984
1989
2003
2021
2041
2057
2069
2078
2087
2097
2109
2116
2121
2124
2123
2124
2124
2125
2124
2121
2120
2117
2114
2111
2107
2105
2101
2101
2100
2099
2098
2095
2093
2090
2088
2086
2083
2084
2081
2080
2079
2080
2086
2093
2100
2103
2101
2099
2093
2089
2086
2084
2082
2080
2078
2076
2073
2075
2074
2076
2077
2076
2075
2072
2075
2079
2088
2101
2110
2117
2118
2115
2113
2111
2109
2107
2104
2103
2103
2106
2109
2111
2113
2112
2110
2105
2098
2095
2092
2089
2086
2081
2077
2072
2068
2063
2058
2056
2052
2050
2048
2044
2041
2038
2034
2031
2027
2027
2025
2024
2021
2018
2019
2018
2018
2013
2007
2005
2002
2002
2001
2000
2000
1999
1998
1993
1989
1988
1991
1995
1996
1994
1991
1989
1987
1988
1988
1987
1987
1986
1986
1985
1986
1984
1981
1983
1981
1981
1980
1979
1980
1977
1977
1975
1972
1971
1968
1968
1966
1967
1967
1964
1963
1962
1961
1961
1959
1959
1958
1959
1960
1959
1960
1959
1959
1959
1958
1958
1956
1957
1957
1957
1959
1959
1960
1960
1959
1960
1961
1963
1963
1963
1966
1968
1969
1970
1968
1968
1969
1971
1977
1981
1987
1992
1997
2004
2010
2018
2021
2025
2028
2030
2037
2043
2048
2053
2056
2062
2071
2079
2085
2090
2097
2108
2124
2142
2157
2170
2174
2174
2172
2172
2174
2185
2209
2239
2267
2282
2278
2258
2230
2205
2188
2183
2184
2191
2196
2198
2196
2194
2191
2190
2188
2187
2184
2182
2179
2179
2178
2178
2176
2174
2171
2170
2167
2165
2162
2163
2162
2161
2159
2158
2157
2157
2158
2160
2162
2166
2167
2170
2173
2174
2177
2177
2178
2177
2176
2177
2176
2177
2177
2177
2178
2181
2182
2184
2185
2187
2187
2189
2191
2193
2195
2198
2201
2207
2213
2225
2234
2245
2253
2260
2265
2270
2274
2277
2279
2282
2282
2281
2279
2278
2276
2276
2275
2274
2273
2277
2280
2285
2289
2289
2287
2285
2283
2281
2279
2281
2279
2276
2265
2244
2216
2182
2149
2123
2103
2090
2077
2064
2053
2046
2041
2038
2034
2029
2023
2019
2017
2019
2029
2049
2084
2121
2146
2147
2122
2085
2048
2021
2008
2007
2010
2013
2012
2009
2006
2003
2000
1997
1994
1993
1993
1996
2002
2012
2019
2021
2013
1998
1981
1964
1956
1951
1947
1944
1935
1930
1928
1929
1933
1933
1934
1934
1934
1936
1934
1936
1934
1939
1943
1943
1944
1942
1941
1941
1942
1946
1946
1948
1950
1950
1950
1951
1952
1951
1951
1953
1952
1954
1954
1955
1956
1957
1958
1957
1957
1960
1960
1961
1962
1963
1963
1964
1963
1962
1962
1965
1966
1968
1969
1969
1968
1968
1967
1968
1968
1972
1975
1974
1972
1968
1967
1969
1971
1974
1974
1974
1974
1976
1977
1978
1981
1983
1983
1984
1981
1979
1978
1978
1981
1983
1984
1986
1985
1986
1984
1986
1986
1987
1988
1987
1988
1988
1987
1989
1988
1989
1988
1988
1990
1989
1991
1991
1990
1991
1989
1989
1990
1991
1994
1994
1994
1994
1992
1993
1994
1995
1995
1995
1997
1997
1997
1997
1996
1998
1997
1997
1998
1998
2000
1999
2000
1997
1998
2001
2000
2002
2000
2000
2000
2000
2002
2002
2001
2001
2001
2002
2002
2003
2004
2004
2004
2004
2003
2003
2002
2004
2004
2005
2006
2006
2005
2005
2003
2003
2002
2004
2005
2006
2006
2006
2005
2005
2003
2003
2002
2004
2004
2005
2005
2005
2005
2004
2002
2002
2001
2003
2004
2004
2004
2003
2003
2002
2001
2001
2001
2003
2003
2003
2003
2003
2002
2002
2001
2000
2000
2002
2002
2003
2002
2002
2005
2006
2007
2005
2001
2000
2002
2003
2005
2003
1999
1998
1996
1997
1999
2000
2002
2002
2002
2002
2002
2001
2000
2001
2000
2000
2001
2002
2002
2000
2002
2002
2001
2002
2000
2000
1999
2000
2002
2001
2001
2001
1999
2000
1999
2000
1996
1999
2001
2001
2001
1999
1997
1996
1995
1998
1997
1998
1999
1999
1998
1999
1998
1997
1996
1998
1997
1999
1999
1998
1998
1997
1996
1995
1995
1997
1996
1997
1997
1996
1996
1995
1993
1992
1991
1993
1993
1994
1995
1995
1994
1994
1993
1993
1993
1997
2000
2001
2000
1996
1996
1997
1997
1996
1992
1990
1992
1994
1996
1996
1995
1994
1996
1998
2001
2000
1995
1992
1992
1992
1994
1995
1994
1994
1994
1995
1996
1997
1997
1997
1996
1996
1995
1994
1994
1995
1995
1996
1997
1997
1996
1996
1994
1994
1993
1995
1995
1996
1997
1997
1997
1997
1995
1994
1993
1995
1996
1996
1996
1996
1995
1995
1993
1994
1994
1996
1996
1996
1997
1995
1995
1993
1992
1993
1992
1995
1995
1995
1994
1993
1992
1993
1992
1992
1992
1992
1993
1994
1994
1994
1994
1993
1992
1992
1990
1992
1992
1993
1994
1994
1993
1992
1991
1990
1991
1998
1994
1983
1971
1973
2007
2075
2166
2251
2305
2324
2315
2296
2281
2274
2268
2261
2253
2247
2243
2243
2241
2237
2230
2221
2213
2203
2196
2192
2191
2192
2190
2189
2186
2183
2180
2178
2175
2173
2170
2169
2168
2167
2164
2162
2163
2163
2161
2158
2151
2151
2151
2150
2147
2141
2137
2136
2136
2138
2137
2134
2133
2131
2130
2130
2129
2127
2123
2122
2121
2120
2118
2117
2116
2113
2114
2112
2110
2110
2106
2105
2104
2104
2105
2102
2101
2099
2096
2096
2095
2095
2092
2093
2094
2093
2093
2090
2088
2087
2085
2087
2086
2087
2086
2085
2084
2083
2081
2080
2078
2079
2079
2079
2079
2078
2078
2077
2076
2074
2073
2074
2073
2074
2074
2074
2073
2072
2069
2067
2066
2067
2067
2068
2068
2067
2065
2064
2061
2061
2061
2064
2067
2065
2062
2058
2056
2057
2057
2058
2057
2056
2054
2055
2055
2055
2057
2057
2056
2056
2052
2049
2048
2047
2049
2049
2049
2050
2049
2049
2048
2048
2048
2049
2050
2048
2049
2048
2048
2048
2048
2048
2048
2047
2048
2048
2048
2047
2046
2046
2044
2044
2044
2044
2048
2048
2043
2032
2025
2037
2070
2126
2183
2222
2237
2229
2216
2202
2197
2203
2202
2200
2197
2191
2185
2177
2173
2168
2168
2170
2169
2169
2164
2162
2161
2159
2159
2157
2155
2154
2153
2152
2152
2151
2151
2150
2148
2147
2144
2142
2138
2139
2136
2136
2136
2135
2134
2132
2130
2128
2125
2126
2126
2126
2125
2123
2120
2119
2118
2117
2115
2116
2114
2115
2115
2113
2112
2110
2108
2107
2104
2106
2105
2106
2105
2104
2104
2101
2100
2099
2097
2100
2098
2098
2097
2095
2093
2093
2093
2092
2091
2091
2091
2091
2089
2088
2090
2091
2091
2088
2082
2083
2084
2086
2083
2079
2076
2075
2077
2080
2079
2077
2077
2077
2077
2077
2077
2076
2074
2074
2072
2072
2072
2072
2072
2070
2071
2070
2069
2069
2066
2066
2065
2065
2067
2064
2064
2062
2062
2062
2061
2061
2058
2061
2062
2061
2062
2059
2057
2056
2055
2058
2057
2059
2058
2056
2055
2054
2053
2052
2051
2052
2050
2052
2051
2051
2050
2049
2048
2047
2046
2048
2048
2049
2049
2048
2047
2046
2045
2043
2042
2043
2043
2044
2044
2043
2042
2041
2041
2040
2038
2042
2044
2047
2045
2040
2040
2040
2040
2038
2034
2033
2034
2037
2038
2038
2043
2042
2031
2016
2013
2038
2099
2194
2290
2360
2393
2393
2383
2373
2375
2384
2387
2391
2398
2401
2401
2396
2388
2380
2375
2376
2380
2388
2394
2398
2397
2390
2381
2369
2358
2352
2346
2339
2328
2315
2300
2287
2278
2273
2271
2269
2266
2264
2264
2265
2267
2270
2269
2268
2259
2250
2241
2235
2233
2233
2234
2231
2226
2222
2221
2225
2228
2234
2234
2233
2231
2227
2225
2221
2218
2217
2217
2218
2219
2216
2210
2203
2196
2193
2192
2194
2194
2192
2191
2189
2187
2186
2184
2182
2179
2180
2179
2179
2178
2176
2175
2173
2170
2167
2168
2171
2169
2165
2154
2138
2124
2116
2115
2117
2118
2121
2120
2118
2118
2117
2116
2112
2111
2110
2108
2110
2109
2109
2107
2105
2103
2102
2100
2099
2097
2097
2096
2096
2095
2093
2095
2095
2095
2092
2086
2087
2088
2089
2088
2083
2079
2078
2079
2081
2081
2079
2078
2078
2078
2078
2078
2076
2074
2074
2073
2073
2073
2073
2074
2071
2072
2072
2071
2072
2069
2069
2068
2069
2071
2069
2069
2068
2067
2068
2066
2067
2065
2068
2069
2068
2068
2064
2062
2061
2060
2062
2061
2062
2062
2060
2059
2058
2057
2055
2053
2054
2053
2055
2054
2053
2052
2051
2051
2049
2048
2050
2049
2050
2050
2049
2049
2048
2047
2046
2044
2047
2047
2048
2048
2048
2048
2054
2052
2045
2039
2046
2065
2095
2126
2144
2149
2146
2143
2147
2152
2161
2163
2161
2161
2166
2176
2187
2194
2199
2195
2190
2182
2174
2169
2162
2156
2151
2146
2141
2136
2134
2131
2129
2128
2124
2123
2121
2119
2119
2117
2116
2115
2117
2122
2128
2138
2148
2158
2167
2170
2174
2175
2176
2176
2174
2174
2173
2172
2172
2168
2168
2166
2165
2164
2161
2161
2158
2156
2155
2151
2150
2149
2149
2148
2144
2146
2144
2144
2143
2138
2137
2135
2137
2138
2134
2134
2132
2131
2132
2131
2131
2130
2129
2130
2129
2128
2127
2126
2127
2129
2131
2133
2135
2133
2139
2149
2155
2151
2131
2093
2053
2023
2010
2013
2020
2029
2034
2031
2035
2036
2039
2040
2042
2044
2043
2045
2046
2047
2048
2048
2049
2050
2052
2054
2054
2056
2056
2057
2059
2058
2059
2060
2061
2063
2063
2065
2065
2066
2068
2067
2068
2067
2070
2071
2072
2076
2077
2078
2078
2074
2075
2073
2076
2078
2078
2079
2079
2078
2075
2072
2072
2071
2079
2088
2093
2086
2061
2026
1984
1951
1934
1931
1933
1938
1940
1939
1943
1946
1947
1951
1956
1963
1961
1949
1920
1888
1862
1851
1854
1861
1869
1874
1873
1877
1878
1881
1883
1885
1889
1889
1892
1894
1897
1901
1902
1906
1908
1910
1913
1913
1915
1917
1920
1923
1924
1927
1929
1931
1934
1934
1937
1939
1943
1945
1945
1949
1949
1954
1959
1962
1964
1963
1964
1966
1967
1972
1974
1977
1979
1982
1989
1992
1997
1997
1994
1997
1999
2003
2004
2002
2003
2006
2012
2012
2018
2023
2029
2033
2029
2012
1985
1954
1926
1911
1905
1905
1910
1912
1923
1935
1950
1964
1976
1984
1983
1979
1971
1965
1964
1968
1980
1989
1986
1968
1951
1940
1935
1927
1900
1849
1796
1754
1732
1735
1749
1771
1796
1826
1858
1884
1898
1896
1893
1899
1920
1957
1998
2036
2061
2068
2063
2058
2048
2049
2059
2069
2068
2055
2019
1967
1919
1884
1875
1877
1882
1881
1875
1875
1881
1888
1890
1885
1877
1874
1886
1904
1922
1939
1949
1947
1941
1928
1907
1889
1882
1885
1897
1912
1924
1935
1945
1961
1980
1995
2005
2015
2022
2035
2049
2063
2073
2079
2076
2071
2067
2067
2074
2086
2095
2099
2094
2081
2063
2046
2029
2015
2001
1990
1979
1966
1952
1934
1915
1896
1882
1876
1874
1877
1882
1885
1883
1877
1868
1861
1860
1865
1871
1871
1863
1853
1844
1840
1842
1844
1846
1848
1851
1857
1862
1869
1877
1884
1889
1892
1892
1890
1888
1889
1893
1900
1907
1915
1921
1926
1930
1934
1938
1943
1949
1953
1957
1960
1965
1969
1970
1966
1957
1945
1932
1922
1916
1914
1912
1913
1913
1913
1915
1924
1935
1950
1965
1972
1970
1961
1950
1944
1939
1940
1943
1943
1944
1948
1953
1963
1978
1993
2006
2013
2018
2023
2033
2048
2066
2081
2090
2093
2092
2091
2091
2093
2096
2097
2097
2095
2092
2092
2094
2099
2104
2108
2114
2120
2127
2131
2131
2129
2126
2124
2121
2116
2107
2096
2086
2083
2090
2103
2116
2124
2128
2129
2131
2134
2138
2140
2137
2132
2126
2122
2121
2120
2122
2121
2118
2113
2100
2087
2074
2063
2060
2058
2061
2064
2066
2067
2066
2064
2060
2059
2057
2060
2065
2067
2069
2065
2057
2048
2042
2037
2034
2035
2038
2044
2050
2057
2062
2066
2069
2072
2076
2074
2070
2063
2054
2052
2051
2048
2041
2028
2015
2008
2010
2015
2022
2022
2021
2024
2030
2045
2060
2075
2089
2103
2116
2124
2126
2120
2114
2110
2105
2095
2074
2043
2011
1993
2002
2042
2110
2184
2237
2249
2220
2165
2111
2080
2085
2112
2141
2152
2143
2113
2079
2050
2035
2035
2050
2077
2101
2115
2117
2106
2088
2068
2053
2042
2037
2038
2046
2059
2075
2091
2101
2105
2106
2107
2110
2114
2112
2105
2093
2076
2054
2029
2000
1971
1943
1923
1916
1922
1943
1975
2010
2040
2058
2061
2052
2040
2033
2043
2066
2098
2122
2124
2103
2069
2038
2019
2013
2007
1994
1970
1942
1919
1905
1897
1890
1884
1878
1874
1873
1873
1872
1871
1870
1870
1871
1874
1877
1882
1889
1896
1903
1906
1905
1899
1892
1888
1886
1889
1892
1893
1893
1892
1891
1891
1891
1893
1897
1903
1910
1919
1927
1936
1942
1941
1938
1935
1937
1950
1969
1990
2009
2020
2024
2020
2010
1995
1979
1964
1955
1951
1952
1953
1953
1951
1950
1950
1950
1952
1953
1954
1954
1953
1952
1951
1951
1952
1953
1953
1953
1953
1953
1954
1956
1958
1959
1960
1961
1960
1959
1959
1958
1958
1959
1960
1961
1962
1965
1969
1972
1975
1976
1978
1980
1984
1988
1993
1997
1999
1999
1998
1997
1995
1994
1993
1995
2001
2013
2030
2047
2060
2069
2075
2080
2082
2081
2075
2059
2039
2020
2010
2010
2016
2023
2030
2032
2036
2043
2048
2048
2044
2035
2023
2013
2007
2008
2017
2029
2048
2062
2074
2082
2089
2097
2108
2118
2124
2124
2119
2114
2110
2104
2096
2087
2081
2082
2089
2097
2097
2085
2061
2037
2019
2017
2029
2041
2048
2048
2045
2043
2041
2043
2043
2043
2041
2039
2039
2038
2038
2035
2033
2029
2025
2022
2017
2014
2013
2015
2018
2020
2020
2021
2020
2019
2020
2020
2019
2018
2017
2016
2014
2016
2015
2017
2017
2016
2016
2016
2015
2015
2018
2018
2013
2008
2006
2021
2053
2097
2140
2165
2175
2177
2176
2181
2193
2208
2219
2228
2229
2219
2199
2178
2161
2148
2142
2140
2142
2143
2144
2147
2143
2136
2131
2129
2127
2126
2119
2099
2076
2056
2049
2052
2060
2064
2062
2054
2049
2044
2038
2033
2031
2032
2038
2046
2049
2046
2039
2029
2021
2017
2020
2027
2038
2055
2076
2094
2105
2105
2093
2071
2048
2029
2019
2018
2022
2029
2037
2044
2055
2071
2088
2099
2101
2093
2073
2049
2029
2016
2017
2031
2052
2076
2094
2103
2104
2103
2102
2101
2100
2095
2089
2086
2087
2091
2096
2097
2097
2094
2092
2091
2091
2093
2101
2114
2125
2132
2133
2128
2121
2117
2116
2117
2118
2116
2110
2101
2090
2083
2083
2089
2099
2107
2108
2104
2095
2084
2075
2068
2063
2059
2056
2054
2053
2052
2052
2052
2052
2052
2052
2051
2050
2050
2050
2051
2053
2057
2060
2062
2063
2063
2063
2063
2064
2065
2067
2070
2075
2082
2090
2095
2098
2099
2099
2100
2102
2105
2108
2108
2109
2110
2112
2114
2115
2115
2114
2113
2113
2117
2123
2132
2139
2144
2146
2147
2145
2144
2142
2138
2136
2134
2134
2134
2134
2134
2135
2137
2140
2143
2144
2145
2146
2149
2152
2154
2155
2153
2151
2149
2148
2148
2147
2144
2139
2131
2122
2114
2108
2106
2107
2111
2113
2113
2110
2106
2102
2097
2093
2090
2087
2084
2083
2083
2082
2082
2081
2079
2079
2080
2083
2087
2090
2091
2088
2084
2078
2076
2081
2097
2134
2195
2267
2323
2340
2306
2235
2158
2108
2094
2109
2128
2140
2137
2125
2114
2105
2095
2085
2077
2071
2068
2067
2067
2065
2064
2062
2060
2059
2059
2058
2058
2057
2057
2058
2060
2063
2067
2071
2074
2076
2076
2075
2074
2075
2081
2092
2106
2122
2135
2144
2148
2150
2152
2155
2159
2163
2166
2168
2171
2174
2177
2181
2185
2189
2194
2198
2201
2202
2200
2195
2186
2173
2160
2146
2134
2122
2109
2096
2083
2071
2063
2059
2059
2061
2062
2062
2063
2064
2066
2065
2063
2061
2063
2062
2056
2038
2011
1984
1966
1969
1988
2012
2032
2041
2044
2043
2046
2050
2060
2069
2080
2090
2096
2100
2100
2099
2099
2101
2103
2105
2104
2100
2095
2091
2090
2089
2086
2077
2061
2041
2022
2008
2001
2000
1991
1986
1983
1984
1988
1988
1980
1959
1939
1921
1915
1914
1912
1910
1898
1890
1885
1880
1875
1872
1870
1862
1861
1865
1868
1864
1846
1811
1776
1749
1741
1747
1758
1768
1772
1768
1767
1768
1772
1775
1778
1781
1782
1784
1786
1787
1788
1789
1793
1794
1798
1801
1802
1805
1806
1808
1809
1808
1812
1814
1818
1820
1820
1822
1821
1821
1822
1822
1827
1829
1831
1831
1830
1830
1832
1835
1837
1839
1842
1844
1848
1850
1851
1853
1854
1855
1856
1855
1859
1861
1865
1867
1868
1868
1869
1869
1870
1870
1874
1876
1879
1881
1881
1882
1883
1884
1885
1884
1887
1887
1889
1888
1888
1891
1893
1895
1894
1890
1890
1889
1892
1894
1896
1899
1895
1890
1886
1891
1908
1934
1959
1972
1975
1976
1979
1983
1990
1993
1990
1987
1985
1988
1988
1989
1988
1987
1989
1987
1987
1987
1988
1989
1987
1988
1988
1988
1988
1986
1985
1985
1990
1991
1990
1985
1974
1964
1955
1952
1956
1958
1966
1970
1974
1979
1985
1990
1995
2001
2005
2006
2003
1998
1992
1990
1992
1999
2016
2048
2102
2175
2248
2294
2297
2257
2193
2136
2107
2110
2134
2159
2177
2183
2181
2176
2167
2164
2167
2177
2197
2220
2241
2253
2251
2237
2213
2188
2170
2159
2153
2155
2156
2153
2149
2144
2139
2134
2133
2134
2134
2131
2125
2122
2125
2132
2141
2142
2132
2111
2085
2059
2041
2029
2022
2022
2023
2025
2023
2011
1993
1972
1953
1945
1952
1976
2009
2042
2065
2077
2080
2079
2077
2077
2080
2083
2088
2093
2100
2102
2100
2096
2087
2082
2077
2075
2076
2074
2075
2073
2072
2067
2064
2064
2070
2087
2106
2127
2142
2148
2151
2152
2154
2158
2161
2162
2162
2159
2158
2154
2151
2148
2147
2146
2146
2152
2157
2162
2161
2158
2157
2153
2152
2150
2144
2139
2132
2132
2134
2138
2144
2145
2145
2142
2139
2135
2130
2125
2123
2121
2119
2118
2116
2112
2108
2105
2106
2108
2111
2112
2115
2114
2114
2113
2113
2114
2115
2117
2117
2117
2119
2119
2122
2123
2126
2131
2138
2147
2155
2160
2165
2165
2164
2162
2163
2167
2169
2170
2167
2164
2163
2163
2167
2168
2170
2171
2173
2175
2176
2178
2179
2179
2179
2177
2174
2173
2173
2173
2174
2174
2175
2174
2172
2170
2169
2170
2171
2171
2170
2167
2162
2156
2152
2149
2148
2149
2151
2153
2153
2151
2148
2145
2143
2139
2134
2130
2124
2117
2106
2090
2069
2047
2027
2010
2000
1996
1996
1996
1991
1979
1959
1938
1921
1912
1910
1910
1907
1895
1878
1859
1845
1836
1833
1836
1841
1847
1851
1852
1850
1848
1850
1859
1874
1890
1902
1907
1906
1904
1903
1907
1914
1920
1925
1926
1927
1927
1928
1928
1927
1926
1925
1927
1940
1968
2017
2072
2114
2122
2087
2022
1955
1911
1899
1910
1926
1933
1930
1921
1914
1908
1903
1899
1897
1898
1900
1903
1904
1905
1907
1909
1912
1915
1916
1915
1912
1909
1906
1905
1904
1904
1905
1907
1910
1913
1917
1921
1927
1933
1940
1946
1950
1954
1956
1959
1963
1968
1973
1978
1981
1983
1983
1983
1985
1992
2002
2014
2026
2036
2044
2047
2048
2046
2040
2032
2023
2013
2001
1991
1986
1988
1999
2011
2021
2023
2016
2003
1985
1963
1939
1916
1898
1885
1880
1876
1874
1878
1891
1914
1939
1956
1956
1941
1922
1911
1916
1932
1950
1959
1953
1936
1917
1904
1902
1909
1920
1928
1930
1926
1920
1915
1912
1910
1911
1911
1913
1916
1917
1914
1908
1901
1897
1895
1895
1898
1906
1919
1938
1957
1971
1978
1981
1984
1981
1982
1998
2025
2062
2100
2121
2114
2083
2037
1988
1955
1949
1974
2009
2040
2054
2039
2005
1969
1945
1934
1934
1942
1950
1956
1965
1965
1959
1952
1948
1948
1951
1954
1958
1958
1959
1960
1962
1963
1965
1969
1968
1969
1970
1971
1973
1973
1975
1975
1977
1979
1979
1981
1981
1984
1982
1981
1983
1983
1989
1997
2002
2008
2008
2012
2009
2010
2003
1989
1977
1975
1988
2015
2040
2049
2040
2014
1990
1979
1977
1985
1990
1991
1989
1982
1975
1966
1961
1963
1969
1975
1976
1976
1973
1973
1975
1977
1980
1978
1978
1977
1975
1976
1975
1975
1976
1977
1979
1978
1980
1981
1980
1980
1980
1980
1980
1978
1980
1981
1983
1983
1982
1982
1982
1982
1981
1980
1982
1982
1984
1985
1984
1985
1984
1984
1984
1983
1985
1986
1988
1988
1987
1988
1986
1986
1984
1983
1989
1994
1996
1993
1987
1984
1983
1985
1989
1989
1988
1989
1989
1990
1991
1991
1991
1989
1990
1989
1990
1989
1990
1991
1989
1990
1989
1989
1990
1987
1988
1987
1988
1990
1989
1991
1988
1987
1988
1989
1996
2003
2010
2014
2012
2012
2010
2009
2010
2009
2008
2008
2009
2011
2010
2012
2005
2005
2003
2004
2009
2012
2020
2026
2037
2049
2064
2078
2085
2090
2090
2095
2104
2116
2128
2140
2152
2160
2169
2175
2181
2180
2177
2174
2170
2168
2166
2164
2162
2158
2159
2157
2156
2151
2151
2154
2156
2154
2140
2109
2074
2036
2009
1991
1986
1991
1997
2001
2002
2000
1998
1997
1999
1999
1999
2000
2000
2003
1998
1985
1980
1983
2004
2041
2089
2135
2171
2194
2205
2209
2204
2204
2203
2198
2194
2182
2163
2138
2122
2111
2109
2113
2115
2117
2111
2110
2109
2107
2106
2103
2103
2101
2100
2100
2097
2097
2094
2093
2093
2089
2090
2088
2089
2089
2085
2085
2083
2082
2082
2079
2079
2077
2077
2076
2074
2074
2073
2072
2072
2069
2073
2076
2067
2050
2039
2053
2104
2191
2290
2367
2409
2415
2404
2390
2382
2384
2379
2374
2370
2366
2365
2361
2359
2353
2344
2339
2333
2331
2329
2325
2323
2320
2315
2308
2301
2298
2297
2297
2297
2292
2287
2283
2280
2279
2276
2273
2270
2265
2263
2260
2258
2255
2252
2250
2246
2244
2241
2238
2236
2232
2230
2227
2227
2224
2220
2219
2215
2215
2216
2212
2210
2203
2199
2196
2194
2195
2193
2190
2187
2185
2183
2182
2181
2180
2177
2174
2171
2169
2166
2163
2163
2161
2161
2159
2157
2155
2153
2151
2148
2145
2146
2144
2144
2143
2141
2139
2137
2135
2133
2130
2130
2129
2129
2128
2126
2124
2119
2116
2119
2127
2133
2122
2089
2034
1976
1936
1920
1926
1938
1947
1950
1946
1945
1945
1946
1949
1954
1959
1965
1970
1975
1981
1988
1995
2002
2006
2010
2011
2012
2014
2018
2026
2038
2052
2065
2075
2078
2077
2074
2073
2081
2102
2141
2201
2271
2326
2345
2319
2258
2190
2143
2128
2136
2151
2160
2159
2152
2149
2149
2148
2148
2147
2148
2150
2155
2161
2169
2176
2183
2190
2199
2207
2213
2216
2217
2219
2224
2230
2237
2241
2244
2245
2245
2247
2248
2250
2252
2253
2253
2253
2254
2256
2261
2266
2272
2279
2282
2286
2288
2291
2295
2300
2306
2309
2311
2311
2309
2306
2301
2295
2287
2278
2268
2258
2248
2239
2232
2228
2224
2219
2212
2202
2192
2182
2175
2169
2164
2160
2156
2152
2150
2148
2148
2147
2146
2145
2145
2146
2147
2147
2146
2144
2143
2142
2143
2146
2148
2150
2150
2149
2149
2149
2149
2149
2148
2148
2148
2149
2149
2149
2148
2146
2145
2143
2141
2140
2139
2140
2140
2142
2143
2144
2144
2144
2143
2142
2141
2140
2139
2137
2136
2134
2134
2134
2134
2135
2135
2135
2134
2132
2131
2130
2129
2127
2127
2127
2127
2128
2129
2128
2128
2127
2125
2124
2123
2123
2123
2123
2123
2122
2121
2120
2119
2118
2118
2118
2117
2116
2115
2113
2112
2110
2109
2109
2108
2108
2109
2109
2109
2109
2108
2107
2107
2107
2107
2108
2108
2107
2106
2104
2103
2103
2104
2103
2102
2101
2099
2099
2100
2100
2101
2100
2099
2098
2097
2097
2096
2096
2096
2096
2096
2094
2092
2089
2087
2084
2082
2081
2080
2079
2079
2079
2080
2081
2081
2081
2080
2078
2077
2076
2076
2076
2076
2076
2075
2075
2075
2076
2077
2077
2077
2077
2077
2076
2075
2074
2073
2072
2072
2071
2072
2073
2075
2077
2080
2083
2086
2088
2089
2089
2089
2088
2087
2086
2085
2084
2084
2083
2082
2080
2078
2076
2074
2073
2071
2071
2072
2073
2073
2073
2073
2073
2073
2073
2071
2069
2068
2069
2071
2072
2070
2065
2061
2059
2065
2085
2124
2188
2259
2312
2325
2288
2218
2146
2097
2085
2098
2114
2122
2113
2099
2091
2089
2091
2094
2096
2096
2094
2090
2085
2080
2073
2066
2057
2048
2038
2028
2021
2016
2015
2015
2015
2015
2016
2019
2023
2027
2031
2033
2033
2033
2033
2034
2036
2038
2040
2043
2046
2048
2052
2056
2060
2064
2067
2070
2072
2074
2076
2078
2081
2085
2090
2093
2094
2093
2088
2081
2072
2062
2052
2043
2035
2029
2024
2021
2018
2016
2012
2008
2004
2001
1998
1997
1998
2000
2002
2003
2002
2001
1999
1997
1996
1997
1997
1999
2001
2002
2004
2006
2006
2006
2007
2010
2014
2020
2025
2026
2019
2004
1981
1955
1931
1915
1910
1912
1918
1925
1927
1927
1927
1928
1932
1937
1943
1948
1949
1948
1945
1942
1939
1938
1937
1936
1935
1935
1936
1936
1936
1935
1936
1941
1948
1956
1965
1973
1979
1982
1987
1993
2004
2019
2038
2054
2070
2081
2086
2080
2063
2036
2003
1974
1957
1952
1956
1961
1967
1969
1970
1973
1974
1974
1972
1970
1966
1963
1962
1961
1961
1962
1963
1969
1966
1964
1965
1973
1990
2016
2038
2049
2046
2035
2025
2022
2025
2031
2032
2030
2027
2027
2025
2027
2028
2027
2023
2020
2023
2032
2048
2063
2076
2084
2081
2076
2065
2054
2048
2041
2034
2027
2019
2012
2004
1996
1993
1992
1995
2001
2003
2004
2001
1999
2000
2000
2004
2003
2001
2001
2000
2002
2001
2003
2002
2002
2003
2001
2003
2001
2003
2001
2001
2008
2012
2015
2006
1987
1964
1938
1923
1915
1916
1921
1928
1930
1932
1927
1920
1916
1912
1914
1916
1918
1921
1920
1922
1922
1925
1925
1926
1927
1926
1928
1928
1931
1931
1930
1933
1933
1935
1936
1933
1933
1932
1935
1937
1938
1941
1939
1935
1927
1912
1897
1882
1874
1874
1875
1880
1882
1882
1884
1885
1887
1888
1892
1893
1894
1896
1896
1897
1897
1897
1900
1902
1905
1906
1907
1907
1908
1908
1909
1909
1912
1913
1915
1917
1916
1917
1916
1917
1916
1916
1919
1921
1924
1925
1926
1927
1924
1920
1911
1901
1895
1891
1890
1889
1890
1892
1894
1897
1898
1898
1898
1900
1902
1906
1910
1913
1915
1916
1916
1913
1909
1908
1906
1907
1907
1910
1913
1913
1916
1915
1915
1915
1919
1921
1923
1924
1918
1911
1901
1893
1888
1882
1881
1880
1880
1882
1884
1886
1886
1886
1886
1887
1888
1889
1889
1889
1888
1889
1890
1890
1891
1892
1895
1898
1901
1906
1912
1918
1926
1934
1940
1945
1948
1949
1950
1952
1954
1957
1961
1967
1971
1974
1974
1971
1967
1964
1964
1966
1968
1969
1970
1971
1974
1979
1987
1996
2002
2007
2009
2009
2008
2006
2005
2003
2002
2003
2004
2004
2003
2002
2001
2001
2003
2006
2009
2012
2014
2016
2015
2014
2013
2012
2013
2013
2012
2009
2005
2001
1998
1997
1999
2002
2006
2009
2011
2012
2011
2010
2009
2009
2009
2009
2010
2011
2014
2020
2026
2031
2035
2036
2036
2035
2035
2034
2033
2032
2030
2029
2028
2026
2022
2016
2011
2005
2003
2005
2008
2013
2016
2019
2021
2022
2022
2020
2017
2015
2014
2015
2016
2017
2018
2018
2020
2021
2023
2025
2024
2021
2015
2008
2003
2004
2017
2048
2102
2172
2235
2266
2249
2190
2116
2056
2030
2033
2048
2059
2059
2048
2038
2032
2029
2026
2023
2019
2014
2010
2007
2007
2010
2015
2020
2023
2025
2024
2024
2026
2027
2027
2029
2033
2042
2050
2056
2056
2052
2048
2048
2053
2059
2062
2058
2052
2051
2055
2065
2075
2082
2084
2083
2083
2085
2089
2095
2101
2111
2128
2151
2173
2184
2181
2164
2141
2123
2116
2120
2129
2140
2147
2149
2146
2138
2128
2119
2113
2108
2104
2099
2092
2082
2072
2066
2067
2077
2093
2112
2125
2127
2115
2092
2060
2033
2015
2007
2010
2015
2019
2019
2017
2015
2014
2016
2017
2019
2016
2013
2011
2009
2011
2011
2012
2014
2015
2014
2012
2010
2013
2021
2035
2049
2061
2068
2071
2071
2070
2071
2072
2073
2074
2075
2075
2075
2074
2073
2071
2071
2071
2071
2071
2071
2070
2070
2068
2066
2063
2060
2057
2055
2053
2051
2051
2053
2056
2059
2062
2063
2064
2065
2068
2073
2079
2086
2094
2100
2105
2108
2110
2113
2117
2120
2123
2125
2125
2126
2126
2127
2131
2137
2143
2146
2147
2146
2147
2150
2156
2164
2170
2172
2173
2171
2169
2167
2165
2163
2161
2158
2157
2156
2157
2157
2157
2155
2151
2148
2146
2146
2148
2150
2150
2147
2144
2141
2140
2141
2141
2139
2136
2132
2130
2130
2130
2131
2128
2123
2117
2113
2112
2115
2119
2122
2122
2121
2119
2118
2116
2112
2107
2101
2097
2094
2093
2092
2091
2089
2088
2088
2088
2087
2086
2085
2084
2084
2085
2086
2086
2087
2089
2093
2098
2104
2105
2098
2085
2068
2053
2048
2050
2057
2062
2063
2057
2050
2046
2045
2047
2049
2052
2055
2057
2058
2059
2058
2057
2056
2058
2065
2075
2085
2091
2091
2085
2078
2072
2068
2067
2066
2065
2062
2055
2044
2030
2017
2005
1998
1993
1992
1993
1993
1993
1991
1988
1984
1979
1977
1979
1985
1995
2010
2039
2074
2103
2108
2074
2007
1929
1870
1846
1857
1883
1905
1913
1908
1901
1897
1893
1890
1890
1891
1892
1894
1895
1896
1898
1899
1899
1900
1901
1903
1905
1907
1906
1902
1894
1885
1876
1870
1868
1869
1872
1874
1876
1879
1881
1884
1887
1891
1896
1900
1903
1900
1894
1885
1874
1867
1864
1863
1866
1869
1872
1876
1881
1886
1891
1896
1899
1901
1901
1898
1893
1884
1872
1860
1848
1840
1834
1830
1827
1824
1822
1819
1818
1819
1819
1821
1822
1822
1823
1824
1826
1827
1830
1833
1833
1831
1831
1838
1856
1884
1916
1944
1963
1974
1980
1984
1989
1995
2000
2005
2010
2014
2016
2016
2015
2016
2019
2024
2032
2040
2047
2054
2064
2077
2092
2109
2124
2136
2145
2153
2159
2166
2171
2175
2177
2179
2181
2181
2181
2181
2181
2181
2181
2181
2180
2180
2180
2180
2180
2180
2179
2176
2174
2173
2172
2171
2170
2170
2170
2170
2171
2171
2173
2175
2177
2178
2178
2178
2177
2176
2176
2175
2175
2174
2173
2172
2171
2171
2171
2170
2170
2169
2168
2167
2167
2167
2166
2166
2165
2164
2163
2163
2162
2160
2158
2155
2153
2151
2150
2150
2149
2148
2147
2145
2145
2143
2142
2140
2138
2136
2136
2137
2135
2126
2106
2076
2043
2011
1988
1976
1971
1970
1969
1967
1965
1964
1962
1960
1959
1958
1958
1958
1957
1956
1955
1956
1957
1958
1959
1959
1959
1959
1960
1961
1963
1965
1965
1965
1966
1967
1968
1969
1970
1969
1968
1967
1966
1965
1965
1965
1964
1963
1963
1963
1963
1963
1963
1966
1968
1967
1957
1934
1903
1870
1845
1831
1827
1829
1832
1833
1834
1834
1834
1834
1834
1835
1836
1838
1840
1842
1843
1845
1845
1846
1847
1849
1851
1853
1856
1856
1856
1856
1858
1860
1861
1861
1859
1854
1850
1849
1856
1876
1915
1978
2051
2110
2129
2099
2034
1961
1912
1895
1906
1922
1932
1929
1919
1912
1911
1909
1908
1907
1907
1911
1919
1931
1944
1956
1963
1967
1968
1969
1972
1975
1978
1980
1981
1982
1984
1987
1991
1994
1997
1998
1999
2000
2001
2003
2006
2009
2013
2016
2020
2025
2030
2036
2042
2048
2053
2058
2063
2068
2072
2078
2084
2091
2098
2103
2107
2109
2109
2107
2103
2097
2089
2080
2071
2060
2050
2043
2036
2032
2029
2028
2026
2024
2022
2021
2020
2020
2020
2019
2018
2017
2016
2017
2019
2022
2023
2024
2023
2021
2020
2022
2024
2025
2025
2024
2024
2027
2033
2039
2046
2050
2053
2055
2058
2062
2064
2062
2052
2034
2011
1988
1971
1961
1957
1956
1956
1956
1955
1953
1950
1949
1954
1967
1985
2004
2020
2030
2035
2037
2040
2045
2048
2050
2053
2055
2059
2062
2065
2068
2069
2070
2071
2071
2071
2070
2070
2070
2073
2076
2077
2073
2061
2045
2023
2001
1985
1980
1986
2001
2020
2037
2048
2052
2057
2064
2072
2077
2070
2052
2032
2022
2028
2045
2060
2063
2049
2025
2002
1989
1987
1991
1994
1992
1986
1981
1983
1994
2013
2035
2053
2066
2070
2070
2072
2079
2092
2109
2127
2141
2151
2155
2158
2161
2165
2166
2161
2151
2139
2131
2131
2140
2152
2162
2168
2167
2162
2156
2151
2149
2151
2156
2163
2171
2177
2183
2189
2193
2194
2191
2187
2184
2185
2189
2192
2192
2188
2183
2180
2179
2181
2182
2181
2180
2180
2182
2184
2185
2184
2181
2177
2175
2173
2173
2172
2171
2170
2169
2168
2166
2164
2162
2162
2162
2162
2163
2161
2158
2155
2154
2163
2188
2234
2298
2358
2391
2378
2323
2248
2184
2154
2156
2176
2193
2198
2191
2182
2178
2176
2175
2174
2174
2175
2177
2178
2178
2177
2174
2171
2171
2174
2179
2184
2188
2189
2191
2195
2198
2196
2182
2155
2118
2080
2052
2039
2038
2045
2054
2061
2068
2072
2073
2074
2078
2088
2106
2130
2156
2176
2190
2197
2202
2208
2216
2224
2229
2232
2235
2238
2239
2234
2219
2193
2158
2122
2086
2056
2032
2015
2008
2012
2028
2049
2071
2088
2099
2103
2100
2094
2085
2075
2067
2061
2058
2055
2053
2051
2049
2048
2048
2048
2050
2054
2059
2063
2066
2069
2072
2074
2075
2076
2075
2073
2070
2068
2066
2065
2065
2067
2068
2067
2066
2065
2070
2082
2098
2113
2123
2125
2120
2112
2108
2108
2109
2110
2110
2111
2114
2119
2124
2127
2129
2129
2128
2127
2127
2128
2129
2131
2132
2133
2134
2134
2134
2135
2135
2135
2134
2133
2135
2137
2139
2136
2127
2109
2086
2064
2048
2042
2041
2040
2039
2033
2026
2020
2016
2014
2014
2015
2018
2024
2031
2038
2048
2057
2067
2075
2075
2066
2048
2026
2002
1984
1974
1976
1989
2009
2033
2053
2067
2074
2077
2079
2081
2085
2087
2089
2092
2094
2094
2094
2094
2096
2104
2116
2127
2133
2131
2121
2108
2097
2091
2088
2088
2087
2085
2080
2077
2079
2086
2097
2108
2112
2109
2098
2085
2075
2070
2070
2072
2070
2063
2048
2024
1992
1960
1933
1913
1901
1893
1888
1884
1879
1876
1873
1868
1861
1850
1838
1827
1821
1821
1827
1835
1843
1849
1853
1856
1858
1861
1865
1867
1869
1866
1861
1854
1849
1849
1852
1856
1859
1857
1853
1850
1851
1864
1893
1946
2017
2080
2112
2097
2040
1963
1902
1874
1879
1899
1915
1919
1911
1902
1899
1899
1902
1908
1916
1924
1930
1933
1933
1933
1933
1936
1940
1945
1950
1953
1956
1959
1962
1967
1971
1975
1980
1984
1988
1990
1990
1987
1984
1984
1989
1997
2006
2014
2022
2031
2043
2055
2067
2078
2085
2092
2098
2105
2113
2122
2132
2142
2153
2163
2173
2182
2191
2198
2204
2207
2207
2206
2204
2202
2198
2201
2210
2222
2227
2214
2176
2117
2054
2003
1973
1962
1960
1960
1955
1949
1945
1942
1939
1937
1936
1935
1934
1933
1933
1932
1932
1932
1932
1932
1931
1930
1929
1928
1928
1928
1929
1930
1930
1930
1930
1930
1930
1930
1931
1932
1933
1933
1933
1933
1933
1933
1932
1932
1933
1933
1934
1934
1934
1934
1934
1936
1937
1938
1940
1940
1941
1941
1942
1943
1945
1947
1949
1952
1956
1961
1967
1971
1975
1978
1982
1988
1996
2004
2013
2020
2026
2032
2039
2048
2058
2071
2085
2101
2118
2132
2143
2149
2155
2162
2173
2185
2197
2205
2210
2213
2217
2222
2230
2238
2246
2252
2255
2256
2257
2259
2261
2264
2266
2266
2265
2264
2262
2261
2260
2259
2258
2257
2255
2254
2251
2250
2248
2246
2244
2243
2242
2241
2240
2240
2240
2239
2238
2235
2233
2231
2228
2226
2224
2221
2219
2218
2217
2215
2215
2214
2213
2212
2211
2210
2208
2207
2205
2204
2202
2200
2199
2198
2197
2196
2194
2193
2192
2190
2189
2187
2186
2184
2182
2181
2180
2180
2181
2181
2181
2181
2181
2180
2179
2179
2178
2177
2174
2172
2169
2166
2165
2163
2162
2161
2159
2158
2156
2154
2154
2153
2153
2153
2152
2151
2150
2149
2148
2147
2146
2145
2145
2144
2144
2145
2145
2143
2140
2133
2126
2121
2122
2135
2165
2221
2293
2355
2382
2361
2298
2220
2159
2132
2135
2150
2161
2161
2151
2141
2137
2134
2131
2129
2128
2126
2126
2125
2125
2124
2123
2123
2123
2123
2123
2122
2121
2121
2121
2122
2123
2122
2119
2114
2110
2108
2108
2111
2113
2116
2117
2119
2121
2123
2125
2127
2130
2133
2136
2140
2145
2147
2150
2160
2173
2184
2181
2156
2108
2049
1998
1963
1947
1940
1936
1926
1910
1897
1883
1868
1855
1842
1831
1822
1815
1810
1806
1803
1801
1798
1796
1794
1792
1791
1789
1788
1786
1783
1780
1779
1781
1791
1806
1823
1838
1848
1853
1857
1861
1867
1877
1884
1891
1897
1902
1907
1912
1916
1920
1923
1926
1928
1931
1935
1937
1938
1936
1933
1929
1927
1928
1931
1934
1935
1933
1928
1924
1921
1920
1920
1920
1919
1919
1919
1919
1920
1920
1921
1922
1923
1924
1924
1923
1923
1923
1923
1923
1923
1924
1926
1928
1930
1932
1932
1932
1932
1933
1935
1935
1936
1938
1939
1941
1942
1943
1943
1944
1945
1946
1947
1949
1950
1951
1952
1953
1955
1956
1959
1961
1964
1967
1971
1977
1983
1989
1994
1999
2004
2009
2014
2016
2014
2008
2001
1994
1992
1992
1996
1998
1999
2000
2001
2002
2004
2006
2007
2008
2011
2014
2018
2020
2019
2018
2016
2016
2018
2021
2023
2024
2023
2021
2022
2024
2028
2031
2034
2034
2033
2032
2032
2032
2033
2033
2033
2033
2033
2033
2033
2033
2033
2033
2032
2032
2031
2031
2032
2032
2034
2034
2035
2034
2033
2032
2030
2029
2028
2029
2031
2032
2033
2032
2031
2030
2028
2026
2026
2025
2025
2025
2024
2023
2022
2022
2022
2022
2024
2026
2029
2033
2037
2042
2048
2052
2056
2059
2063
2065
2067
2069
2070
2070
2068
2068
2067
2064
2059
2051
2047
2055
2090
2143
2189
2201
2168
2099
2025
1976
1962
1974
1992
2003
2003
1995
1989
1986
1985
1988
1996
2006
2017
2025
2030
2033
2034
2037
2039
2042
2045
2048
2049
2051
2052
2054
2058
2063
2068
2072
2074
2076
2077
2078
2080
2081
2083
2085
2087
2091
2094
2096
2098
2099
2099
2100
2100
2100
2099
2099
2101
2105
2111
2118
2125
2130
2132
2133
2133
2131
2129
2126
2121
2113
2102
2090
2077
2066
2054
2044
2034
2028
2026
2029
2034
2036
2033
2025
2015
2007
2003
2003
2005
2007
2008
2009
2009
2008
2009
2011
2013
2016
2019
2022
2024
2025
2025
2025
2026
2027
2028
2028
2026
2024
2023
2023
2023
2023
2023
2022
2020
2020
2019
2020
2021
2023
2024
2024
2023
2021
2019
2017
2014
2012
2010
2009
2007
2006
2005
2002
2000
1997
1993
1989
1985
1982
1980
1979
1978
1975
1973
1969
1966
1963
1961
1961
1960
1959
1958
1956
1955
1953
1951
1950
1950
1950
1950
1950
1949
1948
1948
1948
1948
1949
1950
1951
1952
1952
1952
1952
1952
1952
1953
1954
1954
1955
1956
1956
1956
1957
1959
1960
1961
1962
1963
1964
1965
1966
1967
1967
1967
1966
1965
1966
1967
1969
1971
1972
1973
1974
1973
1973
1972
1973
1974
1975
1975
1976
1977
1977
1978
1979
1979
1980
1980
1980
1980
1980
1980
1981
1983
1984
1984
1985
1985
1985
1985
1985
1985
1986
1987
1988
1989
1990
1990
1989
1987
1983
1980
1978
1978
1977
1975
1972
1967
1962
1959
1958
1960
1963
1967
1970
1972
1972
1972
1972
1971
1970
1970
1970
1970
1969
1969
1969
1969
1969
1970
1970
1970
1970
1970
1969
1969
1969
1970
1971
1970
1967
1961
1955
1950
1948
1949
1952
1956
1960
1963
1965
1966
1967
1967
1968
1968
1966
1961
1954
1950
1950
1960
1984
2028
2092
2161
2210
2217
2177
2106
2036
1991
1980
1992
2008
2015
2012
2001
1993
1989
1986
1987
1991
1998
2005
2011
2014
2016
2018
2020
2023
2025
2024
2022
2018
2014
2010
2009
2008
2008
2007
2005
2003
2004
2005
2007
2008
2010
2011
2012
2015
2019
2023
2027
2031
2034
2038
2043
2048
2055
2061
2066
2072
2077
2084
2090
2096
2101
2106
2109
2111
2111
2108
2104
2097
2089
2080
2071
2060
2050
2041
2032
2024
2018
2012
2007
2004
2001
1998
1995
1993
1993
1994
1998
2004
2011
2017
2022
2026
2029
2032
2033
2035
2036
2037
2039
2040
2042
2044
2045
2045
2047
2047
2048
2048
2048
2049
2051
2054
2058
2062
2065
2068
2070
2072
2073
2075
2077
2080
2083
2085
2087
2088
2089
2091
2092
2093
2093
2093
2094
2095
2097
2097
2096
2094
2092
2091
2092
2094
2095
2096
2095
2093
2092
2092
2093
2094
2095
2094
2093
2092
2090
2090
2089
2088
2086
2086
2084
2082
2080
2076
2074
2072
2071
2069
2067
2064
2061
2060
2060
2059
2056
2051
2046
2039
2034
2031
2029
2028
2027
2026
2026
2025
2024
2024
2023
2022
2022
2022
2022
2022
2023
2024
2026
2027
2027
2027
2027
2027
2027
2027
2027
2029
2032
2035
2037
2039
2040
2040
2040
2040
2041
2040
2040
2039
2040
2044
2048
2054
2059
2063
2065
2066
2067
2067
2068
2069
2071
2073
2074
2076
2077
2078
2078
2079
2080
2084
2088
2094
2102
2112
2123
2135
2146
2156
2166
2176
2185
2194
2201
2206
2211
2215
2221
2227
2232
2236
2237
2238
2239
2239
2239
2237
2235
2232
2228
2225
2221
2218
2213
2210
2207
2205
2204
2202
2200
2198
2196
2193
2189
2183
2176
2169
2164
2158
2153
2147
2141
2137
2134
2135
2137
2136
2132
2122
2110
2099
2094
2102
2127
2176
2243
2308
2345
2336
2284
2211
2148
2116
2116
2131
2145
2149
2142
2133
2129
2127
2125
2125
2126
2128
2129
2128
2127
2126
2126
2128
2130
2132
2132
2132
2130
2128
2127
2126
2126
2126
2127
2130
2134
2138
2142
2143
2142
2139
2137
2139
2142
2146
2148
2149
2149
2151
2153
2157
2162
2167
2172
2175
2176
2176
2178
2181
2188
2194
2197
2197
2193
2186
2178
2168
2156
2141
2123
2103
2083
2065
2050
2039
2030
2024
2019
2014
2011
2007
2005
2004
2003
2003
2003
2003
2003
2003
2003
2004
2004
2004
2005
2004
2004
2003
2001
1997
1990
1983
1975
1968
1965
1963
1963
1964
1964
1965
1966
1968
1972
1976
1979
1981
1984
1989
1999
2011
2024
2034
2039
2042
2043
2045
2046
2046
2043
2038
2033
2027
2023
2020
2018
2019
2019
2020
2021
2021
2021
2022
2023
2026
2029
2032
2033
2034
2035
2035
2035
2036
2038
2039
2041
2042
2041
2039
2037
2036
2035
2035
2035
2036
2037
2039
2041
2042
2042
2040
2039
2039
2040
2042
2046
2050
2055
2059
2063
2065
2068
2069
2070
2071
2071
2072
2072
2072
2072
2073
2073
2073
2072
2072
2072
2073
2074
2075
2075
2075
2075
2075
2076
2076
2077
2077
2076
2076
2075
2074
2073
2072
2069
2067
2064
2061
2059
2060
2061
2061
2056
2047
2033
2019
2008
2003
2002
2003
2004
2003
2002
2002
2003
2003
2003
2003
2003
2003
2003
2003
2004
2005
2005
2005
2004
2002
2001
2001
2002
2003
2005
2008
2011
2014
2017
2019
2020
2020
2021
2022
2023
2024
2024
2024
2025
2026
2027
2028
2028
2028
2028
2028
2028
2028
2029
2029
2028
2027
2026
2026
2027
2028
2030
2034
2037
2038
2036
2029
2022
2016
2017
2031
2063
2119
2185
2238
2254
2223
2155
2080
2029
2012
2022
2040
2051
2050
2043
2035
2032
2030
2028
2027
2028
2031
2035
2039
2043
2045
2046
2046
2045
2043
2042
2042
2043
2044
2046
2046
2047
2047
2047
2048
2048
2049
2050
2051
2053
2056
2060
2066
2071
2076
2080
2083
2087
2090
2094
2099
2105
2109
2112
2110
2104
2096
2089
2087
2088
2091
2093
2093
2090
2085
2078
2070
2061
2050
2040
2029
2019
2010
2003
1995
1989
1984
1980
1977
1975
1972
1971
1971
1972
1974
1975
1976
1975
1975
1974
1974
1975
1976
1977
1977
1977
1977
1977
1978
1979
1979
1979
1980
1980
1980
1981
1982
1984
1986
1989
1990
1992
1992
1993
1993
1994
1995
1996
1997
1998
2000
2001
2003
2005
2006
2006
2006
2005
2005
2005
2004
2004
2003
2003
2002
2002
2002
2003
2004
2004
2004
2005
2005
2005
2005
2004
2004
2005
2005
2005
2005
2004
2004
2004
2004
2004
2005
2006
2006
2007
2007
2007
2007
2008
2009
2009
2011
2012
2013
2013
2014
2014
2014
2016
2016
2017
2018
2018
2019
2020
2021
2022
2021
2022
2021
2021
2021
2022
2022
2022
2022
2021
2021
2021
2020
2020
2020
2020
2020
2019
2019
2019
2019
2019
2018
2018
2017
2018
2018
2019
2020
2020
2020
2020
2019
2019
2020
2020
2021
2022
2022
2023
2023
2024
2025
2025
2026
2026
2027
2027
2027
2027
2026
2026
2026
2027
2028
2028
2029
2029
2028
2027
2026
2025
2025
2025
2025
2027
2029
2031
2032
2032
2033
2033
2034
2036
2037
2037
2037
2036
2034
2033
2032
2033
2033
2034
2034
2035
2035
2036
2036
2036
2036
2035
2035
2036
2037
2038
2040
2041
2042
2042
2043
2044
2045
2045
2044
2040
2035
2029
2025
2029
2046
2081
2140
2208
2262
2276
2243
2174
2099
2048
2032
2043
2059
2068
2066
2055
2048
2044
2041
2038
2037
2036
2036
2036
2036
2037
2038
2039
2039
2039
2039
2040
2040
2041
2042
2041
2041
2040
2040
2041
2042
2043
2044
2045
2047
2048
2050
2053
2057
2060
2064
2068
2072
2076
2081
2085
2091
2097
2102
2107
2112
2118
2123
2128
2134
2138
2142
2145
2147
2147
2146
2142
2137
2130
2122
2113
2103
2093
2084
2076
2070
2065
2061
2057
2055
2054
2055
2056
2056
2057
2056
2055
2056
2057
2059
2061
2062
2060
2058
2058
2059
2062
2065
2067
2068
2068
2067
2066
2064
2062
2060
2060
2062
2064
2068
2070
2071
2071
2070
2070
2071
2073
2075
2077
2077
2077
2077
2077
2076
2077
2077
2078
2080
2081
2081
2081
2081
2081
2083
2087
2092
2095
2098
2100
2102
2105
2108
2110
2112
2113
2114
2114
2116
2119
2123
2127
2130
2131
2132
2132
2132
2133
2133
2132
2132
2131
2132
2133
2133
2133
2133
2134
2137
2142
2147
2154
2160
2167
2173
2178
2182
2184
2184
2184
2185
2186
2187
2187
2186
2185
2183
2182
2181
2181
2180
2180
2180
2179
2178
2176
2175
2174
2173
2172
2172
2172
2172
2172
2171
2170
2169
2167
2164
2162
2161
2160
2161
2162
2162
2163
2162
2161
2159
2158
2159
2160
2162
2163
2164
2164
2163
2162
2160
2158
2157
2155
2154
2154
2153
2153
2153
2153
2152
2151
2151
2151
2152
2153
2155
2156
2157
2157
2158
2158
2160
2161
2163
2163
2164
2164
2165
2166
2168
2171
2175
2180
2184
2187
2189
2189
2189
2188
2188
2187
2187
2186
2186
2186
2185
2185
2183
2182
2181
2180
2179
2179
2179
2179
2178
2178
2178
2179
2180
2179
2175
2169
2162
2157
2159
2171
2201
2253
2319
2376
2398
2373
2310
2233
2176
2154
2161
2178
2189
2188
2177
2167
2163
2159
2156
2154
2153
2152
2151
2151
2151
2152
2152
2153
2153
2152
2152
2152
2152
2152
2152
2152
2152
2153
2152
2151
2150
2148
2147
2145
2144
2143
2143
2143
2145
2146
2145
2142
2134
2125
2117
2113
2113
2117
2122
2128
2133
2138
2143
2148
2152
2156
2159
2161
2161
2160
2157
2150
2141
2130
2119
2107
2095
2084
2074
2065
2057
2050
2045
2041
2037
2035
2034
2034
2034
2034
2034
2034
2034
2034
2034
2034
2034
2034
2034
2034
2034
2034
2033
2033
2034
2035
2037
2038
2038
2039
2039
2040
2041
2043
2044
2045
2046
2046
2047
2047
2047
2046
2045
2045
2048
2052
2059
2066
2071
2073
2073
2073
2073
2075
2077
2079
2081
2081
2081
2081
2080
2080
2079
2078
2078
2078
2079
2079
2079
2079
2078
2078
2077
2077
2076
2077
2076
2076
2075
2075
2074
2073
2073
2073
2073
2073
2074
2074
2074
2073
2073
2072
2072
2072
2073
2073
2074
2074
2073
2073
2072
2072
2072
2072
2072
2072
2073
2072
2072
2073
2073
2072
2071
2071
2071
2071
2071
2072
2071
2071
2070
2069
2069
2068
2068
2069
2070
2070
2070
2069
2069
2068
2068
2068
2068
2068
2068
2068
2068
2068
2068
2068
2067
2067
2067
2067
2067
2067
2067
2066
2066
2065
2065
2066
2067
2068
2069
2070
2070
2070
2069
2068
2068
2067
2066
2066
2066
2066
2065
2064
2063
2061
2061
2061
2062
2064
2066
2068
2069
2070
2070
2070
2070
2070
2069
2068
2066
2064
2062
2060
2058
2056
2056
2056
2056
2056
2057
2057
2057
2057
2056
2055
2054
2052
2051
2051
2051
2052
2053
2054
2055
2054
2052
2048
2044
2040
2040
2048
2071
2115
2178
2244
2286
2285
2238
2164
2096
2058
2054
2070
2086
2092
2086
2075
2069
2067
2065
2063
2062
2061
2061
2061
2061
2061
2062
2063
2063
2064
2064
2065
2066
2067
2068
2069
2070
2072
2075
2078
2082
2086
2087
2088
2088
2089
2091
2094
2097
2099
2101
2103
2104
2107
2110
2113
2118
2123
2129
2134
2139
2145
2150
2156
2161
2165
2168
2171
2172
2172
2170
2165
2158
2149
2138
2126
2115
2105
2095
2087
2078
2071
2065
2060
2056
2053
2052
2051
2050
2049
2048
2048
2047
2046
2045
2043
2042
2042
2042
2041
2040
2039
2037
2036
2035
2034
2034
2035
2037
2039
2041
2042
2042
2042
2042
2042
2043
2044
2045
2046
2046
2046
2046
2046
2045
2045
2047
2048
2048
2048
2046
2044
2041
2039
2038
2038
2039
2039
2040
2040
2040
2039
2039
2039
2038
2038
2039
2039
2039
2039
2039
2038
2037
2037
2037
2037
2037
2037
2038
2037
2036
2035
2034
2034
2033
2033
2032
2032
2032
2033
2033
2033
2033
2033
2033
2034
2034
2034
2035
2035
2035
2036
2037
2038
2039
2039
2039
2039
2040
2041
2042
2042
2043
2043
2043
2043
2043
2044
2046
2048
2049
2051
2051
2050
2049
2048
2049
2050
2051
2052
2052
2052
2052
2052
2052
2052
2053
2052
2049
2048
2051
2061
2073
2083
2084
2076
2062
2048
2041
2038
2038
2036
2034
2032
2033
2035
2039
2045
2050
2053
2049
2038
2024
2014
2014
2021
2030
2030
2019
2002
1989
1988
2000
2019
2037
2049
2055
2059
2062
2065
2069
2072
2074
2074
2074
2075
2076
2077
2077
2076
2077
2080
2084
2089
2092
2095
2096
2096
2095
2095
2095
2095
2097
2098
2096
2091
2086
2089
2104
2124
2141
2142
2122
2088
2052
2030
2025
2041
2076
2134
2199
2250
2261
2228
2164
2103
2075
2086
2122
2151
2160
2148
2128
2120
2128
2147
2166
2182
2191
2194
2192
2191
2192
2194
2197
2200
2202
2205
2207
2208
2208
2210
2214
2220
2226
2231
2236
2239
2241
2241
2241
2242
2243
2245
2248
2251
2255
2257
2258
2260
2261
2262
2263
2265
2269
2274
2279
2284
2290
2297
2306
2317
2325
2328
2327
2323
2320
2318
2318
2317
2315
2310
2301
2290
2276
2262
2247
2233
2221
2213
2207
2202
2198
2193
2188
2184
2180
2178
2177
2176
2173
2171
2168
2166
2164
2163
2164
2163
2161
2157
2153
2151
2152
2153
2154
2154
2151
2150
2149
2151
2152
2152
2151
2150
2149
2149
2149
2148
2146
2144
2141
2138
2137
2136
2136
2135
2134
2132
2132
2131
2130
2129
2127
2124
2122
2121
2122
2124
2126
2126
2125
2123
2121
2120
2118
2117
2115
2113
2111
2108
2106
2104
2102
2100
2098
2097
2098
2100
2101
2101
2096
2088
2079
2070
2066
2064
2064
2064
2064
2064
2063
2064
2064
2066
2068
2070
2073
2074
2074
2074
2074
2073
2073
2074
2074
2075
2075
2076
2077
2077
2076
2075
2073
2070
2069
2069
2072
2076
2080
2083
2085
2085
2085
2085
2087
2090
2093
2095
2095
2095
2095
2094
2093
2094
2100
2114
2134
2156
2172
2180
2179
2175
2171
2169
2169
2168
2163
2156
2147
2139
2131
2126
2121
2120
2120
2120
2118
2115
2110
2105
2101
2102
2113
2138
2185
2246
2300
2320
2290
2217
2128
2058
2030
2037
2061
2079
2085
2077
2067
2061
2057
2054
2051
2049
2048
2048
2048
2048
2048
2048
2048
2048
2048
2048
2045
2042
2045
2050
2054
2051
2033
2000
1961
1928
1908
1902
1903
1908
1911
1912
1915
1919
1922
1925
1927
1931
1935
1936
1938
1944
1959
1982
2011
2039
2055
2059
2057
2057
2069
2093
2123
2148
2163
2167
2162
2154
2144
2139
2135
2132
2122
2097
2055
2003
1951
1916
1906
1918
1939
1956
1963
1961
1957
1956
1958
1960
1963
1965
1966
1967
1969
1974
1978
1983
1984
1982
1978
1979
1984
1989
1984
1963
1925
1879
1839
1813
1804
1804
1809
1812
1812
1815
1818
1821
1825
1830
1832
1829
1817
1795
1771
1750
1737
1734
1735
1737
1738
1737
1739
1742
1746
1749
1752
1754
1756
1758
1761
1765
1764
1758
1753
1754
1769
1803
1846
1878
1889
1879
1859
1842
1837
1843
1844
1837
1825
1815
1805
1802
1805
1814
1836
1873
1913
1940
1945
1924
1888
1853
1834
1840
1861
1898
1937
1963
1974
1965
1943
1915
1894
1881
1876
1877
1880
1883
1883
1884
1885
1887
1888
1890
1892
1895
1898
1900
1900
1899
1898
1896
1896
1896
1897
1898
1898
1898
1898
1898
1900
1902
1906
1909
1911
1912
1914
1915
1917
1918
1920
1922
1923
1925
1927
1929
1930
1931
1932
1933
1936
1941
1947
1951
1954
1957
1963
1974
1991
2011
2033
2051
2065
2068
2061
2050
2039
2033
2026
2015
1996
1972
1953
1947
1963
1992
2027
2056
2077
2090
2095
2095
2094
2091
2090
2089
2090
2092
2094
2096
2096
2093
2086
2079
2075
2083
2108
2157
2229
2304
2354
2359
2314
2239
2166
2121
2112
2124
2138
2142
2134
2122
2116
2112
2108
2104
2100
2097
2094
2092
2091
2091
2091
2090
2090
2090
2090
2091
2091
2090
2089
2088
2089
2093
2096
2098
2099
2103
2112
2126
2138
2145
2146
2139
2128
2120
2120
2130
2146
2160
2164
2153
2133
2112
2097
2095
2101
2108
2112
2114
2118
2122
2125
2128
2129
2129
2125
2118
2109
2099
2089
2081
2073
2065
2057
2051
2047
2043
2040
2038
2036
2034
2030
2024
2019
2017
2013
2005
1990
1969
1952
1945
1950
1965
1988
2010
2028
2036
2033
2019
1999
1980
1970
1969
1974
1981
1987
1991
1996
2000
2004
2005
2007
2008
2008
2008
2010
2013
2021
2030
2041
2049
2054
2056
2057
2057
2058
2060
2061
2062
2064
2065
2066
2066
2065
2065
2064
2064
2064
2064
2064
2064
2064
2063
2062
2063
2064
2065
2066
2067
2067
2067
2067
2067
2067
2066
2065
2065
2065
2065
2065
2065
2065
2066
2066
2066
2067
2068
2069
2070
2070
2069
2069
2068
2068
2068
2068
2066
2065
2063
2063
2064
2065
2066
2066
2066
2066
2064
2066
2070
2076
2076
2064
2038
1999
1959
1929
1912
1903
1899
1902
1910
1932
1964
1997
2022
2035
2036
2031
2023
2018
2015
2012
2009
2007
2005
2002
2004
2008
2014
2015
2008
1988
1960
1933
1913
1905
1904
1906
1909
1908
1907
1907
1905
1903
1901
1902
1904
1908
1913
1917
1919
1920
1922
1923
1925
1926
1927
1929
1932
1939
1946
1953
1960
1965
1967
1968
1965
1961
1955
1950
1947
1946
1947
1947
1948
1947
1948
1947
1947
1947
1947
1948
1949
1950
1950
1950
1950
1951
1953
1957
1963
1968
1970
1971
1971
1971
1972
1974
1977
1977
1978
1977
1976
1976
1976
1977
1978
1978
1977
1974
1971
1969
1973
1988
2024
2086
2160
2217
2234
2199
2126
2050
1999
1985
1998
2016
2025
2020
2006
1997
1993
1990
1990
1989
1988
1986
1985
1986
1991
1997
2004
2009
2012
2015
2017
2021
2027
2030
2033
2035
2036
2038
2039
2041
2043
2045
2047
2049
2050
2050
2048
2047
2047
2048
2049
2051
2051
2050
2050
2049
2050
2053
2059
2070
2085
2104
2120
2133
2140
2146
2150
2154
2157
2156
2152
2145
2138
2132
2126
2121
2114
2106
2097
2087
2079
2073
2069
2065
2059
2053
2048
2045
2048
2053
2061
2069
2075
2078
2079
2080
2080
2080
2080
2081
2084
2088
2093
2097
2099
2099
2098
2099
2102
2108
2113
2117
2120
2120
2119
2119
2119
2119
2120
2122
2124
2125
2125
2125
2124
2124
2125
2127
2129
2131
2133
2133
2134
2134
2134
2134
2135
2135
2135
2135
2134
2133
2132
2132
2131
2131
2131
2131
2131
2130
2130
2128
2127
2126
2125
2125
2126
2127
2127
2126
2125
2124
2123
2123
2123
2124
2124
2124
2124
2123
2123
2122
2121
2121
2120
2120
2120
2119
2119
2118
2117
2116
2115
2115
2114
2114
2115
2115
2115
2114
2114
2113
2113
2112
2112
2112
2112
2111
2110
2109
2109
2108
2108
2107
2107
2108
2108
2109
2109
2108
2108
2107
2106
2105
2104
2104
2104
2104
2104
2103
2102
2102
2102
2102
2102
2102
2102
2102
2102
2102
2102
2101
2100
2098
2097
2096
2096
2096
2095
2095
2094
2094
2093
2093
2092
2092
2091
2090
2089
2088
2088
2088
2090
2091
2093
2094
2095
2095
2095
2095
2095
2094
2093
2091
2089
2088
2086
2085
2084
2083
2083
2083
2083
2084
2084
2085
2085
2084
2084
2084
2083
2081
2080
2077
2076
2074
2074
2075
2077
2079
2079
2078
2074
2067
2060
2056
2059
2073
2105
2161
2231
2291
2316
2293
2230
2153
2096
2071
2077
2093
2103
2102
2091
2082
2077
2075
2076
2076
2074
2066
2051
2033
2015
2002
1997
1997
2000
2002
2003
2003
2005
2006
2007
2008
2010
2011
2014
2016
2018
2020
2022
2024
2026
2028
2029
2031
2034
2037
2040
2043
2047
2049
2053
2058
2063
2069
2075
2081
2087
2093
2098
2102
2106
2111
2116
2121
2124
2123
2118
2110
2099
2086
2073
2060
2049
2039
2030
2021
2014
2008
2003
2000
1998
1997
1997
1997
1997
1998
1998
1999
1999
1999
1999
1999
1999
1999
2000
2001
2001
2001
2002
2002
2003
2005
2006
2007
2009
2009
2009
2009
2008
2009
2010
2012
2013
2015
2015
2016
2015
2014
2014
2013
2015
2016
2017
2018
2019
2020
2021
2022
2022
2023
2023
2023
2024
2025
2026
2027
2028
2029
2030
2031
2032
2032
2032
2033
2034
2034
2035
2035
2036
2036
2037
2037
2038
2038
2039
2039
2039
2038
2038
2037
2036
2036
2036
2035
2035
2035
2035
2036
2037
2038
2039
2039
2039
2039
2040
2042
2042
2043
2043
2043
2044
2044
2045
2045
2046
2046
2046
2045
2045
2045
2046
2047
2048
2048
2049
2049
2050
2050
2051
2052
2052
2051
2050
2048
2047
2046
2046
2048
2049
2051
2052
2053
2053
2052
2052
2053
2055
2056
2056
2055
2053
2052
2052
2054
2056
2058
2058
2055
2052
2049
2047
2046
2045
2045
2045
2046
2046
2046
2047
2047
2047
2048
2048
2049
2049
2050
2051
2051
2051
2050
2050
2050
2051
2054
2055
2054
2052
2048
2046
2046
2056
2080
2126
2191
2255
2293
2284
2229
2151
2082
2048
2048
2069
2088
2094
2086
2074
2066
2062
2058
2056
2054
2054
2055
2056
2058
2059
2059
2060
2061
2060
2059
2058
2058
2062
2069
2080
2089
2095
2097
2095
2094
2094
2095
2096
2096
2095
2096
2102
2108
2114
2117
2116
2112
2108
2106
2107
2109
2114
2117
2120
2123
2125
2127
2132
2137
2143
2148
2152
2154
2153
2150
2144
2134
2123
2110
2097
2083
2070
2058
2048
2040
2033
2028
2023
2020
2017
2015
2014
2013
2013
2013
2013
2013
2014
2015
2015
2016
2016
2016
2016
2016
2016
2016
2016
2017
2018
2018
2019
2019
2020
2020
2021
2022
2022
2023
2024
2024
2024
2023
2022
2021
2022
2023
2025
2026
2027
2027
2028
2028
2028
2029
2030
2030
2030
2029
2029
2029
2030
2030
2030
2029
2029
2028
2028
2028
2027
2026
2026
2025
2024
2023
2022
2022
2023
2024
2024
2023
2023
2022
2022
2022
2021
2022
2023
2024
2024
2024
2023
2021
2021
2020
2021
2022
2022
2022
2021
2021
2021
2021
2022
2023
2024
2024
2024
2024
2025
2025
2026
2026
2026
2027
2028
2030
2031
2033
2033
2033
2032
2032
2032
2032
2034
2036
2038
2039
2040
2040
2040
2041
2042
2043
2044
2045
2045
2045
2044
2043
2042
2041
2040
2040
2039
2040
2040
2040
2040
2039
2039
2038
2036
2035
2033
2033
2033
2033
2035
2036
2038
2039
2040
2041
2041
2038
2034
2028
2023
2024
2035
2062
2113
2181
2244
2276
2260
2201
2125
2062
2035
2039
2056
2069
2070
2061
2051
2048
2048
2047
2046
2045
2044
2044
2045
2046
2047
2047
2047
2047
2047
2047
2048
2048
2050
2052
2053
2053
2054
2055
2057
2058
2060
2062
2064
2066
2067
2069
2072
2075
2078
2081
2083
2086
2089
2094
2101
2110
2120
2130
2138
2143
2147
2149
2152
2156
2160
2164
2166
2166
2163
2157
2150
2142
2131
2120
2106
2092
2080
2070
2063
2058
2055
2052
2049
2047
2045
2047
2048
2051
2052
2052
2051
2049
2049
2050
2052
2054
2054
2053
2052
2050
2049
2048
2049
2050
2051
2052
2052
2053
2053
2053
2052
2049
2048
2045
2042
2041
2041
2040
2040
2040
2039
2039
2039
2040
2042
2045
2048
2050
2052
2053
2054
2055
2056
2057
2057
2057
2058
2057
2057
2057
2057
2057
2056
2057
2057
2057
2057
2057
2056
2055
2054
2054
2054
2054
2054
2054
2054
2053
2053
2053
2053
2052
2051
2050
2049
2048
2048
2048
2048
2048
2049
2049
2049
2050
2051
2051
2050
2049
2049
2048
2048
2048
2048
2049
2049
2050
2050
2050
2049
2049
2049
2049
2049
2050
2051
2051
2052
2052
2053
2054
2054
2054
2052
2050
2051
2057
2068
2083
2098
2110
2117
2119
2119
2120
2121
2122
2123
2124
2124
2124
2125
2125
2125
2125
2126
2126
2126
2127
2127
2127
2127
2127
2127
2127
2127
2127
2127
2126
2125
2124
2123
2122
2122
2121
2120
2120
2118
2117
2116
2114
2112
2111
2110
2109
2109
2110
2110
2111
2111
2111
2111
2111
2111
2111
2112
2112
2112
2111
2109
2107
2106
2105
2105
2105
2105
2105
2104
2103
2103
2103
2103
2104
2103
2103
2103
2103
2102
2099
2093
2083
2071
2060
2052
2048
2048
2048
2046
2039
2031
2024
2021
2029
2053
2104
2177
2247
2287
2278
2223
2143
2075
2040
2038
2051
2064
2066
2057
2046
2040
2037
2034
2032
2031
2031
2032
2033
2033
2033
2033
2033
2033
2034
2034
2036
2037
2038
2039
2039
2040
2041
2043
2045
2048
2051
2055
2057
2059
2060
2061
2062
2064
2066
2068
2070
2073
2077
2080
2085
2090
2094
2100
2106
2112
2117
2122
2126
2131
2135
2137
2137
2138
2140
2145
2153
2160
2162
2159
2151
2141
2130
2121
2114
2108
2103
2100
2097
2096
2095
2094
2093
2093
2092
2091
2090
2090
2090
2090
2090
2090
2090
2091
2091
2091
2092
2092
2093
2093
2092
2092
2092
2092
2092
2092
2093
2093
2093
2092
2091
2090
2089
2089
2088
2088
2088
2087
2087
2087
2087
2086
2085
2084
2083
2082
2082
2082
2083
2082
2080
2079
2078
2077
2077
2076
2075
2074
2073
2073
2072
2070
2068
2066
2063
2061
2060
2059
2059
2059
2059
2059
2058
2057
2055
2054
2052
2051
2050
2049
2048
2046
2043
2040
2038
2037
2037
2038
2038
2038
2037
2035
2034
2033
2033
2033
2033
2033
2033
2033
2033
2033
2034
2034
2034
2033
2033
2032
2032
2032
2032
2032
2032
2031
2031
2029
2028
2028
2028
2029
2030
2031
2031
2031
2032
2032
2032
2032
2032
2032
2032
2033
2032
2032
2031
2031
2032
2032
2032
2031
2030
2028
2028
2027
2028
2028
2030
2031
2033
2036
2037
2039
2040
2041
2042
2042
2042
2042
2042
2043
2043
2043
2043
2043
2043
2045
2046
2048
2048
2047
2041
2034
2026
2018
2013
2010
2010
2011
2013
2016
2017
2015
2011
2009
2010
2019
2034
2051
2066
2075
2079
2080
2080
2081
2082
2083
2085
2085
2086
2087
2087
2086
2086
2089
2092
2093
2090
2079
2063
2044
2026
2014
2005
2001
2000
2004
2020
2052
2110
2184
2247
2275
2255
2192
2114
2053
2028
2033
2048
2058
2056
2046
2035
2031
2028
2026
2024
2022
2018
2014
2010
2008
2007
2007
2009
2010
2011
2012
2013
2014
2016
2017
2017
2016
2014
2009
2006
2004
2004
2006
2008
2010
2010
2012
2013
2015
2018
2022
2026
2030
2034
2037
2041
2046
2050
2055
2061
2068
2075
2082
2089
2094
2099
2103
2106
2108
2108
2106
2102
2094
2084
2073
2062
2051
2042
2033
2025
2018
2012
2006
2002
1998
1995
1992
1990
1989
1987
1986
1986
1987
1989
1991
1993
1995
1995
1996
1998
1999
2000
2001
1999
1997
1995
1994
1994
1995
1998
2000
2002
2003
2003
2003
2003
2004
2004
2005
2006
2007
2008
2010
2010
2011
2010
2010
2010
2010
2011
2011
2012
2013
2013
2014
2014
2014
2014
2013
2013
2012
2011
2011
2010
2009
2009
2008
2008
2009
2009
2009
2009
2009
2009
2009
2009
2009
2009
2009
2009
2010
2011
2012
2012
2012
2012
2013
2013
2014
2015
2016
2016
2016
2015
2015
2015
2015
2016
2016
2017
2017
2017
2018
2018
2018
2018
2018
2017
2017
2018
2018
2019
2019
2018
2017
2017
2017
2017
2017
2018
2018
2018
2018
2018
2018
2018
2018
2018
2018
2018
2017
2018
2018
2018
2018
2018
2017
2017
2017
2016
2017
2018
2018
2019
2019
2019
2019
2019
2019
2019
2019
2020
2020
2019
2019
2018
2018
2018
2018
2018
2018
2018
2018
2019
2021
2023
2024
2025
2026
2027
2028
2029
2030
2031
2030
2029
2028
2027
2026
2026
2027
2027
2027
2026
2026
2025
2025
2026
2026
2027
2027
2028
2028
2029
2029
2029
2030
2030
2031
2032
2032
2034
2035
2035
2034
2031
2026
2020
2015
2017
2031
2061
2116
2185
2245
2269
2247
2183
2107
2050
2027
2034
2051
2062
2061
2050
2042
2037
2035
2032
2031
2030
2030
2030
2031
2032
2033
2033
2033
2032
2032
2033
2034
2035
2036
2036
2035
2034
2033
2033
2034
2035
2037
2039
2041
2042
2043
2044
2046
2048
2049
2052
2055
2059
2063
2067
2071
2075
2079
2085
2092
2099
2105
2111
2116
2121
2124
2128
2130
2132
2132
2130
2125
2117
2106
2094
2081
2069
2058
2048
2040
2033
2027
2023
2020
2018
2016
2014
2013
2014
2014
2015
2016
2016
2016
2016
2015
2016
2016
2016
2016
2016
2016
2016
2016
2015
2015
2015
2014
2015
2015
2016
2016
2017
2017
2017
2017
2018
2018
2019
2019
2020
2020
2020
2020
2020
2021
2022
2022
2023
2024
2025
2026
2025
2025
2025
2025
2025
2026
2026
2027
2027
2027
2027
2027
2027
2027
2027
2027
2027
2027
2028
2028
2028
2029
2028
2029
2029
2030
2031
2031
2032
2032
2031
2031
2031
2031
2031
2031
2032
2032
2033
2033
2033
2033
2032
2032
2031
2030
2030
2030
2029
2030
2030
2030
2031
2031
2031
2032
2032
2033
2033
2033
2032
2032
2031
2030
2029
2028
2027
2028
2030
2031
2031
2031
2030
2030
2029
2030
2031
2032
2033
2034
2034
2034
2033
2034
2034
2034
2034
2034
2036
2037
2038
2038
2038
2037
2037
2037
2037
2038
2039
2039
2039
2039
2039
2039
2040
2040
2041
2041
2042
2042
2041
2041
2041
2041
2041
2041
2040
2040
2040
2040
2040
2040
2040
2041
2042
2044
2046
2048
2048
2048
2049
2050
2051
2051
2051
2050
2049
2049
2049
2049
2049
2049
2049
2049
2049
2049
2050
2050
2050
2050
2050
2050
2050
2050
2050
2051
2051
2052
2052
2053
2053
2054
2055
2055
2054
2049
2043
2037
2034
2040
2058
2099
2162
2232
2282
2290
2249
2176
2102
2056
2045
2056
2072
2078
2073
2062
2054
2051
2048
2047
2045
2044
2044
2044
2044
2044
2045
2045
2047
2047
2048
2048
2048
2048
2048
2049
2051
2052
2053
2054
2055
2056
2057
2058
2059
2061
2063
2066
2068
2071
2073
2076
2079
2082
2085
2089
2094
2099
2104
2110
2115
2121
2126
2131
2136
2141
2146
2150
2153
2154
2152
2148
2141
2133
2123
2112
2100
2089
2079
2070
2063
2057
2052
2048
2046
2044
2042
2041
2041
2041
2041
2042
2043
2044
2044
2045
2046
2048
2048
2048
2049
2049
2050
2050
2051
2052
2053
2053
2054
2054
2055
2055
2056
2057
2057
2058
2058
2059
2059
2059
2059
2059
2058
2058
2058
2059
2060
2060
2061
2061
2061
2061
2061
2061
2061
2061
2062
2062
2062
2063
2063
2063
2062
2062
2062
2062
2063
2064
2064
2064
2064
2064
2064
2064
2064
2065
2066
2066
2066
2065
2065
2065
2065
2065
2065
2064
2064
2065
2066
2067
2067
2066
2066
2066
2066
2066
2068
2069
2070
2070
2070
2069
2068
2067
2067
2067
2068
2068
2068
2068
2067
2066
2065
2064
2064
2064
2064
2064
2065
2065
2066
2066
2065
2065
2065
2064
2065
2065
2065
2065
2065
2064
2064
2064
2064
2064
2064
2065
2065
2064
2064
2063
2063
2063
2062
2062
2062
2062
2062
2062
2061
2061
2060
2060
2060
2061
2062
2062
2063
2062
2061
2061
2060
2059
2059
2059
2059
2059
2059
2058
2058
2057
2056
2056
2056
2056
2056
2056
2056
2055
2055
2054
2054
2053
2053
2052
2052
2053
2055
2057
2059
2061
2062
2062
2063
2063
2064
2065
2065
2064
2063
2062
2061
2062
2062
2062
2062
2061
2060
2060
2059
2059
2058
2057
2057
2056
2056
2057
2058
2059
2058
2057
2055
2054
2055
2057
2060
2061
2060
2055
2048
2042
2041
2050
2076
2125
2193
2258
2294
2284
2229
2152
2086
2051
2050
2065
2078
2081
2073
2062
2056
2053
2050
2048
2047
2046
2045
2044
2045
2045
2046
2047
2047
2048
2048
2048
2049
2050
2051
2051
2052
2053
2053
2054
2056
2058
2060
2062
2063
2065
2066
2067
2069
2071
2073
2076
2079
2082
2086
2090
2095
2100
2106
2111
2116
2122
2127
2132
2137
2141
2146
2149
2151
2151
2149
2144
2138
2129
2118
2107
2094
2082
2071
2061
2053
2047
2041
2036
2033
2030
2028
2027
2026
2025
2025
2025
2026
2027
2028
2029
2028
2027
2027
2027
2027
2028
2029
2029
2030
2030
2030
2030
2030
2029
2029
2029
2030
2031
2032
2032
2032
2032
2032
2032
2032
2033
2033
2034
2034
2034
2033
2034
2034
2034
2034
2034
2035
2035
2036
2036
2036
2036
2035
2035
2034
2034
2034
2035
2035
2035
2035
2035
2035
2035
2035
2035
2035
2035
2036
2036
2035
2035
2035
2035
2035
2035
2035
2036
2036
2037
2037
2037
2037
2036
2036
2036
2037
2038
2039
2039
2039
2038
2038
2038
2038
2038
2038
2039
2039
2039
2039
2039
2039
2038
2038
2038
2038
2039
2040
2040
2040
2040
2040
2040
2040
2040
2041
2041
2041
2042
2041
2041
2041
2041
2041
2041
2041
2041
2042
2042
2042
2042
2042
2041
2041
2041
2042
2042
2042
2042
2042
2042
2041
2041
2042
2042
2042
2042
2043
2043
2044
2044
2044
2043
2043
2043
2044
2044
2044
2044
2044
2044
2044
2043
2043
2043
2044
2044
2044
2044
2043
2043
2042
2041
2041
2040
2040
2040
2041
2041
2040
2038
2035
2031
2029
2027
2028
2029
2030
2032
2032
2031
2030
2029
2027
2027
2027
2027
2028
2029
2029
2029
2029
2029
2029
2029
2030
2031
2031
2031
2031
2031
2031
2032
2032
2032
2032
2034
2036
2037
2035
2031
2024
2017
2014
2020
2039
2077
2139
2209
2260
2271
2233
2161
2087
2040
2029
2042
2059
2068
2065
2055
2048
2048
2047
2047
2048
2050
2051
2053
2054
2053
2053
2052
2050
2049
2049
2050
2051
2052
2052
2052
2051
2052
2053
2053
2054
2055
2056
2056
2057
2058
2059
2059
2061
2063
2066
2070
2074
2077
2080
2084
2087
2091
2096
2101
2106
2112
2117
2122
2126
2129
2132
2135
2137
2137
2136
2133
2128
2120
2109
2096
2080
2065
2050
2037
2026
2018
2014
2013
2014
2015
2014
2013
2011
2009
2008
2008
2008
2009
2009
2009
2009
2009
2009
2010
2010
2011
2012
2012
2013
2013
2013
2013
2013
2013
2014
2015
2016
2017
2017
2017
2017
2018
2019
2020
2020
2021
2022
2023
2024
2024
2023
2023
2022
2022
2023
2023
2024
2024
2024
2024
2024
2024
2025
2025
2025
2025
2025
2025
2025
2025
2025
2025
2025
2025
2026
2026
2027
2027
2028
2028
2028
2029
2029
2030
2031
2032
2032
2033
2033
2033
2033
2033
2033
2032
2033
2033
2034
2034
2034
2034
2034
2034
2034
2034
2034
2035
2035
2036
2037
2037
2036
2036
2036
2036
2037
2037
2037
2037
2037
2037
2037
2037
2037
2036
2037
2037
2037
2037
2037
2037
2036
2036
2036
2036
2036
2036
2037
2037
2036
2036
2035
2035
2035
2036
2036
2036
2037
2037
2037
2037
2036
2036
2036
2036
2037
2037
2037
2038
2038
2038
2038
2038
2038
2038
2038
2039
2040
2040
2041
2041
2041
2041
2041
2041
2041
2041
2041
2041
2040
2040
2040
2041
2043
2045
2047
2048
2048
2049
2049
2050
2051
2051
2050
2049
2048
2047
2047
2047
2048
2048
2047
2046
2046
2046
2047
2047
2048
2047
2047
2047
2047
2047
2047
2047
2047
2047
2047
2048
2049
2050
2049
2048
2042
2036
2031
2030
2039
2061
2105
2170
2236
2278
2277
2229
2155
2087
2048
2044
2057
2072
2076
2070
2059
2053
2051
2049
2048
2048
2048
2048
2048
2048
2048
2049
2049
2050
2051
2052
2052
2052
2052
2053
2053
2054
2056
2057
2059
2061
2062
2063
2064
2065
2066
2067
2069
2072
2075
2078
2080
2083
2086
2089
2093
2097
2103
2110
2116
2121
2126
2131
2136
2141
2146
2149
2152
2154
2154
2153
2149
2143
2134
2123
2112
2100
2089
2079
2070
2062
2055
2050
2046
2043
2041
2039
2038
2037
2037
2036
2036
2035
2035
2035
2035
2035
2035
2036
2036
2037
2037
2038
2038
2039
2040
2040
2040
2040
2039
2039
2038
2038
2038
2038
2038
2038
2038
2039
2040
2041
2042
2042
2043
2043
2043
2043
2043
2043
2043
2042
2041
2040
2039
2039
2039
2039
2039
2039
2039
2038
2038
2037
2037
2037
2037
2037
2038
2038
2039
2039
2039
2039
2039
2039
2039
2040
2041
2042
2042
2042
2042
2042
2041
2040
2038
2036
2036
2037
2039
2042
2045
2047
2048
2048
2049
2050
2052
2054
2055
2056
2056
2058
2059
2060
2060
2059
2058
2058
2058
2058
2058
2058
2057
2057
2057
2057
2057
2058
2059
2060
2060
2060
2059
2058
2058
2059
2060
2060
2059
2058
2057
2056
2055
2055
2054
2054
2054
2054
2054
2054
2054
2054
2054
2054
2054
2054
2055
2055
2055
2055
2054
2054
2054
2055
2055
2055
2056
2057
2057
2057
2056
2055
2054
2054
2054
2053
2053
2054
2054
2056
2057
2057
2057
2057
2056
2056
2056
2056
2056
2055
2053
2052
2051
2050
2050
2050
2050
2051
2051
2051
2051
2050
2049
2049
2048
2048
2049
2049
2050
2049
2049
2048
2048
2048
2049
2049
2049
2048
2043
2037
2032
2032
2043
2069
2118
2183
2242
2271
2253
2194
2117
2056
2030
2034
2052
2066
2069
2060
2050
2045
2042
2038
2036
2035
2035
2036
2036
2037
2039
2040
2041
2041
2041
2040
2039
2038
2039
2040
2043
2045
2047
2048
2048
2048
2050
2053
2056
2059
2061
2062
2063
2066
2067
2065
2060
2057
2067
2096
2138
2179
2202
2198
2175
2145
2124
2118
2125
2132
2138
2140
2140
2141
2140
2137
2132
2124
2114
2103
2090
2078
2065
2054
2045
2038
2031
2026
2023
2020
2018
2017
2016
2016
2016
2016
2016
2016
2017
2017
2017
2017
2017
2017
2018
2019
2020
2020
2021
2022
2023
2024
2024
2024
2023
2023
2023
2024
2024
2025
2025
2025
2025
2025
2025
2025
2026
2027
2028
2029
2031
2033
2034
2035
2036
2037
2037
2038
2038
2038
2038
2039
2040
2042
2043
2044
2045
2045
2045
2045
2045
2045
2044
2044
2043
2043
2043
2042
2043
2043
2043
2044
2044
2044
2043
2043
2043
2042
2043
2043
2043
2044
2044
2044
2044
2044
2045
2045
2045
2045
2045
2045
2044
2044
2044
2044
2044
2044
2045
2045
2045
2045
2044
2045
2045
2045
2045
2045
2045
2046
2047
2047
2047
2047
2046
2046
2046
2046
2046
2046
2046
2045
2046
2046
2046
2047
2047
2046
2047
2047
2048
2048
2048
2048
2047
2047
2048
2048
2048
2048
2049
2050
2051
2052
2052
2052
2052
2052
2052
2052
2053
2054
2054
2054
2053
2052
2052
2051
2051
2051
2052
2053
2054
2055
2057
2058
2058
2058
2059
2060
2061
2062
2062
2061
2059
2057
2056
2055
2055
2056
2056
2056
2056
2055
2054
2054
2054
2054
2054
2054
2055
2055
2055
2055
2055
2055
2054
2055
2056
2057
2058
2057
2054
2048
2041
2036
2037
2049
2081
2136
2206
2266
2292
2269
2205
2127
2069
2046
2051
2068
2080
2080
2070
2061
2056
2053
2050
2048
2048
2048
2048
2049
2049
2048
2048
2047
2046
2044
2044
2043
2044
2044
2044
2044
2044
2044
2045
2046
2048
2051
2054
2057
2060
2063
2066
2069
2072
2075
2078
2081
2084
2088
2092
2096
2100
2105
2110
2115
2121
2127
2133
2138
2143
2147
2151
2153
2154
2154
2151
2146
2139
2129
2118
2107
2095
2084
2073
2065
2057
2051
2047
2044
2041
2039
2037
2036
2036
2035
2035
2036
2036
2036
2036
2037
2037
2037
2037
2038
2038
2039
2039
2039
2039
2039
2039
2039
2039
2039
2039
2039
2040
2040
2040
2041
2040
2040
2040
2040
2041
2041
2041
2042
2042
2042
2042
2042
2042
2042
2042
2042
2042
2043
2042
2042
2042
2041
2041
2041
2041
2042
2043
2042
2042
2042
2041
2041
2041
2041
2041
2041
2042
2042
2041
2041
2041
2041
2042
2042
2042
2042
2042
2042
2042
2042
2042
2041
2041
2041
2041
2042
2042
2042
2042
2043
2043
2042
2043
2042
2042
2042
2042
2042
2041
2041
2040
2040
2040
2040
2041
2041
2042
2042
2042
2042
2041
2041
2041
2042
2042
2043
2043
2043
2043
2043
2042
2042
2042
2042
2043
2043
2043
2043
2043
2043
2043
2043
2043
2043
2044
2044
2045
2046
2045
2045
2045
2045
2045
2045
2046
2046
2046
2046
2046
2046
2044
2044
2042
2042
2042
2042
2042
2043
2044
2046
2048
2048
2048
2048
2048
2049
2050
2051
2050
2049
2048
2046
2045
2045
2045
2045
2045
2045
2045
2045
2045
2045
2045
2045
2046
2046
2047
2047
2048
2048
2047
2047
2047
2046
2047
2048
2050
2050
2048
2046
2039
2034
2030
2034
2049
2084
2143
2213
2269
2287
2257
2190
2115
2062
2044
2052
2069
2080
2078
2069
2060
2056
2053
2050
2049
2049
2050
2051
2052
2054
2056
2058
2060
2060
2061
2062
2062
2064
2065
2066
2066
2067
2069
2070
2071
2071
2072
2073
2074
2076
2077
2078
2079
2080
2082
2085
2088
2092
2095
2099
2103
2107
2112
2118
2124
2129
2134
2140
2145
2149
2151
2150
2147
2144
2141
2138
2134
2126
2116
2103
2090
2077
2065
2055
2047
2040
2035
2030
2027
2024
2023
2022
2023
2024
2024
2024
2024
2023
2024
2024
2025
2025
2026
2026
2027
2028
2028
2028
2028
2028
2028
2028
2029
2030
2032
2034
2035
2035
2034
2034
2033
2033
2034
2035
2036
2037
2037
2037
2037
2038
2038
2038
2038
2039
2040
2042
2042
2043
2042
2042
2043
2044
2045
2045
2046
2046
2046
2046
2045
2045
2045
2045
2044
2044
2044
2043
2043
2043
2042
2042
2042
2043
2045
2047
2048
2050
2051
2052
2051
2049
2048
2046
2045
2044
2044
2045
2046
2047
2047
2047
2046
2046
2046
2047
2048
2048
2048
2048
2047
2047
2047
2047
2048
2048
2047
2047
2047
2047
2047
2046
2046
2046
2046
2046
2046
2047
2047
2047
2047
2047
2046
2045
2045
2044
2044
2044
2044
2043
2042
2040
2039
2039
2039
2039
2040
2042
2044
2047
2048
2051
2053
2055
2056
2057
2058
2058
2058
2058
2056
2055
2054
2054
2054
2054
2054
2054
2054
2055
2056
2056
2055
2055
2054
2053
2052
2052
2052
2052
2052
2051
2051
2051
2052
2053
2055
2055
2054
2050
2045
2040
2038
2045
2065
2106
2169
2236
2280
2281
2236
2162
2091
2049
2044
2060
2078
2087
2082
2071
2064
2061
2058
2055
2054
2054
2054
2055
2056
2056
2056
2057
2057
2057
2058
2058
2058
2059
2060
2061
2063
2064
2064
2065
2066
2067
2068
2069
2070
2071
2072
2073
2075
2077
2080
2083
2086
2089
2092
2096
2101
2106
2112
2118
2124
2130
2137
2143
2149
2155
2159
2163
2164
2164
2163
2159
2152
2142
2129
2116
2104
2092
2082
2071
2061
2051
2045
2039
2036
2034
2031
2028
2025
2022
2021
2021
2023
2025
2026
2027
2026
2024
2022
2020
2018
2017
2016
2016
2015
2015
2014
2014
2014
2015
2016
2018
2020
2020
2021
2021
2021
2021
2021
2022
2023
2023
2024
2025
2027
2028
2030
2031
2032
2033
2034
2035
2036
2037
2038
2038
2039
2039
2038
2038
2037
2037
2037
2038
2039
2040
2040
2040
2040
2041
2041
2041
2041
2042
2043
2043
2043
2043
2042
2042
2041
2041
2042
2043
2044
2044
2044
2043
2043
2042
2043
2043
2044
2044
2044
2044
2044
2044
2043
2043
2043
2043
2043
2043
2043
2043
2042
2042
2042
2042
2042
2042
2043
2043
2043
2044
2044
2044
2043
2043
2043
2043
2044
2044
2045
2045
2045
2044
2044
2043
2043
2043
2044
2044
2044
2044
2043
2042
2041
2040
2040
2040
2040
2040
2040
2040
2039
2038
2037
2036
2036
2036
2038
2041
2043
2045
2046
2046
2045
2045
2046
2047
2048
2048
2047
2046
2044
2043
2043
2043
2044
2044
2044
2044
2045
2046
2046
2046
2046
2045
2045
2044
2045
2046
2047
2047
2048
2048
2048
2048
2048
2050
2051
2050
2048
2042
2036
2032
2034
2048
2081
2139
2210
2268
2289
2262
2195
2118
2062
2042
2050
2067
2078
2077
2068
2059
2055
2051
2048
2048
2047
2046
2047
2048
2049
2050
2051
2052
2052
2052
2052
2053
2054
2055
2056
2056
2056
2056
2057
2057
2058
2059
2060
2061
2062
2063
2065
2066
2068
2070
2072
2076
2079
2084
2088
2092
2097
2102
2108
2114
2120
2126
2132
2138
2143
2148
2151
2153
2154
2153
2149
2143
2135
2125
2113
2100
2086
2072
2059
2048
2041
2036
2033
2031
2030
2029
2027
2026
2025
2025
2025
2025
2025
2025
2026
2026
2026
2026
2026
2026
2026
2027
2028
2028
2028
2028
2028
2028
2028
2029
2029
2029
2030
2030
2030
2030
2030
2030
2031
2032
2032
2032
2033
2033
2034
2034
2035
2036
2036
2037
2038
2038
2039
2040
2041
2042
2042
2041
2040
2040
2040
2040
2041
2042
2042
2041
2039
2038
2037
2037
2038
2039
2041
2042
2043
2045
2046
2046
2046
2046
2045
2045
2045
2045
2045
2045
2044
2043
2043
2044
2045
2045
2046
2046
2046
2045
2045
2044
2044
2043
2043
2043
2044
2044
2044
2045
2045
2046
2046
2046
2046
2045
2045
2044
2044
2043
2043
2042
2042
2042
2043
2043
2044
2045
2045
2045
2045
2045
2044
2043
2043
2043
2044
2044
2045
2045
2045
2044
2042
2041
2040
2039
2038
2038
2039
2040
2040
2041
2043
2045
2048
2051
2054
2056
2057
2056
2054
2051
2049
2048
2048
2047
2047
2048
2048
2048
2048
2048
2047
2046
2046
2046
2048
2048
2048
2048
2048
2049
2050
2053
2056
2059
2062
2064
2064
2061
2057
2050
2045
2041
2046
2063
2101
2162
2231
2283
2295
2259
2189
2117
2071
2061
2077
2097
2108
2105
2094
2086
2083
2082
2080
2078
2077
2076
2075
2074
2072
2070
2068
2066
2064
2064
2065
2067
2069
2070
2070
2070
2069
2068
2068
2069
2070
2072
2074
2075
2075
2076
2076
2076
2077
2080
2089
2106
2128
2150
2165
2168
2160
2147
2136
2133
2137
2146
2154
2161
2166
2170
2174
2177
2179
2178
2175
2167
2157
2144
2130
2114
2099
2086
2075
2066
2061
2058
2058
2056
2054
2050
2048
2046
2043
2042
2043
2048
2058
2073
2090
2105
2114
2117
2119
2121
2126
2129
2125
2111
2090
2069
2055
2049
2049
2051
2054
2053
2052
2051
2050
2049
2048
2047
2047
2046
2046
2046
2047
2047
2048
2048
2050
2050
2048
2047
2048
2053
2066
2083
2100
2112
2119
2120
2119
2117
2118
2119
2120
2121
2121
2120
2120
2119
2119
2120
2121
2122
2124
2124
2124
2123
2123
2122
2123
2122
2123
2122
2123
2123
2123
2123
2122
2122
2121
2120
2120
2120
2120
2119
2117
2115
2112
2110
2107
2104
2100
2096
2093
2090
2087
2085
2083
2081
2080
2079
2079
2080
2080
2080
2080
2079
2079
2079
2078
2078
2080
2082
2080
2072
2056
2037
2020
2008
2005
2006
2009
2010
2010
2009
2008
2007
2006
2006
2005
2005
2005
2005
2006
2006
2005
2004
2001
2000
1999
1999
1999
1998
1994
1987
1981
1977
1982
1999
2033
2088
2155
2210
2231
2210
2154
2092
2050
2040
2053
2072
2085
2085
2076
2069
2064
2061
2057
2056
2056
2058
2061
2063
2064
2063
2060
2056
2051
2048
2048
2048
2049
2051
2051
2052
2052
2054
2055
2057
2059
2060
2061
2061
2059
2057
2056
2058
2060
2060
2057
2050
2045
2041
2042
2047
2051
2053
2052
2050
2048
2048
2051
2055
2060
2064
2066
2066
2064
2061
2056
2048
2037
2024
2010
1997
1987
1979
1972
1968
1965
1962
1960
1957
1955
1952
1949
1948
1945
1943
1941
1942
1945
1950
1955
1958
1958
1956
1954
1952
1950
1949
1949
1951
1955
1959
1963
1966
1969
1971
1973
1973
1971
1968
1967
1966
1968
1970
1973
1975
1976
1977
1979
1982
1986
1988
1990
1990
1990
1990
1991
1992
1994
1995
1997
1997
1998
1998
1998
1999
1999
1999
1999
2000
2000
2001
2002
2003
2003
2004
2004
2005
2006
2007
2007
2008
2008
2009
2009
2010
2010
2011
2012
2013
2014
2015
2015
2015
2015
2014
2014
2014
2014
2014
2015
2015
2016
2016
2016
2016
2017
2017
2017
2017
2016
2015
2014
2013
2012
2012
2012
2012
2012
2012
2013
2014
2015
2016
2016
2016
2017
2017
2019
2020
2021
2022
2023
2023
2023
2023
2023
2024
2025
2027
2028
2029
2030
2030
2031
2032
2033
2034
2035
2035
2036
2036
2036
2036
2035
2035
2035
2035
2037
2038
2040
2042
2044
2047
2048
2050
2051
2052
2053
2054
2055
2057
2058
2058
2058
2056
2055
2054
2054
2054
2054
2054
2053
2053
2052
2052
2052
2052
2053
2054
2055
2055
2054
2054
2053
2054
2054
2055
2055
2055
2055
2056
2057
2058
2057
2055
2050
2044
2038
2034
2038
2055
2095
2161
2235
2290
2303
2266
2193
2116
2065
2049
2058
2073
2080
2075
2063
2055
2051
2048
2047
2046
2045
2044
2044
2044
2045
2046
2047
2047
2048
2048
2048
2049
2050
2050
2051
2051
2052
2053
2054
2054
2054
2055
2055
2056
2057
2058
2059
2060
2062
2064
2065
2067
2069
2072
2076
2079
2084
2089
2094
2100
2105
2110
2115
2120
2125
2129
2133
2135
2135
2133
2128
2121
2112
2102
2091
2079
2069
2059
2050
2044
2037
2032
2027
2024
2021
2019
2019
2019
2018
2018
2018
2018
2018
2018
2018
2018
2019
2019
2020
2021
2021
2022
2022
2023
2024
2024
2025
2025
2025
2025
2026
2026
2026
2026
2027
2027
2027
2027
2028
2028
2029
2029
2030
2030
2031
2031
2032
2032
2032
2033
2033
2033
2033
2033
2033
2033
2033
2034
2034
2034
2034
2035
2034
2035
2035
2035
2036
2036
2036
2037
2036
2037
2036
2037
2037
2037
2037
2037
2038
2038
2038
2038
2038
2038
2038
2038
2039
2039
2040
2040
2040
2040
2040
2040
2040
2039
2040
2040
2041
2042
2042
2042
2041
2041
2041
2041
2041
2042
2043
2045
2047
2048
2049
2050
2050
2050
2051
2052
2053
2053
2053
2053
2052
2053
2054
2055
2056
2057
2058
2058
2057
2057
2056
2056
2055
2054
2054
2053
2053
2053
2053
2053
2052
2052
2051
2051
2050
2050
2049
2048
2048
2046
2045
2045
2046
2047
2048
2049
2050
2051
2052
2052
2053
2053
2054
2053
2053
2052
2050
2049
2048
2048
2046
2044
2043
2043
2043
2043
2043
2043
2042
2042
2042
2042
2042
2042
2042
2043
2043
2043
2043
2043
2043
2044
2046
2046
2044
2039
2034
2029
2028
2038
2063
2113
2185
2254
2296
2289
2235
2157
2088
2050
2048
2061
2075
2077
2070
2059
2055
2052
2049
2048
2046
2046
2046
2047
2048
2049
2050
2050
2050
2051
2051
2052
2052
2053
2054
2055
2056
2057
2057
2057
2058
2059
2061
2062
2064
2065
2066
2068
2070
2072
2074
2076
2079
2083
2087
2092
2097
2102
2107
2113
2119
2125
2131
2137
2142
2147
2151
2155
2156
2156
2152
2147
2140
2130
2120
2108
2096
2085
2075
2067
2060
2054
2049
2047
2045
2044
2044
2044
2044
2043
2042
2041
2040
2039
2038
2038
2038
2038
2039
2039
2038
2037
2035
2033
2033
2034
2034
2032
2027
2020
2013
2009
2008
2010
2012
2014
2015
2015
2016
2018
2022
2026
2030
2032
2032
2032
2032
2031
2029
2026
2023
2020
2019
2020
2023
2026
2030
2032
2033
2033
2032
2032
2031
2031
2031
2033
2034
2035
2036
2036
2036
2036
2036
2036
2036
2036
2035
2035
2034
2033
2031
2029
2027
2026
2026
2028
2030
2032
2032
2033
2032
2030
2029
2028
2028
2029
2029
2029
2029
2029
2030
2031
2032
2032
2032
2030
2030
2029
2030
2029
2029
2029
2030
2031
2032
2032
2031
2030
2030
2030
2031
2032
2034
2035
2036
2036
2037
2038
2041
2045
2048
2049
2051
2051
2050
2049
2049
2048
2048
2048
2047
2046
2043
2041
2040
2040
2040
2040
2038
2036
2035
2035
2037
2039
2041
2043
2042
2041
2041
2042
2046
2048
2048
2047
2048
2052
2058
2063
2063
2057
2049
2044
2048
2064
2103
2162
2230
2283
2296
2261
2191
2117
2068
2056
2071
2091
2102
2099
2088
2081
2078
2077
2074
2070
2066
2064
2068
2076
2089
2105
2119
2131
2136
2138
2135
2131
2130
2131
2134
2138
2142
2145
2144
2144
2145
2147
2149
2151
2152
2152
2154
2155
2158
2161
2166
2173
2178
2178
2172
2161
2150
2145
2148
2157
2170
2182
2190
2195
2201
2210
2219
2230
2239
2243
2240
2233
2221
2208
2196
2184
2172
2161
2151
2143
2137
2133
2129
2126
2124
2123
2123
2125
2126
2126
2126
2125
2124
2123
2120
2117
2112
2108
2106
2106
2107
2108
2107
2105
2102
2100
2097
2094
2091
2088
2088
2091
2097
2103
2105
2100
2087
2071
2055
2045
2041
2042
2046
2048
2050
2052
2053
2054
2055
2056
2057
2057
2058
2059
2058
2057
2055
2053
2052
2052
2054
2056
2058
2060
2059
2057
2054
2051
2049
2048
2048
2048
2046
2043
2041
2038
2036
2035
2035
2035
2035
2034
2035
2035
2034
2033
2030
2029
2028
2029
2033
2037
2041
2043
2042
2041
2040
2040
2042
2045
2047
2048
2048
2049
2048
2048
2046
2042
2036
2031
2027
2025
2024
2024
2022
2020
2019
2019
2020
2023
2027
2030
2031
2030
2026
2022
2019
2017
2017
2017
2016
2015
2014
2013
2013
2013
2013
2010
2005
1996
1986
1976
1969
1971
1985
2019
2074
2139
2187
2197
2160
2091
2020
1974
1964
1979
2000
2011
2008
1997
1989
1985
1983
1980
1978
1977
1977
1976
1976
1977
1978
1980
1983
1986
1988
1990
1989
1989
1989
1989
1992
1996
2001
2005
2009
2011
2013
2014
2015
2015
2016
2017
2019
2023
2028
2035
2041
2047
2051
2054
2059
2063
2069
2076
2083
2092
2100
2106
2111
2115
2118
2121
2122
2121
2117
2109
2099
2087
2074
2063
2052
2044
2036
2029
2022
2016
2013
2011
2011
2012
2014
2015
2018
2019
2020
2021
2020
2020
2020
2021
2022
2022
2024
2026
2029
2033
2036
2039
2041
2042
2042
2043
2044
2045
2045
2046
2046
2046
2047
2047
2047
2047
2047
2047
2047
2047
2048
2048
2048
2048
2048
2049
2048
2048
2047
2046
2044
2043
2041
2039
2039
2040
2042
2044
2045
2046
2046
2046
2046
2046
2045
2045
2045
2046
2046
2046
2045
2041
2037
2033
2031
2032
2034
2035
2032
2027
2021
2016
2013
2012
2013
2010
2005
2001
2003
2018
2044
2074
2099
2112
2115
2110
2105
2102
2104
2104
2103
2102
2101
2100
2099
2098
2097
2096
2095
2094
2094
2093
2093
2093
2093
2093
2093
2093
2092
2090
2089
2090
2093
2096
2096
2090
2077
2061
2046
2035
2033
2039
2049
2060
2065
2062
2053
2044
2037
2036
2037
2040
2042
2042
2042
2043
2044
2044
2044
2043
2042
2041
2041
2040
2041
2043
2047
2051
2055
2056
2053
2047
2041
2038
2037
2039
2041
2040
2037
2034
2032
2030
2031
2032
2033
2034
2034
2033
2030
2025
2018
2011
2006
2008
2023
2057
2116
2189
2248
2269
2240
2172
2092
2034
2010
2015
2031
2042
2042
2033
2025
2020
2016
2013
2013
2014
2016
2017
2018
2018
2018
2019
2020
2022
2024
2027
2028
2028
2028
2028
2029
2033
2039
2044
2048
2048
2048
2048
2049
2052
2055
2059
2063
2066
2069
2073
2076
2079
2082
2085
2089
2093
2097
2102
2107
2113
2118
2124
2128
2132
2134
2137
2139
2140
2139
2136
2130
2122
2112
2101
2089
2079
2069
2060
2054
2049
2046
2044
2041
2039
2037
2035
2033
2032
2031
2031
2031
2031
2032
2032
2032
2033
2034
2034
2034
2033
2033
2032
2032
2032
2031
2031
2030
2030
2030
2031
2031
2032
2032
2032
2032
2032
2032
2032
2032
2033
2034
2034
2034
2033
2031
2029
2028
2027
2027
2027
2027
2027
2027
2028
2030
2031
2031
2032
2032
2033
2034
2034
2035
2035
2034
2033
2033
2033
2033
2034
2034
2035
2035
2034
2034
2033
2033
2033
2034
2034
2034
2036
2036
2034
2029
2027
2032
2047
2075
2110
2139
2153
2146
2122
2091
2064
2048
2043
2043
2047
2047
2040
2032
2030
2039
2060
2093
2125
2148
2157
2155
2147
2143
2146
2150
2147
2136
2115
2085
2056
2038
2036
2050
2077
2105
2127
2141
2145
2138
2122
2100
2078
2058
2048
2044
2045
2047
2047
2044
2042
2040
2039
2039
2040
2041
2042
2043
2045
2047
2049
2052
2053
2052
2050
2048
2048
2050
2049
2048
2044
2044
2051
2070
2095
2114
2119
2106
2084
2066
2061
2074
2096
2115
2124
2121
2106
2087
2071
2062
2057
2055
2055
2052
2044
2034
2026
2033
2063
2124
2210
2292
2337
2324
2258
2165
2086
2044
2039
2056
2072
2078
2071
2059
2051
2048
2046
2043
2043
2043
2044
2045
2045
2045
2046
2046
2047
2047
2047
2047
2047
2047
2048
2048
2049
2049
2048
2048
2048
2048
2050
2051
2053
2054
2055
2056
2058
2060
2063
2066
2069
2073
2077
2082
2087
2091
2096
2102
2108
2114
2120
2126
2131
2136
2139
2142
2143
2143
2140
2134
2126
2114
2102
2090
2077
2066
2055
2046
2038
2032
2028
2025
2022
2020
2017
2015
2013
2012
2012
2012
2012
2012
2013
2012
2012
2012
2011
2011
2010
2010
2010
2010
2011
2010
2010
2009
2009
2009
2009
2011
2012
2013
2014
2014
2014
2013
2013
2013
2014
2015
2015
2015
2015
2015
2014
2014
2015
2016
2017
2018
2018
2019
2020
2020
2021
2022
2022
2022
2022
2022
2022
2022
2022
2022
2023
2023
2024
2024
2024
2023
2023
2022
2022
2022
2022
2021
2020
2020
2019
2019
2020
2022
2023
2024
2024
2025
2027
2033
2040
2047
2051
2053
2054
2055
2055
2056
2057
2057
2058
2060
2064
2072
2081
2089
2091
2085
2071
2054
2042
2035
2034
2036
2038
2039
2036
2035
2034
2034
2035
2036
2037
2038
2040
2041
2041
2039
2035
2030
2026
2024
2024
2025
2026
2027
2030
2034
2042
2053
2066
2081
2094
2104
2109
2111
2110
2108
2107
2107
2107
2108
2108
2108
2106
2106
2107
2109
2110
2106
2095
2079
2063
2050
2045
2044
2046
2047
2048
2048
2049
2051
2051
2048
2044
2037
2030
2030
2041
2070
2127
2199
2261
2287
2263
2198
2119
2058
2034
2041
2060
2075
2078
2071
2064
2067
2074
2087
2101
2111
2112
2104
2089
2071
2057
2047
2043
2044
2046
2047
2044
2043
2043
2043
2044
2045
2045
2046
2047
2048
2048
2049
2051
2052
2054
2055
2056
2057
2058
2059
2061
2064
2067
2071
2076
2080
2084
2090
2095
2101
2106
2112
2118
2123
2128
2131
2133
2133
2132
2127
2121
2112
2102
2091
2080
2068
2058
2048
2041
2035
2031
2028
2025
2024
2023
2023
2023
2021
2017
2012
2005
2000
1998
1997
1997
1997
1997
1996
1996
1997
1997
1998
1999
2000
2001
2001
2002
2002
2002
2003
2003
2004
2005
2006
2006
2006
2006
2006
2006
2007
2007
2009
2010
2010
2013
2014
2013
2013
2010
2007
2002
2001
2002
2001
2003
2002
2001
2002
2003
2005
2004
2005
2006
2004
2005
2003
2004
2005
2006
2008
2007
2008
2008
2007
2009
2008
2008
2008
2010
2012
2011
2013
2013
2012
2012
2010
2012
2013
2015
2017
2015
2016
2016
2015
2017
2017
2017
2018
2017
2020
2020
2021
2021
2019
2020
2019
2020
2020
2022
2023
2022
2024
2024
2022
2023
2022
2023
2022
2023
2025
2026
2029
2029
2029
2028
2025
2025
2024
2026
2028
2028
2029
2030
2028
2026
2023
2022
2026
2029
2031
2031
2031
2031
2029
2030
2030
2031
2032
2034
2036
2033
2033
2032
2031
2035
2033
2033
2032
2031
2033
2031
2033
2033
2032
2032
2030
2031
2029
2032
2033
2032
2035
2036
2036
2035
2031
2029
2026
2028
2028
2029
2031
2032
2032
2029
2027
2026
2026
2030
2030
2029
2030
2030
2028
2029
2028
2028
2028
2028
2030
2029
2030
2030
2029
2032
2032
2033
2034
2035
2037
2036
2036
2034
2034
2034
2035
2038
2037
2038
2039
2036
2033
2029
2026
2028
2030
2033
2035
2034
2033
2033
2034
2037
2036
2035
2031
2030
2032
2034
2036
2035
2035
2035
2034
2034
2032
2032
2031
2032
2034
2033
2034
2034
2033
2034
2032
2032
2032
2033
2034
2033
2035
2035
2034
2034
2031
2032
2033
2035
2037
2035
2036
2036
2035
2037
2038
2038
2038
2038
2040
2039
2040
2041
2039
2040
2038
2038
2038
2039
2040
2039
2039
2037
2037
2038
2041
2048
2051
2055
2056
2054
2054
2051
2050
2050
2050
2051
2052
2054
2055
2056
2058
2059
2060
2060
2060
2060
2060
2060
2061
2062
2063
2065
2067
2069
2070
2071
2072
2072
2072
2071
2071
2071
2070
2070
2070
2070
2070
2070
2069
2069
2069
2069
2070
2070
2070
2070
2069
2068
2068
2068
2069
2070
2070
2070
2070
2069
2068
2068
2067
2067
2067
2067
2067
2067
2067
2067
2066
2066
2065
2065
2065
2065
2066
2067
2067
2067
2066
2065
2064
2063
2064
2064
2065
2066
2066
2065
2065
2065
2065
2064
2064
2064
2063
2063
2062
2061
2060
2059
2058
2057
2058
2058
2058
2058
2058
2058
2058
2057
2057
2056
2056
2060
2069
2084
2103
2124
2142
2153
2158
2158
2157
2155
2155
2154
2153
2152
2150
2149
2147
2143
2140
2138
2135
2136
2137
2139
2143
2144
2144
2141
2139
2137
2134
2132
2129
2129
2128
2128
2128
2125
2123
2122
2120
2120
2118
2116
2115
2113
2114
2114
2113
2110
2109
2108
2108
2111
2111
2112
2110
2106
2105
2102
2100
2102
2102
2100
2097
2093
2092
2091
2091
2093
2091
2089
2086
2084
2085
2086
2087
2085
2084
2084
2083
2083
2080
2080
2079
2079
2081
2079
2079
2078
2076
2077
2074
2074
2074
2074
2075
2073
2074
2074
2072
2073
2071
2071
2072
2072
2074
2072
2073
2073
2072
2074
2074
2075
2077
2080
2083
2083
2085
2087
2087
2089
2089
2089
2090
2091
2094
2093
2094
2093
2094
2095
2097
2100
2100
2101
2100
2098
2098
2096
2095
2095
2094
2094
2093
2092
2091
2092
2094
2096
2093
2085
2070
2053
2039
2030
2027
2028
2029
2030
2028
2028
2028
2027
2028
2027
2026
2023
2022
2023
2023
2024
2024
2023
2024
2023
2024
2024
2025
2024
2023
2023
2022
2024
2023
2025
2026
2026
2029
2028
2028
2028
2028
2028
2027
2027
2025
2022
2019
2017
2016
2016
2017
2017
2017
2017
2016
2016
2016
2016
2016
2015
2015
2015
2016
2016
2015
2014
2014
2014
2015
2016
2016
2016
2016
2016
2016
2016
2017
2017
2018
2019
2019
2019
2019
2018
2018
2019
2020
2021
2022
2022
2022
2022
2022
2022
2022
2022
2023
2024
2025
2026
2025
2025
2024
2025
2027
2028
2029
2029
2029
2028
2025
2022
2019
2017
2011
2008
2005
2003
2004
2002
2002
2003
2004
2007
2005
2004
2001
1999
1997
1996
1996
1996
1997
1996
1996
1996
1997
1999
2001
2003
2005
2007
2007
2008
2009
2010
2012
2013
2014
2014
2015
2016
2018
2020
2022
2023
2024
2024
2025
2026
2027
2028
2028
2028
2028
2029
2029
2033
2035
2037
2035
2030
2024
2020
2021
2024
2026
2028
2027
2027
2026
2029
2030
2032
2036
2042
2050
2060
2070
2078
2082
2084
2084
2085
2087
2088
2089
2091
2091
2092
2093
2096
2097
2099
2100
2101
2101
2102
2101
2102
2102
2105
2106
2108
2109
2109
2110
2110
2109
2110
2109
2111
2111
2113
2114
2115
2116
2116
2115
2115
2115
2118
2120
2122
2123
2124
2124
2125
2126
2127
2128
2132
2134
2136
2139
2141
2143
2145
2147
2149
2150
2155
2158
2161
2163
2164
2165
2165
2164
2163
2162
2162
2161
2160
2158
2156
2154
2152
2149
2147
2145
2145
2143
2142
2140
2138
2136
2134
2131
2129
2127
2128
2126
2126
2125
2124
2122
2121
2118
2117
2115
2115
2115
2115
2114
2112
2110
2109
2107
2105
2103
2104
2103
2103
2101
2100
2102
2102
2101
2097
2090
2085
2081
2079
2077
2075
2072
2070
2066
2061
2056
2053
2054
2055
2054
2052
2049
2048
2046
2044
2042
2041
2040
2039
2041
2038
2040
2041
2042
2048
2048
2049
2049
2049
2051
2049
2051
2051
2051
2051
2050
2051
2048
2050
2050
2048
2050
2050
2049
2048
2044
2042
2040
2042
2042
2044
2045
2047
2046
2043
2041
2040
2040
2043
2044
2042
2043
2041
2038
2037
2034
2032
2030
2029
2028
2025
2025
2023
2021
2021
2018
2016
2015
2016
2018
2019
2020
2019
2018
2018
2020
2026
2031
2038
2042
2041
2041
2037
2032
2029
2025
2019
2014
2009
2007
2005
2003
2002
1999
1998
1998
1998
1999
2002
2003
2004
2004
2003
2003
2002
2000
2001
2001
2002
2004
2004
2004
2003
2002
2001
2000
2001
2000
2000
2001
2001
2001
2002
2003
2003
2003
2005
2005
2006
2006
2005
2004
2004
2005
2008
2009
2013
2013
2012
2008
2003
1998
2000
2018
2058
2123
2193
2235
2233
2182
2107
2043
2011
2012
2030
2045
2049
2042
2032
2026
2023
2021
2020
2019
2018
2018
2018
2018
2018
2017
2018
2019
2021
2025
2028
2030
2032
2032
2032
2032
2033
2034
2035
2037
2038
2040
2041
2042
2044
2045
2046
2048
2049
2053
2060
2070
2084
2102
2123
2144
2164
