1987
1987
1986
1985
1984
1983
1982
1982
1982
1983
1983
1983
1982
1982
1981
1982
1983
1983
1980
1974
1966
1964
1974
2002
2043
2085
2114
2117
2094
2054
2012
1981
1966
1965
1969
1975
1978
1979
1979
1980
1981
1981
1981
1980
1980
1980
1980
1981
1981
1982
1982
1983
1983
1983
1983
1984
1984
1984
1985
1985
1986
1986
1987
1987
1987
1987
1988
1988
1990
1991
1993
1994
1995
1995
1996
1996
1997
1999
2000
2001
2002
2002
2002
2002
2001
2000
1998
1996
1994
1993
1991
1989
1987
1984
1982
1981
1979
1979
1979
1979
1979
1979
1979
1979
1979
1979
1978
1978
1979
1979
1979
1980
1980
1979
1979
1979
1979
1979
1980
1981
1981
1981
1981
1981
1980
1980
1980
1981
1981
1982
1982
1982
1982
1982
1981
1981
1982
1982
1982
1983
1983
1983
1983
1983
1983
1983
1982
1982
1982
1982
1982
1982
1981
1981
1980
1980
1980
1980
1980
1981
1982
1983
1984
1983
1982
1981
1980
1979
1979
1979
1979
1979
1978
1978
1978
1977
1977
1978
1979
1979
1975
1967
1961
1963
1979
2012
2054
2093
2115
2108
2078
2036
1997
1971
1961
1962
1968
1973
1976
1977
1977
1977
1976
1976
1975
1975
1976
1976
1976
1977
1977
1978
1978
1978
1978
1978
1979
1979
1980
1981
1982
1982
1982
1981
1981
1981
1982
1983
1984
1985
1986
1987
1988
1989
1989
1990
1991
1992
1994
1995
1996
1997
1997
1997
1997
1997
1997
1996
1995
1993
1991
1989
1986
1984
1982
1980
1979
1978
1978
1978
1977
1977
1977
1977
1977
1977
1977
1977
1977
1978
1978
1978
1978
1978
1978
1978
1978
1978
1979
1980
1981
1981
1981
1980
1979
1979
1979
1979
1980
1982
1982
1982
1982
1981
1980
1980
1980
1980
1981
1982
1982
1982
1982
1981
1981
1980
1980
1980
1980
1980
1980
1979
1979
1979
1978
1978
1977
1978
1979
1981
1982
1983
1982
1981
1980
1979
1978
1978
1979
1979
1979
1979
1978
1977
1977
1977
1978
1979
1977
1973
1965
1960
1963
1981
2015
2057
2092
2108
2096
2062
2021
1984
1962
1955
1958
1964
1969
1971
1972
1973
1973
1973
1973
1973
1973
1973
1973
1974
1975
1976
1976
1977
1977
1977
1977
1977
1977
1977
1978
1979
1979
1980
1980
1980
1980
1980
1981
1982
1983
1984
1985
1986
1987
1987
1988
1989
1990
1991
1992
1994
1994
1995
1995
1994
1993
1993
1992
1990
1989
1987
1984
1982
1980
1978
1976
1974
1973
1972
1972
1973
1973
1973
1973
1972
1971
1971
1971
1972
1972
1972
1972
1972
1972
1972
1971
1971
1971
1972
1973
1973
1974
1974
1974
1974
1974
1974
1974
1974
1975
1976
1976
1977
1976
1976
1975
1975
1975
1976
1976
1977
1977
1978
1977
1977
1976
1975
1975
1974
1975
1975
1976
1976
1976
1975
1975
1976
1976
1978
1978
1979
1979
1978
1977
1975
1975
1974
1974
1974
1974
1974
1975
1975
1975
1976
1976
1973
1967
1960
1957
1967
1994
2035
2076
2102
2100
2070
2027
1985
1957
1947
1950
1957
1963
1967
1969
1971
1971
1971
1971
1971
1971
1971
1972
1972
1972
1972
1972
1972
1973
1973
1974
1975
1975
1975
1975
1975
1975
1976
1977
1978
1979
1980
1981
1982
1982
1982
1983
1984
1985
1987
1989
1991
1992
1992
1993
1994
1995
1996
1996
1997
1997
1997
1995
1993
1991
1988
1986
1983
1981
1979
1977
1975
1974
1972
1971
1970
1969
1969
1970
1970
1970
1970
1970
1970
1969
1969
1969
1969
1970
1970
1971
1971
1971
1971
1971
1970
1971
1971
1972
1973
1974
1974
1975
1975
1974
1974
1974
1975
1975
1976
1977
1977
1977
1976
1976
1975
1975
1976
1976
1977
1977
1977
1977
1976
1976
1976
1976
1977
1979
1980
1981
1981
1981
1980
1979
1978
1977
1977
1977
1977
1977
1978
1978
1978
1978
1979
1979
1976
1971
1964
1960
1968
1993
2033
2075
2104
2106
2081
2040
1998
1968
1955
1956
1962
1968
1972
1975
1976
1977
1977
1977
1977
1977
1977
1977
1977
1977
1978
1979
1979
1980
1981
1981
1981
1981
1982
1982
1983
1984
1985
1986
1987
1987
1987
1987
1987
1988
1989
1991
1992
1994
1995
1996
1997
1998
1998
1999
2000
2001
2003
2004
2004
2004
2003
2001
1999
1997
1995
1993
1991
1989
1987
1985
1983
1981
1980
1979
1979
1979
1979
1979
1979
1979
1979
1978
1978
1977
1978
1978
1979
1980
1980
1979
1979
1978
1978
1978
1979
1979
1980
1981
1981
1981
1981
1980
1980
1980
1981
1982
1982
1982
1982
1982
1981
1981
1981
1981
1981
1982
1982
1982
1982
1982
1981
1981
1980
1980
1980
1980
1980
1980
1980
1980
1980
1979
1980
1981
1982
1983
1984
1983
1982
1981
1980
1979
1979
1979
1979
1979
1979
1979
1979
1979
1980
1980
1977
1971
1963
1960
1968
1993
2033
2075
2106
2112
2092
2052
2011
1978
1962
1960
1965
1971
1975
1976
1976
1975
1974
1974
1975
1975
1976
1976
1976
1976
1976
1976
1977
1977
1978
1978
1979
1979
1980
1980
1979
1979
1979
1980
1980
1981
1982
1983
1983
1983
1984
1984
1985
1986
1988
1989
1991
1991
1992
1993
1993
1994
1995
1995
1996
1996
1996
1995
1994
1992
1990
1987
1985
1983
1981
1980
1980
1979
1977
1976
1975
1975
1975
1975
1976
1976
1976
1976
1975
1975
1974
1974
1975
1975
1976
1976
1976
1977
1976
1976
1976
1975
1975
1976
1976
1977
1977
1977
1976
1976
1975
1976
1976
1977
1978
1978
1978
1978
1977
1977
1977
1977
1977
1978
1978
1978
1978
1978
1978
1977
1977
1977
1976
1976
1977
1977
1978
1978
1977
1976
1975
1975
1976
1978
1979
1980
1980
1979
1977
1976
1975
1974
1974
1974
1975
1975
1975
1975
1974
1975
1975
1975
1972
1966
1959
1957
1968
1995
2035
2075
2102
2106
2083
2044
2004
1973
1959
1957
1962
1967
1970
1971
1972
1972
1972
1972
1972
1971
1971
1971
1971
1972
1972
1973
1974
1974
1975
1975
1976
1976
1976
1976
1976
1976
1977
1977
1978
1978
1979
1979
1979
1979
1980
1982
1983
1984
1985
1986
1986
1986
1987
1988
1990
1991
1992
1992
1992
1992
1992
1991
1990
1989
1987
1984
1982
1980
1977
1976
1974
1973
1973
1973
1972
1972
1972
1972
1972
1971
1971
1971
1971
1971
1971
1971
1971
1972
1972
1972
1972
1971
1971
1972
1972
1973
1973
1973
1972
1972
1972
1971
1971
1972
1972
1973
1973
1973
1973
1973
1972
1972
1972
1972
1972
1972
1973
1973
1973
1973
1972
1971
1971
1971
1972
1972
1972
1972
1971
1970
1970
1969
1969
1969
1969
1971
1973
1975
1975
1975
1973
1972
1971
1970
1970
1970
1970
1970
1970
1970
1969
1969
1970
1971
1971
1968
1963
1956
1955
1967
1996
2037
2075
2097
2092
2062
2021
1981
1955
1946
1948
1955
1961
1964
1966
1967
1967
1967
1968
1968
1967
1967
1967
1966
1967
1968
1969
1970
1970
1970
1970
1970
1970
1970
1970
1971
1972
1973
1973
1974
1974
1974
1974
1974
1975
1976
1978
1979
1980
1982
1983
1983
1984
1985
1986
1987
1989
1990
1990
1990
1989
1988
1987
1985
1984
1982
1980
1978
1976
1974
1971
1969
1967
1966
1965
1965
1965
1966
1966
1966
1965
1964
1964
1963
1964
1965
1966
1966
1967
1967
1967
1967
1967
1966
1966
1967
1968
1968
1969
1969
1968
1968
1968
1968
1968
1969
1970
1970
1970
1970
1970
1970
1970
1970
1970
1970
1970
1970
1970
1970
1970
1971
1971
1971
1970
1970
1971
1972
1974
1975
1975
1974
1973
1972
1971
1971
1971
1971
1971
1970
1970
1970
1970
1970
1971
1972
1973
1971
1965
1958
1954
1962
1988
2030
2071
2098
2096
2067
2023
1981
1953
1943
1945
1953
1959
1964
1968
1970
1971
1971
1970
1969
1968
1968
1968
1969
1970
1970
1970
1970
1970
1970
1971
1972
1973
1973
1974
1974
1974
1974
1975
1975
1976
1976
1977
1979
1980
1981
1982
1983
1984
1985
1986
1987
1989
1991
1993
1994
1995
1995
1994
1994
1993
1993
1993
1992
1991
1988
1985
1982
1979
1976
1974
1972
1971
1970
1970
1970
1970
1969
1969
1969
1968
1968
1968
1968
1968
1969
1969
1969
1969
1968
1968
1969
1970
1971
1972
1972
1972
1972
1971
1971
1971
1971
1972
1972
1973
1974
1974
1975
1974
1974
1973
1973
1974
1975
1975
1975
1975
1975
1974
1973
1973
1973
1973
1974
1975
1976
1976
1976
1976
1976
1976
1977
1978
1978
1978
1977
1977
1976
1976
1975
1974
1974
1974
1975
1976
1977
1978
1978
1977
1971
1964
1957
1958
1975
2009
2052
2092
2111
2102
2069
2026
1986
1962
1955
1958
1965
1970
1973
1973
1973
1972
1972
1972
1972
1973
1974
1974
1974
1974
1973
1973
1973
1974
1974
1975
1976
1976
1976
1976
1976
1977
1978
1979
1980
1980
1981
1981
1981
1981
1982
1982
1983
1984
1985
1987
1988
1990
1991
1991
1992
1992
1992
1992
1993
1993
1993
1992
1990
1988
1986
1983
1981
1979
1977
1976
1976
1975
1974
1973
1972
1971
1971
1971
1972
1973
1973
1973
1972
1972
1972
1972
1972
1972
1973
1973
1974
1974
1974
1974
1974
1974
1974
1975
1975
1976
1976
1976
1976
1976
1975
1975
1975
1976
1976
1976
1977
1977
1977
1977
1977
1976
1976
1977
1977
1978
1978
1977
1976
1975
1975
1976
1976
1977
1978
1979
1979
1980
1980
1980
1979
1978
1977
1976
1976
1976
1976
1976
1975
1975
1974
1974
1975
1976
1977
1977
1973
1966
1959
1958
1970
2000
2042
2083
2109
2108
2080
2039
1998
1969
1957
1957
1963
1968
1972
1973
1974
1973
1973
1972
1972
1971
1972
1973
1973
1974
1975
1975
1975
1974
1974
1974
1975
1976
1977
1979
1979
1979
1979
1979
1979
1979
1980
1980
1981
1982
1983
1984
1985
1986
1986
1987
1988
1989
1990
1992
1993
1993
1994
1994
1993
1993
1992
1991
1990
1989
1988
1986
1984
1981
1979
1977
1976
1975
1974
1974
1974
1973
1973
1973
1972
1972
1972
1972
1973
1973
1974
1974
1974
1973
1973
1973
1973
1974
1975
1976
1977
1977
1977
1977
1976
1975
1975
1976
1976
1977
1977
1978
1978
1977
1977
1977
1977
1977
1977
1978
1978
1978
1978
1978
1977
1977
1977
1977
1977
1977
1977
1977
1977
1977
1976
1976
1975
1975
1976
1977
1979
1979
1979
1979
1977
1976
1975
1974
1974
1974
1974
1974
1974
1973
1973
1973
1974
1974
1973
1968
1961
1956
1960
1980
2016
2057
2092
2106
2092
2057
2016
1980
1959
1953
1956
1961
1966
1968
1969
1969
1969
1969
1969
1968
1968
1968
1968
1968
1969
1969
1970
1970
1970
1969
1969
1970
1970
1971
1971
1972
1973
1973
1973
1973
1973
1973
1973
1974
1975
1976
1977
1978
1979
1980
1981
1981
1982
1983
1984
1985
1986
1987
1987
1986
1985
1985
1984
1982
1981
1980
1977
1975
1972
1970
1968
1966
1965
1965
1964
1964
1964
1964
1963
1963
1963
1962
1962
1962
1963
1963
1964
1964
1963
1963
1962
1962
1963
1964
1965
1966
1966
1966
1966
1965
1965
1965
1965
1965
1966
1967
1967
1968
1968
1967
1967
1967
1967
1967
1968
1968
1969
1969
1969
1968
1967
1966
1966
1967
1968
1969
1969
1969
1969
1969
1970
1970
1970
1970
1970
1969
1969
1968
1968
1967
1967
1966
1966
1966
1967
1967
1969
1969
1967
1961
1952
1948
1955
1980
2022
2065
2094
2095
2068
2024
1981
1951
1939
1941
1949
1956
1961
1964
1965
1965
1965
1964
1964
1965
1965
1966
1966
1966
1966
1966
1966
1966
1966
1966
1967
1969
1970
1972
1972
1972
1971
1971
1971
1972
1973
1974
1976
1977
1977
1978
1979
1980
1981
1982
1984
1985
1986
1987
1988
1988
1989
1989
1989
1989
1988
1988
1986
1984
1982
1979
1976
1973
1971
1969
1968
1967
1966
1965
1964
1964
1963
1962
1962
1962
1962
1963
1963
1963
1963
1963
1962
1962
1961
1962
1962
1963
1964
1965
1965
1965
1965
1965
1965
1965
1966
1967
1968
1968
1968
1968
1968
1968
1969
1969
1969
1970
1970
1970
1970
1970
1969
1969
1969
1969
1970
1970
1971
1971
1971
1972
1973
1974
1974
1974
1974
1973
1972
1972
1971
1971
1970
1969
1969
1970
1970
1971
1973
1974
1973
1968
1960
1953
1955
1974
2011
2055
2092
2104
2086
2047
2001
1966
1947
1945
1952
1960
1965
1969
1971
1971
1971
1970
1970
1971
1972
1973
1973
1974
1973
1973
1973
1973
1974
1974
1975
1976
1977
1978
1978
1978
1978
1978
1979
1980
1981
1983
1984
1985
1985
1986
1987
1988
1989
1991
1992
1994
1995
1997
1997
1998
1998
1998
1999
1999
1999
1998
1997
1995
1992
1989
1986
1983
1981
1979
1979
1978
1977
1976
1974
1973
1972
1971
1971
1972
1972
1973
1973
1973
1973
1972
1972
1972
1972
1972
1972
1973
1973
1973
1973
1973
1973
1973
1973
1974
1975
1976
1977
1977
1977
1976
1976
1976
1976
1976
1977
1977
1977
1977
1977
1977
1977
1976
1976
1976
1976
1977
1977
1977
1977
1977
1976
1976
1977
1978
1980
1982
1983
1982
1981
1980
1979
1979
1978
1979
1979
1979
1979
1979
1978
1978
1979
1979
1979
1975
1968
1961
1961
1974
2005
2047
2087
2110
2106
2077
2036
1996
1969
1958
1959
1965
1970
1973
1974
1974
1974
1974
1974
1974
1974
1974
1974
1974
1974
1974
1975
1975
1976
1976
1976
1977
1977
1977
1977
1977
1978
1979
1980
1980
1980
1980
1980
1981
1981
1982
1983
1985
1986
1987
1988
1989
1989
1990
1991
1992
1994
1995
1995
1995
1995
1994
1992
1991
1989
1987
1985
1983
1981
1979
1977
1975
1973
1972
1972
1971
1972
1972
1972
1972
1972
1972
1971
1970
1970
1971
1971
1972
1972
1972
1972
1972
1971
1971
1971
1972
1972
1973
1974
1974
1974
1974
1973
1972
1972
1972
1973
1975
1975
1976
1976
1975
1975
1974
1974
1974
1975
1976
1976
1976
1976
1974
1974
1973
1973
1974
1974
1975
1975
1975
1976
1977
1977
1977
1977
1976
1976
1975
1975
1975
1974
1973
1973
1972
1973
1973
1973
1975
1976
1976
1973
1967
1958
1953
1961
1985
2025
2068
2101
2110
2091
2052
2010
1976
1958
1954
1959
1964
1968
1970
1970
1970
1970
1969
1969
1969
1970
1971
1972
1972
1972
1972
1972
1971
1972
1972
1973
1973
1974
1975
1975
1975
1975
1975
1976
1976
1977
1978
1979
1980
1980
1980
1981
1981
1982
1984
1985
1987
1989
1990
1991
1991
1991
1991
1991
1991
1991
1991
1990
1988
1986
1983
1980
1978
1976
1975
1974
1973
1972
1972
1971
1970
1970
1969
1969
1970
1970
1971
1971
1971
1971
1971
1970
1970
1970
1971
1971
1971
1972
1972
1972
1972
1972
1972
1972
1973
1974
1975
1975
1975
1975
1975
1975
1975
1975
1976
1976
1976
1976
1976
1976
1976
1976
1976
1976
1976
1976
1977
1977
1976
1976
1975
1974
1973
1974
1974
1975
1975
1977
1978
1978
1978
1978
1977
1976
1975
1975
1975
1975
1975
1974
1974
1973
1973
1973
1974
1975
1975
1973
1968
1960
1956
1962
1984
2022
2064
2097
2107
2089
2051
2009
1975
1956
1953
1958
1965
1970
1972
1972
1972
1971
1970
1970
1969
1970
1970
1971
1971
1972
1972
1972
1972
1972
1972
1972
1973
1974
1975
1976
1976
1976
1976
1976
1976
1977
1977
1978
1979
1980
1981
1981
1982
1983
1984
1985
1986
1988
1989
1990
1991
1991
1991
1991
1991
1990
1990
1989
1988
1985
1983
1980
1978
1976
1974
1972
1971
1970
1970
1970
1970
1969
1968
1968
1967
1967
1968
1969
1969
1969
1969
1968
1968
1968
1968
1968
1969
1969
1970
1970
1970
1970
1970
1970
1970
1970
1970
1970
1970
1970
1971
1972
1972
1972
1972
1972
1972
1973
1974
1974
1974
1974
1973
1973
1973
1973
1974
1974
1974
1973
1973
1973
1972
1972
1972
1973
1974
1976
1977
1977
1976
1975
1974
1973
1973
1973
1973
1973
1974
1974
1974
1974
1973
1974
1974
1973
1969
1963
1957
1959
1976
2010
2053
2089
2104
2089
2051
2006
1969
1950
1946
1952
1959
1965
1968
1970
1971
1971
1971
1971
1971
1971
1971
1971
1971
1972
1972
1972
1972
1973
1973
1974
1974
1974
1974
1975
1976
1977
1978
1979
1979
1980
1980
1981
1981
1982
1983
1984
1986
1987
1989
1990
1991
1991
1992
1993
1994
1995
1996
1997
1997
1997
1995
1993
1990
1988
1985
1983
1981
1979
1976
1974
1972
1970
1969
1968
1968
1968
1969
1969
1969
1969
1968
1967
1966
1965
1966
1966
1967
1968
1968
1968
1967
1967
1968
1968
1969
1970
1970
1971
1971
1971
1971
1971
1971
1972
1972
1973
1974
1974
1974
1974
1974
1973
1973
1973
1974
1974
1974
1974
1974
1974
1973
1973
1974
1974
1975
1976
1977
1978
1979
1979
1978
1977
1976
1975
1975
1975
1975
1976
1976
1975
1975
1975
1975
1976
1977
1977
1973
1966
1959
1959
1974
2006
2049
2089
2107
2097
2062
2018
1979
1956
1950
1954
1961
1967
1971
1973
1974
1974
1974
1973
1973
1972
1972
1973
1973
1974
1975
1976
1976
1976
1976
1976
1976
1976
1977
1978
1979
1980
1980
1981
1981
1982
1982
1982
1983
1983
1983
1985
1986
1988
1990
1992
1993
1994
1995
1996
1997
1998
1998
1999
1998
1998
1997
1995
1993
1992
1989
1987
1984
1982
1979
1976
1975
1973
1973
1972
1972
1972
1972
1971
1971
1970
1970
1970
1970
1971
1971
1971
1971
1971
1971
1970
1970
1971
1971
1971
1972
1972
1973
1973
1973
1973
1972
1972
1973
1974
1975
1975
1976
1975
1975
1975
1974
1974
1975
1975
1976
1977
1977
1977
1976
1976
1975
1975
1975
1975
1975
1975
1975
1976
1976
1976
1976
1977
1978
1980
1981
1981
1980
1979
1978
1976
1976
1976
1976
1976
1977
1977
1977
1977
1978
1978
1978
1974
1968
1961
1960
1972
2001
2043
2084
2110
2109
2082
2040
1999
1971
1959
1959
1965
1971
1974
1975
1975
1975
1975
1976
1976
1976
1976
1976
1976
1976
1976
1976
1977
1977
1978
1979
1979
1978
1978
1978
1979
1980
1981
1982
1983
1983
1983
1982
1982
1982
1983
1985
1987
1989
1990
1992
1992
1993
1994
1995
1996
1997
1998
1999
1999
1999
1998
1997
1995
1993
1990
1988
1986
1984
1982
1981
1979
1978
1976
1974
1973
1972
1973
1974
1974
1974
1974
1974
1973
1973
1973
1973
1974
1975
1975
1975
1975
1974
1974
1974
1974
1975
1976
1976
1977
1977
1977
1977
1976
1976
1976
1977
1977
1978
1979
1979
1979
1978
1977
1977
1977
1978
1979
1979
1979
1979
1979
1979
1978
1978
1978
1979
1979
1979
1979
1979
1978
1978
1977
1977
1977
1977
1978
1979
1980
1981
1982
1982
1981
1980
1979
1978
1978
1978
1978
1978
1978
1978
1977
1977
1978
1979
1980
1980
1975
1968
1961
1963
1979
2012
2055
2094
2115
2109
2078
2035
1996
1970
1960
1961
1967
1973
1976
1977
1977
1977
1976
1975
1974
1974
1975
1975
1976
1977
1978
1978
1978
1978
1977
1977
1977
1978
1979
1980
1981
1982
1982
1982
1982
1981
1982
1983
1984
1985
1986
1987
1987
1988
1989
1990
1991
1992
1994
1995
1996
1997
1998
1998
1997
1997
1996
1995
1994
1992
1991
1988
1986
1983
1981
1979
1978
1977
1977
1976
1976
1976
1975
1975
1974
1974
1974
1974
1975
1975
1976
1976
1975
1975
1974
1974
1974
1975
1975
1976
1977
1977
1976
1976
1976
1976
1976
1977
1977
1978
1978
1978
1978
1978
1978
1978
1978
1978
1979
1979
1979
1979
1979
1979
1979
1979
1979
1979
1979
1979
1980
1980
1979
1979
1978
1978
1978
1978
1978
1978
1978
1978
1978
1977
1977
1976
1976
1977
1979
1981
1982
1981
1980
1979
1978
1977
1977
1977
1977
1977
1978
1978
1977
1977
1977
1977
1978
1976
1971
1964
1959
1964
1984
2019
2061
2096
2111
2098
2064
2023
1987
1966
1959
1962
1968
1972
1974
1975
1975
1975
1974
1974
1974
1974
1974
1974
1974
1974
1975
1976
1976
1977
1977
1977
1977
1977
1977
1978
1979
1979
1980
1980
1980
1980
1981
1981
1981
1982
1983
1984
1985
1986
1987
1988
1990
1991
1991
1992
1992
1992
1993
1994
1995
1995
1994
1993
1991
1989
1987
1985
1982
1980
1978
1977
1975
1974
1973
1972
1972
1972
1972
1972
1972
1972
1971
1971
1971
1972
1972
1973
1973
1973
1972
1972
1972
1972
1972
1973
1973
1973
1974
1974
1974
1974
1974
1974
1974
1975
1975
1976
1977
1977
1977
1977
1977
1976
1976
1976
1976
1977
1977
1978
1978
1977
1977
1977
1977
1977
1978
1978
1978
1977
1976
1976
1976
1976
1976
1976
1977
1978
1979
1980
1980
1980
1979
1978
1977
1977
1977
1977
1977
1977
1977
1976
1976
1976
1976
1978
1979
1978
1973
1965
1960
1963
1984
2021
2064
2098
2108
2089
2049
2006
1971
1954
1951
1957
1964
1970
1973
1975
1976
1975
1975
1974
1974
1974
1974
1975
1976
1976
1977
1977
1977
1977
1977
1977
1978
1978
1979
1979
1980
1981
1982
1982
1982
1982
1983
1984
1986
1987
1988
1989
1989
1990
1990
1991
1993
1994
1996
1998
1999
1999
1999
1999
1999
1998
1998
1997
1995
1993
1991
1988
1985
1982
1979
1977
1975
1974
1973
1973
1973
1972
1972
1971
1970
1970
1970
1970
1971
1971
1972
1971
1971
1971
1970
1970
1970
1971
1971
1972
1972
1972
1972
1972
1972
1972
1972
1973
1974
1975
1975
1976
1976
1975
1974
1974
1973
1974
1975
1976
1976
1977
1976
1976
1975
1974
1974
1974
1974
1975
1975
1975
1975
1974
1974
1975
1976
1977
1978
1978
1978
1977
1976
1975
1974
1974
1974
1974
1973
1974
1974
1974
1975
1976
1977
1975
1970
1963
1957
1960
1981
2018
2062
2097
2106
2086
2046
2000
1966
1949
1948
1955
1962
1967
1970
1972
1973
1973
1973
1973
1974
1974
1974
1974
1974
1974
1974
1975
1976
1977
1978
1978
1978
1978
1979
1979
1979
1980
1981
1982
1983
1984
1985
1985
1986
1987
1988
1989
1990
1992
1993
1994
1995
1996
1998
1999
2000
2001
2001
2002
2002
2002
2001
1999
1997
1994
1991
1989
1986
1984
1982
1980
1978
1976
1975
1974
1973
1973
1974
1974
1974
1974
1974
1973
1972
1972
1972
1973
1973
1973
1974
1974
1974
1974
1974
1974
1974
1974
1975
1976
1976
1977
1977
1977
1976
1976
1977
1977
1978
1979
1979
1979
1980
1979
1979
1978
1978
1978
1979
1979
1980
1980
1980
1979
1978
1978
1977
1977
1978
1979
1979
1980
1980
1980
1981
1982
1982
1983
1983
1982
1982
1981
1980
1979
1979
1978
1978
1979
1980
1980
1981
1982
1983
1981
1975
1967
1962
1966
1987
2024
2067
2103
2115
2099
2062
2019
1983
1963
1959
1964
1971
1976
1978
1979
1978
1977
1976
1976
1977
1977
1978
1979
1979
1979
1979
1978
1978
1979
1979
1980
1981
1982
1982
1982
1982
1982
1982
1982
1983
1984
1985
1986
1987
1987
1987
1988
1989
1990
1992
1994
1995
1996
1997
1997
1997
1998
1998
1999
1999
2000
1999
1998
1996
1993
1990
1988
1985
1983
1982
1981
1979
1978
1977
1976
1975
1975
1975
1974
1973
1973
1973
1973
1974
1974
1974
1974
1974
1974
1975
1975
1976
1976
1976
1976
1976
1975
1975
1976
1976
1977
1978
1978
1978
1977
1977
1977
1977
1977
1978
1978
1978
1978
1978
1978
1978
1979
1979
1979
1979
1979
1979
1980
1979
1979
1979
1979
1979
1979
1979
1979
1980
1979
1979
1978
1977
1977
1977
1977
1977
1978
1979
1980
1981
1982
1981
1981
1980
1980
1980
1980
1980
1979
1979
1979
1978
1978
1978
1978
1979
1980
1980
1976
1969
1962
1961
1975
2006
2048
2089
2113
2110
2082
2041
2000
1972
1960
1961
1967
1972
1975
1976
1977
1976
1976
1975
1975
1974
1975
1975
1976
1977
1977
1977
1977
1977
1977
1977
1978
1978
1979
1980
1980
1980
1980
1980
1980
1981
1981
1982
1983
1984
1985
1985
1986
1986
1987
1988
1989
1991
1992
1994
1995
1996
1996
1996
1996
1996
1995
1995
1994
1992
1990
1987
1984
1981
1979
1978
1977
1976
1976
1975
1974
1974
1973
1973
1973
1973
1973
1973
1974
1974
1974
1974
1974
1974
1974
1974
1974
1974
1975
1975
1976
1976
1975
1975
1975
1975
1975
1976
1977
1978
1978
1978
1977
1977
1976
1976
1976
1977
1978
1978
1979
1979
1978
1978
1978
1978
1978
1978
1979
1979
1979
1979
1979
1978
1978
1977
1977
1977
1977
1978
1978
1978
1978
1977
1977
1978
1979
1980
1981
1982
1981
1980
1978
1977
1977
1976
1976
1977
1977
1978
1978
1978
1979
1979
1978
1973
1966
1959
1960
1976
2009
2051
2090
2111
2104
2074
2033
1994
1969
1960
1962
1968
1973
1975
1975
1975
1975
1975
1975
1975
1975
1975
1975
1975
1975
1975
1976
1976
1977
1977
1978
1978
1979
1979
1978
1979
1979
1980
1981
1982
1982
1982
1982
1982
1983
1983
1985
1986
1988
1989
1990
1991
1991
1992
1992
1994
1995
1996
1997
1997
1997
1996
1994
1993
1991
1989
1986
1984
1982
1981
1979
1978
1977
1975
1974
1973
1973
1974
1974
1974
1975
1974
1974
1973
1973
1973
1973
1974
1974
1974
1974
1974
1974
1974
1973
1974
1974
1974
1975
1975
1975
1975
1975
1975
1975
1975
1975
1976
1977
1977
1977
1977
1976
1976
1975
1975
1975
1976
1977
1977
1977
1977
1976
1976
1975
1975
1975
1975
1976
1976
1976
1975
1975
1974
1973
1973
1974
1974
1974
1975
1975
1976
1977
1978
1978
1977
1976
1976
1976
1975
1975
1974
1973
1972
1972
1972
1973
1974
1976
1977
1975
1969
1962
1957
1962
1984
2022
2063
2095
2103
2083
2045
2003
1970
1953
1951
1956
1963
1968
1971
1973
1973
1972
1971
1971
1970
1970
1971
1972
1972
1973
1973
1973
1973
1972
1973
1973
1974
1975
1976
1977
1977
1977
1977
1977
1978
1979
1980
1981
1982
1983
1983
1983
1984
1985
1986
1988
1989
1991
1992
1993
1993
1993
1993
1994
1994
1994
1994
1993
1992
1990
1987
1984
1981
1979
1976
1974
1973
1972
1972
1971
1970
1970
1969
1969
1968
1968
1968
1967
1967
1967
1968
1968
1968
1968
1968
1968
1968
1969
1969
1970
1970
1970
1969
1969
1970
1970
1971
1971
1971
1972
1972
1972
1972
1972
1972
1972
1972
1973
1973
1973
1973
1973
1972
1972
1972
1973
1974
1974
1974
1974
1973
1973
1972
1972
1973
1973
1975
1976
1978
1978
1977
1976
1975
1975
1974
1974
1974
1974
1974
1974
1974
1974
1973
1974
1975
1975
1973
1968
1961
1958
1968
1995
2037
2077
2103
2099
2068
2024
1982
1956
1947
1950
1957
1964
1968
1970
1972
1973
1973
1972
1972
1972
1971
1972
1972
1973
1974
1975
1975
1976
1975
1975
1975
1975
1976
1976
1977
1978
1979
1980
1980
1981
1981
1981
1982
1983
1984
1986
1987
1988
1989
1990
1991
1992
1993
1995
1996
1998
1998
1999
1999
1998
1997
1996
1994
1992
1989
1987
1984
1982
1979
1977
1974
1972
1971
1970
1970
1971
1971
1971
1970
1969
1969
1968
1968
1969
1969
1970
1970
1970
1970
1970
1969
1969
1969
1970
1970
1971
1972
1973
1973
1973
1973
1973
1973
1973
1974
1974
1975
1975
1975
1975
1975
1974
1974
1974
1975
1975
1975
1975
1975
1975
1974
1974
1974
1974
1975
1976
1976
1977
1978
1979
1979
1979
1978
1978
1977
1977
1977
1977
1977
1976
1976
1975
1975
1976
1977
1978
1979
1977
1971
1963
1958
1964
1987
2027
2071
2102
2108
2086
2045
2001
1969
1954
1954
1960
1967
1972
1974
1976
1976
1975
1975
1974
1974
1974
1974
1975
1975
1976
1977
1977
1977
1977
1977
1978
1979
1979
1980
1980
1981
1981
1981
1981
1982
1983
1984
1985
1986
1987
1988
1988
1989
1990
1991
1993
1995
1996
1997
1998
1999
1999
1999
2000
2000
1999
1999
1998
1996
1993
1990
1987
1984
1982
1979
1978
1977
1976
1976
1975
1975
1974
1974
1973
1973
1974
1974
1974
1973
1973
1972
1973
1973
1974
1974
1974
1975
1975
1975
1976
1976
1975
1975
1975
1976
1976
1977
1977
1978
1978
1978
1978
1977
1977
1977
1977
1978
1978
1979
1979
1978
1978
1977
1977
1978
1978
1979
1979
1979
1978
1978
1977
1977
1977
1977
1977
1978
1979
1980
1982
1982
1982
1981
1980
1979
1978
1979
1979
1979
1979
1978
1978
1977
1977
1977
1979
1980
1979
1975
1967
1961
1963
1981
2016
2060
2098
2115
2104
2070
2028
1989
1966
1959
1962
1968
1973
1976
1977
1977
1977
1976
1975
1975
1974
1975
1975
1976
1977
1978
1978
1978
1978
1978
1978
1978
1979
1980
1981
1982
1982
1982
1982
1982
1982
1982
1983
1984
1985
1987
1987
1988
1989
1990
1991
1992
1993
1994
1996
1997
1998
1998
1999
1998
1998
1997
1996
1995
1993
1991
1989
1986
1983
1981
1979
1978
1977
1976
1976
1976
1976
1976
1975
1975
1974
1974
1974
1974
1975
1975
1976
1976
1976
1975
1975
1975
1976
1977
1977
1978
1978
1978
1978
1977
1978
1978
1978
1979
1979
1980
1980
1980
1980
1979
1979
1979
1979
1979
1980
1980
1981
1981
1980
1980
1980
1980
1981
1981
1982
1982
1981
1980
1979
1978
1978
1978
1978
1979
1980
1981
1982
1982
1983
1982
1981
1981
1980
1980
1979
1979
1979
1979
1978
1978
1978
1978
1978
1980
1981
1980
1975
1967
1960
1962
1980
2014
2057
2096
2115
2105
2072
2030
1991
1967
1959
1962
1968
1974
1976
1977
1976
1975
1974
1974
1974
1974
1975
1976
1976
1977
1977
1977
1977
1977
1977
1977
1978
1979
1979
1980
1981
1981
1981
1981
1981
1981
1982
1983
1984
1985
1986
1987
1987
1988
1989
1990
1991
1993
1994
1996
1996
1997
1997
1997
1997
1997
1997
1996
1995
1993
1990
1987
1985
1982
1980
1978
1978
1977
1977
1976
1976
1975
1974
1974
1974
1974
1974
1974
1975
1975
1976
1976
1976
1975
1975
1975
1975
1976
1976
1977
1977
1977
1976
1976
1976
1976
1977
1977
1978
1978
1978
1978
1977
1977
1976
1976
1977
1977
1978
1978
1978
1978
1978
1977
1977
1977
1977
1977
1977
1978
1977
1976
1976
1975
1975
1975
1975
1976
1976
1977
1977
1978
1979
1979
1979
1978
1977
1976
1976
1975
1975
1975
1975
1974
1974
1974
1975
1977
1978
1977
1972
1965
1958
1958
1974
2008
2050
2089
2107
2097
2062
2020
1982
1958
1951
1954
1960
1966
1970
1972
1973
1973
1972
1971
1971
1970
1971
1971
1972
1972
1973
1973
1973
1973
1973
1973
1973
1974
1975
1976
1977
1977
1977
1977
1978
1978
1978
1979
1980
1981
1983
1984
1985
1986
1987
1988
1990
1991
1993
1994
1995
1995
1995
1996
1995
1995
1994
1994
1992
1990
1988
1985
1982
1979
1976
1974
1972
1971
1971
1971
1970
1970
1969
1968
1967
1967
1967
1968
1968
1968
1968
1968
1967
1966
1966
1966
1967
1968
1968
1968
1969
1969
1969
1969
1969
1970
1970
1970
1971
1972
1972
1972
1972
1971
1971
1971
1972
1973
1973
1973
1973
1973
1973
1973
1973
1973
1973
1973
1973
1974
1974
1974
1973
1973
1973
1975
1976
1977
1978
1978
1977
1976
1975
1974
1974
1973
1973
1973
1974
1974
1974
1974
1974
1974
1974
1971
1965
1958
1957
1970
2000
2044
2084
2105
2097
2062
2017
1976
1953
1946
1950
1957
1963
1967
1970
1971
1972
1973
1973
1973
1973
1974
1974
1973
1973
1973
1974
1974
1975
1976
1976
1977
1977
1977
1977
1978
1978
1979
1981
1982
1982
1982
1983
1983
1984
1985
1987
1989
1991
1992
1994
1995
1996
1997
1998
1998
1999
2000
2001
2001
2001
2001
1999
1997
1994
1991
1988
1985
1982
1980
1979
1977
1975
1973
1972
1971
1970
1970
1971
1972
1972
1972
1972
1971
1970
1970
1970
1971
1971
1972
1972
1971
1971
1971
1971
1972
1972
1973
1974
1975
1975
1975
1975
1975
1975
1975
1975
1976
1977
1977
1978
1978
1978
1977
1977
1977
1977
1977
1978
1978
1978
1977
1977
1977
1977
1977
1978
1979
1980
1981
1982
1982
1981
1981
1980
1979
1979
1978
1978
1978
1978
1979
1979
1979
1979
1980
1981
1980
1977
1971
1963
1962
1976
2007
2050
2091
2113
2106
2074
2030
1990
1965
1956
1959
1965
1971
1975
1977
1979
1979
1978
1978
1978
1978
1978
1978
1979
1979
1980
1980
1980
1980
1980
1981
1981
1981
1981
1982
1983
1984
1984
1985
1985
1985
1986
1987
1988
1990
1991
1992
1994
1995
1996
1996
1997
1998
2000
2002
2003
2005
2005
2005
2005
2004
2003
2002
2000
1998
1996
1993
1991
1988
1985
1982
1980
1979
1978
1978
1978
1978
1978
1977
1977
1976
1976
1976
1976
1977
1977
1977
1977
1977
1977
1976
1976
1976
1977
1977
1978
1978
1978
1978
1977
1977
1977
1978
1978
1979
1979
1980
1980
1980
1980
1979
1979
1978
1979
1980
1980
1981
1981
1981
1980
1980
1979
1979
1979
1980
1980
1980
1980
1979
1978
1978
1978
1978
1979
1979
1980
1981
1982
1983
1983
1982
1981
1981
1980
1980
1980
1980
1980
1979
1979
1978
1978
1978
1980
1981
1982
1979
1973
1964
1960
1967
1991
2031
2075
2108
2118
2099
2060
2017
1982
1964
1960
1964
1971
1975
1976
1977
1976
1976
1975
1975
1975
1975
1976
1976
1977
1978
1978
1978
1978
1978
1977
1978
1978
1979
1980
1981
1981
1981
1981
1981
1981
1981
1982
1983
1984
1986
1987
1988
1988
1988
1989
1990
1992
1993
1995
1997
1997
1998
1998
1998
1998
1998
1997
1996
1995
1992
1990
1987
1984
1982
1980
1978
1976
1975
1975
1975
1975
1975
1974
1974
1974
1973
1974
1974
1975
1975
1975
1975
1975
1975
1974
1974
1975
1975
1976
1976
1976
1976
1976
1975
1975
1975
1976
1976
1977
1977
1977
1977
1977
1977
1977
1977
1977
1977
1978
1978
1978
1978
1978
1978
1978
1978
1978
1978
1978
1978
1978
1978
1977
1976
1976
1975
1975
1976
1976
1976
1976
1976
1976
1977
1978
1979
1979
1979
1978
1978
1977
1977
1976
1975
1975
1974
1975
1975
1976
1977
1978
1978
1975
1969
1961
1957
1964
1987
2026
2069
2103
2114
2097
2059
2017
1981
1962
1958
1963
1969
1973
1974
1974
1973
1973
1972
1972
1973
1974
1974
1974
1975
1974
1974
1974
1974
1975
1975
1976
1977
1977
1977
1977
1977
1977
1977
1978
1979
1980
1981
1981
1982
1982
1983
1983
1985
1986
1988
1989
1991
1992
1993
1993
1994
1994
1995
1996
1996
1997
1996
1995
1992
1989
1986
1983
1980
1979
1977
1976
1975
1974
1973
1972
1971
1971
1970
1971
1971
1972
1972
1972
1971
1971
1970
1970
1970
1971
1971
1971
1972
1972
1972
1972
1971
1971
1971
1971
1971
1972
1973
1973
1973
1972
1972
1971
1971
1972
1973
1973
1973
1973
1973
1973
1972
1971
1971
1972
1972
1972
1973
1973
1973
1972
1971
1971
1971
1971
1971
1971
1971
1971
1970
1970
1969
1969
1970
1971
1973
1974
1975
1974
1973
1972
1970
1970
1969
1969
1970
1970
1971
1971
1970
1970
1969
1970
1971
1968
1963
1955
1951
1959
1983
2022
2064
2095
2100
2077
2037
1995
1963
1948
1946
1952
1959
1963
1966
1967
1967
1967
1967
1967
1967
1966
1967
1967
1967
1967
1967
1967
1968
1968
1969
1969
1970
1970
1970
1970
1971
1972
1972
1973
1973
1974
1974
1975
1975
1976
1978
1979
1980
1982
1983
1984
1985
1986
1986
1988
1989
1991
1992
1992
1992
1991
1989
1988
1985
1983
1982
1980
1977
1975
1972
1970
1967
1965
1964
1964
1964
1965
1965
1965
1964
1964
1963
1962
1962
1963
1963
1963
1964
1964
1964
1963
1963
1963
1963
1963
1964
1965
1965
1965
1965
1965
1965
1965
1965
1966
1967
1968
1969
1969
1968
1968
1967
1967
1968
1968
1968
1969
1969
1970
1970
1969
1969
1968
1967
1968
1968
1969
1969
1969
1969
1969
1969
1970
1971
1972
1972
1971
1971
1970
1970
1969
1968
1968
1968
1968
1969
1969
1970
1970
1970
1971
1968
1963
1955
1951
1957
1982
2023
2067
2098
2102
2075
2031
1986
1954
1941
1943
1951
1959
1963
1965
1966
1967
1966
1966
1967
1968
1968
1969
1969
1969
1969
1968
1968
1969
1970
1971
1972
1973
1973
1973
1973
1973
1974
1975
1976
1977
1979
1979
1980
1980
1981
1982
1984
1985
1987
1989
1991
1993
1994
1995
1996
1997
1997
1997
1998
1999
1999
1998
1996
1994
1990
1987
1983
1981
1978
1976
1975
1973
1971
1970
1969
1968
1967
1967
1968
1968
1969
1968
1968
1967
1967
1966
1966
1966
1966
1967
1967
1967
1967
1968
1968
1968
1968
1969
1969
1970
1970
1971
1971
1971
1971
1970
1971
1971
1972
1973
1973
1973
1973
1973
1972
1972
1972
1973
1973
1973
1973
1973
1973
1972
1971
1971
1972
1972
1973
1974
1974
1975
1976
1977
1977
1977
1976
1975
1975
1975
1974
1974
1974
1974
1973
1973
1973
1974
1975
1976
1977
1974
1968
1960
1955
1962
1987
2027
2071
2103
2110
2088
2048
2004
1970
1954
1952
1958
1966
1971
1973
1974
1973
1972
1971
1971
1971
1972
1973
1973
1974
1974
1974
1974
1974
1974
1974
1975
1975
1976
1977
1977
1978
1978
1978
1978
1979
1979
1980
1981
1982
1983
1984
1985
1985
1986
1987
1989
1991
1993
1994
1995
1996
1996
1996
1996
1996
1996
1996
1995
1993
1991
1988
1984
1981
1978
1976
1974
1973
1973
1972
1972
1971
1970
1970
1969
1969
1969
1970
1970
1970
1970
1970
1969
1969
1969
1969
1970
1970
1971
1971
1971
1971
1971
1970
1970
1970
1971
1971
1972
1973
1973
1973
1973
1973
1972
1972
1973
1973
1974
1975
1975
1974
1974
1973
1973
1973
1974
1974
1975
1975
1975
1975
1975
1974
1974
1974
1974
1975
1975
1974
1974
1974
1974
1974
1973
1974
1974
1976
1977
1978
1978
1978
1976
1975
1974
1974
1973
1974
1974
1975
1975
1975
1974
1974
1975
1975
1974
1970
1962
1957
1960
1978
2013
2056
2094
2112
2103
2069
2027
1988
1964
1956
1959
1965
1970
1971
1971
1971
1970
1970
1971
1971
1972
1971
1971
1971
1972
1972
1973
1974
1974
1975
1975
1974
1975
1975
1976
1977
1978
1978
1978
1978
1978
1978
1979
1979
1980
1981
1982
1983
1984
1986
1987
1988
1989
1990
1991
1992
1994
1995
1995
1995
1995
1994
1992
1991
1989
1987
1985
1982
1980
1978
1976
1974
1972
1971
1971
1971
1971
1970
1970
1969
1969
1969
1970
1970
1969
1969
1970
1970
1970
1970
1970
1970
1970
1970
1970
1971
1972
1972
1972
1972
1972
1972
1971
1972
1972
1973
1973
1974
1974
1974
1974
1973
1973
1973
1974
1974
1975
1975
1976
1975
1975
1974
1974
1974
1974
1975
1975
1976
1976
1975
1975
1974
1973
1973
1973
1973
1973
1974
1974
1974
1974
1974
1975
1976
1977
1977
1976
1976
1975
1975
1974
1974
1973
1973
1973
1973
1974
1975
1976
1976
1975
1971
1964
1956
1955
1966
1994
2036
2077
2106
2109
2085
2045
2003
1972
1958
1957
1963
1969
1972
1972
1972
1971
1970
1970
1971
1972
1972
1973
1973
1973
1973
1973
1973
1974
1975
1976
1976
1977
1977
1976
1977
1977
1978
1979
1980
1980
1981
1981
1982
1982
1983
1984
1985
1986
1988
1990
1991
1992
1993
1994
1994
1994
1995
1997
1998
1999
1999
1998
1996
1994
1991
1988
1985
1983
1981
1980
1979
1977
1976
1975
1974
1973
1973
1973
1973
1973
1973
1973
1973
1973
1972
1972
1972
1972
1973
1973
1974
1975
1975
1974
1974
1973
1974
1974
1974
1975
1975
1975
1975
1976
1976
1976
1976
1977
1977
1978
1978
1978
1978
1978
1978
1978
1978
1978
1978
1979
1980
1980
1980
1979
1978
1977
1977
1977
1977
1978
1978
1979
1979
1980
1981
1981
1981
1981
1981
1981
1980
1980
1979
1978
1978
1978
1978
1979
1980
1981
1983
1983
1980
1974
1966
1962
1969
1995
2036
2079
2109
2112
2087
2045
2002
1971
1958
1958
1966
1973
1977
1980
1980
1980
1979
1979
1979
1980
1982
1983
1983
1983
1983
1982
1981
1981
1982
1983
1985
1986
1986
1986
1986
1986
1986
1987
1988
1989
1990
1991
1992
1993
1994
1994
1995
1996
1997
1998
2000
2001
2002
2003
2004
2005
2006
2006
2006
2006
2006
2006
2005
2002
1999
1995
1991
1987
1985
1983
1982
1981
1980
1979
1978
1977
1976
1975
1975
1975
1975
1975
1976
1976
1975
1974
1973
1973
1973
1973
1974
1975
1976
1976
1975
1975
1974
1974
1973
1974
1975
1976
1977
1977
1978
1977
1977
1977
1977
1977
1977
1978
1979
1979
1979
1979
1978
1977
1977
1978
1978
1979
1979
1980
1980
1980
1980
1981
1981
1982
1983
1983
1982
1981
1981
1980
1979
1979
1978
1979
1979
1980
1981
1981
1981
1980
1976
1969
1962
1961
1974
2006
2049
2089
2110
2101
2067
2023
1984
1961
1954
1958
1966
1971
1975
1976
1977
1976
1976
1976
1976
1977
1978
1978
1978
1978
1978
1978
1979
1980
1981
1982
1982
1982
1982
1983
1983
1984
1984
1985
1985
1986
1988
1989
1991
1991
1991
1992
1993
1995
1996
1998
1999
2001
2002
2003
2003
2004
2004
2005
2005
2006
2005
2004
2002
1999
1996
1993
1990
1987
1985
1983
1982
1980
1979
1977
1976
1975
1975
1975
1976
1976
1976
1976
1975
1975
1974
1974
1974
1974
1974
1975
1975
1975
1975
1975
1975
1975
1975
1976
1976
1976
1976
1976
1976
1976
1976
1977
1977
1978
1978
1979
1979
1979
1979
1978
1978
1978
1978
1978
1978
1978
1978
1978
1978
1978
1978
1978
1979
1981
1983
1983
1983
1982
1980
1979
1979
1979
1979
1979
1979
1979
1980
1980
1979
1980
1980
1980
1977
1971
1964
1961
1970
1996
2036
2077
2106
2109
2086
2048
2006
1976
1962
1960
1965
1970
1973
1975
1976
1976
1976
1975
1976
1976
1976
1976
1976
1976
1976
1976
1977
1978
1979
1979
1979
1979
1979
1979
1979
1980
1981
1982
1983
1984
1984
1984
1984
1984
1986
1987
1989
1990
1991
1992
1993
1994
1995
1995
1996
1997
1999
2000
2000
2000
1999
1998
1996
1994
1992
1990
1988
1986
1984
1983
1981
1980
1978
1977
1976
1976
1976
1977
1977
1977
1977
1977
1977
1976
1976
1976
1976
1977
1977
1978
1978
1978
1978
1977
1977
1977
1978
1978
1979
1980
1980
1979
1979
1978
1979
1979
1980
1980
1981
1981
1980
1980
1980
1980
1980
1980
1981
1982
1982
1982
1981
1980
1980
1980
1980
1981
1981
1982
1983
1984
1985
1985
1984
1984
1983
1982
1982
1981
1981
1981
1981
1981
1981
1981
1980
1981
1982
1983
1983
1978
1970
1963
1965
1982
2016
2058
2095
2113
2105
2073
2033
1995
1972
1964
1966
1972
1977
1980
1980
1980
1978
1977
1977
1977
1977
1977
1978
1979
1980
1981
1981
1980
1980
1980
1981
1981
1982
1983
1984
1984
1985
1985
1984
1984
1984
1985
1986
1987
1988
1989
1989
1989
1990
1991
1992
1993
1995
1997
1998
1999
2000
2000
2000
2000
2000
2000
1999
1998
1997
1995
1992
1990
1987
1984
1982
1981
1980
1980
1979
1978
1978
1977
1977
1976
1976
1976
1977
1977
1978
1978
1977
1977
1976
1976
1976
1977
1977
1977
1977
1977
1977
1977
1977
1977
1976
1976
1977
1977
1977
1977
1976
1976
1975
1976
1977
1978
1979
1979
1979
1979
1978
1977
1977
1976
1977
1977
1977
1977
1977
1977
1977
1977
1978
1979
1980
1980
1981
1981
1981
1980
1979
1977
1975
1975
1975
1976
1977
1978
1977
1977
1977
1977
1976
1972
1965
1959
1961
1978
2011
2051
2086
2101
2089
2055
2014
1979
1959
1954
1959
1965
1971
1974
1975
1975
1975
1975
1975
1976
1977
1977
1977
1976
1977
1977
1977
1978
1978
1979
1980
1981
1982
1982
1982
1982
1982
1982
1983
1985
1986
1987
1987
1988
1989
1989
1989
1990
1992
1994
1997
1999
2000
2001
2001
2001
2002
2002
2003
2004
2004
2004
2002
2001
1998
1995
1992
1990
1988
1986
1984
1982
1980
1978
1978
1977
1977
1976
1976
1976
1977
1977
1977
1976
1975
1975
1975
1976
1977
1977
1977
1978
1978
1978
1979
1979
1979
1979
1979
1980
1980
1981
1981
1981
1980
1980
1980
1980
1981
1981
1981
1981
1981
1980
1980
1979
1979
1979
1980
1981
1982
1983
1983
1983
1983
1983
1982
1981
1981
1981
1980
1980
1979
1979
1979
1978
1977
1977
1977
1978
1980
1980
1976
1970
1962
1959
1970
1998
2040
2080
2103
2098
2067
2024
1984
1959
1951
1954
1961
1967
1972
1975
1976
1976
1975
1974
1974
1975
1975
1976
1977
1977
1977
1976
1976
1977
1977
1978
1978
1979
1979
1980
1981
1981
1981
1981
1982
1983
1984
1985
1986
1987
1988
1988
1989
1990
1991
1993
1994
1996
1998
1999
2000
2000
2000
1999
2000
2000
2000
2000
1998
1996
1993
1990
1986
1983
1980
1978
1977
1976
1975
1973
1972
1971
1971
1971
1971
1970
1970
1970
1970
1970
1970
1970
1969
1968
1968
1969
1970
1971
1971
1972
1971
1971
1971
1971
1971
1971
1972
1972
1972
1972
1973
1973
1973
1973
1973
1973
1973
1974
1974
1974
1973
1973
1972
1972
1972
1972
1973
1974
1975
1976
1977
1978
1977
1976
1975
1975
1975
1975
1975
1975
1975
1975
1974
1974
1973
1974
1976
1977
1975
1969
1961
1955
1961
1983
2022
2064
2097
2105
2086
2048
2006
1973
1956
1953
1958
1964
1969
1972
1974
1974
1973
1971
1970
1970
1970
1971
1972
1972
1973
1973
1972
1972
1973
1973
1974
1974
1974
1975
1975
1975
1976
1977
1977
1977
1978
1978
1978
1980
1981
1982
1982
1983
1983
1984
1985
1987
1989
1990
1991
1992
1992
1992
1992
1992
1991
1991
1990
1988
1986
1984
1981
1978
1976
1974
1972
1971
1970
1970
1970
1969
1968
1968
1967
1967
1966
1967
1967
1967
1968
1968
1968
1967
1967
1967
1967
1968
1968
1969
1968
1968
1968
1968
1968
1969
1970
1970
1971
1971
1972
1972
1972
1971
1971
1971
1971
1971
1972
1973
1973
1974
1974
1973
1973
1972
1972
1972
1972
1973
1973
1973
1973
1973
1973
1974
1976
1977
1977
1977
1977
1976
1976
1975
1974
1973
1972
1972
1972
1973
1973
1974
1975
1975
1972
1966
1959
1954
1960
1982
2019
2061
2095
2107
2092
2057
2016
1981
1961
1956
1960
1966
1969
1971
1971
1970
1970
1970
1970
1970
1971
1971
1971
1971
1971
1971
1971
1971
1971
1973
1974
1975
1975
1974
1974
1973
1974
1975
1976
1977
1978
1978
1979
1979
1979
1980
1981
1982
1984
1985
1986
1987
1988
1989
1989
1990
1991
1992
1993
1993
1993
1992
1991
1988
1986
1984
1982
1980
1978
1977
1975
1973
1972
1971
1970
1969
1969
1969
1970
1970
1970
1970
1970
1969
1969
1969
1969
1970
1971
1971
1972
1972
1972
1972
1972
1972
1972
1972
1972
1972
1973
1973
1974
1974
1973
1973
1973
1974
1974
1975
1976
1976
1976
1976
1975
1975
1975
1974
1975
1975
1976
1976
1976
1976
1975
1974
1974
1973
1973
1973
1974
1975
1976
1977
1978
1978
1978
1978
1978
1977
1977
1977
1976
1976
1975
1975
1974
1975
1975
1976
1978
1978
1977
1971
1963
1958
1962
1982
2017
2058
2092
2106
2092
2057
2016
1981
1960
1955
1958
1965
1970
1972
1973
1972
1972
1971
1970
1970
1971
1972
1972
1972
1972
1972
1972
1971
1971
1972
1972
1973
1974
1974
1975
1975
1975
1975
1976
1976
1977
1978
1979
1979
1980
1980
1981
1981
1982
1984
1985
1987
1989
1989
1990
1990
1990
1990
1991
1992
1992
1992
1990
1988
1986
1983
1980
1977
1975
1973
1972
1971
1970
1969
1968
1967
1966
1965
1965
1965
1965
1966
1967
1967
1967
1966
1966
1966
1966
1966
1967
1968
1969
1969
1969
1969
1969
1969
1969
1970
1971
1971
1972
1972
1971
1971
1971
1971
1971
1972
1973
1973
1973
1974
1973
1973
1972
1971
1971
1971
1972
1972
1973
1973
1972
1972
1973
1973
1974
1975
1976
1976
1975
1975
1974
1974
1973
1972
1971
1971
1972
1973
1974
1974
1975
1974
1970
1964
1957
1957
1971
2004
2048
2087
2105
2093
2055
2010
1971
1949
1945
1950
1958
1964
1968
1969
1970
1970
1970
1970
1970
1971
1971
1972
1972
1971
1971
1971
1972
1973
1974
1975
1975
1976
1976
1976
1977
1976
1976
1977
1978
1979
1981
1982
1983
1984
1984
1985
1986
1987
1989
1992
1994
1995
1996
1996
1996
1996
1997
1997
1998
1999
1998
1996
1994
1991
1988
1985
1981
1978
1975
1973
1971
1970
1970
1969
1968
1968
1967
1967
1967
1967
1967
1967
1967
1967
1966
1966
1966
1966
1966
1967
1968
1968
1968
1968
1968
1968
1968
1969
1969
1970
1970
1971
1971
1971
1971
1971
1971
1971
1971
1972
1972
1973
1973
1972
1972
1971
1971
1972
1973
1973
1974
1974
1975
1975
1976
1976
1976
1976
1976
1976
1975
1975
1974
1973
1972
1972
1972
1973
1974
1975
1976
1976
1974
1967
1958
1954
1963
1990
2033
2076
2104
2105
2078
2035
1992
1963
1951
1952
1960
1966
1971
1973
1974
1974
1973
1972
1972
1973
1974
1975
1975
1975
1975
1975
1974
1974
1975
1976
1977
1977
1978
1979
1979
1979
1979
1979
1980
1981
1982
1983
1983
1984
1985
1986
1987
1988
1989
1991
1993
1995
1996
1998
1998
1998
1998
1998
1998
1998
1998
1998
1996
1994
1991
1988
1984
1981
1979
1977
1976
1975
1974
1974
1973
1971
1970
1969
1969
1970
1971
1972
1973
1972
1972
1971
1970
1970
1970
1971
1971
1972
1972
1972
1972
1972
1972
1972
1973
1973
1974
1974
1975
1975
1975
1974
1974
1974
1974
1974
1975
1976
1976
1977
1977
1976
1976
1975
1974
1974
1975
1975
1975
1976
1976
1976
1976
1977
1978
1979
1979
1979
1979
1978
1977
1976
1975
1975
1974
1975
1975
1976
1976
1977
1978
1977
1972
1964
1957
1958
1974
2007
2050
2091
2113
2107
2075
2032
1992
1966
1956
1959
1965
1970
1973
1974
1974
1973
1972
1972
1972
1972
1973
1974
1974
1975
1974
1974
1974
1975
1976
1977
1977
1978
1978
1978
1978
1978
1979
1979
1980
1981
1982
1982
1983
1983
1983
1984
1985
1986
1988
1990
1992
1993
1993
1994
1994
1995
1996
1997
1997
1998
1997
1996
1994
1991
1988
1986
1983
1981
1980
1978
1977
1976
1975
1974
1973
1972
1972
1972
1972
1972
1973
1972
1972
1972
1972
1972
1972
1973
1973
1974
1974
1974
1974
1974
1974
1974
1974
1975
1975
1976
1976
1976
1976
1976
1976
1976
1976
1976
1976
1977
1977
1977
1977
1977
1976
1976
1976
1976
1977
1978
1978
1978
1978
1977
1976
1976
1976
1976
1977
1978
1979
1980
1981
1981
1980
1979
1978
1977
1977
1977
1977
1977
1977
1976
1975
1974
1975
1976
1978
1979
1975
1967
1960
1959
1972
2003
2046
2087
2112
2110
2081
2040
1999
1971
1960
1960
1966
1971
1974
1975
1975
1975
1974
1974
1973
1973
1973
1974
1975
1976
1976
1976
1976
1976
1976
1976
1977
1978
1979
1979
1980
1980
1980
1980
1980
1981
1981
1982
1983
1984
1985
1987
1987
1988
1989
1990
1991
1992
1994
1996
1997
1998
1998
1998
1998
1997
1997
1996
1994
1993
1991
1988
1986
1983
1980
1978
1976
1975
1975
1975
1975
1975
1974
1974
1973
1973
1972
1973
1973
1974
1975
1975
1975
1974
1974
1974
1974
1975
1976
1976
1976
1976
1976
1976
1976
1976
1977
1977
1977
1978
1978
1978
1978
1978
1978
1977
1977
1978
1978
1978
1979
1979
1979
1979
1978
1978
1978
1978
1979
1979
1978
1978
1978
1977
1977
1977
1977
1977
1978
1980
1981
1981
1981
1980
1979
1978
1978
1977
1977
1976
1976
1976
1975
1975
1976
1977
1977
1976
1972
1966
1960
1962
1978
2010
2050
2088
2107
2099
2068
2027
1989
1965
1956
1959
1964
1969
1972
1973
1973
1973
1972
1971
1971
1971
1972
1972
1972
1973
1973
1974
1975
1975
1975
1975
1975
1975
1976
1976
1977
1978
1978
1979
1979
1979
1979
1980
1981
1981
1982
1983
1984
1985
1986
1988
1988
1989
1990
1991
1992
1994
1995
1996
1996
1995
1994
1992
1991
1989
1986
1984
1981
1979
1977
1975
1973
1972
1971
1970
1970
1970
1970
1970
1969
1968
1967
1967
1967
1968
1969
1970
1970
1970
1969
1969
1968
1968
1968
1968
1969
1969
1970
1970
1970
1970
1970
1970
1970
1970
1971
1971
1972
1973
1972
1972
1971
1970
1970
1971
1972
1973
1974
1974
1973
1973
1972
1971
1971
1971
1972
1973
1974
1975
1975
1976
1975
1975
1974
1974
1974
1974
1973
1973
1973
1972
1972
1972
1972
1973
1974
1975
1975
1971
1964
1957
1956
1969
2001
2046
2085
2104
2093
2057
2011
1971
1948
1943
1948
1956
1963
1967
1970
1971
1971
1970
1969
1969
1969
1970
1971
1972
1972
1973
1973
1973
1973
1973
1973
1974
1975
1976
1977
1977
1977
1977
1977
1978
1979
1980
1981
1982
1983
1984
1985
1986
1986
1988
1989
1991
1992
1994
1995
1996
1996
1997
1997
1997
1997
1996
1996
1994
1992
1989
1986
1982
1979
1976
1974
1972
1971
1970
1970
1969
1968
1967
1967
1966
1966
1966
1966
1967
1967
1967
1967
1967
1966
1967
1967
1967
1968
1968
1968
1969
1969
1969
1970
1969
1970
1970
1971
1971
1972
1972
1972
1971
1971
1971
1972
1972
1973
1973
1973
1973
1972
1973
1973
1972
1972
1972
1973
1973
1974
1974
1974
1974
1974
1974
1976
1977
1978
1979
1978
1977
1977
1976
1975
1975
1975
1975
1976
1976
1977
1977
1978
1978
1976
1970
1963
1958
1964
1986
2025
2068
2102
2113
2094
2054
2011
1976
1958
1956
1962
1969
1974
1975
1975
1975
1974
1974
1975
1976
1976
1977
1976
1976
1976
1976
1976
1977
1978
1979
1980
1980
1980
1979
1979
1979
1979
1979
1980
1982
1983
1984
1984
1984
1984
1985
1985
1987
1988
1990
1992
1993
1994
1994
1995
1995
1996
1997
1998
1998
1998
1997
1996
1994
1991
1988
1985
1983
1982
1980
1979
1978
1977
1976
1975
1974
1974
1974
1974
1975
1975
1975
1975
1974
1974
1974
1973
1974
1974
1975
1975
1975
1975
1975
1975
1975
1975
1975
1976
1977
1977
1977
1976
1976
1975
1975
1975
1975
1976
1976
1976
1976
1976
1975
1975
1975
1975
1975
1975
1976
1976
1976
1975
1975
1974
1974
1974
1975
1976
1977
1978
1979
1980
1980
1979
1978
1977
1977
1977
1977
1977
1977
1977
1976
1976
1976
1976
1977
1978
1977
1973
1967
1961
1963
1980
2014
2057
2097
2116
2107
2073
2029
1988
1963
1955
1959
1966
1972
1975
1976
1976
1975
1974
1974
1974
1974
1974
1975
1976
1976
1977
1977
1977
1977
1976
1977
1977
1978
1979
1980
1980
1981
1981
1981
1981
1981
1982
1983
1984
1985
1986
1987
1987
1988
1988
1989
1990
1992
1993
1995
1996
1996
1997
1997
1996
1996
1995
1994
1993
1992
1990
1987
1985
1982
1980
1978
1977
1976
1975
1975
1974
1974
1974
1974
1974
1973
1973
1973
1974
1974
1974
1974
1974
1973
1973
1974
1974
1975
1975
1976
1976
1977
1977
1977
1976
1976
1976
1977
1978
1979
1979
1979
1979
1978
1978
1977
1978
1978
1979
1979
1980
1980
1980
1979
1979
1979
1979
1979
1979
1979
1979
1979
1979
1979
1980
1980
1982
1983
1984
1984
1984
1982
1981
1980
1979
1978
1978
1978
1979
1979
1979
1980
1980
1981
1979
1975
1968
1963
1964
1980
2013
2055
2093
2112
2103
2070
2027
1988
1964
1956
1960
1967
1973
1975
1976
1976
1975
1975
1976
1976
1976
1977
1977
1976
1976
1976
1977
1977
1978
1978
1979
1979
1979
1979
1979
1979
1979
1980
1980
1981
1982
1983
1983
1983
1983
1984
1984
1985
1987
1988
1990
1991
1991
1992
1992
1992
1993
1994
1994
1994
1994
1993
1992
1991
1988
1986
1983
1981
1979
1977
1975
1973
1971
1970
1969
1968
1967
1967
1968
1968
1968
1968
1967
1967
1967
1966
1966
1967
1967
1968
1969
1969
1969
1969
1968
1968
1968
1968
1969
1970
1971
1971
1971
1970
1970
1970
1970
1971
1971
1971
1972
1972
1971
1971
1971
1970
1970
1970
1971
1971
1971
1971
1971
1971
1971
1972
1973
1974
1974
1974
1973
1972
1972
1971
1971
1970
1970
1970
1971
1971
1971
1972
1972
1972
1970
1964
1957
1955
1965
1994
2037
2078
2101
2093
2057
2009
1967
1943
1937
1943
1952
1959
1963
1966
1968
1969
1969
1969
1970
1971
1972
1972
1972
1972
1972
1972
1972
1973
1974
1975
1975
1976
1976
1976
1977
1977
1978
1979
1980
1981
1982
1983
1984
1984
1985
1986
1987
1989
1990
1992
1994
1996
1997
1998
1999
1999
2000
2000
2001
2001
2001
2000
1998
1995
1992
1988
1985
1983
1981
1979
1978
1976
1975
1973
1972
1971
1971
1971
1971
1971
1972
1972
1971
1971
1971
1970
1970
1971
1972
1972
1973
1973
1973
1973
1972
1972
1972
1973
1974
1976
1976
1976
1976
1976
1975
1975
1975
1976
1976
1977
1977
1978
1978
1977
1976
1975
1975
1975
1976
1977
1978
1977
1977
1976
1977
1977
1979
1980
1980
1980
1979
1979
1978
1977
1976
1975
1975
1976
1976
1977
1977
1978
1979
1977
1971
1963
1956
1960
1979
2017
2061
2097
2110
2094
2055
2010
1973
1954
1951
1957
1965
1971
1974
1975
1974
1973
1972
1972
1972
1973
1974
1975
1975
1974
1974
1974
1975
1975
1976
1977
1978
1978
1978
1978
1978
1978
1978
1979
1980
1981
1982
1983
1983
1983
1984
1984
1986
1987
1988
1990
1991
1991
1992
1992
1992
1992
1993
1994
1994
1994
1994
1993
1991
1988
1986
1983
1981
1979
1977
1976
1975
1974
1973
1973
1972
1971
1971
1970
1971
1971
1972
1972
1971
1971
1970
1970
1970
1971
1971
1972
1972
1972
1972
1972
1972
1972
1972
1972
1973
1973
1973
1973
1973
1973
1973
1973
1973
1973
1974
1974
1975
1975
1975
1975
1974
1973
1973
1973
1973
1974
1975
1975
1975
1975
1976
1977
1978
1978
1978
1978
1977
1977
1976
1975
1974
1974
1974
1974
1975
1975
1976
1978
1978
1974
1967
1959
1956
1965
1992
2034
2078
2109
2112
2086
2044
2000
1968
1954
1955
1962
1969
1972
1973
1973
1972
1971
1971
1972
1973
1974
1974
1974
1974
1974
1974
1975
1976
1976
1977
1978
1979
1979
1979
1979
1979
1979
1979
1980
1981
1982
1983
1984
1985
1985
1985
1985
1986
1987
1988
1990
1992
1993
1993
1994
1994
1994
1995
1995
1995
1995
1995
1993
1992
1989
1986
1983
1981
1979
1978
1977
1976
1975
1974
1973
1973
1973
1973
1973
1974
1974
1974
1974
1974
1973
1973
1973
1973
1973
1974
1974
1975
1975
1975
1975
1975
1975
1975
1976
1976
1977
1977
1977
1977
1977
1977
1977
1977
1977
1978
1978
1979
1979
1979
1978
1978
1977
1977
1977
1977
1978
1978
1978
1978
1978
1979
1979
1980
1981
1982
1982
1981
1980
1979
1979
1978
1978
1977
1977
1978
1978
1979
1980
1980
1979
1975
1968
1960
1959
1972
2003
2046
2087
2112
2108
2078
2035
1993
1966
1956
1959
1966
1973
1976
1977
1977
1976
1976
1976
1976
1976
1977
1977
1977
1977
1977
1977
1977
1978
1978
1979
1980
1981
1981
1981
1981
1981
1981
1982
1983
1984
1984
1985
1985
1985
1985
1985
1986
1987
1989
1990
1992
1993
1993
1994
1995
1995
1996
1997
1998
1998
1999
1998
1997
1995
1992
1990
1987
1985
1984
1983
1982
1981
1980
1978
1977
1976
1976
1976
1977
1977
1978
1977
1977
1976
1975
1975
1976
1977
1978
1978
1979
1979
1979
1978
1978
1978
1977
1978
1978
1978
1979
1979
1979
1978
1978
1978
1978
1978
1979
1979
1980
1980
1980
1980
1979
1979
1979
1980
1980
1980
1979
1979
1979
1979
1979
1979
1979
1979
1980
1982
1982
1982
1982
1981
1979
1978
1977
1977
1977
1977
1978
1978
1977
1977
1976
1977
1978
1976
1972
1965
1960
1965
1986
2023
2065
2098
2109
2092
2054
2012
1977
1958
1955
1959
1966
1970
1972
1973
1974
1974
1974
1973
1973
1973
1972
1972
1973
1973
1974
1975
1975
1975
1975
1975
1975
1975
1975
1976
1977
1977
1978
1978
1978
1978
1978
1979
1979
1980
1981
1982
1983
1983
1984
1984
1985
1986
1987
1988
1989
1990
1990
1991
1990
1990
1989
1987
1986
1984
1983
1981
1979
1977
1975
1973
1971
1970
1969
1969
1969
1969
1969
1969
1969
1968
1968
1967
1967
1967
1968
1969
1969
1970
1970
1970
1970
1969
1969
1970
1970
1971
1971
1972
1972
1972
1971
1971
1971
1971
1971
1972
1972
1972
1972
1972
1971
1970
1970
1970
1971
1971
1971
1971
1971
1970
1969
1969
1969
1969
1969
1970
1970
1970
1971
1971
1972
1972
1972
1971
1971
1971
1971
1970
1969
1968
1967
1967
1967
1967
1968
1969
1970
1969
1965
1957
1951
1952
1967
2000
2043
2079
2097
2088
2054
2011
1973
1950
1943
1947
1954
1960
1964
1965
1965
1964
1963
1963
1963
1963
1964
1965
1965
1965
1965
1965
1965
1966
1966
1967
1968
1969
1969
1970
1970
1970
1970
1970
1970
1971
1972
1973
1974
1975
1976
1976
1976
1977
1978
1980
1981
1982
1983
1984
1985
1985
1985
1985
1985
1985
1985
1985
1984
1982
1980
1977
1974
1971
1969
1968
1966
1965
1965
1964
1964
1963
1962
1961
1961
1961
1962
1963
1963
1963
1962
1961
1960
1960
1960
1961
1963
1964
1965
1965
1965
1964
1964
1964
1964
1964
1965
1965
1965
1966
1966
1966
1965
1965
1965
1965
1965
1965
1965
1965
1965
1965
1965
1965
1965
1965
1966
1966
1966
1967
1968
1968
1969
1969
1968
1968
1968
1968
1968
1967
1967
1967
1966
1966
1966
1966
1966
1967
1968
1968
1966
1959
1952
1948
1958
1986
2029
2069
2094
2089
2058
2014
1972
1946
1937
1941
1948
1955
1960
1964
1965
1965
1965
1965
1964
1965
1965
1966
1967
1968
1968
1968
1968
1968
1968
1969
1970
1971
1972
1973
1973
1973
1973
1974
1975
1976
1976
1978
1979
1980
1981
1982
1982
1983
1984
1986
1987
1989
1990
1991
1992
1992
1992
1993
1993
1993
1992
1992
1990
1989
1986
1983
1980
1977
1974
1972
1970
1969
1969
1968
1968
1967
1966
1966
1965
1965
1966
1966
1967
1967
1966
1966
1966
1965
1966
1966
1967
1968
1968
1969
1968
1968
1968
1968
1968
1969
1970
1970
1971
1971
1971
1971
1971
1971
1971
1971
1971
1971
1972
1972
1972
1971
1971
1971
1971
1972
1973
1974
1975
1975
1975
1974
1973
1973
1973
1973
1973
1973
1973
1973
1973
1972
1972
1972
1973
1974
1973
1969
1961
1955
1958
1976
2012
2055
2090
2102
2085
2048
2005
1970
1952
1949
1954
1961
1967
1970
1973
1974
1974
1974
1973
1973
1973
1973
1973
1973
1974
1975
1976
1976
1976
1977
1977
1977
1977
1978
1979
1980
1980
1981
1981
1980
1980
1981
1982
1983
1985
1987
1988
1990
1990
1991
1992
1992
1993
1995
1996
1997
1998
1999
1999
1999
1998
1996
1995
1993
1992
1989
1987
1984
1982
1979
1977
1975
1974
1973
1973
1973
1973
1973
1972
1972
1972
1971
1971
1972
1972
1972
1972
1972
1972
1972
1972
1972
1972
1973
1973
1974
1974
1974
1974
1974
1974
1974
1974
1974
1975
1975
1976
1976
1976
1975
1975
1975
1975
1975
1975
1975
1975
1975
1975
1975
1974
1974
1974
1975
1976
1978
1979
1979
1979
1978
1977
1976
1976
1975
1975
1975
1976
1976
1976
1975
1975
1976
1977
1977
1975
1969
1961
1958
1966
1992
2032
2075
2105
2109
2086
2046
2003
1971
1956
1955
1961
1967
1971
1973
1974
1974
1974
1974
1973
1973
1973
1973
1974
1974
1975
1975
1976
1976
1976
1976
1976
1976
1976
1977
1978
1979
1980
1980
1981
1980
1980
1981
1982
1983
1984
1985
1986
1987
1987
1988
1989
1990
1991
1993
1994
1995
1996
1996
1996
1996
1994
1993
1991
1989
1988
1986
1984
1981
1979
1977
1975
1973
1973
1972
1972
1972
1972
1971
1970
1970
1969
1969
1970
1970
1971
1971
1971
1972
1972
1972
1971
1971
1971
1971
1972
1973
1973
1974
1973
1973
1973
1972
1973
1973
1974
1975
1975
1975
1974
1973
1973
1972
1973
1974
1975
1975
1976
1975
1975
1974
1973
1973
1973
1973
1974
1975
1975
1976
1976
1977
1977
1978
1978
1977
1976
1976
1976
1976
1975
1975
1974
1974
1973
1974
1975
1976
1978
1977
1973
1965
1957
1957
1972
2005
2048
2089
2112
2106
2075
2032
1991
1964
1955
1957
1964
1970
1973
1974
1974
1973
1972
1972
1972
1972
1973
1974
1975
1975
1975
1974
1974
1974
1974
1975
1976
1977
1978
1979
1979
1979
1979
1979
1979
1980
1981
1982
1983
1983
1984
1984
1985
1985
1986
1988
1989
1991
1993
1994
1994
1995
1994
1994
1995
1995
1995
1994
1993
1990
1988
1985
1982
1980
1978
1976
1975
1974
1974
1973
1972
1971
1971
1971
1971
1971
1971
1971
1971
1971
1971
1971
1971
1971
1971
1972
1972
1973
1973
1973
1973
1972
1972
1972
1972
1973
1974
1974
1975
1975
1975
1975
1975
1975
1974
1974
1974
1974
1974
1975
1975
1975
1975
1975
1975
1975
1976
1976
1976
1976
1975
1974
1974
1974
1974
1974
1975
1976
1977
1978
1979
1979
1978
1977
1976
1976
1975
1975
1975
1975
1974
1974
1974
1974
1975
1977
1977
1974
1968
1961
1959
1970
1999
2040
2081
2108
2108
2082
2041
1999
1969
1956
1956
1962
1968
1972
1974
1975
1975
1974
1973
1973
1972
1973
1973
1974
1975
1975
1976
1976
1976
1976
1976
1976
1977
1978
1978
1979
1980
1980
1980
1980
1980
1981
1981
1982
1983
1984
1985
1986
1987
1988
1988
1989
1991
1992
1994
1995
1995
1996
1996
1996
1996
1995
1994
1993
1991
1989
1987
1985
1982
1980
1977
1976
1974
1973
1973
1972
1972
1972
1972
1971
1970
1970
1970
1970
1971
1971
1972
1972
1972
1971
1971
1971
1971
1972
1972
1973
1973
1973
1973
1973
1973
1972
1973
1973
1974
1974
1975
1975
1975
1974
1974
1974
1974
1974
1975
1975
1976
1976
1976
1975
1975
1974
1974
1973
1973
1974
1974
1974
1974
1973
1973
1974
1975
1977
1978
1979
1979
1978
1977
1976
1975
1974
1974
1973
1974
1974
1975
1975
1975
1976
1976
1975
1970
1963
1957
1959
1976
2009
2051
2089
2107
2098
2065
2023
1985
1962
1955
1958
1964
1969
1972
1972
1972
1971
1971
1971
1971
1972
1972
1972
1971
1971
1972
1973
1974
1974
1975
1976
1976
1975
1975
1975
1976
1976
1977
1978
1979
1980
1980
1980
1980
1981
1981
1982
1984
1985
1986
1987
1988
1989
1990
1991
1991
1991
1992
1993
1994
1994
1993
1991
1989
1987
1984
1982
1980
1978
1976
1974
1972
1971
1969
1968
1968
1967
1968
1968
1968
1968
1968
1967
1967
1967
1967
1967
1967
1967
1968
1968
1968
1968
1968
1968
1968
1969
1969
1970
1970
1970
1970
1969
1969
1970
1970
1970
1971
1971
1972
1972
1971
1971
1971
1971
1972
1972
1972
1973
1973
1973
1973
1973
1972
1971
1971
1971
1971
1972
1972
1972
1972
1973
1973
1974
1975
1975
1975
1975
1974
1974
1973
1972
1971
1971
1971
1972
1973
1973
1974
1975
1974
1971
1965
1958
1955
1964
1990
2030
2072
2100
2101
2075
2033
1990
1960
1947
1949
1956
1964
1968
1970
1971
1971
1970
1970
1971
1972
1973
1973
1974
1973
1973
1973
1972
1973
1973
1974
1975
1976
1976
1977
1977
1977
1977
1978
1978
1979
1980
1981
1983
1983
1984
1985
1985
1986
1987
1989
1990
1992
1993
1994
1994
1995
1995
1996
1996
1996
1996
1996
1994
1992
1989
1986
1983
1980
1978
1977
1975
1974
1973
1972
1970
1969
1968
1968
1967
1968
1968
1968
1968
1968
1968
1968
1967
1967
1967
1968
1968
1969
1969
1969
1969
1969
1969
1969
1970
1970
1971
1971
1972
1972
1972
1972
1971
1971
1971
1972
1972
1973
1973
1973
1973
1972
1972
1972
1972
1973
1973
1973
1973
1973
1973
1973
1973
1973
1973
1974
1976
1977
1978
1977
1977
1976
1974
1974
1973
1973
1974
1974
1974
1974
1974
1974
1975
1975
1974
1969
1963
1958
1962
1983
2021
2063
2096
2104
2082
2042
1998
1965
1950
1949
1955
1962
1967
1970
1972
1973
1974
1974
1973
1973
1973
1972
1973
1973
1974
1975
1976
1977
1977
1977
1977
1977
1977
1978
1978
1979
1980
1981
1982
1982
1983
1983
1983
1984
1985
1986
1988
1989
1991
1992
1993
1993
1994
1995
1996
1997
1998
1999
2000
2000
1999
1998
1996
1994
1992
1989
1987
1984
1981
1979
1976
1974
1972
1971
1971
1971
1971
1971
1970
1970
1969
1968
1967
1967
1968
1968
1969
1969
1969
1969
1969
1969
1969
1969
1969
1969
1970
1971
1971
1971
1971
1971
1971
1971
1971
1972
1972
1973
1973
1973
1973
1973
1973
1973
1973
1974
1975
1975
1975
1975
1975
1974
1973
1973
1973
1973
1973
1973
1973
1973
1973
1973
1973
1974
1976
1977
1978
1978
1977
1976
1975
1974
1973
1973
1973
1973
1974
1975
1975
1975
1975
1975
1974
1971
1964
1958
1958
1972
2003
2045
2084
2106
2101
2071
2029
1989
1963
1954
1956
1962
1968
1971
1972
1972
1972
1972
1972
1972
1973
1973
1973
1973
1973
1973
1973
1974
1974
1975
1975
1976
1976
1976
1976
1977
1977
1978
1979
1980
1981
1981
1981
1981
1981
1982
1983
1985
1986
1988
1989
1990
1991
1991
1992
1993
1994
1995
1996
1996
1996
1996
1994
1992
1990
1987
1985
1982
1980
1978
1977
1975
1974
1972
1971
1971
1970
1970
1970
1970
1970
1970
1970
1969
1969
1969
1969
1970
1971
1971
1972
1972
1972
1971
1971
1971
1972
1973
1974
1974
1974
1974
1974
1973
1973
1974
1974
1974
1975
1976
1976
1976
1975
1975
1975
1975
1975
1976
1976
1977
1977
1977
1976
1975
1975
1975
1976
1976
1977
1977
1976
1976
1975
1974
1974
1974
1975
1976
1978
1979
1980
1980
1979
1978
1977
1977
1977
1977
1977
1977
1977
1977
1977
1976
1977
1978
1979
1978
1974
1967
1961
1963
1981
2016
2059
2098
2117
2108
2076
2034
1997
1975
1968
1971
1977
1983
1986
1988
1989
1989
1989
1988
1988
1988
1988
1988
1989
1989
1990
1991
1991
1991
1991
1991
1991
1992
1992
1993
1994
1994
1995
1995
1995
1995
1995
1996
1997
1998
1999
2000
2002
2002
2003
2004
2004
2005
2007
2008
2009
2010
2011
2011
2011
2010
2009
2008
2006
2005
2003
2000
1998
1995
1992
1989
1987
1985
1984
1984
1985
1985
1985
1985
1984
1983
1983
1982
1982
1983
1983
1984
1984
1984
1984
1983
1983
1983
1983
1984
1985
1985
1985
1985
1985
1985
1984
1984
1984
1985
1986
1986
1986
1986
1985
1985
1985
1985
1985
1986
1986
1987
1987
1987
1986
1986
1985
1985
1985
1985
1985
1985
1985
1984
1984
1984
1983
1983
1984
1985
1986
1988
1988
1988
1987
1986
1984
1983
1983
1983
1983
1984
1984
1984
1984
1983
1984
1984
1984
1981
1975
1968
1968
1981
2011
2051
2091
2114
2110
2081
2040
2000
1973
1963
1964
1970
1976
1978
1979
1980
1980
1980
1980
1980
1980
1979
1979
1979
1980
1980
1981
1981
1981
1982
1981
1981
1982
1982
1983
1984
1984
1984
1985
1985
1985
1985
1986
1987
1988
1989
1990
1991
1992
1993
1994
1994
1995
1996
1997
1999
2000
2001
2001
2001
2001
2000
1998
1997
1995
1993
1990
1988
1985
1983
1980
1978
1977
1975
1975
1974
1974
1974
1974
1973
1973
1972
1972
1972
1972
1973
1973
1973
1973
1973
1973
1972
1972
1973
1973
1974
1974
1975
1975
1975
1974
1974
1974
1974
1975
1976
1977
1977
1977
1977
1977
1976
1976
1976
1976
1977
1977
1977
1978
1977
1977
1976
1975
1975
1975
1976
1977
1978
1979
1980
1980
1980
1980
1979
1979
1978
1978
1978
1978
1978
1977
1977
1977
1977
1977
1978
1980
1979
1976
1969
1962
1962
1978
2012
2056
2096
2112
2097
2057
2011
1972
1951
1948
1953
1962
1969
1974
1977
1979
1978
1977
1976
1976
1976
1977
1978
1979
1979
1980
1980
1980
1980
1980
1981
1982
1983
1984
1985
1986
1986
1986
1986
1986
1987
1988
1989
1991
1992
1993
1994
1995
1996
1998
1999
2001
2002
2004
2005
2006
2007
2007
2007
2007
2006
2006
2005
2003
2001
1998
1994
1991
1987
1984
1981
1979
1978
1977
1977
1976
1976
1975
1974
1973
1973
1973
1973
1974
1974
1974
1973
1973
1972
1972
1972
1972
1973
1974
1974
1975
1975
1975
1975
1975
1975
1975
1976
1977
1977
1977
1977
1977
1977
1977
1977
1978
1978
1979
1979
1978
1978
1977
1977
1977
1977
1978
1978
1979
1980
1982
1982
1982
1981
1981
1980
1979
1979
1979
1979
1979
1978
1978
1978
1978
1978
1979
1980
1980
1977
1969
1961
1960
1974
2007
2051
2092
2112
2102
2067
2022
1982
1958
1952
1956
1963
1970
1974
1976
1978
1978
1977
1976
1976
1976
1977
1978
1978
1979
1980
1980
1980
1980
1980
1980
1980
1981
1982
1983
1984
1985
1985
1985
1985
1986
1987
1987
1989
1990
1991
1992
1993
1994
1994
1995
1997
1999
2001
2003
2004
2005
2005
2005
2005
2004
2003
2002
2000
1998
1995
1992
1989
1986
1983
1980
1978
1977
1977
1977
1976
1976
1975
1974
1973
1972
1972
1973
1974
1974
1974
1974
1974
1973
1973
1973
1973
1974
1974
1975
1975
1975
1975
1975
1975
1975
1975
1975
1976
1976
1977
1978
1978
1978
1977
1976
1976
1976
1977
1978
1979
1979
1979
1978
1977
1976
1976
1976
1977
1977
1978
1978
1978
1979
1979
1980
1981
1981
1981
1980
1979
1979
1978
1978
1977
1977
1977
1977
1977
1978
1979
1980
1979
1974
1966
1959
1959
1975
2008
2051
2093
2116
2111
2079
2036
1994
1967
1957
1959
1966
1972
1975
1975
1975
1974
1973
1973
1973
1974
1974
1975
1975
1975
1975
1975
1975
1975
1976
1977
1977
1978
1979
1979
1979
1979
1979
1979
1980
1981
1983
1984
1985
1985
1985
1986
1986
1987
1989
1990
1992
1994
1995
1996
1997
1997
1997
1998
1998
1998
1998
1997
1995
1992
1989
1986
1983
1981
1979
1977
1976
1975
1975
1974
1973
1972
1971
1971
1972
1972
1972
1972
1972
1972
1971
1971
1971
1971
1971
1972
1972
1973
1973
1973
1973
1972
1972
1972
1973
1973
1974
1974
1975
1974
1974
1974
1974
1973
1974
1974
1975
1975
1975
1975
1975
1975
1975
1975
1976
1976
1977
1977
1976
1976
1975
1974
1974
1974
1975
1976
1977
1978
1979
1979
1980
1979
1978
1978
1977
1977
1977
1976
1976
1975
1975
1974
1974
1974
1976
1978
1979
1975
1968
1960
1958
1969
1997
2039
2082
2111
2114
2090
2049
2007
1975
1960
1959
1964
1970
1973
1974
1975
1974
1974
1973
1972
1972
1972
1973
1974
1974
1975
1976
1976
1976
1975
1976
1976
1977
1978
1979
1979
1980
1980
1979
1979
1980
1980
1981
1982
1983
1985
1986
1987
1987
1988
1989
1989
1991
1993
1995
1997
1998
1998
1998
1998
1998
1997
1996
1995
1993
1991
1988
1986
1983
1980
1978
1976
1975
1974
1974
1973
1973
1973
1972
1971
1971
1970
1970
1971
1972
1972
1973
1973
1972
1972
1972
1972
1972
1973
1973
1973
1974
1974
1973
1973
1973
1973
1974
1974
1975
1975
1975
1975
1975
1974
1974
1974
1975
1975
1976
1976
1976
1976
1975
1975
1974
1974
1975
1976
1976
1976
1976
1975
1974
1973
1973
1973
1973
1974
1976
1977
1978
1979
1978
1978
1976
1976
1975
1975
1975
1975
1975
1975
1975
1974
1974
1974
1975
1976
1975
1970
1962
1958
1963
1985
2023
2066
2100
2110
2092
2053
2010
1976
1957
1954
1958
1965
1970
1972
1973
1974
1973
1972
1972
1972
1972
1973
1973
1973
1974
1974
1974
1975
1975
1975
1975
1975
1976
1977
1978
1978
1979
1979
1979
1979
1979
1980
1981
1982
1983
1984
1985
1986
1987
1988
1989
1990
1992
1993
1995
1996
1997
1997
1997
1997
1996
1995
1993
1991
1989
1987
1984
1981
1979
1976
1974
1972
1970
1970
1969
1969
1968
1968
1967
1966
1965
1965
1966
1967
1968
1968
1968
1968
1968
1968
1967
1967
1968
1968
1969
1969
1969
1969
1970
1970
1970
1970
1970
1971
1971
1972
1972
1972
1971
1971
1971
1971
1972
1972
1972
1973
1973
1973
1973
1972
1971
1971
1971
1972
1972
1973
1973
1974
1974
1975
1975
1975
1976
1975
1975
1975
1974
1974
1973
1973
1972
1972
1972
1973
1974
1976
1977
1975
1969
1960
1955
1960
1984
2025
2070
2103
2108
2082
2038
1992
1959
1945
1946
1954
1962
1968
1971
1972
1972
1972
1971
1971
1972
1973
1974
1975
1975
1975
1975
1975
1975
1975
1976
1977
1978
1979
1980
1980
1980
1980
1981
1981
1982
1983
1984
1985
1986
1987
1988
1989
1990
1991
1993
1995
1997
1998
2000
2001
2002
2002
2003
2003
2003
2002
2001
2000
1997
1994
1990
1987
1983
1980
1978
1976
1975
1974
1973
1972
1971
1970
1969
1969
1969
1969
1970
1970
1970
1969
1969
1968
1968
1968
1968
1969
1970
1971
1971
1971
1971
1971
1971
1971
1972
1973
1974
1975
1975
1975
1974
1974
1974
1974
1975
1976
1976
1976
1976
1976
1975
1975
1974
1974
1975
1975
1976
1977
1977
1977
1977
1977
1978
1979
1979
1979
1979
1979
1978
1978
1977
1976
1976
1976
1976
1976
1977
1977
1979
1979
1978
1974
1966
1958
1959
1975
2010
2054
2095
2115
2104
2068
2023
1983
1959
1953
1957
1965
1970
1974
1975
1976
1975
1975
1975
1976
1977
1977
1977
1977
1976
1976
1976
1977
1978
1979
1979
1980
1981
1981
1981
1981
1981
1981
1982
1983
1985
1986
1987
1987
1987
1988
1988
1989
1991
1993
1995
1997
1999
2000
2001
2001
2002
2002
2003
2004
2004
2004
2002
1999
1996
1992
1988
1986
1983
1982
1980
1979
1978
1976
1975
1974
1973
1972
1972
1973
1973
1973
1973
1973
1973
1972
1971
1970
1970
1971
1972
1973
1973
1973
1973
1972
1972
1972
1973
1974
1974
1975
1975
1975
1975
1974
1974
1974
1974
1975
1975
1976
1976
1976
1976
1975
1975
1975
1975
1976
1976
1977
1976
1976
1975
1975
1974
1975
1975
1976
1977
1978
1979
1980
1980
1980
1979
1978
1977
1977
1977
1977
1977
1977
1977
1977
1976
1976
1977
1978
1979
1977
1972
1963
1957
1962
1984
2022
2067
2104
2118
2103
2065
2020
1983
1961
1956
1961
1967
1973
1975
1976
1976
1975
1974
1973
1973
1973
1974
1974
1975
1976
1976
1976
1976
1976
1976
1976
1977
1978
1979
1979
1980
1980
1980
1980
1980
1980
1981
1982
1983
1984
1985
1986
1986
1987
1988
1989
1991
1992
1994
1996
1997
1998
1998
1998
1998
1998
1997
1997
1995
1993
1990
1987
1984
1981
1978
1976
1975
1974
1974
1973
1973
1972
1972
1972
1972
1972
1972
1972
1973
1973
1972
1972
1971
1971
1972
1972
1973
1974
1974
1974
1974
1974
1974
1974
1974
1974
1974
1975
1976
1976
1976
1976
1976
1975
1975
1975
1976
1977
1977
1978
1978
1977
1977
1976
1976
1977
1977
1978
1978
1978
1978
1978
1977
1977
1976
1976
1976
1976
1977
1978
1978
1979
1980
1980
1980
1980
1980
1979
1979
1978
1978
1978
1977
1976
1976
1976
1976
1977
1979
1980
1980
1976
1968
1960
1958
1970
1999
2042
2085
2114
2116
2091
2049
2007
1975
1961
1960
1965
1971
1974
1975
1975
1974
1973
1973
1973
1973
1974
1975
1975
1976
1976
1976
1976
1975
1976
1976
1977
1977
1978
1978
1979
1979
1979
1979
1979
1980
1980
1981
1982
1983
1983
1984
1984
1985
1986
1988
1990
1992
1993
1995
1995
1996
1996
1997
1998
1998
1999
1998
1997
1995
1992
1989
1986
1983
1981
1979
1978
1977
1976
1976
1975
1974
1973
1973
1973
1973
1973
1974
1974
1974
1974
1973
1973
1972
1972
1973
1974
1974
1975
1975
1975
1975
1974
1975
1975
1975
1975
1976
1976
1976
1976
1976
1976
1976
1976
1976
1976
1976
1977
1977
1977
1977
1976
1976
1976
1976
1977
1977
1978
1978
1977
1977
1976
1976
1976
1975
1976
1976
1976
1976
1976
1976
1975
1975
1976
1978
1979
1980
1980
1980
1978
1977
1977
1976
1976
1976
1976
1976
1976
1976
1977
1977
1978
1978
1976
1970
1962
1958
1966
1989
2028
2070
2102
2111
2092
2054
2012
1978
1961
1958
1962
1968
1972
1973
1973
1973
1973
1973
1973
1974
1974
1974
1974
1973
1974
1974
1975
1975
1976
1976
1976
1976
1976
1977
1977
1977
1978
1979
1979
1979
1979
1979
1979
1980
1981
1982
1984
1985
1987
1988
1989
1990
1991
1991
1992
1994
1995
1996
1996
1996
1996
1995
1993
1991
1989
1987
1985
1983
1980
1978
1976
1973
1971
1970
1969
1969
1969
1969
1969
1969
1969
1968
1968
1968
1967
1968
1968
1969
1969
1969
1969
1969
1968
1969
1969
1969
1970
1970
1970
1971
1970
1970
1970
1970
1969
1970
1970
1971
1972
1973
1972
1972
1972
1971
1971
1971
1972
1973
1973
1974
1973
1973
1972
1972
1972
1972
1972
1973
1973
1973
1973
1972
1972
1972
1973
1975
1976
1977
1976
1975
1974
1973
1972
1972
1972
1972
1972
1973
1973
1973
1973
1974
1974
1972
1966
1959
1955
1964
1991
2034
2077
2104
2103
2073
2028
1984
1955
1944
1947
1955
1962
1966
1969
1970
1970
1970
1970
1971
1971
1972
1972
1972
1972
1972
1972
1973
1973
1974
1975
1975
1976
1976
1976
1976
1977
1978
1979
1980
1980
1981
1981
1982
1983
1984
1985
1987
1988
1990
1991
1993
1994
1994
1995
1996
1997
1998
1999
2000
2001
2000
1999
1997
1994
1991
1988
1986
1983
1981
1978
1975
1973
1971
1970
1969
1969
1969
1969
1969
1969
1969
1969
1969
1968
1968
1967
1967
1968
1968
1968
1969
1969
1969
1969
1969
1969
1969
1970
1971
1972
1972
1971
1971
1970
1971
1971
1972
1973
1973
1974
1974
1974
1973
1972
1972
1972
1973
1973
1974
1974
1974
1973
1973
1973
1973
1973
1974
1976
1977
1979
1979
1979
1977
1976
1975
1975
1975
1975
1975
1976
1976
1975
1975
1975
1975
1976
1976
1974
1969
1961
1958
1967
1995
2038
2082
2109
2107
2076
2030
1987
1959
1949
1951
1958
1964
1968
1971
1974
1975
1976
1976
1976
1975
1975
1975
1976
1976
1977
1978
1979
1979
1979
1979
1980
1980
1981
1982
1983
1984
1985
1985
1986
1986
1986
1987
1988
1989
1990
1992
1993
1995
1996
1998
1999
2000
2001
2002
2004
2005
2006
2007
2007
2007
2006
2005
2003
2001
1998
1995
1992
1989
1986
1983
1981
1978
1977
1976
1976
1977
1977
1977
1976
1975
1975
1974
1974
1974
1974
1975
1975
1975
1975
1975
1974
1973
1973
1974
1975
1976
1976
1977
1977
1977
1977
1977
1977
1977
1977
1978
1978
1978
1978
1978
1978
1977
1977
1978
1978
1979
1979
1979
1979
1979
1978
1978
1977
1977
1977
1978
1978
1978
1978
1978
1978
1978
1979
1981
1981
1981
1981
1980
1979
1978
1978
1977
1977
1977
1978
1978
1979
1979
1980
1980
1979
1975
1967
1960
1960
1973
2003
2047
2088
2113
2111
2083
2040
1999
1970
1958
1959
1965
1970
1973
1974
1975
1974
1974
1974
1975
1975
1975
1975
1975
1975
1975
1975
1976
1977
1977
1978
1978
1978
1978
1978
1978
1978
1979
1980
1981
1981
1981
1981
1981
1981
1982
1983
1985
1986
1988
1989
1991
1992
1993
1994
1994
1995
1996
1997
1998
1998
1998
1997
1995
1992
1989
1987
1985
1983
1981
1979
1978
1976
1974
1973
1972
1972
1973
1973
1973
1973
1973
1973
1972
1972
1972
1972
1972
1973
1974
1974
1974
1974
1974
1974
1974
1974
1974
1975
1975
1976
1976
1976
1976
1975
1974
1974
1975
1976
1977
1977
1978
1977
1977
1977
1977
1977
1977
1977
1977
1977
1977
1977
1977
1976
1976
1975
1976
1976
1977
1977
1977
1977
1976
1975
1975
1975
1975
1976
1976
1977
1978
1978
1979
1979
1979
1979
1978
1978
1978
1978
1978
1977
1977
1976
1976
1976
1976
1977
1979
1980
1978
1972
1964
1958
1961
1981
2017
2061
2100
2117
2106
2072
2028
1990
1966
1959
1962
1969
1973
1975
1975
1975
1974
1973
1973
1973
1973
1974
1975
1975
1975
1975
1974
1974
1974
1975
1975
1976
1977
1977
1978
1978
1978
1978
1977
1978
1978
1979
1979
1980
1980
1981
1981
1982
1983
1984
1986
1987
1989
1990
1991
1992
1992
1992
1992
1993
1993
1993
1992
1991
1989
1986
1983
1981
1978
1976
1975
1974
1973
1972
1971
1970
1970
1970
1969
1969
1969
1969
1970
1970
1971
1971
1971
1970
1970
1970
1970
1971
1972
1972
1972
1972
1971
1971
1970
1971
1971
1972
1973
1973
1973
1973
1972
1972
1972
1972
1972
1973
1974
1974
1974
1974
1973
1973
1972
1972
1973
1973
1973
1973
1973
1973
1973
1972
1972
1971
1971
1971
1971
1972
1972
1971
1971
1972
1972
1973
1974
1975
1974
1974
1973
1972
1972
1971
1971
1970
1970
1971
1971
1971
1972
1972
1972
1968
1961
1954
1951
1960
1986
2026
2068
2099
2106
2086
2048
2005
1972
1955
1952
1957
1963
1966
1967
1968
1967
1967
1967
1967
1967
1968
1968
1968
1968
1968
1968
1968
1969
1969
1970
1971
1971
1971
1971
1971
1971
1971
1972
1973
1973
1974
1974
1975
1975
1975
1975
1976
1977
1979
1980
1982
1983
1984
1985
1985
1985
1985
1986
1987
1988
1989
1988
1987
1985
1982
1979
1976
1974
1972
1970
1969
1968
1966
1965
1963
1962
1962
1962
1962
1963
1963
1963
1963
1963
1962
1962
1962
1962
1962
1963
1963
1963
1963
1963
1963
1963
1963
1963
1964
1964
1965
1965
1965
1965
1964
1964
1964
1965
1965
1966
1966
1966
1966
1965
1965
1965
1965
1965
1966
1966
1967
1966
1966
1965
1964
1963
1963
1964
1965
1966
1967
1968
1969
1969
1969
1968
1967
1966
1966
1966
1966
1966
1965
1965
1964
1965
1965
1966
1967
1967
1966
1962
1954
1948
1951
1970
2007
2050
2086
2098
2080
2042
1996
1960
1941
1938
1944
1952
1959
1963
1965
1965
1965
1964
1963
1963
1963
1963
1964
1965
1965
1965
1965
1965
1965
1965
1966
1967
1968
1969
1971
1971
1971
1971
1971
1972
1973
1974
1975
1976
1976
1977
1978
1979
1980
1982
1983
1984
1986
1987
1989
1989
1990
1990
1990
1990
1990
1990
1990
1989
1987
1984
1981
1977
1974
1971
1969
1967
1966
1966
1965
1965
1964
1964
1963
1962
1962
1962
1963
1963
1963
1963
1963
1962
1962
1961
1961
1961
1962
1964
1965
1966
1966
1966
1965
1965
1965
1965
1966
1967
1967
1968
1968
1968
1967
1967
1967
1967
1968
1969
1969
1970
1969
1968
1967
1967
1966
1967
1968
1969
1970
1970
1970
1971
1971
1971
1971
1971
1971
1971
1971
1970
1969
1969
1968
1968
1968
1968
1968
1969
1970
1970
1970
1966
1959
1952
1951
1965
1998
2043
2083
2102
2091
2053
2006
1966
1943
1938
1944
1953
1959
1963
1966
1967
1967
1966
1966
1967
1967
1968
1969
1969
1969
1969
1969
1969
1969
1970
1971
1972
1972
1973
1973
1973
1974
1974
1974
1975
1976
1978
1979
1980
1981
1982
1982
1983
1984
1985
1987
1989
1990
1992
1993
1994
1994
1995
1995
1995
1996
1996
1995
1993
1991
1988
1984
1981
1978
1976
1974
1972
1971
1970
1968
1967
1966
1965
1965
1965
1966
1966
1966
1966
1966
1965
1965
1965
1965
1965
1966
1966
1967
1968
1968
1968
1968
1968
1968
1968
1969
1970
1971
1971
1971
1971
1971
1971
1971
1971
1972
1973
1973
1973
1973
1972
1972
1972
1972
1973
1973
1973
1973
1973
1972
1971
1971
1971
1972
1972
1973
1974
1975
1976
1977
1977
1976
1976
1975
1974
1974
1974
1974
1974
1974
1973
1973
1972
1973
1974
1975
1976
1974
1968
1960
1955
1962
1986
2026
2069
2102
2110
2089
2049
2006
1972
1955
1953
1959
1966
1971
1973
1974
1974
1973
1972
1971
1971
1971
1972
1973
1974
1974
1975
1975
1975
1975
1975
1975
1976
1977
1977
1978
1978
1979
1978
1978
1979
1979
1980
1981
1983
1984
1985
1985
1986
1987
1988
1989
1991
1992
1994
1995
1996
1996
1996
1996
1996
1995
1995
1995
1994
1992
1990
1987
1984
1981
1979
1977
1975
1975
1974
1974
1974
1973
1972
1972
1971
1971
1971
1972
1972
1972
1972
1972
1972
1972
1971
1971
1972
1972
1973
1973
1974
1974
1973
1973
1973
1973
1973
1974
1975
1975
1975
1975
1974
1974
1974
1974
1975
1975
1976
1976
1976
1976
1976
1976
1975
1975
1974
1974
1975
1976
1976
1976
1976
1975
1974
1974
1974
1974
1974
1975
1975
1975
1975
1976
1976
1978
1979
1979
1980
1979
1978
1977
1976
1975
1975
1975
1975
1976
1976
1977
1978
1978
1978
1975
1969
1961
1957
1964
1988
2028
2071
2104
2114
2095
2057
2014
1979
1961
1958
1963
1969
1973
1974
1974
1974
1973
1973
1974
1974
1975
1975
1975
1975
1975
1975
1975
1975
1976
1977
1978
1978
1978
1978
1979
1979
1979
1980
1981
1981
1982
1982
1983
1983
1983
1984
1985
1986
1988
1989
1991
1992
1993
1993
1993
1994
1995
1996
1997
1998
1998
1998
1996
1994
1992
1989
1986
1983
1981
1980
1978
1977
1975
1974
1973
1973
1972
1972
1973
1973
1973
1973
1972
1972
1972
1972
1972
1973
1973
1974
1974
1974
1974
1974
1973
1973
1973
1974
1975
1975
1976
1976
1976
1976
1976
1976
1976
1977
1977
1978
1979
1979
1978
1978
1977
1977
1977
1978
1978
1979
1979
1979
1979
1978
1978
1978
1978
1978
1979
1979
1979
1978
1978
1977
1977
1976
1976
1977
1977
1978
1980
1981
1981
1981
1980
1978
1977
1977
1978
1978
1979
1979
1978
1978
1978
1978
1978
1979
1981
1981
1977
1970
1963
1963
1978
2009
2051
2092
2115
2111
2081
2040
1999
1972
1960
1961
1967
1973
1977
1978
1978
1978
1977
1976
1976
1976
1976
1977
1978
1978
1979
1979
1979
1979
1979
1979
1980
1980
1981
1982
1983
1983
1983
1983
1983
1983
1983
1984
1984
1986
1987
1988
1989
1990
1991
1991
1992
1993
1995
1997
1998
1999
2000
2000
1999
1999
1998
1998
1997
1996
1994
1991
1989
1986
1983
1980
1978
1977
1976
1976
1976
1975
1975
1974
1973
1973
1973
1973
1974
1974
1974
1974
1974
1974
1973
1973
1974
1974
1975
1976
1976
1976
1976
1976
1975
1975
1975
1976
1976
1977
1977
1977
1977
1977
1977
1977
1977
1978
1978
1979
1979
1979
1979
1978
1978
1978
1978
1978
1979
1979
1980
1980
1979
1979
1978
1977
1977
1977
1977
1978
1978
1978
1978
1978
1979
1980
1981
1981
1982
1981
1981
1980
1979
1979
1978
1977
1977
1978
1978
1979
1979
1980
1981
1980
1976
1969
1962
1962
1976
2007
2048
2088
2110
2105
2074
2032
1993
1967
1957
1959
1966
1972
1975
1976
1976
1975
1974
1974
1974
1975
1975
1976
1976
1976
1976
1976
1976
1976
1977
1978
1978
1979
1979
1979
1979
1979
1980
1981
1982
1983
1983
1984
1984
1984
1984
1984
1985
1986
1988
1990
1992
1993
1994
1994
1994
1994
1995
1995
1996
1996
1996
1996
1995
1992
1989
1986
1984
1981
1980
1978
1976
1975
1973
1972
1971
1970
1970
1970
1970
1970
1971
1971
1970
1970
1969
1969
1969
1969
1970
1971
1971
1971
1971
1971
1970
1970
1970
1971
1972
1972
1973
1974
1974
1973
1973
1973
1973
1973
1974
1974
1975
1975
1975
1975
1974
1974
1974
1974
1975
1975
1976
1976
1976
1975
1974
1973
1972
1972
1973
1974
1975
1976
1977
1978
1978
1978
1978
1978
1977
1977
1977
1976
1976
1975
1975
1975
1975
1975
1976
1978
1979
1979
1976
1968
1961
1960
1973
2006
2050
2091
2110
2099
2062
2015
1975
1952
1947
1952
1961
1968
1973
1976
1977
1976
1976
1975
1975
1976
1977
1978
1978
1979
1979
1979
1979
1979
1979
1980
1980
1981
1982
1983
1983
1983
1984
1984
1985
1986
1987
1988
1989
1990
1991
1992
1993
1994
1995
1996
1998
2000
2001
2003
2004
2004
2004
2004
2005
2005
2005
2005
2003
2001
1998
1994
1991
1988
1985
1983
1981
1980
1979
1978
1977
1976
1975
1974
1974
1973
1974
1974
1974
1975
1975
1974
1974
1974
1974
1974
1975
1976
1976
1977
1977
1976
1975
1975
1976
1977
1978
1979
1980
1980
1980
1980
1979
1979
1979
1980
1980
1981
1981
1982
1982
1981
1981
1981
1980
1981
1981
1982
1982
1982
1982
1981
1981
1982
1983
1984
1985
1985
1985
1984
1983
1982
1982
1981
1981
1981
1981
1981
1981
1982
1982
1983
1983
1981
1975
1968
1964
1971
1996
2037
2080
2110
2113
2086
2043
1999
1968
1956
1957
1964
1971
1975
1978
1979
1980
1980
1980
1981
1981
1982
1982
1982
1981
1981
1982
1982
1983
1984
1984
1985
1986
1986
1986
1986
1986
1987
1988
1989
1990
1991
1992
1992
1992
1993
1993
1995
1997
1999
2000
2002
2003
2003
2004
2004
2005
2006
2007
2007
2007
2007
2006
2004
2001
1998
1994
1991
1988
1986
1985
1983
1982
1980
1978
1977
1976
1976
1976
1976
1976
1976
1975
1974
1974
1973
1973
1974
1974
1974
1975
1975
1975
1975
1975
1975
1975
1975
1976
1976
1976
1977
1977
1977
1977
1976
1976
1977
1977
1978
1979
1979
1979
1978
1978
1977
1978
1978
1979
1979
1979
1979
1979
1978
1977
1977
1976
1977
1977
1978
1978
1979
1980
1981
1981
1982
1982
1982
1981
1981
1980
1980
1979
1979
1978
1978
1978
1978
1979
1980
1981
1982
1980
1974
1966
1960
1965
1986
2024
2068
2104
2118
2102
2064
2020
1983
1962
1958
1963
1970
1975
1976
1977
1976
1975
1974
1974
1975
1975
1976
1977
1977
1977
1977
1977
1977
1977
1978
1978
1979
1980
1980
1980
1980
1980
1980
1980
1981
1982
1983
1984
1985
1985
1985
1986
1987
1988
1990
1991
1993
1995
1996
1997
1997
1997
1998
1998
1999
1999
1999
1998
1996
1993
1990
1986
1983
1981
1979
1978
1977
1976
1975
1974
1973
1972
1971
1971
1971
1971
1971
1972
1971
1971
1971
1971
1970
1970
1971
1971
1972
1972
1973
1972
1972
1971
1971
1971
1972
1973
1974
1974
1974
1974
1974
1974
1973
1973
1974
1974
1975
1975
1976
1975
1975
1975
1974
1974
1975
1975
1976
1977
1977
1976
1976
1975
1974
1974
1974
1974
1975
1975
1976
1976
1975
1975
1976
1977
1978
1979
1979
1978
1977
1977
1976
1975
1975
1974
1975
1975
1976
1977
1977
1978
1978
1976
1970
1962
1955
1959
1978
2014
2058
2097
2115
2104
2070
2027
1988
1965
1957
1960
1966
1970
1972
1972
1972
1971
1971
1971
1971
1972
1972
1972
1972
1972
1972
1973
1973
1974
1974
1974
1974
1974
1973
1973
1973
1973
1974
1975
1976
1977
1977
1977
1977
1978
1978
1979
1981
1982
1984
1985
1986
1987
1988
1989
1989
1990
1991
1992
1993
1994
1994
1992
1990
1987
1984
1981
1978
1976
1974
1973
1971
1970
1969
1968
1967
1966
1966
1966
1966
1967
1967
1967
1967
1966
1966
1966
1966
1967
1968
1969
1969
1970
1969
1969
1968
1968
1968
1969
1970
1970
1971
1971
1971
1970
1970
1970
1971
1972
1972
1972
1972
1972
1972
1971
1971
1971
1971
1971
1972
1972
1972
1972
1972
1972
1972
1972
1972
1972
1972
1971
1971
1970
1970
1970
1970
1970
1971
1972
1974
1975
1976
1975
1974
1973
1972
1971
1971
1971
1971
1972
1972
1972
1972
1971
1972
1973
1974
1972
1966
1958
1954
1959
1980
2017
2060
2095
2108
2093
2057
2014
1979
1958
1953
1957
1963
1967
1969
1970
1970
1970
1970
1969
1969
1969
1969
1970
1971
1971
1971
1971
1971
1971
1971
1971
1971
1971
1971
1972
1972
1973
1974
1974
1975
1975
1975
1975
1976
1977
1979
1980
1981
1982
1982
1983
1984
1986
1988
1990
1991
1991
1991
1991
1990
1990
1989
1989
1988
1986
1984
1981
1978
1975
1972
1969
1968
1967
1966
1966
1966
1966
1965
1964
1963
1963
1963
1963
1964
1965
1965
1965
1965
1964
1963
1962
1962
1962
1963
1964
1965
1965
1965
1965
1965
1965
1965
1966
1966
1966
1967
1967
1967
1967
1967
1967
1967
1967
1968
1969
1970
1970
1970
1969
1968
1967
1967
1967
1968
1968
1968
1968
1968
1967
1967
1967
1967
1967
1968
1970
1971
1973
1973
1972
1971
1970
1969
1968
1968
1969
1970
1971
1972
1972
1971
1970
1970
1971
1970
1967
1960
1954
1956
1974
2010
2054
2091
2105
2088
2048
2002
1965
1946
1942
1948
1956
1961
1965
1967
1969
1969
1970
1970
1970
1969
1969
1969
1970
1971
1972
1972
1973
1973
1973
1973
1973
1973
1974
1975
1976
1978
1978
1979
1979
1979
1980
1980
1981
1982
1984
1985
1987
1988
1990
1992
1993
1995
1996
1997
1998
1999
1999
2000
2000
1999
1998
1997
1995
1993
1990
1988
1985
1982
1979
1976
1974
1972
1970
1969
1969
1969
1968
1968
1968
1968
1968
1968
1968
1968
1968
1968
1968
1968
1968
1968
1968
1968
1968
1968
1969
1970
1971
1971
1972
1972
1971
1971
1971
1972
1972
1973
1974
1974
1974
1974
1974
1973
1973
1974
1974
1975
1975
1975
1975
1974
1974
1973
1973
1973
1974
1974
1975
1976
1977
1978
1978
1978
1977
1977
1976
1976
1976
1976
1975
1975
1975
1975
1976
1977
1978
1979
1980
1978
1973
1965
1958
1960
1980
2017
2063
2101
2114
2095
2054
2007
1970
1951
1949
1955
1963
1969
1973
1975
1976
1976
1976
1975
1976
1976
1978
1978
1979
1979
1979
1978
1978
1978
1979
1979
1980
1981
1982
1983
1983
1983
1983
1983
1984
1985
1986
1987
1988
1989
1990
1991
1992
1994
1995
1997
1999
2001
2003
2004
2004
2004
2004
2004
2004
2004
2004
2003
2002
1999
1995
1992
1988
1985
1982
1980
1979
1978
1977
1976
1975
1974
1974
1973
1973
1973
1973
1973
1974
1974
1974
1974
1973
1972
1972
1972
1973
1974
1975
1975
1975
1974
1974
1974
1974
1974
1975
1976
1977
1977
1977
1977
1976
1976
1976
1977
1977
1978
1979
1979
1980
1980
1979
1978
1978
1978
1978
1979
1979
1980
1979
1979
1978
1977
1977
1977
1978
1978
1979
1979
1980
1980
1981
1982
1982
1982
1982
1981
1981
1980
1980
1980
1980
1980
1980
1980
1980
1980
1981
1983
1983
1979
1972
1964
1962
1972
2000
2043
2086
2116
2119
2094
2052
2008
1976
1962
1961
1968
1974
1978
1979
1980
1979
1979
1979
1979
1979
1979
1980
1980
1980
1980
1980
1980
1980
1981
1982
1983
1983
1983
1983
1983
1983
1983
1984
1985
1986
1987
1987
1988
1988
1989
1990
1991
1993
1994
1995
1997
1998
1999
2000
2001
2001
2002
2003
2003
2004
2004
2004
2003
2001
1998
1995
1991
1988
1986
1984
1983
1982
1980
1979
1978
1977
1976
1976
1976
1977
1977
1977
1977
1976
1976
1976
1976
1975
1976
1976
1977
1977
1977
1977
1977
1977
1977
1977
1978
1978
1979
1979
1979
1979
1979
1978
1978
1979
1980
1981
1982
1982
1982
1981
1981
1981
1981
1981
1981
1982
1982
1982
1982
1982
1982
1981
1981
1981
1982
1982
1982
1982
1981
1981
1981
1981
1980
1980
1981
1982
1983
1985
1987
1987
1986
1984
1983
1982
1982
1982
1983
1983
1983
1983
1982
1982
1982
1983
1984
1984
1981
1974
1966
1964
1974
2001
2043
2086
2117
2123
2101
2061
2019
1986
1968
1965
1969
1975
1978
1980
1980
1980
1980
1979
1979
1979
1979
1979
1979
1980
1981
1982
1982
1982
1982
1982
1982
1982
1983
1983
1984
1985
1986
1987
1987
1986
1986
1986
1987
1988
1990
1992
1992
1993
1993
1994
1995
1996
1998
2000
2001
2002
2003
2004
2004
2004
2004
2003
2002
2000
1998
1996
1993
1990
1988
1986
1983
1981
1980
1979
1979
1978
1978
1978
1977
1977
1976
1976
1977
1977
1978
1978
1979
1979
1979
1978
1979
1979
1979
1980
1981
1981
1981
1982
1982
1982
1982
1982
1983
1983
1984
1984
1984
1984
1984
1984
1984
1984
1984
1985
1985
1986
1986
1986
1986
1985
1985
1985
1985
1986
1986
1986
1986
1986
1985
1984
1983
1983
1983
1983
1984
1984
1984
1984
1984
1985
1985
1985
1985
1985
1985
1984
1984
1983
1982
1981
1981
1981
1981
1982
1982
1982
1983
1983
1978
1971
1964
1963
1976
2006
2048
2089
2115
2113
2086
2044
2002
1972
1959
1959
1966
1973
1976
1977
1977
1976
1975
1975
1975
1976
1976
1977
1977
1976
1976
1976
1976
1976
1977
1978
1979
1979
1979
1978
1978
1978
1978
1979
1979
1980
1981
1981
1982
1983
1983
1984
1984
1985
1986
1988
1990
1991
1992
1993
1994
1995
1996
1997
1998
1998
1999
1999
1997
1995
1992
1988
1984
1981
1979
1977
1976
1974
1973
1972
1970
1970
1969
1969
1969
1969
1969
1969
1969
1969
1969
1968
1968
1968
1968
1969
1970
1971
1971
1971
1970
1969
1969
1969
1969
1970
1971
1972
1972
1972
1972
1971
1971
1971
1972
1972
1973
1973
1973
1973
1973
1973
1973
1974
1974
1974
1974
1973
1973
1973
1973
1972
1972
1972
1972
1973
1974
1975
1976
1977
1977
1977
1976
1975
1975
1975
1975
1974
1974
1973
1973
1973
1972
1973
1973
1974
1975
1975
1971
1963
1957
1958
1976
2011
2056
2094
2109
2092
2052
2005
1966
1946
1942
1948
1957
1963
1968
1970
1972
1971
1971
1970
1969
1970
1970
1971
1972
1972
1972
1972
1972
1973
1973
1973
1974
1975
1975
1976
1976
1977
1977
1977
1977
1978
1978
1980
1981
1983
1984
1985
1986
1987
1988
1989
1991
1993
1994
1996
1997
1998
1999
1999
1999
1999
1998
1998
1996
1994
1991
1987
1983
1979
1976
1974
1972
1970
1969
1969
1968
1967
1966
1966
1965
1964
1964
1964
1965
1965
1965
1965
1964
1964
1964
1964
1965
1966
1966
1966
1966
1966
1966
1966
1966
1966
1967
1968
1968
1969
1969
1969
1969
1968
1968
1968
1968
1969
1970
1970
1971
1970
1970
1969
1968
1968
1969
1970
1971
1972
1971
1971
1970
1969
1969
1969
1970
1971
1973
1974
1975
1974
1973
1972
1970
1970
1970
1970
1971
1971
1971
1971
1970
1970
1971
1972
1972
1971
1967
1959
1955
1960
1983
2022
2066
2099
2106
2083
2041
1996
1962
1946
1945
1951
1959
1964
1967
1969
1970
1970
1970
1969
1969
1969
1969
1969
1970
1971
1972
1973
1974
1975
1975
1974
1974
1975
1975
1976
1977
1978
1979
1979
1979
1979
1980
1980
1981
1983
1984
1986
1987
1988
1989
1990
1991
1992
1994
1996
1998
1999
2000
2000
2000
2000
1998
1997
1995
1992
1990
1987
1984
1981
1978
1975
1973
1972
1971
1970
1970
1970
1969
1969
1968
1968
1968
1967
1967
1968
1968
1969
1969
1968
1968
1967
1967
1967
1968
1968
1969
1969
1970
1970
1970
1969
1969
1969
1969
1970
1971
1971
1972
1971
1971
1971
1970
1970
1971
1971
1972
1972
1972
1972
1972
1971
1971
1971
1972
1972
1973
1973
1973
1973
1972
1972
1972
1971
1972
1972
1972
1972
1972
1972
1971
1971
1971
1971
1972
1974
1975
1976
1977
1976
1975
1973
1971
1971
1971
1972
1973
1973
1973
1973
1973
1973
1974
1974
1973
1968
1961
1954
1957
1975
2010
2054
2094
2113
2104
2070
2026
1986
1961
1953
1956
1962
1966
1969
1969
1970
1970
1970
1970
1969
1969
1969
1969
1969
1970
1971
1972
1972
1973
1973
1972
1972
1972
1972
1973
1974
1974
1975
1976
1976
1976
1976
1976
1976
1977
1978
1979
1981
1983
1984
1985
1986
1987
1988
1990
1991
1992
1993
1994
1994
1994
1993
1992
1991
1989
1987
1985
1983
1980
1977
1975
1972
1971
1970
1969
1969
1969
1969
1969
1968
1968
1967
1967
1967
1968
1968
1969
1969
1969
1969
1969
1968
1968
1968
1968
1968
1969
1969
1970
1970
1970
1969
1969
1969
1969
1970
1970
1970
1971
1971
1970
1970
1970
1970
1971
1971
1972
1972
1972
1972
1972
1971
1971
1971
1971
1972
1972
1973
1973
1972
1971
1971
1971
1971
1971
1971
1972
1972
1971
1971
1970
1970
1970
1970
1971
1972
1973
1974
1975
1976
1976
1975
1974
1974
1973
1973
1973
1973
1973
1973
1973
1973
1972
1973
1973
1975
1976
1974
1968
1959
1954
1958
1979
2016
2061
2100
2116
2103
2066
2022
1983
1960
1954
1958
1964
1969
1971
1971
1971
1970
1969
1969
1969
1969
1970
1970
1971
1972
1971
1971
1970
1969
1969
1970
1972
1973
1974
1974
1974
1974
1973
1973
1973
1973
1974
1974
1975
1976
1977
1977
1978
1979
1980
1981
1982
1984
1985
1987
1988
1989
1989
1989
1989
1989
1989
1988
1988
1987
1984
1981
1978
1975
1972
1970
1969
1968
1967
1967
1966
1965
1964
1963
1963
1963
1963
1964
1964
1964
1964
1964
1964
1963
1962
1961
1962
1962
1964
1964
1965
1964
1964
1963
1963
1964
1964
1965
1965
1966
1966
1966
1966
1965
1965
1965
1966
1966
1966
1966
1966
1967
1967
1967
1967
1967
1966
1967
1967
1967
1967
1967
1967
1967
1967
1967
1967
1967
1966
1966
1966
1966
1965
1965
1965
1966
1967
1969
1970
1971
1970
1970
1968
1967
1967
1966
1967
1967
1967
1967
1967
1967
1967
1968
1969
1969
1967
1961
1953
1949
1957
1983
2025
2069
2100
2103
2076
2032
1987
1954
1941
1941
1948
1956
1960
1963
1965
1965
1965
1965
1965
1965
1965
1965
1965
1965
1966
1967
1968
1968
1969
1969
1969
1968
1969
1969
1970
1971
1972
1973
1974
1975
1975
1975
1975
1976
1977
1979
1981
1982
1984
1985
1986
1988
1989
1991
1993
1995
1996
1998
1999
1999
1999
1998
1996
1994
1992
1990
1987
1984
1981
1978
1975
1973
1971
1970
1969
1969
1969
1969
1968
1968
1967
1966
1966
1966
1966
1967
1967
1967
1967
1967
1967
1967
1967
1968
1968
1969
1970
1971
1971
1971
1970
1970
1970
1971
1971
1972
1973
1974
1974
1974
1973
1973
1972
1972
1973
1974
1975
1975
1975
1975
1975
1974
1974
1974
1974
1975
1975
1976
1976
1975
1975
1974
1973
1973
1974
1975
1976
1976
1977
1978
1978
1978
1977
1977
1977
1977
1977
1977
1977
1976
1976
1975
1975
1975
1976
1977
1978
1979
1978
1973
1965
1958
1960
1978
2014
2058
2097
2114
2101
2064
2019
1979
1957
1951
1955
1963
1970
1973
1975
1976
1975
1974
1974
1974
1974
1975
1976
1976
1977
1977
1976
1976
1976
1976
1977
1978
1978
1979
1980
1980
1980
1980
1980
1981
1981
1982
1983
1984
1985
1986
1987
1987
1988
1990
1992
1993
1995
1997
1998
1998
1999
1999
2000
2001
2001
2001
2001
1999
1997
1994
1991
1988
1985
1982
1980
1978
1976
1975
1975
1974
1974
1973
1973
1972
1972
1973
1973
1973
1973
1973
1972
1972
1971
1971
1972
1973
1974
1974
1974
1974
1974
1974
1974
1974
1975
1975
1976
1976
1976
1976
1975
1975
1975
1976
1976
1977
1977
1977
1977
1977
1977
1976
1976
1976
1976
1977
1977
1978
1978
1978
1977
1977
1977
1977
1977
1978
1978
1978
1978
1977
1977
1976
1975
1974
1974
1975
1975
1976
1977
1977
1979
1980
1980
1981
1980
1980
1979
1979
1980
1980
1980
1979
1979
1978
1977
1976
1976
1977
1980
1981
1977
1970
1961
1958
1970
2001
2045
2089
2117
2117
2089
2046
2002
1971
1959
1961
1968
1975
1978
1978
1977
1976
1975
1975
1976
1977
1978
1980
1981
1981
1981
1981
1981
1982
1983
1985
1986
1987
1988
1988
1987
1987
1987
1988
1989
1992
1995
1997
1997
1997
1997
1996
1997
1998
2000
2002
2003
2005
2006
2008
2009
2009
2009
2009
2008
2009
2009
2009
2007
2004
2000
1998
1996
1994
1993
1990
1986
1981
1978
1975
1974
1974
1975
1974
1973
1972
1970
1968
1966
1965
1964
1963
1962
1962
1961
1961
1962
1961
1960
1959
1957
1956
1955
1954
1953
1952
1952
1952
1953
1953
1951
1949
1948
1948
1949
1950
1950
1948
1946
1943
1942
1941
1941
1940
1939
1939
1938
1938
1937
1936
1934
1932
1930
1928
1927
1927
1928
1928
1927
1924
1922
1921
1922
1925
1927
1928
1927
1926
1925
1924
1924
1924
1922
1920
1918
1917
1918
1919
1921
1923
1924
1924
1922
1918
1911
1903
1900
1910
1936
1979
2026
2060
2069
2048
2008
1962
1927
1910
1907
1911
1917
1921
1924
1928
1930
1931
1931
1931
1930
1930
1929
1927
1927
1928
1931
1935
1937
1938
1937
1935
1932
1929
1929
1930
1933
1935
1937
1937
1936
1934
1933
1933
1933
1933
1934
1935
1936
1937
1938
1938
1938
1938
1938
1940
1941
1942
1943
1943
1944
1943
1942
1939
1937
1935
1934
1934
1932
1929
1926
1923
1921
1921
1920
1919
1917
1917
1919
1923
1928
1930
1929
1927
1925
1925
1925
1927
1929
1929
1929
1931
1933
1937
1940
1942
1943
1945
1948
1955
1962
1971
1978
1984
1990
1996
2002
2008
2015
2020
2024
2026
2029
2032
2037
2042
2045
2046
2046
2046
2047
2048
2048
2048
2048
2050
2052
2056
2058
2059
2058
2056
2054
2053
2054
2056
2057
2059
2060
2060
2060
2059
2057
2057
2057
2059
2061
2063
2062
2059
2054
2051
2050
2051
2051
2047
2037
2026
2021
2030
2056
2096
2139
2168
2171
2146
2102
2055
2021
2004
2003
2009
2015
2018
2018
2017
2016
2016
2016
2017
2017
2017
2016
2013
2011
2009
2008
2009
2011
2012
2012
2011
2009
2007
2007
2009
2012
2012
2011
2009
2007
2006
2006
2006
2007
2008
2009
2009
2009
2009
2009
2009
2010
2010
2009
2008
2007
2008
2010
2012
2012
2011
2008
2005
2002
2000
1998
1997
1994
1990
1985
1981
1979
1979
1981
1981
1978
1975
1973
1972
1974
1975
1976
1975
1975
1975
1976
1975
1975
1974
1975
1976
1978
1978
1978
1978
1977
1977
1977
1977
1977
1977
1978
1978
1977
1976
1975
1975
1977
1980
1982
1983
1981
1979
1978
1977
1977
1977
1977
1977
1977
1975
1974
1974
1974
1974
1974
1973
1972
1971
1971
1972
1973
1974
1974
1974
1974
1973
1973
1973
1974
1974
1974
1972
1969
1967
1965
1966
1968
1972
1975
1975
1974
1972
1971
1971
1969
1966
1961
1960
1971
1999
2041
2082
2107
2104
2074
2029
1986
1957
1947
1949
1957
1965
1970
1974
1975
1976
1976
1975
1975
1975
1975
1975
1975
1976
1977
1978
1980
1981
1982
1981
1981
1981
1982
1984
1985
1987
1987
1986
1984
1984
1985
1987
1989
1991
1992
1992
1992
1992
1994
1996
1998
1999
2001
2002
2003
2004
2005
2005
2005
2004
2003
2004
2004
2004
2003
2001
1998
1995
1991
1988
1986
1983
1982
1980
1980
1980
1980
1979
1979
1979
1978
1978
1978
1978
1978
1978
1978
1978
1978
1978
1978
1978
1978
1979
1979
1979
1980
1981
1981
1981
1981
1981
1980
1979
1979
1979
1980
1981
1981
1981
1980
1979
1979
1979
1979
1980
1981
1981
1981
1980
1980
1979
1979
1979
1980
1981
1982
1983
1983
1982
1981
1980
1978
1977
1977
1977
1977
1977
1977
1976
1976
1975
1976
1977
1976
1973
1966
1959
1960
1976
2011
2057
2098
2115
2100
2058
2009
1967
1944
1940
1945
1954
1960
1964
1967
1970
1971
1971
1971
1971
1971
1972
1972
1972
1972
1972
1973
1973
1974
1975
1975
1974
1974
1974
1974
1976
1978
1979
1980
1980
1981
1982
1983
1983
1984
1986
1989
1991
1993
1994
1994
1993
1994
1995
1996
1998
2000
2002
2003
2003
2002
2002
2001
1998
1994
1990
1986
1983
1982
1981
1981
1979
1976
1974
1973
1973
1974
1975
1975
1975
1974
1974
1974
1974
1974
1974
1974
1975
1976
1977
1976
1974
1973
1973
1975
1978
1980
1981
1981
1981
1981
1981
1981
1981
1981
1981
1982
1983
1984
1985
1986
1986
1985
1985
1985
1985
1986
1986
1986
1986
1985
1984
1984
1985
1987
1989
1992
1993
1992
1990
1987
1985
1985
1985
1985
1986
1987
1988
1989
1988
1987
1986
1986
1985
1982
1975
1968
1965
1977
2007
2051
2097
2125
2124
2093
2048
2003
1972
1959
1959
1965
1971
1977
1980
1983
1984
1984
1983
1983
1983
1983
1984
1984
1983
1983
1984
1985
1985
1986
1987
1987
1988
1988
1989
1989
1989
1990
1991
1992
1994
1995
1995
1995
1996
1996
1997
1997
1999
2001
2005
2008
2010
2012
2012
2012
2012
2013
2014
2015
2016
2015
2013
2011
2008
2006
2003
2001
1999
1996
1993
1990
1988
1986
1985
1984
1984
1984
1983
1982
1981
1980
1980
1979
1980
1981
1982
1983
1984
1984
1984
1983
1982
1981
1981
1982
1982
1982
1981
1981
1981
1982
1982
1983
1983
1984
1984
1985
1985
1984
1983
1983
1982
1982
1981
1981
1982
1983
1985
1985
1985
1983
1983
1983
1985
1987
1988
1987
1986
1985
1985
1985
1984
1982
1980
1978
1979
1980
1983
1985
1985
1985
1983
1978
1971
1964
1963
1977
2008
2053
2099
2127
2125
2094
2048
2002
1971
1958
1959
1965
1972
1976
1977
1978
1979
1979
1979
1979
1979
1979
1979
1978
1978
1977
1976
1976
1977
1978
1979
1981
1982
1984
1985
1985
1985
1985
1985
1984
1985
1985
1986
1987
1988
1989
1989
1990
1991
1992
1994
1996
1998
2000
2001
2001
2002
2003
2004
2005
2006
2005
2004
2001
1997
1994
1990
1987
1985
1983
1982
1981
1978
1976
1974
1972
1972
1972
1972
1972
1973
1972
1972
1971
1970
1970
1970
1972
1973
1973
1974
1973
1972
1971
1971
1971
1972
1973
1974
1975
1975
1974
1973
1973
1972
1972
1972
1972
1972
1973
1974
1975
1975
1975
1975
1975
1974
1973
1972
1972
1973
1973
1974
1974
1973
1972
1972
1973
1974
1975
1976
1977
1977
1976
1975
1973
1972
1972
1972
1971
1971
1971
1972
1973
1974
1972
1965
1956
1949
1952
1972
2009
2056
2098
2118
2108
2072
2025
1983
1956
1948
1952
1959
1965
1967
1967
1966
1965
1965
1967
1968
1970
1970
1969
1968
1967
1967
1968
1970
1972
1972
1972
1972
1971
1971
1972
1972
1974
1975
1975
1976
1976
1975
1976
1977
1978
1980
1981
1983
1984
1986
1988
1989
1990
1990
1991
1992
1993
1994
1995
1997
1998
1997
1995
1992
1989
1986
1983
1981
1980
1978
1976
1974
1971
1968
1966
1964
1964
1965
1966
1967
1967
1966
1966
1966
1967
1969
1971
1972
1972
1972
1973
1974
1974
1973
1970
1967
1965
1965
1965
1966
1966
1966
1965
1965
1966
1967
1968
1969
1969
1969
1968
1968
1967
1965
1964
1965
1966
1967
1968
1968
1967
1965
1964
1964
1964
1965
1966
1966
1967
1968
1969
1969
1967
1965
1962
1960
1960
1960
1961
1962
1963
1962
1962
1962
1963
1964
1962
1957
1949
1943
1947
1968
2007
2052
2089
2103
2086
2047
1999
1961
1939
1934
1939
1947
1953
1957
1959
1960
1960
1961
1961
1961
1961
1960
1959
1959
1960
1962
1964
1964
1963
1962
1962
1963
1965
1966
1967
1967
1968
1969
1970
1970
1970
1970
1971
1972
1974
1975
1977
1978
1979
1980
1981
1982
1983
1984
1985
1987
1988
1989
1990
1990
1990
1989
1988
1986
1984
1981
1979
1976
1972
1969
1967
1964
1962
1960
1959
1958
1958
1959
1960
1961
1961
1961
1960
1959
1959
1959
1959
1960
1961
1962
1962
1962
1961
1959
1958
1959
1961
1963
1964
1964
1962
1961
1960
1960
1962
1964
1966
1967
1968
1967
1966
1965
1964
1963
1962
1963
1964
1965
1967
1968
1968
1968
1967
1967
1967
1968
1969
1970
1970
1969
1967
1966
1965
1966
1967
1967
1968
1968
1969
1970
1968
1963
1955
1948
1951
1971
2011
2059
2098
2112
2094
2052
2003
1965
1944
1942
1948
1956
1963
1966
1968
1968
1967
1966
1966
1967
1970
1972
1973
1973
1973
1973
1973
1973
1973
1974
1974
1975
1976
1977
1976
1976
1975
1975
1976
1978
1980
1982
1983
1983
1984
1984
1986
1989
1991
1993
1994
1993
1993
1995
1997
2000
2002
2002
2002
2001
2001
2002
2002
2001
1998
1994
1989
1984
1979
1976
1975
1974
1973
1972
1971
1969
1968
1968
1969
1971
1972
1972
1971
1970
1968
1967
1967
1967
1968
1968
1968
1968
1969
1970
1971
1972
1972
1972
1971
1971
1971
1971
1972
1974
1974
1975
1974
1974
1974
1976
1977
1979
1979
1979
1977
1976
1975
1975
1974
1976
1978
1981
1983
1984
1983
1981
1980
1979
1979
1981
1981
1981
1981
1980
1979
1979
1980
1982
1985
1985
1981
1973
1963
1959
1972
2004
2050
2096
2124
2122
2091
2045
2000
1969
1957
1959
1966
1972
1976
1978
1979
1979
1979
1978
1977
1976
1976
1976
1977
1979
1981
1982
1983
1982
1981
1981
1980
1980
1980
1981
1982
1984
1985
1986
1986
1985
1983
1983
1984
1986
1989
1992
1994
1995
1995
1996
1996
1998
1999
2001
2003
2004
2005
2005
2006
2006
2005
2004
2002
1999
1996
1994
1990
1987
1983
1980
1977
1976
1975
1975
1974
1973
1972
1972
1972
1973
1973
1972
1972
1972
1973
1973
1973
1972
1971
1970
1969
1969
1970
1972
1973
1974
1974
1974
1973
1972
1972
1972
1972
1973
1974
1974
1974
1974
1974
1973
1972
1971
1971
1971
1971
1972
1973
1974
1973
1972
1971
1972
1973
1975
1977
1978
1978
1977
1976
1974
1973
1972
1972
1972
1971
1971
1971
1971
1972
1972
1973
1973
1971
1966
1959
1953
1956
1975
2012
2057
2096
2115
2103
2068
2022
1981
1955
1947
1951
1958
1963
1966
1966
1966
1965
1965
1965
1965
1965
1965
1965
1966
1966
1967
1968
1969
1969
1969
1969
1968
1968
1968
1969
1969
1970
1970
1971
1972
1972
1972
1972
1972
1973
1975
1977
1979
1982
1983
1984
1985
1985
1986
1987
1989
1990
1990
1991
1991
1991
1990
1988
1985
1982
1979
1977
1975
1971
1967
1963
1960
1959
1958
1958
1958
1958
1957
1957
1956
1956
1955
1955
1955
1956
1957
1957
1958
1958
1958
1957
1956
1955
1956
1957
1958
1958
1959
1959
1958
1958
1958
1957
1957
1958
1958
1959
1959
1958
1958
1958
1958
1959
1960
1960
1960
1959
1960
1960
1961
1961
1961
1961
1960
1960
1959
1959
1959
1958
1957
1957
1957
1957
1957
1958
1959
1961
1962
1962
1962
1961
1960
1959
1959
1959
1959
1959
1959
1958
1958
1957
1957
1958
1959
1961
1962
1959
1952
1943
1938
1943
1964
2002
2048
2085
2099
2085
2049
2005
1967
1945
1939
1942
1948
1953
1955
1955
1954
1953
1952
1952
1952
1953
1953
1953
1955
1957
1958
1959
1958
1957
1956
1956
1957
1958
1958
1957
1958
1958
1959
1961
1962
1962
1963
1964
1965
1967
1968
1968
1969
1969
1970
1970
1972
1974
1976
1979
1981
1983
1983
1983
1982
1982
1983
1983
1982
1981
1978
1974
1969
1965
1961
1959
1958
1958
1958
1957
1955
1953
1952
1952
1953
1953
1953
1952
1951
1950
1952
1954
1955
1956
1955
1954
1953
1952
1953
1954
1954
1954
1954
1954
1953
1953
1952
1952
1952
1952
1952
1953
1954
1955
1956
1956
1955
1955
1954
1955
1956
1955
1955
1954
1953
1954
1955
1956
1957
1957
1956
1954
1952
1952
1952
1953
1954
1954
1954
1953
1953
1953
1953
1954
1955
1956
1956
1957
1957
1957
1957
1957
1957
1957
1956
1955
1954
1954
1955
1956
1958
1958
1958
1957
1956
1957
1957
1955
1949
1941
1938
1947
1973
2015
2058
2088
2092
2068
2027
1983
1951
1936
1935
1941
1947
1952
1954
1955
1955
1954
