2044
2044
2045
2044
2043
2041
2040
2040
2043
2046
2047
2045
2042
2038
2036
2036
2038
2039
2038
2038
2037
2036
2035
2035
2036
2039
2043
2048
2053
2059
2068
2076
2085
2089
2087
2077
2063
2050
2045
2046
2050
2054
2053
2049
2045
2041
2040
2041
2041
2042
2042
2041
2041
2040
2040
2040
2040
2040
2041
2041
2041
2039
2039
2038
2039
2041
2040
2039
2037
2035
2037
2041
2044
2045
2042
2040
2038
2039
2041
2044
2045
2045
2044
2044
2043
2043
2043
2045
2046
2047
2047
2046
2046
2045
2044
2045
2042
2041
2037
2034
2033
2034
2037
2038
2038
2036
2033
2030
2027
2028
2026
2027
2027
2028
2028
2028
2028
2028
2028
2028
2029
2029
2029
2029
2029
2028
2030
2032
2034
2033
2028
2024
2022
2026
2035
2044
2046
2043
2036
2028
2026
2026
2028
2030
2028
2028
2028
2028
2028
2028
2028
2027
2027
2026
2027
2027
2026
2027
2027
2026
2023
2020
2019
2020
2024
2029
2031
2030
2026
2023
2020
2020
2022
2023
2024
2024
2025
2025
2024
2024
2024
2024
2025
2025
2026
2026
2026
2026
2026
2027
2027
2027
2026
2025
2023
2027
2029
2030
2028
2024
2021
2021
2022
2023
2024
2023
2022
2022
2021
2024
2024
2023
2023
2023
2022
2023
2025
2029
2034
2040
2048
2056
2064
2070
2073
2071
2065
2056
2048
2042
2036
2033
2031
2028
2028
2027
2028
2028
2029
2029
2029
2028
2027
2027
2027
2027
2027
2028
2029
2029
2029
2030
2030
2029
2027
2026
2026
2028
2033
2037
2038
2037
2033
2031
2030
2031
2033
2035
2035
2035
2035
2035
2035
2036
2037
2038
2039
2040
2041
2043
2045
2046
2048
2049
2048
2045
2040
2038
2040
2044
2048
2050
2048
2043
2037
2033
2033
2033
2032
2032
2030
2029
2027
2028
2029
2030
2027
2024
2022
2022
2027
2031
2033
2033
2029
2024
2018
2016
2017
2019
2022
2027
2030
2029
2026
2022
2019
2020
2020
2021
2020
2019
2018
2019
2018
2019
2018
2018
2017
2016
2016
2015
2015
2014
2013
2014
2013
2013
2010
2007
2008
2010
2015
2018
2019
2016
2012
2009
2008
2011
2010
2011
2011
2010
2010
2010
2011
2011
2011
2011
2012
2012
2013
2014
2015
2014
2017
2017
2017
2015
2012
2010
2010
2012
2017
2021
2021
2019
2016
2011
2013
2013
2012
2013
2011
2012
2014
2017
2022
2027
2033
2040
2048
2056
2062
2063
2056
2046
2036
2025
2018
2012
2010
2011
2013
2017
2021
2021
2018
2015
2011
2010
2013
2012
2014
2013
2013
2013
2014
2015
2015
2016
2016
2016
2017
2018
2019
2020
2021
2022
2022
2021
2017
2015
2015
2019
2025
2030
2031
2029
2025
2024
2024
2028
2029
2030
2030
2030
2030
2030
2032
2032
2033
2033
2032
2032
2032
2031
2030
2029
2029
2026
2025
2022
2020
2019
2020
2022
2024
2024
2022
2019
2017
2013
2015
2014
2016
2017
2017
2018
2018
2018
2018
2018
2017
2017
2017
2017
2019
2019
2018
2021
2020
2019
2016
2014
2013
2015
2020
2026
2028
2026
2023
2020
2017
2019
2020
2020
2020
2019
2019
2019
2020
2020
2020
2021
2021
2022
2022
2023
2023
2021
2023
2023
2023
2022
2021
2020
2020
2023
2028
2031
2032
2029
2026
2024
2024
2026
2026
2027
2026
2026
2026
2026
2026
2026
2026
2026
2026
2026
2026
2027
2027
2027
2028
2029
2028
2028
2027
2028
2029
2031
2033
2033
2031
2028
2026
2024
2025
2026
2026
2025
2025
2025
2025
2025
2025
2025
2026
2028
2031
2035
2041
2046
2052
2063
2071
2076
2074
2064
2052
2042
2037
2034
2034
2032
2029
2026
2022
2024
2023
2024
2024
2024
2023
2023
2023
2023
2023
2023
2023
2023
2023
2024
2024
2023
2026
2025
2024
2022
2018
2017
2018
2023
2028
2032
2033
2031
2027
2023
2024
2025
2026
2029
2029
2029
2029
2028
2028
2028
2028
2028
2029
2029
2029
2030
2028
2030
2030
2027
2023
2018
2015
2015
2019
2023
2025
2022
2017
2012
2005
2005
2006
2005
2005
2005
2005
2005
2006
2006
2006
2006
2005
2004
2004
2003
2003
2004
2004
2004
2004
2002
1999
1997
1997
1999
2004
2007
2008
2006
2003
2000
1998
2000
2000
2001
2000
2000
2000
1999
2001
2000
2000
2000
1999
1999
1999
1999
1997
1999
1999
1997
1996
1993
1992
1993
1997
2001
2003
2003
1999
1996
1993
1991
1993
1992
1993
1994
1994
1994
1994
1994
1994
1994
1995
1995
1996
1996
1996
1996
1995
1997
1998
1997
1993
1990
1989
1991
1997
2002
2004
2001
1996
1992
1988
1990
1991
1991
1991
1992
1993
1994
1995
1995
1995
1996
1996
1995
1995
1995
1995
1993
1993
1993
1993
1993
1991
1991
1991
1994
1996
1998
1997
1994
1992
1991
1993
1998
2003
2010
2018
2027
2035
2038
2036
2028
2015
2003
1995
1991
1990
1991
1992
1991
1990
1991
1989
1989
1989
1989
1991
1995
1998
2000
1998
1996
1995
1994
1995
1998
1999
1999
2000
2001
2001
2003
2004
2005
2006
2006
2007
2007
2009
2009
2009
2012
2011
2013
2011
2009
2010
2013
2018
2023
2025
2024
2021
2020
2019
2022
2022
2023
2024
2023
2023
2023
2022
2022
2021
2020
2018
2017
2015
2013
2012
2010
2012
2011
2009
2007
2003
2000
2000
2004
2009
2014
2014
2012
2009
2005
2006
2006
2005
2007
2006
2007
2007
2008
2009
2010
2010
2009
2009
2009
2009
2009
2007
2008
2010
2009
2007
2004
2002
2002
2006
2011
2015
2016
2012
2008
2005
2004
2006
2006
2007
2007
2008
2010
2011
2012
2013
2013
2014
2014
2015
2016
2017
2018
2019
2020
2020
2019
2015
2016
2018
2022
2024
2023
2023
2021
2022
2024
2024
2025
2022
2020
2019
2021
2022
2023
2023
2023
2026
2027
2028
2029
2030
2031
2030
2029
2030
2027
2027
2025
2024
2024
2026
2028
2029
2030
2029
2026
2024
2020
2022
2022
2027
2032
2039
2047
2054
2063
2071
2075
2074
2067
2056
2045
2036
2030
2026
2028
2028
2025
2023
2020
2018
2020
2024
2029
2032
2031
2029
2026
2022
2023
2023
2023
2024
2024
2025
2025
2026
2026
2026
2026
2026
2025
2024
2025
2025
2024
2027
2028
2028
2028
2026
2025
2027
2031
2036
2039
2040
2037
2034
2031
2033
2035
2036
2037
2037
2037
2036
2036
2036
2036
2035
2034
2033
2032
2031
2029
2027
2025
2025
2024
2020
2016
2012
2009
2011
2017
2023
2025
2023
2018
2014
2010
2011
2012
2013
2013
2012
2011
2010
2011
2010
2010
2010
2009
2008
2007
2007
2006
2007
2008
2008
2007
2004
2003
2004
2007
2012
2014
2014
2011
2009
2007
2006
2008
2007
2009
2008
2009
2009
2009
2009
2009
2009
2010
2011
2012
2012
2012
2012
2011
2012
2012
2012
2010
2008
2007
2009
2013
2017
2020
2018
2015
2012
2009
2011
2012
2014
2014
2014
2015
2015
2015
2015
2015
2015
2015
2017
2018
2019
2020
2018
2021
2021
2020
2018
2015
2013
2013
2017
2022
2024
2024
2021
2017
2015
2014
2014
2013
2013
2014
2016
2019
2024
2030
2036
2044
2053
2062
2068
2067
2058
2047
2034
2026
2022
2021
2019
2018
2016
2017
2019
2022
2022
2020
2017
2014
2013
2012
2013
2014
2017
2019
2020
2019
2017
2016
2016
2017
2018
2018
2018
2018
2019
2018
2023
2022
2023
2020
2017
2017
2020
2027
2033
2036
2034
2031
2029
2027
2031
2031
2032
2032
2032
2032
2032
2033
2034
2034
2035
2035
2035
2034
2032
2030
2026
2026
2026
2024
2021
2017
2015
2015
2017
2021
2022
2021
2017
2015
2012
2014
2016
2017
2017
2016
2016
2016
2016
2017
2017
2018
2018
2019
2020
2020
2021
2020
2022
2022
2020
2017
2012
2010
2012
2017
2024
2028
2027
2022
2018
2015
2015
2017
2017
2017
2016
2017
2017
2018
2018
2018
2018
2017
2017
2017
2016
2016
2016
2015
2016
2017
2017
2015
2014
2013
2014
2018
2021
2022
2020
2017
2015
2014
2015
2016
2016
2016
2016
2016
2016
2016
2016
2017
2018
2018
2019
2019
2019
2019
2018
2019
2018
2018
2017
2017
2018
2020
2023
2025
2025
2024
2023
2022
2021
2022
2020
2020
2019
2019
2019
2019
2019
2019
2018
2018
2019
2019
2020
2020
2021
2019
2020
2020
2021
2022
2023
2026
2033
2043
2055
2068
2077
2080
2076
2064
2053
2041
2032
2028
2027
2027
2027
2026
2025
2024
2024
2024
2024
2023
2022
2022
2021
2023
2025
2025
2025
2022
2020
2019
2022
2027
2031
2033
2033
2030
2027
2026
2027
2027
2029
2030
2031
2032
2032
2034
2035
2036
2038
2038
2038
2038
2038
2040
2042
2044
2045
2046
2044
2042
2042
2044
2048
2052
2054
2053
2050
2046
2043
2041
2039
2038
2038
2038
2038
2036
2034
2032
2031
2030
2031
2031
2031
2031
2032
2029
2033
2032
2031
2028
2024
2023
2026
2032
2039
2041
2040
2035
2031
2026
2028
2029
2029
2031
2032
2032
2032
2032
2032
2032
2032
2033
2033
2033
2034
2034
2032
2034
2034
2034
2033
2031
2030
2031
2033
2037
2039
2038
2035
2032
2029
2030
2031
2032
2032
2032
2032
2032
2032
2032
2032
2032
2032
2032
2033
2033
2033
2032
2032
2035
2033
2031
2027
2025
2028
2034
2043
2048
2047
2042
2037
2034
2034
2038
2038
2038
2037
2037
2037
2037
2038
2039
2040
2041
2041
2041
2042
2041
2042
2042
2043
2044
2044
2042
2040
2039
2041
2045
2047
2048
2046
2044
2043
2043
2045
2046
2047
2046
2045
2046
2047
2049
2049
2052
2058
2067
2083
2098
2109
2110
2102
2088
2071
2060
2053
2051
2049
2051
2053
2055
2055
2053
2051
2048
2048
2048
2048
2050
2050
2050
2050
2050
2051
2051
2052
2052
2052
2052
2052
2052
2052
2052
2054
2054
2054
2052
2051
2050
2053
2058
2064
2068
2067
2065
2063
2061
2064
2065
2067
2067
2067
2068
2070
2071
2072
2072
2072
2072
2072
2071
2071
2070
2069
2070
2070
2067
2064
2059
2055
2054
2057
2060
2061
2060
2056
2051
2048
2047
2046
2045
2045
2044
2044
2043
2042
2042
2041
2040
2040
2039
2039
2039
2038
2038
2038
2038
2038
2037
2035
2032
2032
2033
2036
2038
2037
2034
2030
2029
2027
2026
2026
2026
2027
2028
2028
2027
2025
2023
2022
2022
2022
2022
2021
2020
2020
2018
2022
2019
2018
2014
2010
2010
2013
2019
2024
2024
2021
2017
2013
2010
2013
2011
2012
2012
2012
2012
2012
2011
2011
2009
2008
2008
2008
2008
2008
2008
2006
2007
2008
2008
2008
2006
2006
2007
2009
2013
2013
2012
2008
2003
2000
2000
2001
2000
2001
2001
2001
2001
2000
1998
1997
1997
1999
2003
2008
2014
2020
2026
2037
2046
2049
2047
2034
2019
2008
2004
2007
2010
2010
2006
2000
1995
1993
1995
1995
1995
1994
1993
1993
1993
1994
1994
1995
1995
1996
1997
1997
1997
1998
1998
1998
1999
1998
1996
1993
1992
1994
2000
2005
2009
2008
2006
2003
2002
2004
2007
2010
2011
2012
2013
2013
2014
2015
2017
2018
2018
2019
2019
2019
2018
2017
2018
2016
2016
2013
2009
2008
2008
2011
2014
2015
2014
2010
2007
2004
2006
2005
2006
2005
2005
2004
2004
2004
2004
2003
2003
2003
2003
2002
2002
2002
2001
2003
2004
2005
2003
2002
2001
2003
2008
2013
2016
2016
2014
2011
2008
2009
2010
2012
2012
2013
2013
2013
2013
2013
2013
2013
2012
2011
2011
2010
2010
2009
2012
2014
2014
2013
2011
2008
2009
2013
2018
2021
2022
2020
2017
2015
2014
2015
2016
2016
2017
2017
2017
2017
2017
2016
2016
2016
2016
2016
2017
2017
2018
2019
2019
2019
2018
2016
2014
2015
2017
2022
2025
2026
2025
2022
2021
2020
2020
2020
2021
2024
2027
2030
2030
2029
2027
2026
2025
2025
2026
2026
2026
2027
2025
2029
2028
2027
2025
2022
2022
2024
2029
2034
2036
2036
2037
2040
2044
2054
2062
2072
2081
2084
2082
2072
2059
2048
2042
2039
2039
2041
2041
2040
2039
2038
2037
2038
2040
2038
2035
2031
2030
2032
2039
2044
2047
2048
2045
2041
2040
2039
2043
2044
2045
2046
2047
2046
2046
2047
2048
2051
2051
2050
2051
2050
2050
2053
2053
2055
2054
2052
2051
2052
2057
2063
2066
2066
2063
2059
2057
2057
2059
2060
2059
2058
2058
2057
2057
2056
2055
2054
2053
2053
2052
2051
2050
2050
2048
2051
2049
2047
2042
2037
2036
2041
2048
2055
2056
2053
2048
2044
2041
2044
2044
2045
2044
2043
2043
2043
2044
2045
2046
2046
2046
2045
2045
2045
2045
2045
2046
2048
2048
2046
2044
2043
2045
2050
2055
2057
2056
2051
2047
2044
2046
2048
2052
2054
2053
2052
2049
2048
2048
2049
2051
2052
2051
2051
2051
2052
2050
2052
2050
2050
2048
2046
2045
2048
2053
2061
2066
2065
2061
2057
2052
2054
2055
2057
2058
2057
2057
2057
2058
2059
2058
2058
2058
2057
2057
2057
2057
2055
2057
2058
2058
2058
2054
2052
2052
2057
2065
2072
2074
2070
2064
2057
2053
2053
2053
2054
2054
2054
2054
2054
2054
2054
2053
2053
2053
2054
2058
2063
2069
2076
2086
2095
2102
2104
2099
2090
2081
2074
2072
2069
2066
2061
2055
2053
2051
2049
2050
2048
2049
2053
2055
2056
2056
2055
2054
2054
2056
2057
2056
2054
2053
2056
2057
2059
2056
2054
2052
2055
2059
2063
2067
2068
2070
2072
2069
2070
2066
2062
2061
2063
2066
2069
2068
2069
2070
2071
2072
2073
2074
2074
2074
2072
2074
2074
2074
2071
2068
2065
2066
2070
2073
2075
2073
2067
2061
2054
2055
2053
2055
2051
2049
2048
2047
2048
2048
2048
2049
2048
2048
2048
2049
2048
2047
2048
2048
2050
2049
2048
2045
2045
2051
2058
2064
2066
2061
2055
2051
2050
2053
2053
2052
2050
2049
2049
2049
2050
2051
2051
2052
2052
2052
2052
2052
2052
2052
2053
2053
2052
2049
2048
2047
2050
2057
2062
2064
2059
2055
2051
2049
2052
2054
2055
2055
2055
2055
2055
2055
2054
2054
2055
2055
2056
2055
2056
2056
2054
2055
2055
2054
2053
2050
2050
2052
2056
2061
2064
2064
2060
2057
2053
2052
2051
2053
2057
2057
2056
2056
2054
2052
2055
2058
2059
2061
2062
2064
2064
2064
2067
2068
2069
2072
2077
2083
2097
2109
2117
2116
2107
2092
2077
2066
2063
2062
2062
2062
2061
2061
2061
2061
2061
2060
2060
2059
2059
2059
2059
2059
2058
2060
2061
2061
2060
2057
2055
2055
2059
2065
2068
2069
2067
2064
2062
2062
2064
2064
2066
2066
2066
2067
2067
2068
2069
2070
2071
2071
2072
2073
2073
2074
2075
2076
2076
2075
2073
2072
2071
2073
2076
2079
2078
2075
2070
2066
2064
2063
2061
2061
2060
2058
2057
2057
2057
2059
2059
2058
2056
2054
2052
2052
2051
2052
2055
2052
2051
2048
2045
2046
2049
2055
2061
2062
2060
2055
2052
2049
2052
2052
2054
2053
2053
2053
2053
2054
2054
2054
2054
2054
2053
2053
2052
2052
2049
2052
2053
2052
2052
2049
2047
2047
2049
2054
2058
2059
2056
2053
2048
2048
2048
2049
2051
2051
2051
2050
2049
2049
2049
2049
2050
2051
2051
2051
2052
2051
2052
2053
2052
2051
2048
2048
2049
2055
2062
2067
2066
2063
2058
2053
2051
2052
2052
2053
2052
2051
2051
2051
2051
2051
2050
2049
2048
2048
2050
2053
2058
2064
2071
2079
2087
2094
2096
2095
2090
2082
2073
2066
2059
2054
2051
2050
2049
2049
2049
2048
2048
2048
2047
2047
2047
2048
2048
2047
2047
2047
2047
2046
2046
2048
2047
2048
2048
2047
2047
2048
2051
2054
2057
2057
2055
2053
2051
2053
2052
2053
2054
2054
2054
2055
2056
2058
2058
2059
2060
2060
2061
2062
2062
2061
2062
2062
2062
2060
2058
2056
2055
2057
2059
2059
2057
2053
2049
2047
2046
2046
2046
2044
2043
2043
2043
2043
2043
2043
2042
2042
2043
2042
2042
2042
2041
2043
2045
2045
2042
2039
2036
2038
2043
2048
2052
2050
2046
2042
2040
2041
2044
2045
2044
2044
2043
2044
2044
2044
2044
2045
2045
2045
2046
2046
2047
2047
2047
2047
2047
2046
2044
2042
2042
2044
2047
2050
2050
2049
2048
2046
2045
2046
2046
2047
2045
2048
2047
2046
2045
2044
2045
2047
2049
2050
2049
2048
2048
2046
2048
2049
2049
2046
2043
2044
2047
2053
2058
2059
2056
2051
2049
2047
2051
2052
2053
2052
2052
2051
2051
2051
2051
2051
2052
2053
2053
2054
2056
2057
2056
2059
2060
2060
2059
2059
2063
2070
2080
2090
2099
2106
2112
2115
2112
2107
2097
2085
2076
2070
2068
2067
2067
2065
2063
2062
2061
2061
2060
2060
2061
2059
2060
2061
2060
2059
2056
2054
2057
2063
2071
2075
2074
2070
2065
2062
2062
2065
2066
2067
2067
2067
2068
2068
2069
2069
2070
2071
2071
2071
2071
2071
2071
2071
2073
2074
2074
2073
2072
2072
2075
2079
2082
2083
2080
2077
2075
2074
2075
2075
2074
2072
2070
2068
2066
2065
2064
2064
2063
2062
2062
2060
2060
2059
2058
2060
2058
2059
2057
2056
2057
2058
2060
2063
2064
2062
2061
2059
2058
2059
2058
2059
2058
2060
2060
2060
2057
2053
2052
2054
2060
2067
2069
2067
2062
2055
2053
2053
2053
2052
2048
2048
2050
2055
2059
2061
2060
2057
2054
2051
2052
2052
2053
2054
2053
2054
2054
2055
2055
2055
2055
2055
2055
2055
2055
2055
2054
2055
2057
2055
2051
2048
2045
2048
2055
2063
2068
2066
2060
2056
2053
2054
2057
2057
2056
2056
2057
2058
2059
2061
2062
2063
2063
2064
2064
2065
2065
2065
2065
2067
2066
2062
2058
2054
2055
2061
2070
2075
2074
2068
2062
2057
2059
2066
2072
2078
2084
2092
2099
2110
2114
2113
2106
2094
2082
2074
2070
2069
2068
2069
2067
2065
2063
2061
2060
2060
2063
2066
2068
2067
2065
2063
2061
2061
2062
2062
2063
2063
2063
2063
2064
2064
2065
2065
2065
2064
2064
2063
2064
2064
2063
2063
2063
2062
2062
2061
2061
2062
2064
2066
2067
2067
2065
2063
2062
2061
2063
2064
2064
2064
2063
2062
2061
2059
2057
2056
2054
2052
2050
2048
2046
2042
2041
2039
2037
2034
2032
2030
2031
2032
2035
2036
2034
2031
2028
2027
2026
2028
2028
2028
2028
2027
2026
2025
2025
2025
2025
2025
2025
2024
2023
2022
2022
2021
2022
2022
2020
2017
2016
2016
2018
2021
2022
2021
2018
2015
2014
2014
2016
2016
2015
2014
2014
2013
2013
2013
2012
2012
2012
2012
2012
2011
2011
2011
2010
2010
2009
2010
2008
2007
2007
2008
2010
2011
2012
2012
2011
2010
2010
2011
2011
2013
2014
2015
2015
2015
2015
2015
2016
2016
2016
2016
2015
2014
2013
2012
2012
2011
2011
2008
2006
2007
2012
2021
2032
2041
2047
2052
2056
2057
2056
2048
2037
2025
2016
2012
2011
2011
2011
2011
2009
2008
2008
2007
2007
2007
2007
2008
2010
2008
2007
2003
2001
2002
2006
2012
2016
2017
2016
2013
2010
2010
2011
2010
2012
2013
2013
2014
2014
2014
2014
2014
2014
2015
2016
2017
2019
2020
2021
2025
2026
2025
2022
2019
2020
2024
2031
2036
2035
2031
2027
2024
2022
2025
2025
2023
2022
2021
2020
2019
2018
2018
2017
2016
2015
2014
2014
2015
2016
2014
2017
2015
2013
2009
2005
2005
2008
2014
2020
2022
2020
2015
2012
2008
2011
2012
2014
2015
2015
2016
2017
2017
2018
2018
2019
2020
2021
2021
2021
2020
2019
2019
2019
2019
2018
2017
2017
2018
2022
2026
2027
2025
2022
2019
2018
2018
2019
2020
2019
2019
2019
2019
2019
2019
2018
2018
2018
2018
2019
2019
2020
2020
2020
2020
2019
2017
2014
2013
2015
2018
2023
2025
2024
2021
2019
2017
2017
2017
2017
2015
2014
2013
2012
2011
2009
2008
2007
2006
2006
2006
2005
2003
2001
2000
2001
2004
2006
2008
2011
2017
2029
2044
2056
2060
2053
2039
2021
2010
2003
2000
1999
1998
1996
1994
1992
1992
1991
1991
1991
1990
1990
1990
1990
1988
1989
1990
1988
1987
1984
1981
1982
1986
1993
1998
2000
1999
1995
1993
1990
1993
1992
1993
1992
1992
1993
1993
1994
1996
1997
1999
2000
2000
2001
2001
2002
2003
2006
2006
2006
2003
1999
1996
1996
1999
2003
2005
2004
2001
1997
1993
1993
1993
1994
1991
1989
1988
1987
1988
1988
1989
1989
1989
1988
1988
1988
1988
1987
1989
1990
1990
1988
1986
1986
1988
1992
1997
2000
2000
1998
1996
1995
1996
1998
1999
2000
2001
2002
2002
2002
2002
2002
2001
2001
2000
2000
2000
2000
1999
1999
2000
2000
1999
1998
1996
1996
1999
2003
2006
2006
2004
2001
2001
2000
2003
2003
2002
2002
2003
2004
2006
2007
2009
2009
2010
2010
2010
2011
2013
2015
2015
2018
2016
2016
2015
2014
2014
2016
2019
2022
2024
2022
2020
2017
2013
2016
2014
2015
2014
2013
2012
2011
2010
2008
2007
2006
2006
2006
2006
2007
2007
2006
2008
2008
2007
2004
2006
2009
2016
2024
2033
2042
2051
2063
2070
2070
2060
2046
2029
2018
2015
2016
2018
2017
2016
2014
2014
2013
2012
2012
2012
2011
2010
2011
2011
2011
2010
2009
2007
2007
2011
2016
2020
2020
2018
2015
2014
2014
2016
2017
2018
2018
2018
2019
2020
2021
2021
2022
2022
2023
2024
2025
2025
2027
2026
2029
2029
2027
2024
2023
2024
2028
2034
2038
2038
2033
2028
2024
2020
2022
2021
2020
2018
2018
2017
2016
2016
2014
2014
2013
2013
2013
2012
2012
2012
2011
2013
2012
2014
2012
2011
2011
2011
2014
2015
2017
2017
2016
2014
2013
2015
2014
2016
2017
2017
2018
2018
2017
2016
2016
2015
2015
2015
2014
2014
2014
2014
2015
2015
2015
2012
2011
2010
2013
2018
2022
2024
2022
2019
2017
2015
2016
2017
2019
2019
2019
2020
2021
2023
2024
2026
2027
2027
2028
2027
2027
2027
2028
2031
2033
2034
2033
2030
2030
2032
2037
2041
2043
2042
2039
2036
2035
2036
2038
2040
2041
2042
2043
2042
2042
2041
2040
2039
2039
2040
2040
2040
2040
2040
2040
2042
2043
2041
2038
2035
2036
2042
2051
2059
2065
2069
2073
2079
2090
2099
2101
2096
2085
2073
2063
2056
2054
2053
2052
2053
2052
2051
2049
2048
2048
2049
2053
2053
2054
2052
2051
2052
2057
2063
2067
2068
2066
2063
2060
2058
2062
2062
2064
2066
2066
2067
2067
2068
2068
2070
2070
2071
2072
2073
2074
2076
2075
2079
2080
2080
2078
2076
2076
2079
2085
2091
2093
2091
2087
2083
2081
2080
2082
2081
2080
2079
2078
2077
2076
2075
2074
2073
2071
2070
2068
2067
2066
2064
2064
2065
2065
2064
2062
2060
2061
2064
2069
2073
2073
2071
2068
2065
2065
2066
2066
2065
2065
2065
2066
2066
2066
2066
2065
2064
2064
2063
2063
2063
2063
2063
2066
2066
2063
2059
2055
2054
2058
2065
2069
2070
2065
2061
2058
2056
2059
2059
2058
2057
2056
2055
2054
2055
2054
2055
2055
2054
2054
2054
2054
2053
2052
2053
2053
2053
2051
2051
2051
2052
2055
2057
2058
2056
2052
2049
2048
2048
2048
2049
2049
2049
2048
2048
2048
2048
2048
2047
2047
2046
2047
2051
2057
2064
2072
2081
2091
2096
2098
2094
2084
2074
2064
2056
2050
2048
2047
2045
2044
2043
2043
2042
2042
2042
2042
2041
2041
2040
2040
2040
2041
2041
2041
2041
2041
2043
2045
2045
2044
2041
2040
2041
2045
2049
2052
2051
2048
2046
2045
2045
2047
2047
2048
2048
2049
2050
2051
2051
2052
2052
2053
2053
2053
2054
2054
2054
2053
2055
2054
2052
2049
2046
2045
2046
2048
2051
2050
2048
2043
2040
2037
2038
2036
2035
2034
2034
2034
2034
2033
2033
2033
2034
2034
2037
2037
2037
2036
2034
2035
2034
2036
2035
2034
2033
2034
2036
2038
2041
2040
2038
2036
2034
2037
2036
2038
2038
2038
2038
2038
2039
2038
2038
2038
2038
2038
2039
2039
2039
2038
2041
2041
2039
2034
2031
2030
2033
2041
2047
2048
2045
2040
2036
2034
2034
2035
2034
2033
2032
2032
2032
2032
2031
2032
2031
2031
2031
2030
2030
2030
2029
2030
2030
2030
2028
2025
2024
2026
2032
2038
2042
2041
2037
2032
2029
2029
2030
2030
2030
2029
2028
2028
2028
2028
2029
2029
2029
2029
2028
2028
2028
2029
2031
2037
2039
2042
2044
2049
2060
2075
2086
2088
2079
2060
2044
2030
2026
2028
2029
2028
2026
2025
2024
2023
2023
2022
2022
2022
2021
2021
2021
2022
2020
2022
2025
2024
2023
2020
2017
2017
2020
2026
2029
2031
2028
2024
2021
2018
2022
2022
2023
2023
2023
2022
2022
2022
2022
2023
2024
2024
2024
2024
2025
2026
2025
2027
2026
2027
2025
2022
2020
2020
2023
2027
2030
2027
2023
2017
2012
2011
2009
2010
2010
2009
2009
2005
2002
1999
1999
2003
2008
2011
2009
2005
2001
1997
1998
2000
2001
1998
1995
1993
1993
1996
2000
2002
2001
1999
1998
1996
1996
1997
1996
1995
1995
1994
1992
1991
1990
1989
1988
1987
1986
1986
1986
1986
1985
1984
1985
1984
1983
1980
1978
1978
1982
1987
1991
1991
1989
1987
1985
1984
1986
1987
1987
1988
1990
1993
1994
1994
1994
1995
1995
1995
1994
1997
1997
1997
1996
1999
1998
2000
1999
1999
1998
1999
2002
2006
2008
2008
2005
2002
1997
1999
1996
1996
1995
1995
1995
1996
1997
1997
1997
1996
1995
1995
1994
1995
1995
1993
1994
1993
1992
1989
1987
1986
1989
1995
1999
2000
1996
1990
1987
1987
1991
1999
2006
2013
2022
2033
2042
2047
2043
2032
2016
2002
1992
1987
1987
1987
1987
1987
1986
1987
1986
1985
1985
1987
1991
1998
2003
2006
2006
2004
2004
2005
2008
2011
2012
2013
2014
2015
2017
2018
2021
2024
2026
2028
2029
2031
2032
2034
2033
2036
2036
2034
2032
2031
2033
2039
2047
2052
2053
2051
2048
2048
2046
2050
2051
2051
2050
2050
2049
2048
2047
2046
2046
2046
2046
2047
2047
2048
2048
2048
2052
2052
2053
2052
2052
2052
2053
2056
2059
2060
2059
2057
2056
2055
2059
2060
2062
2064
2066
2067
2069
2070
2072
2074
2077
2079
2082
2084
2086
2088
2091
2093
2094
2095
2093
2093
2095
2098
2103
2106
2107
2105
2103
2101
2101
2102
2103
2104
2104
2105
2106
2107
2109
2109
2110
2111
2111
2112
2111
2112
2112
2112
2114
2115
2115
2113
2110
2108
2110
2116
2120
2123
2122
2119
2116
2114
2115
2116
2117
2118
2119
2119
2117
2115
2113
2113
2114
2116
2116
2116
2114
2113
2111
2112
2115
2115
2113
2108
2102
2101
2107
2118
2131
2140
2146
2151
2157
2167
2176
2177
2171
2156
2140
2127
2117
2113
2111
2110
2109
2107
2105
2101
2101
2097
2096
2097
2095
2094
2091
2089
2088
2091
2098
2105
2108
2105
2099
2092
2086
2089
2091
2093
2094
2092
2088
2087
2084
2086
2086
2087
2088
2090
2092
2093
2094
2093
2100
2100
2101
2100
2095
2092
2093
2099
2107
2110
2109
2103
2097
2092
2092
2093
2092
2091
2087
2084
2082
2080
2078
2077
2076
2075
2073
2070
2069
2068
2067
2067
2067
2067
2064
2060
2056
2054
2057
2061
2064
2062
2057
2050
2046
2044
2045
2046
2046
2045
2044
2042
2040
2040
2040
2040
2039
2039
2038
2038
2037
2037
2036
2038
2037
2035
2030
2026
2026
2031
2039
2046
2047
2044
2038
2033
2029
2031
2032
2034
2034
2034
2034
2033
2032
2030
2030
2029
2029
2027
2025
2024
2023
2021
2022
2022
2021
2017
2015
2015
2016
2020
2023
2025
2028
2030
2035
2041
2051
2061
2072
2077
2074
2067
2050
2035
2024
2016
2014
2014
2013
2010
2009
2008
2009
2008
2006
2006
2002
2000
2000
2002
2007
2014
2017
2015
2012
2009
2007
2008
2010
2014
2015
2016
2016
2017
2017
2017
2017
2017
2018
2020
2019
2020
2020
2021
2023
2025
2028
2027
2023
2021
2022
2028
2036
2042
2042
2039
2034
2030
2029
2030
2030
2028
2025
2022
2019
2016
2014
2013
2012
2011
2010
2009
2009
2009
2009
2007
2010
2010
2010
2007
2004
2003
2007
2015
2021
2023
2021
2016
2013
2011
2013
2014
2015
2014
2014
2014
2014
2014
2013
2014
2014
2015
2016
2017
2018
2019
2019
2021
2020
2018
2014
2012
2011
2014
2020
2026
2029
2027
2020
2015
2011
2012
2013
2014
2012
2012
2010
2009
2010
2012
2014
2016
2015
2018
2021
2022
2025
2023
2026
2027
2026
2024
2022
2021
2026
2035
2044
2048
2048
2045
2041
2038
2037
2038
2039
2042
2045
2051
2058
2066
2075
2086
2098
2107
2110
2104
2092
2078
2066
2060
2058
2060
2057
2054
2051
2051
2052
2055
2058
2063
2068
2072
2072
2068
2061
2056
2054
2056
2059
2062
2062
2063
2064
2065
2065
2065
2065
2066
2067
2068
2069
2071
2070
2067
2063
2061
2063
2069
2077
2083
2084
2080
2076
2073
2074
2078
2079
2081
2081
2082
2083
2083
2084
2084
2084
2084
2083
2083
2082
2081
2077
2076
2077
2073
2072
2067
2063
2062
2065
2069
2073
2074
2072
2069
2067
2064
2068
2067
2068
2068
2068
2068
2068
2068
2069
2070
2070
2071
2072
2072
2071
2070
2069
2069
2068
2068
2066
2064
2063
2064
2070
2076
2080
2078
2074
2068
2065
2063
2065
2067
2066
2065
2064
2064
2065
2065
2065
2065
2065
2065
2064
2064
2064
2064
2064
2065
2065
2065
2063
2062
2063
2065
2069
2071
2072
2070
2067
2065
2063
2064
2063
2064
2064
2065
2065
2065
2064
2063
2062
2062
2064
2069
2074
2079
2086
2096
2110
2121
2124
2118
2103
2086
2076
2074
2075
2075
2072
2066
2061
2058
2059
2059
2058
2057
2057
2057
2057
2058
2058
2058
2058
2058
2057
2057
2057
2058
2057
2060
2060
2061
2060
2058
2057
2058
2061
2065
2068
2069
2068
2066
2062
2065
2065
2067
2069
2070
2072
2072
2073
2073
2073
2073
2073
2075
2075
2076
2077
2075
2078
2077
2075
2072
2069
2067
2067
2070
2072
2073
2069
2064
2060
2057
2057
2056
2055
2055
2054
2054
2055
2055
2055
2055
2056
2056
2056
2057
2057
2056
2055
2055
2054
2053
2052
2050
2048
2048
2050
2055
2058
2059
2057
2053
2050
2050
2051
2052
2054
2055
2055
2055
2054
2054
2054
2054
2053
2054
2053
2053
2052
2052
2053
2054
2056
2055
2054
2053
2051
2052
2054
2057
2057
2055
2053
2052
2051
2052
2052
2051
2050
2050
2049
2049
2050
2050
2050
2050
2050
2051
2051
2051
2051
2050
2050
2049
2048
2047
2045
2044
2045
2047
2048
2050
2048
2047
2044
2041
2043
2045
2049
2054
2060
2066
2075
2085
2095
2101
2099
2088
2075
2061
2052
2048
2048
2048
2047
2045
2041
2039
2038
2041
2046
2049
2050
2047
2043
2040
2037
2039
2039
2041
2041
2041
2042
2043
2044
2044
2043
2044
2044
2045
2045
2046
2046
2046
2047
2047
2045
2044
2041
2040
2043
2048
2054
2057
2057
2053
2050
2048
2048
2050
2050
2052
2053
2054
2054
2054
2054
2053
2052
2050
2049
2048
2048
2047
2044
2044
2044
2042
2039
2034
2032
2032
2035
2041
2044
2042
2039
2035
2031
2033
2034
2035
2035
2036
2036
2036
2037
2036
2036
2036
2036
2037
2037
2037
2036
2035
2036
2038
2037
2037
2034
2031
2030
2032
2035
2039
2041
2040
2038
2034
2029
2031
2029
2029
2029
2028
2027
2027
2026
2026
2026
2026
2025
2025
2025
2025
2024
2023
2025
2025
2024
2021
2018
2016
2018
2023
2028
2031
2028
2024
2021
2018
2018
2020
2022
2024
2025
2026
2028
2028
2029
2029
2029
2028
2028
2026
2026
2026
2026
2028
2028
2029
2029
2027
2026
2026
2029
2032
2035
2037
2038
2040
2043
2048
2056
2067
2077
2085
2087
2082
2071
2058
2048
2044
2041
2041
2042
2042
2041
2040
2038
2039
2038
2036
2034
2032
2033
2037
2043
2048
2048
2046
2042
2040
2038
2041
2041
2042
2042
2042
2042
2042
2042
2043
2044
2044
2045
2045
2044
2045
2045
2046
2048
2048
2049
2048
2048
2049
2051
2054
2056
2057
2056
2055
2053
2052
2054
2053
2054
2054
2054
2053
2051
2049
2048
2047
2046
2045
2044
2042
2041
2039
2037
2037
2036
2035
2033
2032
2032
2032
2035
2038
2039
2038
2035
2033
2031
2031
2030
2031
2030
2030
2029
2029
2029
2029
2029
2030
2030
2030
2029
2029
2029
2029
2030
2030
2030
2029
2026
2025
2026
2029
2033
2036
2036
2034
2031
2030
2030
2032
2034
2035
2036
2033
2029
2028
2030
2037
2043
2047
2044
2040
2035
2032
2034
2036
2042
2040
2038
2035
2032
2032
2035
2041
2045
2045
2043
2040
2039
2038
2041
2041
2040
2040
2040
2040
2039
2038
2037
2036
2036
2036
2035
2034
2034
2034
2032
2032
2029
2029
2029
2029
2033
2040
2048
2056
2066
2074
2078
2075
2064
2054
2041
2032
2027
2025
2025
2025
2023
2021
2020
2018
2017
2017
2017
2016
2016
2015
2018
2019
2017
2013
2010
2010
2014
2022
2028
2030
2027
2022
2019
2018
2020
2023
2024
2025
2025
2026
2027
2029
2029
2030
2031
2032
2034
2035
2036
2037
2038
2039
2038
2039
2037
2034
2033
2035
2040
2045
2047
2046
2042
2036
2031
2029
2028
2027
2026
2025
2024
2023
2022
2021
2021
2020
2020
2020
2020
2020
2020
2020
2021
2024
2024
2022
2019
2016
2017
2023
2030
2035
2035
2031
2027
2024
2023
2026
2027
2027
2026
2027
2027
2027
2028
2029
2029
2030
2030
2030
2030
2031
2030
2031
2034
2033
2033
2030
2028
2029
2033
2038
2041
2042
2039
2036
2033
2031
2035
2035
2036
2036
2037
2038
2038
2039
2040
2041
2041
2042
2043
2043
2044
2045
2044
2047
2048
2048
2048
2048
2048
2049
2054
2058
2061
2059
2056
2053
2051
2052
2052
2054
2054
2054
2055
2055
2057
2057
2057
2058
2059
2061
2065
2070
2077
2084
2094
2104
2113
2116
2113
2104
2092
2082
2077
2075
2075
2074
2073
2072
2071
2072
2073
2074
2074
2075
2075
2076
2076
2077
2078
2079
2080
2080
2080
2079
2079
2080
2080
2081
2080
2078
2078
2079
2083
2088
2091
2092
2090
2088
2088
2088
2089
2091
2092
2092
2093
2094
2095
2096
2096
2097
2097
2097
2098
2099
2101
2102
2100
2103
2102
2101
2100
2096
2095
2096
2099
2102
2104
2102
2099
2096
2092
2095
2094
2092
2093
2092
2091
2090
2089
2089
2088
2087
2088
2088
2088
2088
2089
2088
2090
2091
2091
2091
2091
2091
2093
2096
2101
2103
2103
2101
2099
2097
2098
2099
2100
2100
2100
2100
2100
2100
2099
2099
2099
2099
2099
2099
2100
2100
2100
2099
2101
2100
2100
2098
2098
2102
2108
2115
2120
2119
2116
2112
2110
2109
2113
2114
2114
2114
2115
2116
2117
2118
2119
2119
2120
2120
2120
2120
2120
2120
2119
2123
2124
2123
2121
2118
2117
2120
2126
2131
2132
2130
2128
2131
2135
2146
2154
2163
2172
2178
2179
2172
2160
2146
2135
2129
2127
2128
2127
2126
2124
2122
2123
2122
2123
2122
2121
2121
2122
2124
2126
2127
2126
2125
2124
2123
2126
2128
2130
2131
2132
2132
2132
2133
2134
2135
2136
2137
2138
2138
2139
2140
2142
2145
2147
2149
2149
2151
2154
2161
2169
2177
2182
2184
2185
2186
2188
2194
2199
2206
2211
2215
2219
2222
2225
2227
2230
2235
2241
2247
2254
2260
2265
2271
2278
2284
2291
2296
2301
2308
2317
2329
2341
2350
2355
2358
2360
2363
2368
2374
2378
2380
2381
2383
2385
2388
2391
2394
2397
2400
2401
2402
2403
2403
2403
2409
2412
2415
2415
2414
2413
2414
2419
2425
2429
2428
2425
2422
2421
2422
2426
2429
2432
2435
2438
2440
2442
2444
2446
2448
2451
2454
2456
2457
2458
2457
2458
2459
2460
2460
2457
2457
2459
2465
2474
2481
2484
2482
2479
2479
2482
2490
2499
2507
2515
2526
2535
2540
2538
2527
2511
2494
2481
2475
2473
2472
2471
2466
2463
2460
2458
2455
2450
2444
2438
2433
2431
2430
2429
2426
2422
2419
2419
2420
2421
2423
2422
2420
2419
2419
2420
2420
2419
2418
2415
2412
2408
2403
2397
2391
2385
2380
2375
2370
2364
2360
2358
2357
2354
2350
2343
2336
2330
2325
2321
2318
2314
2309
2304
2299
2294
2289
2284
2279
2275
2270
2265
2259
2253
2247
2243
2238
2233
2226
2218
2210
2205
2202
2201
2198
2192
2183
2174
2165
2159
2153
2147
2141
2135
2129
2123
2117
2110
2102
2094
2087
2080
2074
2067
2061
2054
2048
2044
2037
2032
2027
2023
2020
2017
2016
2014
2011
2006
2002
1997
1992
1991
1988
1986
1984
1982
1980
1979
1979
1979
1979
1979
1979
1978
1976
1974
1973
1971
1971
1970
1969
1967
1965
1964
1965
1967
1969
1969
1966
1965
1965
1969
1977
1985
1997
2009
2020
2028
2027
2018
2002
1986
1976
1971
1971
1972
1972
1971
1970
1970
1970
1970
1969
1970
1971
1974
1978
1981
1982
1982
1981
1982
1983
1986
1989
1991
1993
1996
1998
2000
2002
2003
2004
2005
2004
2004
2003
2003
2003
2004
2005
2007
2008
2009
2010
2012
2016
2022
2030
2035
2038
2037
2036
2037
2037
2040
2041
2041
2041
2040
2040
2039
2039
2038
2038
2038
2039
2041
2042
2044
2044
2044
2047
2049
2050
2051
2049
2053
2057
2064
2068
2067
2062
2057
2054
2053
2057
2060
2060
2060
2058
2058
2057
2055
2055
2055
2054
2053
2051
2048
2048
2047
2047
2048
2048
2045
2040
2035
2031
2029
2030
2030
2028
2023
2017
2013
2011
2012
2013
2013
2013
2013
2012
2010
2008
2007
2006
2005
2005
2005
2005
2005
2005
2004
2004
1999
1994
1988
1983
1983
1987
1992
1995
1992
1982
1972
1964
1961
1967
1974
1981
1987
1994
2001
2011
2021
2033
2042
2045
2040
2027
2009
1993
1980
1972
1969
1967
1963
1956
1947
1939
1934
1932
1934
1935
1935
1933
1932
1930
1933
1936
1938
1940
1942
1942
1943
1944
1946
1947
1948
1949
1950
1951
1951
1952
1953
1952
1954
1952
1951
1949
1947
1949
1953
1959
1963
1965
1964
1961
1959
1956
1958
1958
1958
1959
1959
1959
1958
1959
1959
1959
1959
1958
1957
1957
1957
1956
1954
1954
1953
1952
1950
1949
1948
1948
1950
1954
1956
1956
1953
1949
1946
1945
1944
1946
1945
1945
1945
1945
1945
1945
1945
1945
1945
1944
1944
1943
1944
1944
1945
1946
1947
1947
1946
1946
1948
1951
1954
1955
1955
1953
1950
1949
1948
1950
1950
1950
1951
1951
1952
1952
1952
1952
1952
1951
1951
1951
1951
1951
1951
1952
1952
1953
1952
1950
1948
1948
1951
1955
1959
1960
1959
1957
1955
1953
1953
1953
1953
1951
1950
1949
1948
1947
1946
1946
1947
1948
1948
1946
1945
1946
1947
1955
1961
1969
1975
1982
1990
2000
2007
2005
1995
1979
1963
1953
1947
1952
1954
1955
1952
1950
1948
1948
1948
1949
1948
1948
1948
1949
1950
1951
1951
1950
1952
1953
1952
1951
1951
1951
1953
1957
1961
1963
1963
1960
1958
1957
1959
1961
1963
1964
1965
1965
1966
1967
1968
1969
1970
1971
1973
1974
1975
1976
1976
1975
1977
1976
1976
1973
1972
1974
1979
1985
1988
1986
1982
1977
1974
1971
1974
1974
1974
1973
1973
1973
1973
1973
1974
1974
1975
1975
1976
1977
1978
1979
1980
1982
1984
1984
1982
1981
1980
1983
1988
1992
1993
1991
1988
1986
1985
1986
1988
1989
1990
1991
1992
1992
1993
1993
1993
1995
1995
1995
1995
1995
1995
1993
1997
1997
1997
1995
1993
1993
1995
2001
2006
2009
2008
2005
2003
1999
2003
2003
2004
2005
2006
2007
2008
2009
2010
2010
2012
2013
2014
2016
2017
2018
2017
2018
2018
2018
2018
2017
2018
2019
2022
2026
2027
2026
2023
2020
2019
2022
2027
2035
2042
2049
2058
2065
2071
2070
2064
2053
2042
2032
2026
2024
2024
2023
2023
2021
2019
2016
2013
2012
2013
2017
2020
2021
2019
2016
2013
2010
2012
2013
2013
2013
2014
2014
2015
2015
2016
2017
2018
2018
2018
2017
2018
2018
2017
2020
2022
2023
2022
2021
2021
2023
2028
2033
2037
2038
2036
2034
2032
2032
2033
2033
2035
2033
2031
2030
2032
2035
2039
2041
2039
2034
2030
2027
2028
2028
2028
2029
2026
2025
2021
2018
2018
2022
2026
2032
2032
2029
2023
2019
2017
2021
2023
2024
2024
2022
2021
2022
2021
2023
2022
2021
2019
2019
2019
2019
2018
2017
2017
2017
2015
2013
2011
2010
2010
2012
2015
2016
2014
2010
2007
2004
2004
2005
2006
2006
2006
2006
2006
2005
2005
2005
2005
2005
2005
2004
2004
2004
2004
2002
2004
2003
2001
1999
1996
1997
2002
2008
2013
2013
2009
2005
2001
1997
1998
1995
1991
1987
1983
1980
1977
1973
1970
1967
1963
1959
1955
1951
1948
1947
1948
1952
1956
1959
1962
1968
1976
1986
1993
1990
1979
1960
1943
1932
1927
1929
1929
1927
1926
1925
1925
1926
1926
1925
1924
1924
1925
1927
1928
1929
1926
1923
1926
1925
1925
1921
1916
1914
1916
1925
1935
1939
1936
1928
1919
1911
1913
1911
1912
1912
1912
1913
1914
1914
1917
1919
1920
1921
1919
1918
1917
1917
1918
1920
1920
1918
1914
1911
1910
1912
1915
1920
1921
1918
1914
1909
1906
1905
1904
1902
1899
1897
1898
1901
1905
1908
1908
1906
1903
1901
1902
1905
1909
1909
1908
1905
1902
1898
1893
1892
1891
1895
1901
1906
1907
1907
1906
1906
1907
1909
1912
1913
1916
1922
1924
1925
1925
1928
1929
1933
1935
1934
1935
1934
1937
1938
1943
1945
1945
1943
1942
1942
1947
1953
1960
1962
1961
1956
1954
1952
1954
1955
1957
1956
1957
1956
1956
1955
1953
1951
1949
1947
1946
1946
1945
1945
1943
1945
1944
1943
1938
1934
1933
1938
1949
1964
1977
1986
1993
2001
2010
2025
2034
2035
2028
2017
2007
2004
2006
2014
2022
2028
2033
2037
2041
2044
2048
2054
2063
2070
2076
2079
2082
2088
2096
2110
2125
2138
2146
2151
2154
2157
2163
2168
2175
2182
2189
2196
2201
2205
2207
2209
2211
2214
2219
2223
2227
2229
2231
2231
2235
2236
2236
2234
2235
2241
2252
2262
2270
2267
2257
2246
2236
2232
2231
2228
2225
2220
2216
2212
2209
2206
2204
2203
2202
2201
2200
2199
2197
2197
2198
2200
2203
2204
2202
2199
2202
2205
2213
2218
2219
2216
2209
2203
2199
2198
2198
2195
2192
2188
2187
2185
2185
2183
2178
2173
2167
2164
2161
2160
2159
2154
2154
2148
2145
2138
2132
2129
2130
2136
2142
2142
2137
2130
2122
2116
2116
2113
2109
2104
2099
2093
2088
2083
2077
2072
2067
2062
2058
2053
2048
2042
2034
2031
2026
2022
2018
2014
2015
2019
2029
2042
2054
2059
2056
2046
2031
2018
2007
2001
1996
1994
1993
1991
1989
1988
1987
1987
1986
1984
1981
1979
1978
1979
1979
1977
1975
1970
1966
1965
1968
1975
1984
1990
1992
1991
1987
1984
1982
1985
1987
1989
1989
1987
1985
1982
1980
1978
1977
1977
1977
1978
1978
1979
1980
1980
1982
1983
1983
1980
1977
1977
1980
1986
1993
1995
1993
1988
1985
1983
1986
1987
1990
1990
1990
1991
1992
1991
1991
1992
1993
1997
2000
2003
2003
2000
1996
1998
1997
1998
1998
1996
1996
1999
2004
2008
2011
2010
2008
2005
2002
2006
2007
2011
2014
2016
2017
2019
2020
2022
2025
2029
2031
2034
2037
2040
2043
2046
2049
2053
2055
2056
2057
2059
2062
2067
2074
2081
2085
2088
2090
2094
2098
2103
2108
2113
2116
2117
2118
2119
2120
2123
2127
2131
2136
2140
2143
2146
2148
2147
2150
2148
2147
2145
2145
2151
2161
2174
2186
2194
2200
2204
2206
2204
2202
2192
2181
2172
2167
2166
2166
2167
2167
2167
2167
2166
2165
2165
2163
2162
2161
2160
2159
2158
2155
2152
2150
2151
2153
2154
2152
2147
2142
2138
2135
2135
2135
2135
2134
2133
2133
2133
2133
2134
2135
2136
2136
2138
2138
2137
2133
2128
2131
2133
2139
2142
2141
2138
2134
2135
2137
2140
2141
2137
2133
2128
2132
2131
2130
2129
2127
2127
2126
2126
2126
2127
2127
2128
2129
2131
2133
2135
2136
2139
2139
2140
2138
2136
2136
2139
2144
2148
2151
2150
2147
2145
2145
2146
2146
2148
2148
2148
2148
2147
2146
2144
2143
2141
2139
2137
2136
2134
2132
2129
2128
2124
2120
2115
2111
2108
2108
2111
2112
2111
2108
2104
2101
2098
2100
2100
2099
2098
2097
2096
2095
2094
2092
2090
2086
2082
2077
2073
2069
2066
2062
2061
2058
2054
2046
2037
2029
2023
2022
2022
2022
2021
2019
2019
2022
2028
2037
2046
2050
2051
2046
2035
2023
2012
2006
2003
2002
2002
2001
1999
1999
1998
1999
2002
2001
2001
1999
1997
1999
2004
2011
2015
2017
2016
2013
2011
2009
2012
2012
2013
2013
2013
2013
2012
2011
2011
2010
2011
2011
2011
2011
2012
2013
2013
2015
2016
2016
2015
2015
2016
2019
2023
2028
2031
2031
2029
2028
2028
2030
2032
2034
2036
2036
2036
2035
2034
2034
2034
2034
2035
2035
2035
2035
2035
2035
2034
2036
2034
2033
2030
2029
2030
2036
2043
2047
2046
2043
2038
2036
2034
2038
2038
2039
2039
2040
2040
2040
2040
2040
2040
2040
2041
2042
2043
2043
2043
2042
2043
2043
2043
2041
2039
2038
2040
2044
2046
2047
2043
2039
2036
2034
2036
2036
2037
2038
2039
2039
2039
2038
2037
2036
2036
2035
2035
2034
2034
2033
2031
2036
2035
2035
2033
2029
2028
2028
2033
2038
2040
2041
2040
2041
2044
2055
2065
2075
2082
2081
2073
2059
2047
2037
2031
2030
2030
2030
2029
2028
2027
2026
2026
2027
2027
2027
2026
2025
2024
2025
2029
2033
2037
2039
2041
2042
2044
2047
2049
2051
2052
2054
2054
2054
2054
2055
2056
2057
2058
2058
2058
2059
2060
2062
2064
2065
2064
2064
2064
2066
2070
2074
2077
2078
2078
2078
2077
2077
2078
2079
2079
2078
2078
2078
2078
2077
2077
2076
2074
2074
2073
2072
2072
2072
2072
2072
2072
2070
2068
2067
2068
2070
2073
2076
2077
2076
2074
2073
2072
2074
2075
2075
2076
2076
2075
2075
2075
2074
2073
2073
2073
2073
2074
2075
2075
2073
2075
2074
2074
2071
2068
2067
2068
2071
2074
2076
2074
2071
2068
2064
2065
2064
2063
2063
2063
2064
2064
2063
2061
2060
2059
2059
2059
2059
2059
2059
2059
2061
2062
2060
2058
2056
2055
2057
2060
2063
2064
2061
2057
2054
2053
2055
2056
2056
2055
2055
2055
2057
2061
2066
2072
2079
2089
2098
2105
2106
2101
2089
2073
2065
2057
2053
2049
2046
2045
2047
2053
2059
2060
2056
2049
2045
2041
2043
2045
2046
2045
2046
2046
2046
2046
2047
2048
2048
2048
2048
2048
2047
2046
2048
2048
2050
2050
2048
2047
2047
2049
2054
2058
2059
2055
2051
2048
2048
2050
2051
2052
2052
2052
2053
2053
2054
2054
2054
2055
2054
2054
2053
2052
2051
2048
2050
2048
2046
2045
2041
2040
2041
2045
2048
2048
2047
2043
2039
2034
2036
2035
2034
2035
2034
2034
2034
2034
2034
2035
2035
2036
2036
2037
2038
2038
2038
2040
2040
2041
2041
2041
2041
2042
2046
2049
2052
2051
2048
2046
2043
2044
2044
2047
2048
2048
2049
2050
2051
2052
2053
2054
2056
2057
2058
2059
2061
2062
2064
2064
2064
2064
2062
2062
2063
2067
2071
2073
2073
2072
2071
2069
2070
2071
2072
2073
2073
2073
2074
2075
2076
2076
2075
2074
2073
2072
2072
2071
2070
2070
2070
2070
2070
2070
2071
2071
2073
2077
2082
2086
2091
2096
2101
2108
2118
2128
2136
2138
2134
2124
2111
2099
2092
2089
2088
2089
2089
2087
2086
2086
2083
2085
2082
2082
2080
2079
2080
2082
2087
2090
2090
2092
2091
2090
2085
2084
2082
2085
2090
2096
2099
2099
2095
2091
2088
2089
2089
2089
2089
2089
2089
2089
2092
2093
2094
2093
2092
2091
2094
2098
2103
2105
2103
2100
2097
2095
2096
2095
2094
2092
2090
2088
2087
2085
2083
2081
2080
2080
2081
2081
2082
2082
2083
2084
2084
2084
2084
2082
2081
2081
2083
2087
2090
2090
2088
2086
2084
2085
2086
2088
2089
2089
2089
2089
2089
2089
2089
2089
2088
2087
2087
2086
2086
2085
2082
2084
2083
2081
2078
2075
2075
2078
2084
2089
2091
2088
2085
2082
2079
2081
2081
2080
2078
2078
2077
2076
2077
2077
2077
2077
2077
2077
2077
2077
2077
2076
2079
2079
2080
2080
2080
2080
2082
2087
2090
2093
2093
2091
2089
2086
2087
2086
2087
2086
2086
2087
2086
2085
2085
2086
2089
2094
2099
2105
2113
2121
2129
2138
2140
2133
2121
2104
2091
2086
2089
2096
2101
2100
2095
2090
2087
2085
2088
2087
2089
2088
2088
2088
2089
2089
2089
2090
2090
2091
2091
2091
2091
2091
2093
2094
2094
2094
2093
2092
2094
2098
2101
2103
2102
2099
2097
2095
2096
2098
2099
2100
2100
2100
2101
2101
2102
2102
2102
2102
2102
2101
2101
2101
2100
2100
2099
2096
2095
2091
2088
2085
2084
2084
2086
2086
2084
2080
2076
2073
2071
2071
2071
2070
2069
2068
2068
2067
2066
2065
2063
2062
2060
2058
2057
2055
2052
2053
2050
2049
2048
2045
2043
2043
2045
2047
2047
2046
2044
2041
2036
2037
2035
2036
2036
2035
2034
2034
2034
2034
2035
2035
2035
2033
2032
2031
2030
2029
2032
2033
2032
2030
2028
2027
2028
2033
2038
2040
2038
2035
2032
2032
2034
2035
2036
2036
2037
2037
2038
2038
2038
2038
2039
2040
2041
2043
2044
2045
2047
2048
2051
2054
2055
2054
2052
2052
2054
2058
2061
2062
2060
2056
2053
2054
2055
2058
2059
2058
2056
2056
2056
2058
2061
2066
2070
2074
2082
2091
2098
2102
2096
2087
2072
2058
2048
2044
2044
2047
2050
2053
2054
2050
2047
2044
2041
2043
2043
2042
2042
2041
2041
2040
2040
2040
2041
2040
2040
2040
2039
2040
2040
2039
2041
2039
2040
2038
2037
2037
2039
2041
2043
2044
2043
2041
2039
2036
2039
2039
2041
2042
2042
2043
2043
2044
2044
2046
2046
2047
2047
2047
2048
2047
2045
2047
2048
2047
2044
2041
2039
2040
2045
2050
2054
2054
2050
2047
2044
2043
2046
2046
2047
2046
2046
2045
2045
2044
2043
2041
2040
2040
2040
2039
2040
2040
2040
2040
2039
2038
2036
2033
2032
2034
2037
2039
2039
2036
2033
2030
2029
2030
2031
2031
2030
2030
2030
2030
2030
2030
2030
2029
2029
2029
2029
2029
2029
2030
2030
2030
2029
2027
2026
2026
2028
2031
2033
2033
2030
2027
2025
2024
2024
2025
2025
2024
2024
2024
2024
2024
2025
2024
2024
2023
2022
2022
2022
2024
2023
2026
2025
2025
2023
2022
2022
2024
2027
2029
2030
2029
2027
2026
2023
2026
2026
2028
2028
2028
2027
2027
2026
2029
2034
2041
2048
2054
2062
2070
2079
2083
2087
2080
2066
2051
2040
2035
2036
2042
2047
2048
2045
2041
2037
2034
2037
2038
2038
2040
2041
2042
2042
2043
2043
2043
2044
2045
2046
2046
2047
2048
2047
2049
2049
2050
2049
2048
2048
2050
2056
2061
2065
2064
2062
2059
2057
2059
2060
2062
2063
2064
2065
2067
2068
2069
2070
2070
2071
2072
2073
2074
2075
2075
2074
2073
2072
2071
2069
2067
2066
2068
2070
2073
2076
2075
2072
2071
2069
2071
2073
2075
2077
2077
2077
2077
2077
2077
2077
2078
2078
2079
2078
2078
2077
2074
2078
2077
2076
2076
2073
2071
2073
2078
2084
2087
2086
2083
2080
2077
2079
2080
2081
2083
2084
2085
2088
2089
2090
2091
2092
2094
2096
2097
2095
2093
2091
2094
2101
2107
2109
2107
2103
2100
2100
2104
2107
2108
2105
2102
2101
2102
2103
2104
2104
2105
2106
2106
2107
2108
2109
2110
2110
2110
2110
2110
2110
2111
2110
2114
2111
2110
2106
2103
2104
2109
2116
2120
2121
2119
2118
2120
2124
2135
2144
2154
2161
2165
2163
2155
2144
2132
2124
2120
2119
2120
2120
2120
2118
2118
2118
2118
2117
2115
2113
2113
2114
2117
2119
2118
2116
2113
2111
2110
2112
2113
2113
2113
2113
2113
2113
2113
2113
2112
2111
2110
2110
2109
2110
2111
2110
2114
2112
2113
2111
2109
2109
2111
2115
2118
2120
2118
2115
2113
2109
2112
2111
2112
2110
2111
2110
2109
2106
2103
2102
2101
2102
2102
2101
2098
2095
2092
2090
2093
2091
2089
2087
2086
2087
2090
2094
2096
2095
2091
2087
2084
2084
2085
2085
2085
2085
2085
2084
2083
2082
2080
2079
2078
2077
2076
2075
2074
2073
2071
2074
2071
2069
2065
2061
2062
2065
2070
2073
2071
2066
2060
2056
2052
2054
2052
2050
2049
2047
2046
2045
2043
2042
2041
2040
2038
2037
2035
2033
2032
2031
2032
2032
2031
2029
2027
2026
2028
2031
2033
2033
2030
2026
2024
2023
2027
2029
2029
2029
2028
2027
2026
2026
2026
2026
2027
2027
2027
2027
2027
2027
2024
2028
2024
2024
2021
2021
2025
2032
2043
2054
2065
2073
2077
2077
2068
2061
2048
2038
2031
2029
2030
2031
2031
2030
2028
2027
2025
2024
2023
2023
2022
2021
2023
2023
2023
2021
2018
2018
2019
2023
2027
2029
2028
2025
2022
2018
2021
2021
2022
2022
2023
2023
2024
2024
2025
2025
2025
2025
2024
2024
2024
2023
2024
2024
2025
2023
2023
2022
2020
2021
2023
2026
2029
2030
2029
2026
2022
2019
2018
2015
2016
2014
2013
2012
2011
2010
2008
2007
2006
2005
2004
2004
2004
2004
2004
2004
2004
2005
2004
2003
2002
2003
2005
2008
2010
2011
2009
2007
2005
2005
2005
2005
2005
2004
2004
2003
2002
2002
2002
2002
2002
2002
2002
2002
2002
2000
2002
2000
1998
1997
1995
1994
1995
1999
2004
2007
2007
2005
2003
1998
2001
2000
2001
2002
2001
2001
2002
2002
2002
2000
1999
1998
1998
1999
2000
2000
1999
1998
1999
2000
1999
1993
1989
1988
1993
2004
2013
2017
2014
2008
2003
2001
2005
2005
2006
2004
2002
2002
2002
2002
2002
2003
2003
2003
2003
2002
2001
2000
2001
2003
2007
2013
2017
2022
2029
2041
2053
2062
2062
2051
2035
2020
2010
2007
2007
2010
2009
2007
2006
2005
2005
2005
2005
2006
2006
2006
2007
2007
2007
2007
2007
2009
2009
2008
2007
2007
2010
2014
2017
2020
2018
2017
2015
2015
2017
2019
2019
2019
2020
2021
2022
2024
2025
2026
2027
2028
2029
2029
2030
2031
2031
2034
2033
2035
2034
2034
2034
2034
2036
2038
2039
2038
2035
2033
2030
2030
2030
2031
2031
2031
2030
2030
2029
2027
2027
2027
2028
2029
2030
2031
2032
2031
2033
2034
2035
2035
2035
2035
2037
2040
2044
2048
2047
2045
2042
2039
2040
2040
2041
2040
2040
2039
2039
2038
2037
2037
2036
2037
2038
2038
2037
2037
2037
2037
2038
2038
2038
2038
2038
2040
2043
2045
2046
2044
2041
2040
2038
2038
2039
2039
2039
2040
2041
2042
2043
2043
2044
2044
2044
2043
2042
2041
2041
2040
2041
2042
2043
2043
2042
2042
2043
2046
2048
2050
2050
2048
2045
2044
2043
2044
2044
2045
2046
2047
2048
2048
2048
2048
2048
2050
2054
2060
2067
2075
2085
2092
2102
2103
2100
2090
2076
2064
2058
2057
2059
2060
2057
2053
2049
2046
2048
2047
2048
2047
2047
2046
2045
2047
2048
2048
2048
2048
2048
2049
2051
2052
2051
2052
2054
2052
2052
2048
2046
2046
2052
2062
2071
2075
2070
2060
2051
2050
2057
2062
2069
2067
2063
2059
2057
2058
2060
2062
2062
2061
2060
2060
2058
2056
2053
2054
2052
2052
2048
2044
2040
2041
2046
2050
2052
2049
2044
2037
2034
2034
2035
2038
2037
2037
2037
2037
2037
2038
2038
2039
2039
2039
2039
2039
2040
2040
2042
2043
2043
2039
2035
2033
2035
2042
2049
2054
2052
2048
2044
2038
2039
2040
2040
2040
2039
2039
2038
2039
2039
2039
2039
2040
2040
2040
2040
2038
2036
2037
2037
2037
2035
2032
2032
2033
2040
2045
2046
2044
2040
2036
2032
2033
2035
2036
2038
2039
2040
2040
2041
2040
2038
2039
2039
2039
2041
2041
2041
2037
2037
2037
2038
2037
2034
2034
2034
2039
2046
2052
2056
2057
2060
2066
2076
2085
2088
2081
2069
2055
2044
2037
2035
2035
2035
2033
2032
2030
2029
2028
2028
2029
2030
2031
2029
2026
2023
2022
2026
2030
2035
2034
2032
2028
2026
2025
2025
2027
2026
2025
2027
2029
2030
2031
2030
2029
2029
2027
2027
2028
2028
2030
2029
2033
2035
2035
2034
2034
2034
2039
2043
2045
2044
2041
2038
2037
2036
2038
2037
2034
2033
2032
2030
2031
2030
2027
2027
2025
2024
2022
2022
2021
2022
2021
2026
2027
2025
2022
2017
2015
2017
2024
2031
2034
2033
2029
2024
2018
2020
2020
2021
2020
2020
2020
2019
2019
2018
2018
2017
2016
2015
2015
2016
2017
2015
2015
2015
2013
2011
2008
2005
2006
2010
2018
2022
2022
2019
2014
2011
2011
2013
2013
2013
2013
2013
2013
2013
2012
2011
2010
2010
2009
2009
2009
2008
2007
2008
2008
2009
2008
2005
2003
2001
2003
2009
2015
2017
2014
2010
2006
2006
2007
2009
2010
2009
2008
2007
2006
2006
2007
2007
2008
2009
2010
2010
2009
2009
2007
2011
2013
2017
2018
2018
2022
2032
2048
2064
2074
2070
2057
2039
2022
2017
2013
2014
2014
2013
2011
2008
2007
2007
2008
2008
2009
2009
2009
2009
2008
2007
2010
2010
2012
2009
2006
2003
2005
2010
2017
2022
2022
2018
2012
2007
2011
2014
2019
2021
2022
2018
2018
2016
2017
2020
2022
2024
2023
2024
2026
2027
2028
2033
2033
2030
2029
2024
2021
2022
2027
2037
2045
2048
2044
2035
2025
2019
2018
2017
2018
2019
2018
2018
2019
2019
2019
2019
2019
2020
2020
2020
2021
2020
2024
2025
2025
2024
2022
2021
2021
2025
2030
2033
2033
2031
2029
2027
2027
2028
2028
2029
2029
2030
2031
2032
2032
2033
2033
2034
2034
2034
2034
2035
2036
2037
2038
2039
2040
2039
2038
2039
2041
2045
2050
2054
2055
2055
2055
2054
2055
2057
2057
2058
2058
2058
2058
2057
2056
2055
2054
2053
2053
2053
2053
2053
2051
2054
2053
2054
2053
2052
2052
2053
2057
2061
2065
2067
2066
2065
2062
2065
2066
2068
2071
2071
2072
2073
2074
2074
2073
2073
2072
2070
2070
2071
2071
2069
2069
2069
2069
2071
2074
2081
2089
2101
2114
2124
2127
2122
2110
2096
2084
2076
2071
2070
2069
2069
2067
2065
2064
2062
2061
2061
2060
2060
2059
2058
2058
2058
2058
2058
2057
2055
2054
2054
2057
2063
2067
2067
2065
2062
2059
2059
2060
2062
2064
2064
2065
2066
2067
2067
2068
2068
2069
2070
2071
2072
2074
2075
2074
2077
2077
2076
2073
2071
2070
2074
2080
2085
2087
2084
2078
2074
2070
2072
2071
2070
2068
2067
2066
2064
2063
2061
2059
2057
2056
2055
2055
2056
2056
2055
2058
2055
2055
2053
2051
2050
2051
2055
2057
2059
2058
2056
2054
2051
2054
2053
2054
2053
2052
2052
2051
2051
2050
2050
2050
2049
2049
2049
2049
2049
2048
2049
2051
2050
2048
2044
2041
2042
2048
2054
2058
2057
2052
2048
2043
2042
2043
2042
2042
2041
2041
2040
2039
2039
2038
2039
2039
2038
2034
2031
2029
2031
2036
2042
2044
2040
2034
2029
2027
2030
2033
2036
2035
2032
2030
2028
2027
2027
2027
2026
2025
2024
2023
2022
2022
2023
2027
2031
2038
2044
2052
2061
2070
2075
2073
2064
2051
2038
2028
2024
2025
2029
2031
2030
2028
2025
2023
2021
2021
2022
2022
2022
2022
2023
2023
2024
2024
2024
2024
2023
2023
2024
2025
2026
2025
2029
2027
2028
2027
2026
2026
2028
2032
2035
2037
2036
2034
2034
2032
2036
2036
2038
2039
2040
2041
2042
2043
2044
2045
2046
2046
2046
2046
2047
2048
2048
2049
2048
2045
2041
2037
2037
2039
2043
2047
2048
2046
2042
2039
2038
2039
2039
2039
2038
2039
2040
2041
2041
2041
2042
2042
2042
2043
2043
2045
2045
2046
2048
2048
2048
2048
2046
2045
2046
2049
2054
2057
2056
2053
2049
2047
2048
2048
2048
2049
2048
2048
2049
2050
2050
2050
2051
2050
2050
2050
2050
2050
2050
2050
2053
2053
2051
2048
2046
2047
2050
2057
2062
2063
2059
2055
2052
2051
2055
2057
2057
2057
2056
2057
2056
2057
2057
2058
2058
2058
2059
2059
2059
2058
2057
2060
2059
2060
2058
2057
2058
2061
2066
2069
2070
2068
2065
2061
2058
2060
2059
2060
2060
2060
2060
2060
2061
2061
2060
2060
2059
2059
2060
2064
2068
2072
2079
2086
2096
2103
2107
2105
2100
2092
2086
2079
2073
2066
2060
2055
2053
2053
2052
2052
2051
2050
2050
2049
2049
2048
2048
2048
2048
2048
2049
2048
2048
2048
2049
2048
2047
2044
2042
2040
2042
2045
2048
2048
2045
2042
2040
2039
2040
2039
2041
2042
2043
2044
2045
2045
2045
2045
2045
2045
2045
2045
2044
2045
2044
2043
2042
2040
2037
2034
2032
2032
2033
2033
2032
2029
2024
2020
2017
2016
2015
2014
2013
2012
2011
2009
2008
2007
2005
2004
2002
2001
2000
1999
1999
1996
1998
1995
1994
1991
1989
1988
1989
1992
1994
1995
1993
1990
1987
1983
1985
1983
1984
1982
1981
1981
1980
1979
1978
1977
1976
1975
1973
1972
1970
1968
1966
1969
1971
1970
1967
1963
1960
1960
1964
1968
1969
1968
1967
1965
1964
1964
1965
1964
1963
1963
1964
1964
1964
1965
1965
1965
1965
1966
1966
1967
1966
1967
1967
1968
1969
1968
1966
1964
1964
1967
1972
1977
1978
1977
1974
1972
1972
1974
1976
1978
1980
1981
1983
1983
1984
1985
1985
1986
1987
1987
1988
1989
1990
1989
1993
1994
1993
1990
1987
1987
1990
1998
2007
2014
2017
2019
2022
2028
2042
2051
2056
2054
2046
2035
2024
2017
2015
2016
2017
2018
2019
2019
2019
2019
2018
2023
2023
2025
2023
2022
2021
2022
2027
2032
2036
2036
2035
2034
2031
2034
2033
2035
2036
2036
2037
2037
2039
2040
2042
2043
2044
2045
2045
2046
2047
2048
2050
2052
2052
2049
2047
2046
2049
2057
2065
2070
2069
2065
2061
2059
2060
2063
2064
2063
2062
2061
2060
2059
2059
2058
2057
2056
2055
2054
2053
2052
2051
2052
2052
2051
2050
2049
2049
2050
2054
2058
2061
2061
2058
2055
2052
2054
2055
2055
2056
2055
2055
2055
2055
2056
2057
2058
2059
2060
2059
2059
2059
2057
2059
2058
2057
2054
2051
2049
2050
2053
2057
2060
2059
2056
2052
2050
2050
2050
2051
2051
2050
2050
2051
2051
2052
2053
2053
2052
2051
2051
2051
2052
2053
2054
2055
2053
2053
2051
2049
2049
2051
2054
2056
2056
2054
2052
2049
2048
2048
2048
2049
2050
2050
2051
2052
2053
2053
2052
2051
2050
2050
2049
2049
2049
2048
2048
2050
2052
2052
2049
2047
2045
2048
2053
2059
2064
2068
2072
2078
2086
2095
2100
2099
2093
2082
2069
2059
2052
2050
2049
2049
2049
2048
2048
2048
2047
2045
2046
2048
2046
2042
2036
2034
2037
2048
2058
2062
2056
2047
2040
2038
2046
2051
2054
2051
2047
2043
2041
2042
2043
2044
2044
2044
2044
2044
2044
2045
2042
2046
2047
2047
2045
2042
2041
2044
2048
2052
2053
2050
2047
2044
2040
2043
2043
2042
2040
2038
2036
2033
2032
2031
2031
2031
2029
2028
2026
2024
2022
2019
2020
2017
2017
2016
2015
2015
2016
2019
2022
2023
2021
2017
2015
2012
2013
2013
2014
2014
2013
2013
2014
2014
2014
2014
2014
2014
2013
2013
2012
2012
2010
2010
2011
2011
2010
2008
2006
2006
2007
2011
2013
2013
2011
2008
2007
2006
2007
2007
2005
2004
2004
2005
2006
2006
2007
2006
2005
2005
2004
2004
2004
2004
2004
2006
2005
2004
2003
2002
2002
2004
2007
2009
2009
2008
2006
2005
2005
2007
2008
2010
2011
2011
2011
2011
2010
2009
2008
2007
2007
2007
2008
2008
2010
2009
2011
2011
2010
2007
2005
2006
2010
2016
2022
2027
2031
2036
2045
2052
2061
2062
2055
2044
2032
2022
2016
2014
2014
2013
2011
2009
2007
2006
2006
2006
2005
2006
2005
2006
2006
2005
2005
2006
2009
2012
2013
2013
2012
2010
2008
2010
2011
2013
2013
2014
2014
2014
2015
2015
2015
2015
2015
2016
2017
2019
2020
2019
2020
2021
2020
2019
2019
2020
2023
2027
2030
2030
2028
2024
2021
2019
2019
2019
2019
2017
2016
2014
2012
2010
2008
2007
2005
2004
2003
2002
2002
2001
2001
2001
2002
2000
1999
1996
1994
1995
1998
2004
2007
2006
2002
1998
1994
1994
1996
1996
1998
1998
1997
1997
1997
1996
1995
1995
1995
1995
1995
1995
1996
1995
1994
1996
1995
1992
1987
1983
1982
1985
1990
1994
1994
1989
1984
1980
1977
1980
1981
1981
1980
1980
1979
1979
1979
1979
1979
1979
1979
1979
1978
1978
1977
1975
1977
1976
1976
1973
1970
1970
1973
1978
1984
1986
1984
1980
1976
1973
1975
1976
1977
1978
1978
1979
1980
1981
1982
1983
1984
1985
1986
1987
1988
1989
1988
1990
1991
1991
1989
1987
1986
1988
1992
1998
2002
2003
2002
2000
1997
1998
2001
2004
2009
2015
2022
2029
2038
2048
2058
2066
2066
2059
2048
2036
2027
2023
2023
2026
2026
2024
2021
2019
2020
2025
2033
2039
2041
2038
2034
2031
2030
2034
2035
2038
2039
2041
2043
2045
2047
2048
2049
2050
2051
2051
2052
2052
2053
2053
2055
2056
2056
2056
2056
2057
2060
2064
2066
2067
2067
2064
2063
2063
2064
2064
2064
2064
2063
2063
2063
2063
2063
2063
2062
2061
2060
2059
2058
2056
2055
2055
2053
2052
2050
2048
2046
2045
2047
2049
2051
2050
2048
2047
2045
2048
2049
2053
2056
2057
2057
2056
2055
2054
2054
2056
2059
2061
2064
2066
2068
2068
2069
2070
2071
2072
2074
2077
2083
2090
2096
2099
2101
2100
2099
2098
2099
2100
2101
2101
2101
2102
2103
2104
2105
2105
2105
2105
2105
2106
2106
2106
2106
2106
2108
2106
2107
2103
2099
2096
2097
2102
2108
2111
2109
2105
2100
2099
2101
2101
2105
2104
2103
2100
2099
2097
2097
2096
2096
2096
2096
2095
2095
2094
2092
2093
2092
2091
2088
2085
2084
2086
2091
2095
2098
2097
2094
2093
2092
2096
2100
2104
2110
2116
2125
2132
2139
2142
2140
2133
2123
2116
2112
2110
2109
2105
2104
2098
2093
2086
2079
2075
2076
2081
2086
2088
2085
2080
2076
2072
2073
2072
2071
2069
2067
2065
2064
2062
2060
2059
2057
2055
2053
2052
2052
2053
2053
2056
2057
2058
2056
2055
2055
2057
2062
2065
2065
2061
2056
2050
2047
2046
2044
2042
2038
2033
2028
2024
2020
2017
2014
2010
2005
2000
1995
1991
1988
1985
1981
1973
1963
1951
1941
1936
1935
1937
1941
1943
1944
1943
1945
1946
1952
1958
1963
1969
1975
1982
1989
1998
2009
2021
2035
2046
2052
2057
2062
2067
2072
2079
2081
2079
2075
2071
2071
2076
2083
2090
2095
2096
2096
2094
2092
2092
2091
2091
2089
2087
2085
2082
2079
2076
2073
2070
2068
2066
2065
2066
2067
2070
2073
2076
2079
2083
2086
2087
2089
2091
2094
2099
2103
2105
2106
2105
2104
2106
2106
2107
2105
2102
2098
2094
2091
2087
2084
2082
2080
2078
2075
2073
2072
2070
2071
2075
2078
2081
2085
2092
2103
2116
2123
2122
2113
2099
2087
2082
2083
2088
2092
2094
2094
2093
2091
2089
2087
2086
2087
2089
2093
2099
2106
2111
2115
2119
2125
2132
2138
2139
2136
2133
2133
2139
2147
2150
2147
2138
2131
2125
2129
2131
2137
2140
2145
2151
2157
2161
2163
2161
2158
2154
2149
2145
2141
2137
2132
2128
2124
2119
2114
2110
2107
2108
2112
2116
2116
2113
2107
2102
2096
2095
2093
2090
2085
2080
2075
2071
2069
2070
2072
2075
2077
2080
2082
2084
2086
2085
2088
2085
2082
2073
2060
2048
2037
2031
2028
2025
2019
2012
2004
1996
1994
1992
1991
1991
1989
1986
1983
1981
1979
1978
1978
1979
1978
1976
1973
1971
1967
1967
1967
1967
1964
1961
1959
1960
1963
1969
1974
1976
1977
1975
1974
1974
1976
1977
1977
1978
1978
1978
1977
1976
1975
1974
1972
1971
1970
1969
1969
1970
1971
1973
1975
1975
1975
1975
1975
1977
1980
1982
1982
1980
1977
1973
1971
1970
1969
1969
1968
1967
1965
1964
1962
1960
1958
1957
1957
1957
1958
1961
1966
1971
1978
1984
1990
1996
2005
2016
2025
2030
2027
2018
2008
2000
1997
1998
2001
2003
2004
2003
2003
2003
2001
2000
1999
1999
1998
1998
1998
1999
2001
2004
2007
2013
2015
2016
2017
2018
2022
2027
2032
2035
2034
2031
2029
2028
2028
2031
2030
2029
2028
2026
2025
2024
2023
2022
2021
2020
2019
2018
2017
2018
2019
2018
2020
2019
2016
2012
2010
2010
2015
2022
2026
2026
2022
2017
2013
2009
2012
2012
2012
2012
2012
2012
2012
2013
2013
2014
2016
2016
2018
2018
2020
2022
2024
2028
2033
2035
2036
2035
2036
2041
2049
2059
2067
2071
2070
2070
2068
2071
2074
2073
2074
2073
2072
2072
2071
2071
2073
2074
2075
2077
2077
2077
2076
2075
2074
2075
2074
2072
2069
2066
2066
2070
2076
2080
2081
2077
2073
2070
2070
2073
2074
2074
2074
2074
2074
2074
2075
2076
2076
2076
2075
2073
2072
2071
2071
2069
2074
2075
2076
2075
2072
2072
2075
2083
2092
2098
2099
2095
2093
2091
2095
2099
2102
2105
2106
2108
2109
2109
2109
2109
2109
2109
2110
2111
2111
2112
2111
2113
2116
2118
2118
2115
2113
2113
2118
2126
2136
2144
2149
2153
2159
2167
2175
2178
2173
2164
2153
2143
2138
2135
2134
2134
2133
2133
2133
2136
2139
2143
2146
2150
2151
2149
2145
2142
2143
2147
2154
2160
2160
2156
2151
2148
2145
2149
2149
2151
2151
2151
2151
2151
2151
2151
2151
2152
2153
2152
2155
2156
2156
2155
2154
2152
2150
2149
2149
2150
2153
2157
2160
2160
2157
2153
2147
2145
2144
2144
2144
2143
2143
2142
2142
2141
2138
2137
2135
2132
2131
2129
2127
2125
2122
2121
2121
2120
2117
2113
2111
2111
2116
2122
2125
2125
2120
2116
2111
2113
2114
2115
2116
2114
2113
2112
2110
2110
2108
2108
2109
2110
2110
2112
2112
2111
2115
2115
2112
2112
2105
2101
2101
2104
2111
2116
2116
2112
2106
2100
2098
2098
2099
2101
2100
2100
2099
2099
2098
2097
2096
2095
2095
2095
2095
2093
2092
2090
2093
2091
2093
2090
2085
2083
2085
2092
2101
2107
2106
2101
2096
2093
2095
2093
2096
2095
2094
2093
2093
2093
2094
2093
2094
2095
2096
2096
2096
2096
2095
2097
2100
2105
2108
2109
2113
2123
2137
2147
2148
2139
2124
2111
2106
2109
2112
2109
2103
2096
2092
2094
2096
2096
2095
2093
2091
2092
2093
2095
2094
2091
2093
2091
2091
2088
2082
2081
2081
2090
2098
2102
2101
2094
2087
2080
2081
2081
2083
2085
2085
2087
2086
2086
2084
2085
2088
2088
2089
2090
2090
2091
2092
2095
2095
2093
2089
2086
2084
2089
2098
2106
2112
2110
2104
2098
2091
2091
2090
2090
2089
2087
2087
2086
2086
2085
2084
2082
2081
2081
2081
2082
2082
2083
2084
2085
2085
2083
2080
2077
2078
2082
2088
2093
2094
2090
2085
2080
2081
2083
2083
2085
2083
2083
2081
2080
2080
2079
2079
2079
2079
2079
2079
2079
2078
2081
2083
2084
2082
2079
2076
2076
2079
2086
2092
2092
2090
2084
2079
2077
2077
2078
2081
2082
2083
2082
2079
2078
2077
2079
2081
2083
2082
2081
2080
2080
2082
2083
2085
2084
2082
2078
2075
2077
2082
2088
2090
2090
2086
2080
2076
2076
2077
2081
2081
2081
2081
2080
2083
2082
2082
2082
2081
2079
2078
2078
2078
2077
2077
2077
2076
2073
2068
2064
2064
2067
2073
2078
2079
2077
2071
2067
2067
2070
2074
2080
2083
2089
2096
2103
2109
2109
2104
2092
2080
2070
2065
2063
2062
2060
2060
2060
2058
2051
2045
2040
2043
2052
2063
2069
2065
2055
2047
2040
2043
2045
2048
2048
2047
2046
2045
2046
2048
2049
2051
2050
2048
2045
2043
2042
2041
2046
2046
2045
2042
2039
2038
2041
2048
2054
2057
2056
2052
2049
2046
2049
2051
2052
2052
2053
2053
2051
2051
2049
2048
2048
2047
2046
2044
2042
2039
2037
2037
2035
2035
2032
2031
2030
2030
2032
2034
2036
2036
2034
2033
2031
2032
2031
2033
2033
2032
2032
2032
2032
2032
2032
2032
2032
2032
2031
2030
2030
2028
2028
2028
2028
2026
2024
2023
2024
2028
2031
2034
2033
2030
2028
2026
2026
2027
2029
2028
2028
2028
2027
2027
2027
2028
2028
2028
2028
2028
2028
2028
2029
2030
2031
2031
2031
2029
2028
2028
2031
2035
2039
2041
2039
2037
2035
2035
2037
2037
2039
2039
2039
2040
2042
2043
2044
2044
2044
2045
2044
2044
2044
2045
2046
2046
2047
2047
2045
2045
2046
2048
2052
2055
2055
2054
2051
2050
2050
2051
2054
2055
2055
2056
2057
2057
2057
2057
2056
2056
2055
2055
2055
2056
2056
2056
2058
2056
2055
2053
2051
2053
2058
2066
2075
2081
2085
2089
2094
2099
2104
2100
2093
2082
2071
2064
2061
2061
2061
2061
2060
2059
2059
2058
2059
2060
2059
2060
2061
2061
2059
2057
2057
2059
2065
2070
2073
2073
2072
2070
2068
2070
2070
2070
2071
2072
2073
2074
2075
2076
2077
2078
2079
2080
2081
2083
2084
2085
2087
2090
2092
2091
2086
2081
2080
2086
2097
2108
2111
2107
2098
2090
2087
2090
2090
2091
2089
2087
2086
2085
2084
2083
2083
2083
2082
2082
2081
2081
2079
2080
2082
2082
2081
2079
2076
2076
2080
2086
2090
2090
2088
2084
2081
2080
2084
2085
2085
2084
2084
2084
2083
2083
2083
2083
2082
2081
2080
2078
2078
2076
2072
2073
2070
2069
2065
2061
2058
2057
2061
2065
2069
2068
2063
2058
2053
2053
2053
2053
2053
2052
2051
2051
2050
2049
2049
2049
2049
2048
2048
2047
2046
2044
2045
2044
2045
2044
2042
2040
2040
2042
2045
2047
2046
2044
2041
2038
2038
2038
2039
2037
2036
2036
2035
2036
2035
2036
2036
2036
2037
2038
2039
2040
2040
2040
2041
2039
2038
2036
2035
2036
2038
2041
2043
2044
2043
2042
2039
2039
2040
2041
2045
2049
2055
2061
2068
2075
2082
2086
2086
2081
2071
2060
2051
2047
2046
2045
2045
2044
2041
2039
2039
2041
2044
2046
2045
2042
2039
2037
2036
2037
2038
2038
2038
2038
2038
2038
2040
2041
2041
2038
2035
2034
2037
2044
2049
2051
2052
2048
2042
2039
2040
2043
2048
2051
2055
2057
2056
2056
2057
2057
2061
2060
2060
2060
2061
2060
2060
2060
2059
2058
2056
2055
2054
2051
2050
2048
2045
2042
2040
2038
2034
2032
2030
2029
2030
2032
2032
2032
2030
2029
2028
2026
2027
2027
2027
2027
2028
2028
2028
2028
2028
2028
2028
2029
2029
2030
2031
2031
2031
2032
2032
2031
2029
2027
2027
2030
2034
2038
2039
2037
2033
2030
2028
2029
2028
2029
2029
2028
2028
2027
2027
2026
2026
2026
2027
2027
2028
2027
2028
2027
2029
2029
2028
2026
2024
2023
2026
2032
2036
2038
2035
2033
2030
2027
2030
2030
2028
2027
2028
2028
2029
2029
2029
2029
2030
2030
2030
2030
2029
2029
2028
2031
2030
2030
2027
2024
2024
2026
2032
2036
2038
2036
2033
2030
2028
2030
2030
2032
2032
2032
2032
2031
2031
2031
2031
2030
2030
2030
2029
2029
2028
2027
2029
2031
2032
2029
2023
2019
2020
2030
2044
2057
2064
2065
2064
2063
2070
2073
2072
2065
2052
2043
2037
2034
2034
2035
2034
2033
2032
2032
2032
2031
2030
2031
2031
2031
2029
2027
2026
2027
2030
2034
2038
2038
2035
2033
2030
2032
2033
2033
2033
2033
2033
2034
2035
2036
2037
2037
2038
2039
2040
2041
2042
2044
2046
2047
2048
2047
2045
2045
2046
2049
2054
2057
2057
2054
2051
2049
2048
2048
2048
2048
2048
2047
2045
2044
2042
2041
2040
2039
2038
2037
2036
2036
2035
2034
2034
2031
2031
2030
2028
2028
2029
2032
2035
2036
2036
2034
2031
2027
2028
2027
2029
2030
2030
2029
2029
2029
2029
2029
2029
2029
2030
2030
2030
2030
2029
2029
2029
2028
2027
2027
2025
2030
2031
2033
2032
2030
2029
2030
2032
2034
2035
2033
2031
2031
2030
2033
2032
2032
2032
2032
2032
2031
2031
2032
2032
2033
2032
2033
2033
2032
2029
2028
2030
2033
2039
2043
2043
2041
2037
2035
2034
2036
2036
2037
2036
2036
2036
2036
2036
2037
2036
2036
2036
2036
2036
2036
2036
2036
2038
2039
2038
2036
2032
2031
2032
2037
2042
2044
2042
2039
2037
2034
2038
2039
2040
2040
2040
2041
2040
2039
2038
2037
2037
2037
2037
2036
2036
2035
2033
2038
2036
2037
2034
2032
2032
2035
2043
2051
2058
2063
2068
2073
2077
2082
2077
2069
2058
2048
2043
2042
2043
2044
2044
2043
2043
2043
2042
2042
2042
2042
2043
2045
2046
2044
2041
2039
2040
2047
2054
2059
2059
2056
2051
2048
2048
2049
2052
2053
2053
2054
2054
2055
2056
2056
2057
2057
2058
2059
2060
2062
2063
2064
2067
2068
2067
2065
2063
2064
2068
2073
2079
2081
2079
2076
2074
2073
2074
2073
2072
2071
2070
2069
2069
2069
2069
2068
2068
2068
2068
2067
2067
2068
2067
2071
2071
2070
2068
2066
2066
2070
2076
2081
2082
2080
2076
2075
2073
2077
2079
2080
2080
2080
2081
2082
2083
2083
2083
2084
2084
2085
2087
2089
2090
2091
2092
2092
2093
2092
2091
2092
2094
2097
2100
2102
2101
2099
2097
2097
2098
2098
2101
2102
2103
2103
2104
2104
2105
2104
2105
2105
2106
2106
2108
2108
2109
2110
2110
2111
2110
2110
2111
2113
2119
2122
2123
2121
2118
2117
2119
2122
2125
2126
2125
2125
2126
2126
2130
2131
2132
2134
2135
2136
2137
2138
2139
2138
2140
2140
2139
2137
2134
2133
2136
2141
2147
2150
2149
2144
2139
2135
2134
2135
2135
2135
2135
2135
2134
2134
2133
2133
2133
2133
2133
2132
2131
2132
2133
2140
2148
2154
2157
2159
2161
2164
2167
2169
2164
2154
2141
2131
2125
2122
2124
2123
2120
2118
2117
2116
2115
2115
2113
2111
2110
2108
2107
2106
2106
2105
2103
2106
2103
2104
2101
2098
2097
2097
2099
2098
2098
2097
2098
2100
2102
2104
2100
2097
2093
2091
2093
2093
2095
2095
2096
2097
2098
2098
2098
2098
2097
2096
2095
2097
2097
2094
2090
2085
2083
2087
2095
2099
2097
2090
2080
2073
2068
2068
2068
2065
2062
2059
2057
2055
2054
2054
2053
2053
2052
2051
2051
2050
2048
2048
2048
2047
2045
2042
2039
2039
2041
2045
2048
2049
2047
2043
2039
2037
2038
2037
2037
2037
2036
2036
2036
2035
2034
2033
2031
2031
2030
2030
2030
2030
2030
2031
2030
2027
2024
2022
2021
2023
2026
2029
2029
2026
2023
2021
2018
2019
2019
2019
2018
2018
2018
2018
2018
2018
2018
2019
2018
2018
2018
2018
2018
2017
2018
2017
2019
2018
2017
2016
2016
2018
2020
2022
2022
2021
2019
2018
2019
2019
2021
2022
2022
2023
2024
2026
2026
2026
2026
2026
2026
2026
2027
2027
2028
2028
2028
2028
2027
2026
2025
2025
2027
2029
2036
2038
2040
2041
2043
2047
2056
2067
2074
2077
2072
2061
2048
2037
2032
2029
2029
2029
2030
2029
2029
2028
2027
2028
2027
2025
2022
2021
2022
2026
2032
2037
2037
2035
2032
2029
2028
2030
2030
2030
2030
2029
2029
2029
2030
2031
2032
2033
2034
2035
2035
2035
2036
2037
2039
2040
2040
2039
2038
2038
2042
2048
2052
2054
2052
2050
2048
2046
2048
2048
2048
2046
2045
2044
2043
2042
2040
2038
2037
2035
2033
2031
2030
2029
2027
2030
2028
2027
2024
2022
2021
2024
2029
2033
2035
2033
2030
2027
2025
2027
2026
2028
2028
2027
2027
2027
2028
2028
2029
2029
2028
2028
2026
2025
2024
2023
2023
2024
2023
2020
2015
2012
2014
2021
2028
2032
2030
2024
2018
2012
2013
2014
2016
2016
2016
2017
2017
2017
2017
2017
2017
2016
2016
2015
2015
2015
2014
2015
2017
2016
2014
2011
2008
2008
2012
2017
2022
2022
2019
2016
2011
2012
2013
2012
2013
2013
2014
2015
2016
2018
2019
2019
2019
2019
2019
2019
2019
2020
2019
2022
2021
2019
2016
2014
2014
2019
2025
2030
2030
2026
2022
2020
2019
2023
2024
2025
2024
2023
2023
2023
2023
2023
2023
2023
2024
2024
2024
2025
2024
2023
2023
2021
2022
2023
2025
2029
2035
2041
2048
2057
2064
2070
2071
2065
2056
2045
2037
2032
2031
2031
2031
2031
2030
2029
2028
2027
2027
2026
2026
2026
2026
2026
2027
2026
2026
2025
2024
2025
2028
2031
2034
2033
2033
2030
2029
2027
2030
2031
2033
2036
2037
2038
2036
2035
2034
2035
2037
2037
2038
2039
2040
2040
2040
2041
2041
2040
2038
2037
2038
2041
2047
2050
2051
2048
2044
2039
2036
2036
2034
2033
2031
2028
2027
2025
2023
2021
2020
2018
2017
2017
2016
2015
2014
2013
2015
2016
2015
2012
2009
2006
2007
2011
2015
2016
2014
2011
2008
2005
2009
2009
2009
2007
2007
2007
2007
2007
2006
2007
2008
2007
2008
2007
2007
2007
2005
2008
2007
2007
2004
2001
2000
2001
2004
2008
2011
2010
2007
2004
2001
2004
2003
2004
2004
2005
2005
2005
2006
2006
2006
2006
2006
2006
2005
2005
2005
2005
2004
2005
2006
2002
1997
1993
1993
1999
2010
2018
2018
2013
2005
1999
1996
1999
2003
2003
2003
2004
2004
2005
2005
2006
2007
2007
2008
2009
2009
2010
2010
2009
2011
2010
2009
2007
2005
2005
2008
2012
2018
2021
2021
2020
2018
2017
2018
2018
2018
2019
2020
2021
2023
2024
2025
2026
2026
2026
2026
2026
2027
2028
2031
2035
2042
2047
2050
2055
2062
2071
2079
2083
2080
2069
2055
2045
2037
2036
2037
2037
2036
2035
2034
2034
2034
2034
2034
2034
2034
2035
2036
2037
2038
2039
2040
2039
2040
2038
2036
2036
2039
2042
2046
2048
2048
2046
2045
2044
2045
2045
2047
2048
2049
2050
2052
2052
2052
2051
2049
2050
2054
2060
2066
2068
2065
2063
2059
2057
2058
2058
2059
2060
2064
2067
2068
2065
2062
2056
2051
2049
2048
2048
2047
2048
2048
2047
2044
2042
2040
2039
2040
2039
2039
2039
2039
2038
2039
2039
2038
2036
2033
2032
2034
2039
2044
2048
2047
2045
2041
2039
2040
2043
2044
2045
2045
2044
2044
2043
2043
2043
2043
2043
2043
2044
2044
2044
2043
2045
2048
2048
2045
2041
2036
2035
2041
2050
2058
2060
2054
2048
2044
2042
2046
2049
2050
2050
2052
2053
2054
2055
2055
2055
2055
2055
2055
2054
2055
2054
2052
2056
2055
2056
2054
2052
2050
2051
2055
2059
2062
2061
2059
2056
2054
2057
2056
2059
2059
2059
2059
2058
2057
2057
2058
2058
2059
2059
2058
2058
2058
2057
2057
2058
2056
2054
2053
2055
2063
2075
2088
2099
2105
2106
2103
2097
2087
2079
2069
2063
2059
2058
2058
2059
2058
2058
2057
2056
2055
2054
2054
2054
2054
2055
2056
2056
2053
2049
2047
2046
2048
2052
2057
2058
2056
2053
2050
2049
2051
2052
2053
2053
2053
2054
2054
2055
2055
2055
2055
2055
2055
2056
2057
2058
2058
2062
2062
2061
2059
2057
2057
2062
2068
2073
2073
2069
2065
2062
2058
2060
2059
2057
2055
2053
2052
2051
2050
2049
2048
2047
2045
2044
2043
2042
2042
2041
2040
2038
2039
2037
2036
2035
2035
2036
2038
2041
2041
2040
2038
2035
2035
2033
2035
2035
2036
2036
2035
2035
2034
2034
2034
2034
2034
2033
2033
2033
2033
2032
2032
2032
2030
2029
2028
2028
2030
2032
2034
2032
2030
2027
2023
2020
2020
2021
2021
2023
2025
2026
2025
2023
2022
2022
2022
2023
2022
2023
2023
2022
2020
2021
2021
2020
2018
2018
2019
2022
2027
2031
2032
2029
2025
2023
2021
2023
2025
2026
2026
2026
2026
2027
2028
2029
2030
2032
2032
2032
2032
2033
2033
2033
2035
2035
2034
2031
2028
2027
2029
2034
2039
2041
2040
2037
2034
2030
2032
2034
2036
2040
2045
2050
2054
2061
2068
2076
2081
2081
2074
2062
2051
2044
2039
2041
2042
2043
2038
2032
2030
2031
2039
2047
2051
2049
2045
2040
2034
2034
2033
2032
2032
2033
2037
2041
2043
2045
2044
2042
2043
2043
2044
2045
2045
2044
2045
2046
2048
2047
2044
2041
2043
2048
2056
2063
2064
2061
2057
2054
2055
2057
2061
2063
2063
2063
2063
2063
2063
2063
2063
2062
2061
2061
2059
2058
2057
2054
2055
2053
2051
2047
2042
2039
2042
2048
2054
2059
2057
2052
2047
2042
2044
2044
2045
2046
2046
2046
2047
2047
2047
2047
2048
2047
2047
2048
2048
2046
2048
2048
2048
2047
2044
2042
2041
2045
2049
2055
2055
2053
2049
2045
2045
2047
2047
2048
2047
2048
2047
2048
2047
2048
2048
2050
2051
2049
2049
2050
2050
2051
2051
2051
2051
2047
2045
2042
2044
2049
2055
2059
2059
2053
2048
2044
2044
2047
2050
2051
2052
2051
2052
2054
2055
2054
2054
2051
2051
2051
2053
2055
2054
2054
2053
2054
2052
2051
2049
2049
2053
2058
2061
2062
2060
2055
2055
2051
2052
2054
2054
2056
2060
2064
2065
2063
2058
2056
2055
2055
2057
2056
2056
2058
2055
2056
2056
2053
2050
2048
2048
2053
2059
2065
2070
2072
2072
2072
2076
2085
2095
2102
2102
2096
2085
2073
2064
2060
2059
2060
2061
2060
2058
2058
2057
2056
2060
2061
2060
2055
2049
2045
2048
2058
2070
2076
2074
2066
2060
2054
2057
2059
2061
2060
2061
2063
2064
2066
2066
2066
2066
2067
2068
2069
2071
2071
2069
2073
2074
2076
2074
2071
2071
2071
2079
2086
2092
2092
2087
2084
2079
2081
2081
2083
2084
2081
2081
2078
2077
2074
2073
2073
2073
2074
2072
2070
2068
2065
2065
2065
2064
2062
2060
2056
2059
2061
2065
2068
2069
2070
2072
2073
2070
2067
2063
2060
2060
2062
2064
2064
2064
2065
2066
2066
2066
2066
2066
2066
2066
2066
2067
2068
2066
2061
2059
2057
2059
2065
2070
2072
2070
2066
2062
2061
2063
2065
2065
2066
2066
2064
2063
2062
2062
2063
2064
2064
2063
2064
2064
2065
2064
2067
2066
2064
2063
2059
2060
2061
2067
2073
2074
2073
2068
2065
2063
2065
2066
2069
2068
2066
2066
2065
2064
2064
2066
2067
2069
2068
2068
2068
2067
2067
2067
2067
2068
2066
2064
2065
2069
2076
2084
2088
2087
2083
2077
2073
2072
2074
2076
2076
2076
2075
2075
2075
2074
2075
2075
2076
2077
2077
2078
2078
2077
2077
2078
2079
2083
2088
2095
2105
2116
2127
2134
2134
2128
2117
2105
2092
2090
2086
2085
2085
2085
2085
2085
2086
2085
2084
2083
2082
2083
2084
2087
2087
2088
2090
2090
2091
2089
2087
2088
2092
2097
2101
2103
2102
2099
2096
2094
2095
2096
2097
2100
2101
2103
2104
2104
2105
2106
2108
2109
2111
2112
2112
2112
2112
2116
2116
2116
2113
2110
2110
2114
2121
2126
2127
2122
2117
2113
2109
2111
2109
2107
2105
2103
2102
2100
2100
2098
2098
2100
2102
2104
2105
2106
2106
2104
2108
2107
2109
2107
2106
2105
2106
2109
2112
2115
2114
2112
2109
2107
2108
2107
2109
2109
2109
2109
2108
2108
2108
2108
2108
2108
2108
2107
2107
2107
2107
2105
2106
2103
2102
2097
2093
2092
2096
2103
2110
2112
2108
2100
2093
2088
2090
2089
2092
2090
2090
2089
2089
2089
2088
2087
2087
2086
2086
2086
2086
2085
2084
2084
2083
2082
2079
2077
2077
2078
2082
2084
2085
2082
2078
2074
2072
2073
2072
2071
2070
2068
2067
2066
2066
2066
2066
2066
2065
2065
2065
2064
2063
2061
2061
2062
2065
2068
2073
2078
2085
2094
2103
2108
2108
2101
2090
2077
2069
2064
2063
2063
2063
2062
2061
2061
2061
2060
2060
2060
2059
2059
2059
2059
2058
2059
2058
2058
2057
2056
2055
2055
2057
2059
2060
2059
2057
2055
2053
2054
2053
2054
2053
2053
2054
2054
2055
2055
2056
2057
2058
2059
2061
2063
2064
2066
2067
2069
2070
2070
2069
2069
2070
2073
2077
2078
2077
2073
2069
2066
2064
2063
2063
2061
2058
2056
2054
2052
2052
2053
2054
2053
2051
2049
2047
2046
2046
2046
2047
2045
2044
2041
2040
2041
2045
2049
2052
2052
2049
2046
2042
2040
2042
2042
2043
2042
2042
2042
2042
2041
2041
2041
2041
2041
2040
2040
2040
2040
2039
2040
2040
2039
2036
2034
2032
2034
2038
2042
2043
2041
2038
2035
2033
2034
2035
2034
2032
2032
2033
2033
2034
2033
2034
2034
2035
2035
2035
2035
2035
2034
2037
2036
2036
2035
2034
2032
2032
2034
2037
2041
2041
2039
2035
2032
2032
2031
2031
2033
2033
2032
2032
2032
2033
2034
2034
2034
2034
2034
2033
2033
2032
2030
2032
2031
2030
2026
2023
2023
2028
2036
2042
2043
2041
2036
2031
2029
2033
2039
2045
2050
2056
2063
2072
2080
2087
2090
2086
2077
2066
2058
2054
2052
2052
2055
2053
2052
2048
2044
2042
2045
2050
2056
2058
2056
2050
2045
2041
2043
2042
2042
2041
2040
2039
2038
2037
2036
2036
2036
2035
2035
2035
2034
2034
2034
2036
2037
2038
2037
2035
2034
2034
2037
2041
2044
2044
2042
2040
2037
2036
2037
2037
2038
2037
2037
2037
2036
2035
2033
2032
2030
2029
2027
2027
2025
2023
2022
2019
2019
2017
2015
2014
2013
2014
2015
2015
2014
2013
2010
2008
2009
2008
2010
2010
2011
2011
2011
2011
2010
2011
2010
2010
2010
2010
2011
2011
2011
2011
2011
2011
2010
2009
2008
2009
2011
2013
2014
2013
2010
2008
2007
2006
2008
2009
2009
2009
2010
2011
2010
2006
2003
2003
2006
2013
2020
2024
2022
2017
2011
2009
2008
2009
2010
2009
2011
2015
2017
2018
2016
2013
2010
2009
2008
2011
2011
2011
2012
2012
2012
2012
2012
2012
2012
2013
2013
2013
2014
2013
2014
2012
2016
2017
2017
2016
2014
2013
2015
2020
2025
2027
2026
2023
2021
2020
2023
2026
2028
2029
2030
2030
2030
2031
2030
2030
2029
2029
2028
2028
2029
2029
2029
2031
2035
2034
2032
2028
2027
2032
2043
2053
2063
2068
2069
2072
2077
2082
2084
2078
2067
2056
2048
2046
2045
2047
2047
2046
2046
2046
2046
2047
2047
2047
2046
2049
2049
2049
2047
2044
2044
2048
2056
2062
2063
2059
2054
2052
2051
2058
2061
2064
2064
2066
2067
2068
2069
2071
2072
2073
2074
2074
2074
2075
2075
2076
2078
2079
2079
2078
2077
2077
2079
2083
2085
2086
2084
2081
2078
2077
2078
2077
2076
2074
2073
2072
2071
2069
2068
2067
2066
2065
2065
2065
2064
2065
2065
2065
2065
2064
2062
2060
2060
2061
2065
2069
2070
2068
2066
2064
2063
2064
2066
2068
2069
2069
2069
2069
2069
2068
2067
2066
2065
2064
2063
2063
2064
2063
2065
2064
2067
2066
2066
2065
2066
2068
2070
2072
2072
2070
2067
2065
2065
2064
2067
2067
2067
2067
2066
2064
2062
2061
2059
2058
2058
2057
2057
2056
2056
2055
2056
2053
2051
2049
2048
2050
2053
2057
2057
2055
2052
2049
2048
2048
2051
2051
2052
2052
2052
2052
2053
2051
2050
2049
2048
2049
2052
2055
2056
2055
2052
2051
2052
2050
2050
2047
2046
2048
2056
2067
2077
2083
2084
2085
2087
2091
2093
2089
2081
2070
2060
2053
2049
2048
2048
2047
2046
2045
2044
2042
2041
2039
2041
2041
2040
2039
2036
2034
2035
2039
2043
2047
2047
2046
2043
2040
2041
2041
2040
2042
2043
2044
2043
2043
2041
2041
2042
2042
2043
2043
2044
2044
2043
2047
2047
2048
2048
2047
2047
2048
2052
2055
2057
2056
2053
2050
2048
2049
2048
2048
2047
2046
2044
2041
2040
2038
2037
2035
2034
2032
2031
2030
2029
2028
2027
2028
2026
2024
2021
2019
2021
2025
2032
2036
2035
2032
2027
2024
2022
2025
2025
2026
2027
2027
2028
2029
2029
2028
2028
2027
2026
2026
2026
2026
2026
2026
2027
2027
2026
2023
2021
2021
2024
2028
2031
2031
2029
2027
2026
2026
2030
2032
2034
2034
2035
2035
2036
2035
2035
2034
2034
2033
2033
2034
2034
2034
2034
2036
2036
2034
2032
2030
2031
2035
2041
2045
2046
2043
2039
2036
2032
2035
2035
2036
2036
2037
2038
2038
2038
2039
2040
2041
2042
2042
2042
2041
2040
2040
2039
2038
2038
2036
2034
2032
2032
2033
2035
2037
2036
2034
2031
2030
2032
2035
2042
2046
2049
2055
2063
2070
2074
2072
2063
2051
2041
2033
2030
2029
2030
2030
2029
2028
2026
2024
2024
2024
2027
2030
2032
2032
2029
2027
2025
2024
2026
2027
2028
2028
2029
2030
2031
2033
2033
2033
2032
2033
2034
2037
2039
2041
2040
2039
2039
2038
2037
2039
2040
2044
2048
2051
2052
2051
2049
2048
2048
2049
2050
2049
2048
2048
2048
2047
2046
2044
2042
2040
2038
2035
2033
2030
2029
2027
2027
2026
2023
2020
2016
2013
2015
2018
2022
2024
2022
2019
2016
2012
2012
2013
2011
2010
2010
2010
2011
2011
2011
2010
2010
2010
2010
2010
2010
2010
2008
2009
2010
2010
2008
2003
1999
1999
2004
2011
2017
2018
2014
2008
2003
2001
2002
2003
2004
2003
2003
2003
2003
2003
2003
2003
2003
2003
2003
2003
2003
2003
2003
2003
2002
2003
2002
2000
1999
2000
2004
2008
2010
2009
2006
2003
2001
2002
2003
2005
2005
2005
2005
2005
2006
2006
2006
2007
2007
2007
2008
2010
2012
2012
2016
2015
2014
2011
2011
2013
2016
2017
2017
2017
2017
2019
2022
2022
2022
2017
2015
2013
2015
2016
2017
2017
2018
2021
2026
2031
2037
2042
2048
2056
2062
2067
2065
2057
2046
2035
2028
2025
2028
2031
2033
2033
2031
2030
2027
2028
2029
2030
2031
2031
2032
2033
2034
2035
2035
2035
2035
2036
2036
2038
2039
2039
2041
2040
2041
2041
2040
2041
2043
2047
2049
2052
2053
2053
2051
2050
2052
2052
2055
2057
2060
2062
2064
2065
2066
2067
2068
2069
2071
2073
2075
2076
2077
2076
2077
2075
2073
2071
2070
2070
2072
2074
2074
2072
2068
2064
2063
2061
2064
2065
2067
2067
2069
2070
2071
2072
2070
2074
2073
2072
2070
2070
2071
2074
2076
2078
2078
2074
2070
2068
2068
2073
2077
2080
2080
2078
2074
2073
2072
2074
2075
2076
2076
2077
2079
2081
2082
2083
2084
2083
2083
2083
2083
2083
2084
2083
2084
2086
2084
2082
2080
2077
2079
2083
2089
2092
2091
2087
2084
2081
2083
2085
2087
2087
2087
2087
2086
2087
2087
2087
2088
2088
2087
2087
2087
2087
2085
2088
2088
2088
2088
2086
2085
2086
2089
2092
2093
2092
2089
2085
2083
2084
2084
2084
2084
2083
2083
2083
2082
2081
2081
2083
2087
2093
2100
2107
2114
2120
2124
2127
2122
2113
2097
2083
2075
2076
2084
2094
2098
2093
2085
2077
2071
2073
2073
2075
2073
2072
2072
2072
2072
2072
2072
2072
2073
2073
2073
2073
2073
2073
2074
2075
2074
2073
2071
2071
2074
2078
2081
2081
2079
2076
2074
2073
2075
2075
2076
2076
2077
2078
2079
2079
2080
2080
2079
2079
2079
2079
2079
2079
2078
2077
2076
2073
2071
2069
2068
2068
2070
2071
2069
2066
2062
2059
2056
2056
2056
2056
2055
2055
2055
2055
2054
2054
2053
2053
2053
2052
2051
2052
2052
2052
2053
2052
2053
2052
2051
2051
2051
2053
2056
2058
2059
2059
2056
2053
2052
2051
2053
2053
2054
2054
2055
2055
2055
2055
2055
2055
2055
2056
2057
2057
2057
2056
2057
2055
2054
2053
2054
2056
2060
2063
2063
2060
2056
2054
2053
2052
2055
2054
2055
2055
2055
2055
2054
2054
2053
2052
2054
2053
2052
2051
2051
2053
2054
2055
2054
2052
2049
2048
2048
2050
2055
2059
2062
2063
2061
2058
2055
2055
2055
2055
2055
2055
2054
2053
2053
2053
2054
2054
2055
2055
2055
2054
2053
2052
2056
2059
2060
2065
2067
2070
2078
2089
2101
2108
2106
2098
2085
2071
2065
2061
2059
2060
2060
2059
2059
2059
2058
2058
2058
2058
2058
2058
2058
2058
2057
2059
2058
2058
2057
2055
2055
2057
2061
2064
2067
2066
2064
2061
2058
2060
2058
2059
2058
2058
2058
2059
2059
2060
2060
2061
2061
2062
2063
2064
2064
2066
2065
2067
2069
2067
2063
2059
2058
2063
2072
2081
2082
2077
2068
2059
2053
2054
2055
2055
2053
2053
2052
2052
2052
2051
2051
2051
2051
2050
2050
2050
2050
2050
2050
2051
2051
2049
2048
2048
2048
2050
2053
2054
2053
2050
2048
2046
2046
2046
2046
2046
2045
2045
2045
2045
2045
2046
2045
2045
2044
2043
2042
2042
2041
2042
2041
2039
2037
2036
2036
2038
2041
2042
2042
2039
2036
2034
2032
2031
2031
2030
2030
2029
2029
2029
2030
2030
2030
2030
2029
2028
2028
2028
2029
2028
2029
2028
2027
2026
2025
2025
2026
2100
2040
1844
1876
2067
2419
2724
2692
2177
1312
454
4022
3918
3
383
666
760
980
1157
1285
1378
1454
1531
1599
1658
1712
1759
1801
1840
1875
1906
1934
1960
1984
2005
2025
2042
2058
2073
2088
2104
2119
2134
2147
2161
2175
2189
2200
2207
2207
2202
2195
2189
2187
2189
2191
2194
2196
2197
2198
2200
2201
2202
2203
2204
2205
2206
2207
2209
2210
2210
2211
2211
2211
2212
2212
2213
2213
2214
2214
2214
2215
2215
2216
2216
2216
2217
2217
2217
2218
2218
2218
2218
2219
2220
2221
2222
2223
2224
2225
2225
2225
2225
2225
2226
2227
2229
2231
2233
2234
2235
2235
2234
2232
2230
2228
2226
2224
2221
2218
2216
2214
2212
2210
2209
2207
2205
2204
2203
2201
2199
2196
2194
2191
2189
2187
2185
2184
2183
2182
2182
2181
2181
2179
2177
2175
2172
2170
2169
2167
2165
2162
2158
2154
2151
2147
2144
2142
2140
2137
2135
2132
2129
2125
2121
2116
2110
2104
2097
2091
2085
2080
2076
2073
2069
2065
2060
2053
2048
2043
2038
2035
2032
2030
2027
2025
2024
2022
2020
2017
2013
2009
2004
2000
1997
1995
1993
1990
1988
1986
1984
1983
1982
1982
1981
1979
1978
1978
1979
1981
1983
1985
1987
1988
1988
1989
1991
1993
1995
1997
1998
2000
2001
2001
2002
2003
2003
2002
2002
2001
2001
2001
2001
2001
2000
2000
2000
2002
2005
2010
2017
2024
2030
2038
2046
2053
2057
2055
2048
2039
1958
2055
2224
2171
1936
1542
1234
1322
1919
2836
3694
98
185
26
3796
3577
3502
3275
3072
2912
2793
2702
2616
2536
2465
2403
2347
2295
2248
2206
2169
2138
2112
2088
2065
2042
2020
2000
1982
1968
1955
1942
1930
1920
1911
1902
1895
1889
1883
1879
1876
1871
1870
1864
1858
1852
1850
1853
1859
1860
1858
1854
1850
1850
1852
1851
1849
1841
1834
1828
1828
1828
1829
1828
1828
1828
1827
1827
1828
1829
1829
1829
1831
1830
1831
1832
1831
1836
1838
1838
1836
1833
1832
1835
1842
1850
1856
1856
1854
1853
1852
1857
1859
1859
1859
1859
1862
1864
1867
1868
1869
1870
1871
1872
1873
1876
1877
1877
1880
1882
1884
1883
1882
1882
1885
1891
1898
1904
1905
1900
1896
1892
1892
1891
1894
1897
1900
1903
1906
1905
1905
1905
1907
1910
1913
1915
1915
1912
1910
1910
1913
1913
1915
1911
1908
1908
1915
1926
1935
1938
1934
1927
1924
1925
1936
1945
1957
1965
1972
1976
1976
1971
1961
1951
1943
1939
1937
1938
1939
1939
1938
1940
1940
1940
1936
1933
1932
1937
1945
1953
1957
1954
1948
1943
1939
1944
1946
1949
1949
1950
1951
1952
1953
1954
1955
1955
1956
1956
1956
1956
1957
1956
1961
1961
1962
1960
1958
1958
1962
1970
1978
1983
1983
1979
1975
1972
1975
1977
1979
1979
1979
1979
1980
1979
1978
1976
1975
1974
1973
1972
1970
1969
1967
1969
1969
1969
1965
1960
1959
1962
1969
1976
1980
1979
1973
1968
1965
1967
1970
1974
1974
1973
1971
1971
1971
1973
1973
1974
1973
1974
2049
1985
1788
1818
2011
2368
2685
2664
2164
1310
459
4028
3917
4086
359
631
721
945
1128
1264
1364
1444
1526
1597
1661
1718
1768
1814
1855
1892
1925
1956
1983
2009
2032
2052
2071
2089
2105
2120
2134
2147
2159
2170
2181
2190
2199
2207
2213
2219
2224
2229
2233
2237
2242
2246
2249
2252
2256
2259
2262
2263
2264
2265
2267
2270
2275
2281
2287
2293
2300
2307
2314
2319
2319
2313
2303
2293
2285
2282
2281
2281
2280
2279
2277
2276
2275
2275
2274
2274
2273
2273
2272
2271
2270
2270
2269
2269
2268
2268
2267
2267
2266
2265
2264
2264
2263
2263
2263
2262
2261
2260
2259
2258
2258
2257
2257
2256
2255
2254
2253
2252
2252
2251
2251
2251
2251
2251
2251
2250
2249
2248
2246
2245
2244
2242
2240
2239
2237
2235
2232
2229
2226
2223
2221
2219
2217
2215
2213
2212
2210
2208
2206
2204
2203
2201
2200
2199
2198
2197
2196
2194
2194
2193
2191
2190
2189
2187
2186
2185
2184
2183
2182
2181
2179
2178
2178
2177
2176
2175
2174
2173
2172
2171
2170
2169
2168
2167
2165
2164
2163
2162
2161
2160
2158
2157
2156
2154
2153
2152
2151
2150
2149
2148
2147
2146
2145
2144
2143
2143
2141
2140
2138
2137
2136
2135
2134
2134
2133
2132
2131
2130
2129
2128
2128
2127
2127
2128
2128
2128
2129
2128
2127
2126
2124
2122
2121
2120
2119
2118
2117
2116
2116
2115
2114
2113
2111
2109
2109
2109
2037
2081
2319
2314
2134
1752
1364
1296
1740
2589
3491
1
186
87
3884
3666
3626
3407
3191
3011
2873
2768
2681
2593
2515
2446
2383
2327
2276
2231
2190
2152
2118
2087
2057
2033
2008
1985
1964
1942
1924
1911
1902
1894
1886
1875
1862
1849
1836
1829
1823
1817
1813
1807
1803
1800
1796
1793
1790
1788
1786
1784
1782
1779
1777
1775
1773
1776
1776
1774
1768
1761
1756
1755
1758
1762
1764
1761
1757
1752
1750
1750
1749
1748
1745
1746
1746
1747
1748
1747
1747
1746
1747
1747
1749
1750
1751
1751
1753
1752
1753
1752
1752
1754
1758
1763
1767
1769
1769
1767
1764
1763
1766
1765
1768
1769
1770
1771
1772
1773
1775
1776
1778
1780
1782
1783
1786
1787
1789
1790
1793
1792
1794
1791
1789
1791
1797
1808
1819
1824
1824
1819
1814
1811
1815
1817
1822
1823
1825
1826
1828
1830
1832
1833
1835
1837
1838
1840
1842
1843
1846
1848
1851
1852
1852
1853
1856
1862
1869
1874
1877
1876
1876
1874
1877
1879
1881
1883
1883
1885
1887
1889
1891
1892
1894
1895
1897
1899
1901
1901
1901
1904
1907
1911
1916
1921
1928
1937
1949
1960
1967
1967
1959
1946
1935
1927
1924
1924
1926
1928
1929
1930
1931
1932
1933
1934
1936
1937
1938
1940
1942
1944
1944
1946
1947
1949
1950
1951
1952
1955
1958
1963
1966
1968
1968
1967
1967
1969
1971
1975
1976
1978
1979
1981
1983
1985
1988
1990
1992
1994
1997
2000
2003
2006
2009
2012
2012
2013
2014
2016
2019
2023
2026
2027
2025
2021
2019
2018
2017
2018
2089
2025
1830
1863
2054
2406
2710
2676
2163
1301
449
4021
3918
5
390
678
779
1005
1186
1319
1418
1501
1584
1656
1720
1777
1829
1875
1916
1954
1988
2018
2046
2070
2094
2115
2134
2152
2168
2183
2197
2210
2221
2232
2241
2250
2259
2266
2274
2280
2286
2291
2296
2300
2304
2308
2312
2315
2318
2321
2324
2325
2327
2328
2330
2331
2332
2333
2334
2334
2335
2335
2335
2334
2334
2334
2335
2335
2335
2336
2336
2337
2337
2336
2335
2334
2333
2332
2331
2330
2329
2328
2328
2327
2327
2327
2326
2325
2323
2322
2322
2324
2328
2331
2335
2339
2345
2350
2353
2351
2344
2332
2319
2310
2305
2302
2302
2301
2299
2296
2294
2292
2291
2290
2289
2288
2288
2287
2285
2284
2283
2282
2281
2280
2279
2279
2278
2277
2276
2276
2275
2274
2274
2273
2273
2271
2270
2269
2267
2266
2265
2264
2264
2263
2262
2263
2263
2263
2263
2263
2262
2262
2261
2260
2259
2257
2256
2255
2254
2252
2250
2248
2245
2243
2240
2237
2235
2233
2230
2228
2225
2223
2221
2219
2217
2216
2214
2212
2210
2207
2205
2202
2201
2199
2197
2196
2194
2193
2191
2190
2189
2189
2188
2187
2186
2185
2184
2182
2181
2180
2179
2177
2175
2174
2172
2171
2170
2169
2169
2168
2167
2167
2166
2165
2164
2163
2161
2160
2159
2159
2158
2157
2156
2155
2155
2154
2154
2153
2153
2153
2152
2151
2151
2150
2150
2149
2149
2149
2148
2147
2070
2109
2341
2325
2136
1754
1376
1326
1784
2633
3521
10
180
78
3882
3677
3646
3429
3216
3031
2890
2784
2701
2618
2545
2477
2413
2353
2297
2250
2208
2169
2135
2101
2071
2046
2021
1999
1978
1960
1943
1928
1914
1900
1887
1876
1870
1868
1866
1861
1856
1851
1851
1855
1858
1854
1842
1824
1805
1793
1787
1785
1785
1784
1782
1776
1770
1765
1764
1766
1772
1776
1777
1772
1766
1762
1759
1758
1762
1761
1761
1761
1759
1759
1761
1765
1770
1773
1773
1771
1769
1768
1771
1773
1773
1775
1776
1777
1778
1780
1782
1783
1784
1785
1786
1788
1790
1792
1793
1794
1795
1797
1797
1797
1797
1797
1800
1804
1807
1807
1805
1802
1799
1798
1798
1800
1799
1799
1799
1799
1800
1801
1801
1801
1802
1803
1804
1806
1808
1810
1811
1815
1814
1814
1811
1810
1812
1818
1827
1834
1838
1836
1833
1830
1828
1833
1833
1835
1836
1838
1839
1841
1842
1843
1845
1846
1848
1850
1851
1853
1854
1854
1857
1859
1860
1861
1861
1862
1864
1868
1873
1875
1875
1873
1871
1870
1871
1873
1874
1875
1876
1877
1878
1879
1880
1880
1881
1882
1882
1882
1884
1885
1885
1887
1887
1887
1886
1884
1884
1887
1892
1896
1898
1898
1895
1893
1891
1893
1895
1896
1897
1897
1897
1898
1898
1899
1900
1902
1903
1905
1907
1908
1909
1909
1908
1909
1908
1907
1906
1906
1906
1908
1912
1915
1915
1913
1909
1907
1906
1908
1912
1916
1920
1925
1930
1936
1943
1950
1954
1953
1945
1933
1922
1915
1912
1910
1910
1909
1908
1906
1904
1837
1875
2101
2084
1900
1537
1195
1191
1694
2585
3503
10
188
83
3888
3669
3631
3414
3205
3033
2906
2814
2739
2664
2598
2543
2495
2454
2416
2380
2347
2316
2291
2269
2250
2234
2217
2203
2190
2178
2167
2156
2147
2139
2130
2123
2117
2112
2107
2102
2097
2092
2087
2082
2077
2074
2070
2066
2060
2055
2050
2047
2046
2047
2046
2045
2042
2039
2036
2034
2033
2032
2031
2030
2029
2028
2027
2026
2025
2024
2023
2023
2021
2021
2019
2018
2017
2016
2016
2016
2016
2015
2015
2013
2011
2010
2009
2008
2008
2006
2005
2003
2001
2001
1999
1998
1997
1996
1996
1995
1993
1991
1990
1989
1988
1987
1986
1986
1986
1985
1985
1985
1985
1985
1985
1986
1986
1987
1988
1988
1987
1984
1982
1982
1982
1984
1986
1987
1989
1989
1989
1990
1990
1990
1989
1989
1990
1990
1991
1991
1992
1993
1994
1994
1994
1996
1997
1997
1998
1998
2000
2000
2002
2004
2005
2006
2006
2007
2009
2009
2010
2010
2011
2012
2011
2012
2012
2012
2013
2013
2014
2015
2018
2024
2029
2037
2043
2050
2059
2065
2070
2069
2063
2054
2045
2039
2036
2036
2037
2037
2037
2037
2037
2037
2036
2037
2037
2037
2037
2037
2038
2037
2037
2038
2037
2038
2038
2040
2041
2042
2043
2044
2045
2045
2045
2046
2047
2047
2048
2048
2050
2052
2053
2055
2056
2058
2060
2062
2066
2069
2072
2073
2075
2077
2078
2080
2082
2083
2083
2082
2144
2133
1913
1912
2057
2382
2726
2790
2384
1573
679
44
3919
4001
138
439
487
705
909
1072
1187
1268
1330
1393
1447
1493
1535
1572
1603
1629
1649
1668
1686
1707
1727
1744
1756
1763
1772
1778
1788
1798
1806
1813
1819
1824
1829
1834
1839
1844
1848
1853
1856
1860
1863
1866
1867
1873
1875
1878
1880
1879
1881
1884
1890
1897
1901
1903
1903
1902
1901
1904
1906
1906
1908
1909
1911
1914
1916
1918
1920
1921
1922
1924
1925
1928
1930
1933
1932
1938
1936
1938
1934
1930
1928
1932
1942
1953
1959
1959
1954
1949
1944
1948
1949
1954
1957
1962
1969
1977
1984
1992
1999
2006
2008
2004
1996
1986
1978
1971
1973
1972
1973
1970
1967
1967
1971
1977
1982
1983
1982
1979
1976
1973
1979
1979
1980
1981
1982
1983
1984
1985
1986
1986
1987
1988
1989
1990
1991
1992
1993
1996
1998
1999
1998
1998
1998
2000
2004
2007
2008
2008
2006
2006
2005
2007
2009
2010
2011
2011
2012
2013
2014
2015
2015
2015
2014
2014
2013
2013
2012
2011
2010
2008
2004
2001
1999
2000
2004
2009
2010
2007
2003
1999
1996
1996
1998
1999
1999
1999
1999
1998
1998
1997
1997
1997
1996
1996
1996
1996
1997
1997
1997
1999
1999
1998
1996
1995
1995
1997
2002
2006
2007
2005
2002
1999
1997
1998
1999
1999
1999
1999
1998
1998
1998
1998
1998
1998
1998
1998
1998
1998
1998
1997
1998
1997
1996
1995
1992
1989
1989
1992
1998
2004
2006
2005
2000
1996
1992
1993
1994
1995
1997
1997
1998
1999
2000
2000
2001
2001
2000
2001
2001
2001
2001
2002
2005
2007
2008
2004
2001
2000
2002
2008
2015
2020
2022
2022
2024
1956
2015
2231
2206
2018
1662
1345
1370
1889
2748
3598
32
163
52
3877
3706
3697
3505
3308
3143
3019
2931
2865
2799
2739
2686
2639
2598
2564
2532
2502
2475
2450
2429
2411
2395
2381
2367
2353
2341
2330
2320
2311
2303
2295
2288
2282
2276
2271
2266
2262
2259
2256
2253
2248
2244
2242
2239
2237
2235
2232
2229
2227
2225
2224
2222
2220
2218
2214
2211
2208
2205
2202
2199
2197
2193
2191
2187
2186
2184
2183
2182
2180
2179
2177
2176
2175
2173
2172
2171
2170
2169
2169
2167
2165
2163
2163
2162
2161
2161
2160
2159
2158
2157
2156
2154
2153
2152
2151
2150
2149
2149
2148
2148
2147
2146
2145
2143
2142
2141
2140
2139
2138
2137
2136
2135
2134
2133
2133
2133
2132
2132
2131
2131
2130
2128
2128
2127
2126
2125
2124
2123
2121
2120
2118
2116
2116
2114
2114
2114
2113
2113
2111
2110
2110
2108
2108
2108
2107
2107
2107
2107
2107
2108
2108
2107
2107
2105
2104
2103
2102
2101
2100
2100
2100
2099
2099
2098
2097
2097
2096
2095
2094
2094
2096
2098
2103
2108
2113
2118
2125
2132
2137
2137
2131
2120
2109
2100
2095
2095
2095
2095
2093
2092
2091
2091
2092
2092
2092
2090
2089
2089
2088
2088
2089
2088
2089
2089
2089
2089
2089
2089
2090
2090
2091
2091
2091
2090
2091
2091
2092
2092
2093
2093
2093
2093
2096
2098
2101
2102
2101
2100
2098
2098
2099
2100
2103
2102
2102
2103
2170
2144
1922
1945
2118
2459
2776
2768
2281
1427
552
4077
3915
4031
213
470
521
738
941
1093
1201
1274
1334
1395
1449
1498
1538
1571
1597
1618
1638
1656
1676
1691
1705
1717
1728
1739
1749
1757
1765
1771
1778
1784
1789
1794
1799
1804
1807
1812
1815
1819
1825
1824
1823
1823
1826
1836
1847
1854
1857
1854
1849
1849
1851
1855
1861
1863
1866
1868
1870
1872
1875
1877
1879
1882
1883
1885
1888
1888
1892
1894
1896
1896
1896
1896
1899
1905
1912
1916
1918
1916
1915
1913
1914
1918
1919
1922
1924
1926
1928
1931
1933
1936
1938
1940
1942
1943
1945
1946
1947
1947
1950
1952
1951
1950
1947
1948
1954
1962
1970
1973
1970
1966
1964
1965
1972
1981
1988
1996
2005
2013
2020
2024
2021
2014
2005
1997
1992
1989
1990
1992
1992
1995
1995
1997
1996
1995
1995
1997
2001
2006
2009
2009
2008
2005
2004
2006
2007
2010
2011
2012
2013
2014
2015
2016
2018
2019
2019
2020
2021
2022
2024
2026
2027
2029
2030
2029
2029
2029
2031
2035
2039
2043
2045
2045
2043
2044
2044
2045
2046
2047
2048
2048
2048
2049
2049
2048
2048
2047
2046
2045
2044
2044
2043
2041
2041
2040
2040
2037
2035
2033
2035
2038
2044
2047
2045
2042
2037
2034
2037
2040
2042
2042
2042
2042
2042
2041
2044
2044
2044
2045
2046
2047
2047
2048
2048
2048
2048
2048
2046
2043
2042
2044
2048
2052
2055
2053
2050
2048
2047
2048
2049
2051
2051
2051
2051
2051
2051
2052
2052
2052
2052
2052
2053
2053
2052
2049
2052
2051
2053
2053
2053
2053
2053
2057
2060
2063
2064
2063
2061
2059
2062
2063
2065
2062
2056
2052
2050
2055
2135
2076
1890
1923
2109
2450
2738
2689
2161
1289
435
4010
3917
19
424
737
866
1117
1316
1461
1563
1647
1725
1793
1856
1916
1972
2023
2068
2109
2146
2179
2210
2238
2263
2287
2309
2328
2347
2363
2378
2392
2404
2416
2427
2437
2446
2454
2462
2469
2476
2481
2486
2490
2493
2496
2500
2503
2505
2508
2510
2512
2514
2516
2518
2519
2521
2522
2524
2525
2525
2526
2526
2526
2526
2526
2525
2524
2523
2522
2521
2519
2517
2514
2512
2509
2506
2503
2500
2497
2494
2491
2488
2486
2483
2480
2477
2475
2473
2471
2469
2467
2464
2462
2460
2458
2456
2454
2452
2450
2447
2445
2443
2441
2438
2436
2434
2431
2429
2426
2423
2421
2419
2417
2414
2411
2408
2406
2403
2401
2399
2397
2394
2392
2389
2387
2385
2382
2380
2378
2375
2372
2370
2368
2365
2363
2361
2359
2357
2355
2353
2351
2348
2346
2343
2341
2339
2336
2334
2333
2331
2329
2327
2325
2323
2320
2318
2316
2314
2311
2309
2308
2307
2306
2305
2303
2302
2300
2297
2295
2293
2290
2288
2286
2284
2282
2280
2278
2276
2275
2273
2271
2268
2265
2264
2264
2267
2270
2274
2277
2282
2288
2293
2295
2292
2284
2272
2259
2249
2244
2242
2240
2238
2235
2233
2230
2228
2226
2225
2223
2221
2219
2217
2215
2214
2212
2211
2210
2208
2207
2206
2204
2203
2202
2201
2200
2199
2198
2198
2197
2196
2195
2194
2194
2193
2192
2192
2191
2191
2190
2118
2142
2372
2364
2198
1848
1487
1424
1842
2645
3499
4075
158
72
3939
3718
3715
3517
3301
3100
2933
2800
2694
2596
2507
2428
2357
2291
2232
2178
2129
2085
2046
2009
1975
1945
1917
1891
1868
1846
1823
1809
1792
1777
1757
1737
1721
1714
1713
1715
1713
1702
1688
1676
1663
1663
1659
1656
1651
1646
1642
1639
1635
1633
1631
1629
1627
1625
1624
1623
1622
1619
1623
1622
1621
1619
1615
1614
1616
1622
1631
1635
1635
1631
1627
1625
1628
1630
1634
1634
1633
1633
1633
1637
1641
1642
1642
1642
1641
1639
1640
1640
1642
1646
1648
1649
1646
1642
1638
1642
1649
1660
1668
1669
1666
1661
1658
1660
1664
1665
1668
1668
1669
1669
1670
1671
1671
1673
1674
1676
1677
1678
1679
1678
1680
1684
1689
1695
1699
1703
1711
1723
1739
1755
1761
1759
1748
1735
1727
1722
1723
1725
1728
1729
1731
1733
1733
1735
1735
1736
1737
1739
1743
1745
1747
1747
1748
1750
1754
1755
1755
1755
1759
1766
1770
1780
1781
1779
1777
1775
1780
1785
1791
1794
1795
1795
1794
1795
1795
1799
1799
1799
1800
1800
1800
1802
1801
1806
1808
1809
1808
1808
1808
1809
1812
1817
1819
1818
1815
1815
1810
1813
1813
1814
1813
1813
1812
1810
1810
1810
1810
1810
1812
1813
1815
1818
1818
1818
1820
1820
1820
1820
1820
1821
1825
1832
1837
1840
1840
1839
1837
1836
1839
1840
1841
1844
1845
1847
1848
1849
1851
1852
1853
1855
1856
1857
1858
1858
1858
1859
1859
1856
1857
1851
1847
1846
1848
1855
1862
1866
1802
1834
2050
2024
1839
1483
1167
1191
1720
2618
3527
17
182
74
3893
3691
3667
3459
3251
3077
2947
2853
2781
2710
2647
2593
2547
2506
2470
2439
2411
2386
2363
2343
2325
2307
2293
2279
2267
2258
2248
2240
2232
2224
2217
2209
2203
2197
2191
2187
2182
2179
2177
2174
2172
2169
2166
2161
2158
2155
2154
2155
2157
2163
2168
2173
2179
2183
2188
2189
2186
2178
2166
2154
2144
2136
2133
2130
2128
2124
2120
2117
2113
2109
2105
2101
2098
2095
2092
2090
2088
2086
2084
2084
2083
2083
2083
2084
2084
2084
2084
2085
2085
2085
2085
2084
2084
2084
2085
2085
2085
2086
2085
2086
2088
2089
2091
2092
2094
2095
2097
2098
2100
2101
2102
2103
2104
2106
2106
2106
2106
2106
2106
2106
2106
2104
2103
2101
2100
2100
2099
2099
2097
2096
2094
2093
2093
2093
2092
2091
2091
2092
2093
2093
2093
2092
2092
2094
2095
2097
2097
2096
2095
2095
2096
2097
2097
2096
2096
2096
2097
2097
2097
2096
2094
2092
2093
2094
2096
2096
2094
2091
2088
2087
2087
2087
2089
2088
2088
2088
2088
2088
2086
2085
2085
2083
2082
2081
2081
2080
2079
2079
2078
2077
2075
2074
2074
2073
2072
2070
2067
2065
2064
2066
2068
2069
2070
2069
2069
2068
2068
2069
2068
2067
2065
2063
2062
2062
2063
2063
2063
2063
2063
2062
2062
2060
2061
2061
2064
2069
2076
2085
2094
2102
2109
2111
2109
2104
2094
2084
2137
2121
1900
1916
2068
2377
2676
2678
2227
1418
575
8
3931
4030
158
442
484
701
905
1066
1178
1260
1317
1378
1426
1466
1502
1537
1570
1598
1621
1637
1650
1662
1672
1688
1697
1707
1715
1723
1732
1739
1746
1752
1757
1762
1766
1771
1775
1780
1784
1787
1793
1797
1799
1800
1801
1803
1806
1812
1817
1819
1818
1816
1815
1813
1816
1818
1818
1819
1818
1818
1819
1820
1822
1823
1825
1826
1827
1828
1830
1832
1832
1836
1838
1839
1838
1835
1834
1837
1844
1853
1860
1861
1860
1857
1855
1856
1860
1862
1864
1866
1869
1870
1872
1874
1876
1877
1880
1882
1885
1888
1890
1891
1893
1896
1897
1898
1897
1898
1899
1903
1910
1915
1917
1917
1915
1915
1916
1919
1922
1925
1927
1929
1932
1933
1935
1935
1934
1933
1931
1930
1930
1930
1930
1927
1931
1929
1929
1925
1922
1922
1928
1938
1947
1953
1956
1957
1959
1961
1973
1980
1988
1990
1988
1981
1970
1961
1956
1954
1955
1956
1957
1956
1956
1956
1955
1959
1961
1961
1958
1954
1952
1953
1958
1964
1967
1966
1962
1960
1957
1960
1961
1962
1962
1963
1964
1966
1968
1969
1970
1971
1971
1972
1973
1974
1975
1974
1977
1977
1979
1980
1979
1981
1983
1987
1992
1995
1996
1996
1995
1994
1996
1995
1997
1997
1996
1995
1995
1994
1993
1992
1992
1992
1992
1993
1993
1993
1992
1993
1994
1994
1994
1990
1987
1986
1989
1996
2001
2004
2002
1999
1996
1996
1998
2000
2003
2004
2006
2006
2007
2008
2008
2009
2010
2012
2012
2013
2013
2015
2014
2019
2018
2019
2016
2013
2013
2017
2024
2029
2031
2029
2026
2024
2022
2027
2028
2030
2030
2030
2103
1994
1848
1903
2119
2471
2729
2617
2034
1155
345
3983
3929
30
413
684
810
1056
1258
1408
1520
1613
1706
1788
1860
1925
1982
2034
2081
2123
2162
2197
2230
2260
2287
2311
2333
2354
2373
2393
2413
2433
2451
2468
2484
2501
2516
2529
2536
2537
2532
2526
2522
2522
2524
2528
2530
2532
2534
2535
2536
2537
2538
2539
2539
2540
2541
2541
2542
2542
2543
2542
2542
2541
2540
2539
2538
2537
2536
2534
2532
2530
2528
2526
2523
2520
2517
