2084
2083
2081
2079
2077
2076
2075
2073
2072
2071
2071
2070
2069
2069
2069
2067
2067
2066
2067
2069
2071
2072
2071
2068
2066
2065
2065
2066
2067
2066
2065
2065
2064
2064
2064
2064
2064
2064
2064
2063
2063
2063
2063
2063
2063
2064
2063
2061
2060
2059
2061
2063
2065
2065
2063
2061
2059
2058
2058
2059
2059
2059
2058
2058
2059
2059
2059
2059
2058
2058
2057
2057
2057
2057
2056
2060
2059
2059
2056
2053
2053
2055
2059
2062
2063
2061
2057
2055
2053
2056
2057
2056
2056
2055
2055
2057
2057
2057
2057
2056
2056
2056
2057
2057
2057
2056
2058
2058
2057
2056
2054
2053
2055
2057
2061
2062
2061
2058
2055
2053
2054
2055
2057
2057
2058
2058
2058
2058
2058
2058
2058
2058
2058
2057
2056
2056
2056
2056
2057
2056
2054
2050
2048
2049
2054
2060
2062
2060
2054
2051
2052
2058
2072
2085
2097
2106
2107
2100
2086
2069
2055
2047
2046
2048
2051
2053
2052
2050
2049
2048
2048
2046
2045
2043
2045
2048
2051
2052
2050
2048
2044
2042
2043
2044
2046
2046
2047
2046
2046
2045
2045
2045
2045
2045
2045
2044
2043
2043
2044
2044
2047
2045
2044
2041
2040
2040
2047
2051
2055
2054
2051
2048
2047
2046
2049
2049
2049
2049
2049
2049
2049
2048
2048
2048
2048
2046
2044
2041
2039
2037
2035
2034
2034
2031
2030
2028
2027
2028
2029
2031
2030
2028
2025
2023
2022
2023
2024
2024
2024
2024
2024
2025
2025
2025
2024
2023
2021
2022
2024
2026
2028
2028
2028
2027
2027
2026
2024
2023
2024
2028
2032
2034
2033
2030
2027
2023
2024
2025
2027
2026
2026
2026
2026
2026
2026
2026
2026
2028
2028
2028
2027
2026
2026
2025
2026
2027
2027
2025
2023
2023
2025
2029
2033
2035
2033
2029
2024
2022
2023
2025
2028
2028
2028
2027
2028
2028
2029
2029
2028
2028
2029
2029
2030
2031
2029
2033
2032
2031
2028
2026
2026
2029
2034
2038
2041
2038
2033
2030
2028
2031
2032
2032
2032
2031
2031
2031
2031
2032
2035
2042
2051
2062
2076
2086
2090
2085
2073
2055
2040
2028
2023
2024
2030
2038
2044
2046
2044
2041
2037
2035
2036
2037
2039
2039
2039
2040
2040
2041
2041
2043
2045
2046
2047
2046
2043
2043
2044
2046
2050
2050
2048
2044
2041
2042
2047
2054
2059
2059
2055
2052
2050
2049
2052
2050
2051
2049
2049
2050
2049
2048
2048
2048
2049
2050
2050
2049
2049
2048
2048
2048
2048
2046
2042
2038
2037
2039
2043
2045
2043
2039
2033
2029
2026
2029
2030
2031
2031
2031
2031
2031
2031
2032
2030
2033
2032
2032
2031
2031
2032
2033
2038
2038
2036
2032
2030
2030
2033
2041
2043
2044
2042
2040
2037
2035
2036
2035
2034
2035
2037
2039
2039
2039
2035
2035
2035
2038
2036
2034
2032
2034
2037
2042
2045
2044
2038
2033
2030
2032
2037
2043
2043
2042
2038
2035
2034
2035
2036
2037
2036
2035
2035
2036
2037
2037
2038
2038
2037
2037
2037
2038
2038
2039
2040
2040
2040
2038
2036
2035
2036
2040
2044
2046
2045
2042
2038
2037
2036
2038
2040
2040
2040
2041
2041
2040
2040
2039
2039
2042
2046
2053
2064
2076
2088
2100
2105
2101
2088
2068
2050
2041
2041
2048
2055
2058
2055
2048
2044
2045
2048
2050
2052
2050
2049
2049
2050
2052
2052
2052
2051
2051
2051
2052
2053
2053
2052
2055
2055
2055
2053
2051
2050
2051
2056
2061
2065
2064
2061
2059
2056
2059
2061
2061
2063
2063
2062
2063
2063
2065
2066
2067
2067
2066
2065
2064
2066
2066
2069
2069
2067
2064
2058
2056
2057
2060
2063
2064
2058
2052
2046
2044
2044
2046
2048
2049
2048
2047
2046
2046
2046
2047
2047
2048
2048
2048
2048
2049
2049
2049
2051
2049
2048
2046
2044
2045
2048
2053
2057
2057
2055
2051
2048
2046
2048
2048
2050
2051
2050
2050
2050
2050
2050
2050
2051
2051
2051
2052
2051
2051
2051
2051
2051
2050
2049
2048
2048
2050
2054
2056
2055
2054
2050
2048
2048
2048
2050
2049
2049
2049
2048
2048
2048
2048
2048
2048
2047
2047
2046
2045
2045
2043
2047
2046
2047
2045
2043
2043
2045
2048
2050
2051
2049
2046
2045
2043
2047
2048
2048
2048
2048
2047
2048
2048
2049
2050
2050
2051
2049
2049
2048
2048
2048
2047
2048
2047
2047
2046
2045
2046
2046
2047
2046
2045
2046
2049
2059
2071
2085
2097
2102
2099
2087
2070
2053
2042
2038
2040
2043
2046
2047
2045
2045
2044
2045
2044
2044
2044
2043
2043
2044
2046
2048
2049
2048
2048
2046
2045
2045
2046
2047
2048
2048
2048
2048
2048
2048
2049
2050
2050
2051
2051
2051
2050
2050
2051
2052
2053
2054
2054
2053
2053
2056
2059
2062
2063
2062
2061
2060
2059
2060
2061
2062
2062
2063
2062
2063
2061
2060
2058
2055
2053
2050
2049
2048
2047
2044
2046
2045
2043
2041
2038
2038
2040
2045
2048
2048
2047
2043
2041
2039
2043
2044
2043
2043
2042
2041
2043
2043
2043
2043
2042
2042
2042
2042
2042
2042
2042
2042
2043
2043
2041
2039
2038
2038
2040
2044
2045
2043
2040
2036
2034
2034
2033
2035
2034
2033
2033
2032
2032
2032
2031
2032
2032
2032
2031
2030
2030
2029
2029
2030
2030
2029
2026
2025
2026
2031
2037
2040
2040
2037
2033
2030
2028
2031
2032
2033
2034
2034
2033
2033
2034
2034
2034
2035
2036
2036
2037
2037
2036
2036
2036
2036
2035
2033
2032
2034
2037
2040
2041
2039
2036
2033
2030
2031
2032
2034
2034
2034
2033
2031
2031
2034
2039
2048
2059
2072
2083
2092
2090
2081
2062
2048
2033
2025
2026
2028
2032
2035
2037
2039
2040
2039
2035
2033
2031
2033
2033
2032
2034
2033
2032
2032
2032
2033
2034
2035
2036
2035
2036
2035
2035
2035
2036
2037
2036
2036
2034
2035
2037
2039
2043
2043
2042
2041
2039
2039
2041
2042
2043
2043
2044
2044
2045
2045
2045
2046
2046
2047
2047
2048
2047
2047
2047
2046
2045
2043
2041
2037
2034
2032
2032
2033
2034
2034
2031
2029
2027
2026
2027
2026
2028
2029
2029
2028
2029
2029
2030
2031
2032
2032
2032
2031
2031
2031
2032
2032
2034
2034
2033
2031
2030
2032
2034
2038
2039
2037
2034
2031
2029
2029
2030
2031
2031
2031
2031
2031
2031
2030
2029
2028
2027
2027
2027
2027
2027
2026
2027
2027
2028
2027
2026
2026
2028
2030
2031
2032
2031
2029
2028
2025
2026
2026
2026
2026
2026
2026
2026
2025
2025
2025
2026
2027
2026
2025
2024
2023
2023
2029
2037
2049
2061
2073
2082
2083
2080
2069
2054
2036
2022
2014
2015
2022
2030
2035
2034
2031
2027
2025
2025
2027
2029
2029
2028
2029
2030
2030
2031
2030
2028
2031
2029
2029
2026
2025
2025
2030
2036
2040
2041
2037
2033
2031
2029
2034
2035
2037
2037
2037
2038
2039
2039
2040
2041
2042
2042
2043
2045
2045
2046
2045
2048
2048
2047
2045
2042
2042
2045
2048
2051
2049
2044
2038
2032
2028
2029
2028
2028
2027
2026
2025
2025
2025
2024
2025
2024
2025
2025
2026
2026
2027
2027
2027
2026
2027
2025
2027
2028
2031
2033
2033
2033
2032
2030
2030
2028
2030
2031
2032
2032
2033
2033
2032
2032
2032
2033
2034
2035
2037
2037
2038
2037
2037
2037
2037
2037
2036
2035
2035
2036
2038
2041
2041
2040
2039
2037
2037
2037
2039
2040
2039
2039
2040
2040
2041
2042
2042
2043
2043
2042
2042
2041
2041
2041
2041
2041
2041
2040
2039
2039
2039
2041
2043
2045
2044
2043
2042
2041
2041
2041
2041
2039
2038
2041
2048
2058
2072
2089
2104
2112
2112
2100
2082
2062
2049
2045
2048
2050
2052
2052
2049
2048
2050
2053
2054
2054
2051
2049
2048
2048
2051
2051
2051
2051
2052
2052
2053
2054
2054
2055
2055
2055
2056
2056
2057
2057
2057
2060
2061
2062
2061
2061
2060
2061
2064
2067
2070
2071
2071
2070
2069
2070
2072
2074
2075
2076
2077
2078
2078
2078
2079
2079
2079
2078
2076
2074
2071
2068
2067
2065
2062
2059
2055
2052
2051
2054
2058
2061
2060
2058
2055
2052
2052
2052
2053
2053
2053
2054
2054
2055
2056
2055
2055
2054
2055
2055
2056
2057
2056
2056
2057
2058
2057
2054
2053
2053
2058
2064
2069
2069
2065
2059
2055
2053
2055
2058
2059
2059
2059
2059
2058
2059
2059
2059
2060
2060
2060
2060
2060
2060
2059
2061
2061
2060
2058
2056
2057
2060
2064
2068
2069
2066
2063
2060
2058
2061
2062
2063
2063
2063
2063
2062
2062
2062
2063
2063
2063
2064
2064
2064
2063
2062
2064
2063
2065
2062
2061
2060
2061
2064
2067
2069
2068
2066
2063
2060
2061
2061
2063
2063
2063
2063
2064
2065
2065
2065
2064
2064
2064
2064
2064
2064
2063
2063
2063
2063
2062
2060
2059
2059
2061
2064
2065
2065
2063
2061
2059
2058
2056
2056
2057
2062
2072
2085
2101
2115
2125
2126
2117
2099
2080
2064
2057
2055
2059
2062
2062
2060
2057
2055
2055
2057
2060
2062
2062
2060
2058
2056
2055
2056
2056
2057
2057
2057
2057
2057
2057
2057
2058
2060
2060
2060
2060
2059
2059
2059
2060
2062
2062
2061
2060
2059
2061
2064
2069
2071
2070
2068
2066
2065
2068
2070
2071
2071
2071
2071
2072
2074
2074
2075
2074
2073
2072
2069
2068
2065
2063
2062
2059
2057
2052
2049
2048
2048
2049
2050
2050
2048
2046
2044
2042
2043
2043
2042
2042
2041
2041
2042
2041
2040
2040
2039
2039
2038
2038
2038
2038
2037
2038
2038
2038
2036
2034
2032
2033
2035
2039
2041
2040
2038
2035
2033
2033
2033
2034
2033
2033
2034
2034
2033
2034
2034
2034
2034
2034
2033
2032
2032
2031
2032
2033
2031
2029
2026
2025
2026
2029
2033
2035
2034
2031
2029
2027
2027
2028
2028
2029
2029
2029
2029
2029
2029
2029
2028
2028
2028
2028
2029
2028
2029
2027
2029
2028
2027
2025
2023
2024
2027
2030
2033
2030
2027
2024
2023
2023
2026
2026
2026
2025
2024
2024
2024
2025
2025
2025
2025
2025
2025
2024
2024
2024
2023
2025
2024
2024
2022
2021
2022
2024
2028
2030
2032
2031
2029
2027
2025
2026
2026
2026
2027
2027
2027
2026
2026
2024
2024
2024
2024
2024
2024
2024
2024
2024
2024
2025
2023
2020
2016
2015
2020
2031
2046
2062
2075
2083
2085
2079
2065
2050
2033
2023
2018
2019
2023
2025
2026
2026
2027
2024
2022
2019
2019
2023
2028
2033
2033
2029
2026
2022
2021
2024
2029
2032
2034
2035
2033
2031
2029
2030
2031
2031
2034
2034
2034
2034
2034
2034
2035
2037
2038
2039
2040
2040
2040
2040
2039
2043
2044
2045
2042
2039
2037
2040
2045
2049
2051
2049
2046
2042
2040
2042
2042
2042
2039
2037
2035
2033
2031
2029
2028
2026
2025
2025
2025
2025
2025
2025
2027
2026
2026
2024
2023
2024
2026
2029
2030
2031
2029
2028
2027
2025
2027
2027
2027
2027
2027
2028
2028
2028
2028
2028
2028
2028
2027
2027
2027
2027
2026
2028
2028
2029
2026
2024
2023
2024
2029
2032
2035
2033
2031
2027
2026
2027
2027
2029
2028
2028
2029
2029
2030
2030
2031
2030
2029
2029
2029
2030
2030
2030
2030
2030
2030
2029
2027
2027
2028
2033
2037
2038
2038
2035
2033
2032
2031
2032
2032
2032
2032
2033
2033
2033
2032
2033
2032
2033
2033
2033
2035
2035
2035
2034
2032
2031
2031
2035
2043
2056
2073
2091
2103
2104
2095
2076
2056
2039
2031
2030
2032
2036
2038
2038
2037
2037
2036
2036
2036
2037
2037
2038
2038
2039
2037
2040
2039
2039
2037
2036
2036
2038
2042
2046
2047
2047
2045
2044
2041
2044
2044
2044
2043
2046
2046
2047
2048
2048
2048
2049
2051
2051
2053
2053
2054
2055
2056
2058
2058
2059
2058
2058
2060
2063
2066
2067
2065
2061
2056
2053
2051
2050
2048
2046
2043
2042
2040
2039
2039
2039
2038
2038
2038
2038
2038
2038
2038
2038
2039
2037
2038
2036
2035
2037
2040
2044
2046
2045
2043
2041
2040
2039
2041
2040
2042
2042
2042
2043
2043
2043
2044
2045
2046
2046
2047
2046
2046
2046
2047
2047
2047
2045
2044
2043
2044
2047
2049
2052
2051
2049
2048
2046
2045
2046
2048
2048
2048
2048
2048
2049
2049
2049
2049
2049
2048
2048
2048
2049
2050
2049
2050
2049
2050
2049
2048
2048
2048
2050
2052
2054
2055
2053
2051
2049
2050
2050
2051
2051
2051
2052
2052
2052
2053
2052
2052
2052
2052
2053
2052
2053
2052
2054
2055
2053
2051
2049
2049
2052
2056
2059
2060
2057
2054
2051
2050
2052
2053
2053
2053
2053
2053
2053
2053
2054
2055
2055
2054
2054
2054
2054
2054
2053
2055
2055
2053
2052
2050
2049
2051
2055
2059
2061
2060
2057
2054
2052
2052
2053
2053
2054
2054
2055
2055
2055
2056
2056
2056
2056
2055
2055
2056
2056
2056
2055
2055
2055
2054
2053
2051
2052
2053
2056
2058
2058
2057
2054
2052
2049
2049
2049
2049
2052
2058
2068
2080
2093
2106
2114
2114
2105
2089
2071
2056
2050
2048
2053
2055
2055
2052
2049
2049
2050
2054
2057
2057
2056
2054
2053
2051
2053
2053
2052
2051
2052
2053
2053
2053
2053
2053
2054
2054
2054
2054
2054
2055
2054
2056
2056
2056
2056
2055
2055
2057
2059
2064
2065
2065
2063
2060
2060
2062
2064
2065
2066
2066
2066
2067
2068
2068
2069
2070
2071
2071
2071
2069
2068
2065
2064
2063
2058
2056
2051
2048
2047
2048
2051
2051
2050
2047
2044
2043
2042
2044
2043
2043
2043
2043
2043
2043
2043
2043
2044
2046
2046
2045
2045
2045
2045
2046
2046
2046
2044
2043
2043
2044
2046
2048
2049
2049
2048
2047
2045
2043
2044
2045
2044
2044
2044
2043
2044
2044
2044
2044
2043
2043
2042
2042
2042
2042
2040
2043
2043
2042
2041
2039
2039
2040
2044
2047
2048
2047
2044
2041
2039
2039
2041
2041
2041
2041
2041
2041
2040
2040
2039
2040
2041
2040
2041
2040
2040
2038
2040
2041
2040
2039
2037
2035
2037
2039
2043
2045
2044
2041
2039
2037
2038
2039
2039
2038
2038
2039
2039
2040
2040
2040
2040
2039
2039
2039
2039
2040
2040
2040
2040
2040
2039
2037
2036
2037
2041
2046
2045
2042
2037
2035
2037
2042
2047
2048
2046
2041
2039
2038
2039
2041
2041
2041
2041
2041
2041
2041
2041
2041
2041
2042
2042
2041
2039
2037
2037
2040
2044
2047
2048
2047
2045
2043
2042
2044
2044
2043
2043
2043
2043
2043
2043
2042
2042
2041
2042
2042
2042
2042
2041
2040
2041
2041
2041
2039
2038
2038
2039
2041
2043
2048
2052
2062
2074
2087
2099
2101
2096
2083
2063
2050
2040
2037
2039
2043
2045
2045
2044
2043
2043
2042
2041
2042
2044
2044
2043
2040
2038
2038
2042
2046
2050
2050
2048
2045
2042
2040
2042
2042
2043
2044
2044
2044
2044
2045
2046
2047
2047
2047
2047
2047
2048
2047
2050
2050
2050
2050
2048
2049
2051
2057
2061
2063
2062
2059
2057
2055
2058
2059
2060
2060
2061
2060
2058
2056
2054
2052
2051
2050
2048
2045
2042
2039
2037
2036
2039
2039
2037
2033
2028
2026
2029
2034
2038
2040
2037
2034
2030
2028
2031
2031
2032
2032
2032
2032
2032
2032
2032
2032
2032
2032
2032
2031
2032
2032
2031
2033
2033
2034
2031
2029
2028
2030
2033
2035
2036
2035
2032
2030
2028
2029
2030
2030
2030
2030
2030
2030
2029
2029
2028
2029
2029
2029
2028
2028
2028
2027
2029
2029
2029
2026
2025
2023
2024
2028
2031
2033
2032
2029
2026
2024
2025
2026
2027
2026
2027
2027
2027
2027
2027
2028
2027
2027
2028
2028
2028
2029
2027
2027
2027
2025
2026
2024
2023
2024
2027
2030
2032
2032
2030
2028
2027
2026
2027
2026
2027
2028
2028
2028
2028
2028
2029
2028
2028
2028
2028
2028
2028
2029
2028
2029
2028
2029
2028
2026
2025
2025
2027
2031
2034
2036
2034
2033
2029
2030
2030
2031
2031
2030
2030
2029
2029
2029
2029
2029
2029
2029
2028
2029
2029
2027
2030
2028
2027
2023
2023
2027
2039
2057
2075
2089
2094
2091
2079
2063
2048
2036
2027
2026
2029
2033
2034
2035
2032
2031
2032
2034
2035
2035
2035
2034
2032
2035
2036
2036
2035
2032
2030
2031
2037
2043
2047
2046
2042
2038
2035
2037
2039
2039
2041
2040
2041
2041
2043
2044
2045
2045
2046
2047
2048
2048
2048
2049
2051
2052
2053
2052
2050
2050
2052
2057
2064
2067
2067
2062
2058
2056
2056
2056
2057
2057
2053
2049
2047
2044
2044
2042
2042
2041
2038
2036
2034
2035
2035
2036
2036
2036
2035
2033
2032
2031
2034
2039
2042
2044
2040
2039
2034
2033
2034
2035
2036
2036
2036
2036
2037
2038
2036
2037
2036
2037
2037
2037
2037
2037
2037
2038
2039
2039
2036
2033
2033
2034
2038
2042
2045
2044
2041
2037
2034
2035
2037
2038
2038
2039
2038
2039
2039
2038
2038
2038
2039
2039
2039
2040
2040
2039
2041
2043
2042
2040
2037
2035
2039
2043
2048
2052
2048
2045
2040
2036
2038
2040
2042
2042
2042
2041
2041
2041
2042
2043
2044
2044
2044
2043
2043
2043
2043
2044
2045
2045
2045
2042
2040
2038
2042
2047
2050
2052
2049
2047
2043
2042
2042
2041
2044
2044
2044
2045
2046
2044
2045
2044
2044
2046
2044
2045
2044
2044
2044
2047
2047
2044
2041
2037
2038
2042
2047
2052
2051
2049
2045
2044
2042
2046
2044
2044
2041
2041
2043
2044
2044
2044
2042
2041
2040
2042
2043
2045
2043
2040
2040
2039
2041
2038
2037
2036
2036
2043
2049
2063
2073
2082
2090
2093
2096
2090
2078
2061
2047
2038
2036
2038
2041
2044
2043
2042
2041
2041
2041
2041
2040
2041
2043
2042
2040
2037
2036
2038
2043
2049
2053
2053
2048
2044
2039
2039
2043
2044
2046
2046
2047
2045
2045
2045
2047
2048
2049
2049
2048
2047
2048
2050
2054
2056
2055
2054
2050
2048
2051
2055
2063
2067
2068
2065
2060
2058
2057
2059
2060
2062
2060
2059
2056
2055
2053
2052
2049
2044
2040
2039
2042
2047
2049
2047
2044
2036
2032
2028
2025
2025
2027
2031
2037
2041
2040
2036
2032
2028
2030
2031
2033
2033
2033
2033
2033
2034
2034
2034
2034
2034
2034
2033
2033
2033
2032
2036
2035
2035
2032
2030
2030
2031
2035
2038
2039
2038
2034
2033
2031
2034
2034
2034
2034
2034
2035
2035
2035
2036
2036
2036
2036
2034
2034
2034
2034
2034
2035
2036
2036
2035
2033
2032
2033
2034
2038
2040
2039
2038
2035
2035
2035
2036
2037
2037
2036
2036
2036
2036
2038
2038
2039
2039
2039
2038
2037
2038
2039
2040
2040
2039
2037
2034
2033
2033
2036
2041
2043
2042
2040
2037
2035
2035
2036
2036
2037
2038
2037
2037
2037
2036
2036
2036
2037
2037
2037
2037
2036
2035
2036
2037
2037
2035
2033
2031
2032
2035
2040
2042
2040
2037
2035
2032
2034
2036
2037
2037
2035
2035
2034
2034
2034
2034
2034
2034
2034
2034
2033
2033
2032
2031
2033
2032
2032
2031
2030
2031
2031
2033
2033
2035
2038
2045
2054
2065
2080
2088
2092
2086
2072
2056
2041
2031
2028
2030
2034
2036
2036
2035
2034
2033
2033
2034
2036
2035
2032
2030
2028
2030
2035
2041
2044
2042
2038
2034
2032
2033
2035
2035
2036
2036
2036
2036
2037
2037
2039
2040
2040
2041
2041
2041
2042
2042
2044
2045
2045
2045
2043
2044
2045
2049
2053
2056
2055
2052
2051
2049
2051
2052
2052
2054
2054
2054
2053
2052
2050
2049
2048
2047
2044
2041
2038
2035
2033
2030
2033
2031
2029
2025
2020
2018
2020
2026
2031
2033
2030
2026
2021
2019
2022
2021
2023
2023
2022
2022
2022
2022
2022
2022
2022
2021
2021
2021
2021
2021
2020
2021
2021
2021
2018
2017
2015
2016
2018
2020
2022
2021
2019
2016
2014
2015
2015
2016
2016
2015
2016
2016
2015
2015
2015
2015
2016
2015
2015
2015
2014
2013
2014
2015
2016
2015
2012
2010
2010
2012
2016
2018
2018
2016
2013
2012
2012
2012
2014
2014
2013
2013
2013
2013
2014
2014
2015
2015
2015
2015
2014
2014
2014
2014
2014
2014
2013
2010
2009
2009
2012
2016
2018
2018
2015
2011
2009
2009
2010
2011
2012
2013
2012
2012
2011
2011
2011
2011
2012
2012
2013
2013
2012
2013
2011
2014
2013
2012
2010
2008
2009
2012
2016
2019
2018
2016
2014
2013
2012
2014
2014
2014
2013
2013
2013
2012
2012
2012
2011
2012
2012
2013
2013
2014
2013
2011
2012
2010
2012
2015
2022
2033
2047
2062
2074
2079
2072
2056
2039
2021
2014
2011
2013
2016
2018
2019
2020
2022
2022
2021
2020
2020
2020
2021
2022
2021
2021
2022
2024
2024
2022
2019
2017
2018
2022
2028
2032
2032
2030
2027
2025
2025
2027
2028
2029
2030
2031
2031
2032
2033
2034
2036
2036
2037
2038
2039
2040
2041
2043
2044
2045
2046
2045
2045
2046
2049
2052
2054
2055
2053
2052
2050
2049
2049
2047
2046
2044
2042
2039
2037
2035
2034
2034
2033
2032
2031
2030
2028
2027
2027
2031
2030
2030
2026
2023
2022
2026
2032
2038
2039
2036
2031
2027
2026
2030
2030
2032
2031
2031
2032
2032
2032
2032
2032
2032
2032
2033
2033
2034
2034
2035
2035
2034
2034
2031
2031
2032
2035
2037
2039
2039
2037
2034
2033
2031
2033
2034
2034
2034
2034
2034
2034
2034
2034
2034
2034
2035
2034
2035
2035
2035
2035
2035
2036
2036
2034
2033
2033
2034
2037
2039
2040
2039
2037
2035
2035
2035
2036
2037
2037
2037
2037
2037
2037
2037
2038
2038
2038
2038
2038
2037
2038
2039
2040
2040
2039
2038
2035
2034
2036
2039
2043
2045
2044
2040
2037
2035
2036
2037
2037
2038
2039
2038
2039
2039
2039
2039
2038
2039
2039
2039
2039
2039
2040
2039
2042
2043
2043
2040
2038
2039
2042
2044
2045
2043
2041
2042
2046
2048
2048
2045
2041
2037
2037
2039
2041
2042
2041
2041
2040
2039
2038
2038
2041
2046
2054
2068
2081
2093
2099
2097
2087
2073
2059
2048
2043
2040
2041
2042
2041
2042
2043
2043
2042
2041
2040
2040
2042
2044
2045
2045
2043
2043
2043
2042
2044
2042
2043
2045
2046
2044
2041
2039
2040
2044
2048
2051
2051
2049
2047
2045
2045
2047
2048
2049
2050
2051
2051
2051
2052
2053
2054
2055
2056
2057
2058
2059
2059
2061
2062
2062
2062
2061
2060
2060
2064
2066
2066
2065
2060
2057
2053
2051
2051
2048
2047
2045
2043
2041
2040
2039
2039
2039
2039
2039
2039
2038
2038
2038
2036
2040
2039
2040
2036
2032
2030
2032
2039
2046
2048
2046
2041
2036
2033
2036
2036
2038
2037
2036
2036
2036
2037
2036
2036
2036
2036
2036
2036
2037
2036
2036
2038
2037
2037
2035
2033
2032
2034
2037
2040
2041
2040
2037
2035
2032
2034
2035
2035
2035
2035
2036
2036
2036
2036
2036
2036
2037
2037
2037
2037
2037
2037
2037
2038
2038
2037
2035
2034
2035
2036
2040
2041
2041
2040
2037
2037
2036
2038
2039
2039
2038
2038
2038
2038
2039
2039
2040
2040
2040
2040
2039
2039
2039
2039
2040
2040
2039
2036
2036
2036
2040
2044
2045
2045
2042
2039
2038
2038
2039
2039
2040
2041
2040
2040
2039
2039
2040
2040
2041
2041
2042
2042
2042
2041
2041
2042
2041
2040
2038
2036
2037
2040
2043
2046
2045
2042
2039
2037
2036
2039
2039
2039
2036
2035
2034
2035
2039
2047
2056
2068
2081
2092
2097
2094
2083
2066
2050
2039
2034
2034
2036
2039
2041
2043
2043
2043
2041
2039
2037
2036
2038
2039
2039
2040
2040
2039
2038
2038
2038
2039
2041
2042
2042
2041
2041
2040
2039
2041
2043
2042
2040
2039
2038
2040
2045
2048
2051
2049
2048
2045
2044
2045
2047
2048
2049
2050
2051
2051
2052
2053
2054
2055
2056
2057
2057
2057
2057
2057
2058
2058
2057
2053
2050
2048
2046
2048
2048
2046
2043
2037
2034
2031
2031
2031
2030
2029
2029
2029
2028
2028
2027
2027
2027
2028
2028
2028
2028
2027
2027
2026
2030
2030
2030
2027
2022
2020
2022
2028
2033
2036
2033
2028
2025
2022
2026
2025
2027
2026
2026
2026
2027
2028
2028
2028
2027
2026
2026
2026
2026
2026
2027
2028
2027
2027
2025
2024
2023
2024
2027
2029
2031
2030
2028
2026
2023
2024
2025
2025
2026
2026
2026
2027
2027
2027
2027
2027
2027
2027
2027
2027
2027
2027
2028
2029
2030
2029
2027
2025
2025
2027
2031
2033
2033
2031
2028
2027
2027
2028
2029
2029
2028
2028
2028
2027
2028
2028
2029
2029
2028
2028
2028
2029
2029
2030
2031
2030
2028
2026
2025
2026
2030
2034
2037
2036
2034
2032
2030
2029
2030
2029
2029
2029
2029
2028
2028
2028
2028
2028
2029
2029
2029
2029
2029
2029
2027
2030
2028
2026
2024
2024
2032
2046
2064
2083
2095
2097
2088
2073
2054
2040
2031
2027
2028
2032
2035
2035
2035
2034
2034
2033
2034
2035
2035
2036
2035
2033
2035
2036
2036
2033
2030
2029
2032
2038
2043
2046
2044
2039
2037
2035
2037
2040
2040
2040
2040
2042
2042
2042
2042
2042
2044
2046
2048
2049
2050
2050
2049
2050
2052
2054
2055
2054
2054
2056
2058
2062
2064
2065
2063
2061
2060
2060
2061
2061
2060
2058
2055
2053
2050
2049
2048
2046
2045
2044
2043
2042
2042
2041
2041
2042
2042
2042
2041
2040
2041
2042
2045
2047
2048
2046
2045
2044
2044
2045
2046
2047
2046
2047
2046
2047
2047
2048
2048
2048
2048
2048
2049
2049
2049
2052
2053
2053
2053
2051
2049
2048
2050
2054
2057
2059
2058
2057
2055
2053
2055
2055
2056
2056
2056
2057
2058
2059
2057
2055
2053
2054
2057
2062
2066
2067
2065
2061
2058
2057
2057
2059
2059
2062
2065
2067
2068
2067
2066
2064
2063
2065
2066
2066
2066
2066
2066
2067
2067
2067
2066
2066
2067
2066
2066
2066
2066
2066
2067
2067
2067
2066
2066
2066
2067
2068
2069
2070
2072
2077
2086
2099
2113
2124
2129
2125
2112
2094
2077
2066
2062
2063
2068
2070
2071
2071
2069
2069
2069
2069
2071
2070
2069
2067
2067
2069
2074
2079
2081
2081
2078
2076
2074
2074
2078
2078
2079
2080
2081
2081
2081
2081
2082
2083
2084
2085
2086
2087
2088
2089
2088
2092
2092
2092
2090
2088
2088
2092
2098
2105
2107
2104
2101
2097
2095
2097
2100
2101
2101
2100
2099
2097
2095
2093
2091
2088
2086
2084
2082
2081
2079
2076
2078
2077
2077
2074
2070
2068
2070
2076
2081
2083
2081
2077
2074
2072
2073
2075
2075
2076
2075
2076
2077
2076
2075
2075
2075
2076
2077
2078
2077
2076
2074
2074
2074
2075
2074
2072
2071
2072
2073
2076
2077
2076
2075
2072
2071
2071
2071
2073
2072
2072
2071
2071
2071
2070
2071
2070
2071
2071
2071
2070
2070
2070
2069
2070
2070
2069
2067
2066
2066
2068
2071
2073
2073
2071
2069
2068
2068
2069
2069
2070
2069
2069
2069
2069
2069
2070
2071
2072
2072
2071
2070
2069
2069
2070
2072
2072
2072
2070
2068
2066
2066
2069
2071
2073
2072
2071
2069
2067
2068
2068
2068
2068
2068
2069
2070
2071
2071
2070
2069
2069
2069
2069
2069
2069
2067
2069
2069
2069
2066
2063
2062
2063
2067
2071
2072
2071
2068
2065
2062
2063
2063
2062
2064
2069
2078
2091
2103
2117
2126
2128
2121
2106
2089
2074
2066
2063
2067
2071
2072
2071
2068
2066
2066
2067
2071
2073
2073
2071
2069
2068
2068
2069
2070
2071
2071
2071
2071
2071
2071
2071
2071
2071
2072
2072
2072
2073
2073
2075
2075
2075
2074
2071
2071
2072
2075
2080
2083
2083
2082
2080
2079
2080
2082
2082
2084
2086
2086
2087
2087
2087
2088
2088
2089
2090
2090
2090
2090
2088
2086
2086
2082
2078
2074
2070
2070
2072
2075
2076
2073
2068
2064
2062
2063
2065
2065
2065
2064
2064
2064
2064
2064
2064
2063
2063
2064
2064
2064
2064
2063
2062
2063
2062
2062
2060
2058
2058
2061
2064
2065
2066
2063
2061
2059
2058
2060
2060
2060
2060
2060
2059
2062
2061
2060
2060
2059
2060
2061
2062
2063
2063
2061
2060
2061
2059
2058
2055
2053
2056
2061
2065
2067
2064
2061
2057
2055
2055
2056
2057
2057
2056
2056
2056
2055
2055
2056
2056
2055
2055
2054
2054
2054
2054
2055
2055
2054
2052
2049
2049
2049
2054
2057
2058
2056
2052
2049
2047
2048
2049
2048
2049
2049
2048
2048
2048
2048
2048
2049
2048
2048
2048
2048
2047
2047
2046
2049
2049
2048
2045
2041
2038
2042
2048
2053
2056
2053
2048
2045
2042
2045
2046
2047
2046
2046
2046
2046
2046
2045
2045
2044
2044
2044
2044
2044
2043
2044
2044
2044
2045
2042
2039
2036
2037
2043
2051
2063
2073
2084
2094
2098
2098
2089
2074
2056
2043
2036
2036
2039
2042
2043
2042
2041
2040
2040
2040
2040
2039
2040
2040
2041
2039
2037
2036
2036
2038
2042
2045
2046
2044
2041
2039
2039
2040
2042
2042
2042
2042
2042
2042
2042
2042
2043
2044
2045
2046
2046
2046
2046
2047
2048
2048
2048
2046
2046
2047
2050
2054
2056
2057
2055
2053
2052
2052
2053
2053
2054
2054
2052
2051
2049
2047
2045
2042
2040
2037
2035
2034
2032
2032
2029
2030
2029
2028
2026
2023
2022
2024
2027
2031
2032
2030
2027
2025
2024
2027
2028
2028
2026
2026
2026
2026
2027
2027
2027
2027
2027
2028
2027
2027
2026
2025
2027
2026
2027
2025
2024
2024
2025
2025
2025
2027
2028
2031
2034
2033
2032
2028
2026
2024
2026
2028
2029
2029
2029
2029
2028
2028
2028
2029
2031
2031
2030
2030
2032
2031
2029
2028
2026
2026
2030
2035
2039
2038
2035
2032
2030
2030
2032
2032
2032
2032
2033
2033
2034
2035
2036
2037
2037
2037
2036
2036
2036
2036
2037
2038
2038
2037
2034
2032
2030
2033
2035
2038
2040
2038
2037
2035
2034
2035
2033
2033
2032
2033
2038
2048
2059
2073
2086
2094
2095
2087
2073
2056
2041
2033
2034
2035
2039
2037
2035
2035
2039
2044
2048
2048
2044
2040
2036
2036
2040
2040
2041
2040
2041
2042
2042
2043
2043
2043
2043
2044
2045
2044
2045
2045
2047
2048
2048
2048
2047
2046
2045
2048
2050
2054
2056
2056
2055
2053
2053
2055
2055
2057
2059
2061
2061
2061
2060
2060
2061
2063
2068
2069
2070
2069
2067
2064
2064
2062
2059
2054
2050
2048
2048
2050
2053
2053
2050
2047
2042
2041
2040
2042
2043
2043
2043
2042
2042
2043
2043
2045
2046
2046
2046
2046
2044
2044
2045
2046
2047
2047
2046
2042
2040
2042
2047
2052
2055
2056
2050
2046
2042
2042
2044
2045
2049
2049
2050
2050
2048
2048
2048
2047
2048
2048
2048
2050
2051
2050
2049
2050
2048
2048
2045
2044
2044
2047
2052
2057
2058
2056
2052
2048
2047
2049
2049
2051
2051
2051
2051
2050
2050
2050
2050
2051
2050
2050
2048
2049
2050
2051
2055
2054
2053
2048
2044
2044
2046
2051
2055
2059
2056
2051
2048
2046
2048
2049
2050
2050
2049
2050
2050
2049
2050
2049
2049
2050
2051
2053
2055
2056
2053
2052
2052
2051
2049
2045
2045
2046
2049
2056
2060
2058
2054
2049
2048
2048
2050
2051
2050
2048
2048
2045
2044
2045
2050
2060
2071
2085
2096
2107
2111
2107
2095
2078
2061
2048
2044
2044
2048
2051
2055
2057
2057
2055
2051
2048
2048
2049
2049
2050
2050
2050
2049
2049
2049
2050
2052
2053
2054
2054
2053
2054
2054
2052
2055
2053
2055
2053
2051
2051
2054
2062
2067
2069
2064
2060
2056
2053
2059
2060
2062
2062
2061
2063
2063
2067
2068
2069
2070
2069
2070
2070
2071
2072
2071
2075
2074
2073
2069
2065
2062
2061
2064
2065
2065
2062
2056
2051
2047
2048
2048
2048
2047
2046
2046
2046
2047
2047
2047
2047
2047
2046
2046
2046
2046
2044
2045
2046
2047
2047
2045
2043
2042
2045
2049
2052
2052
2048
2045
2042
2042
2044
2045
2045
2045
2044
2044
2043
2044
2045
2047
2047
2047
2045
2044
2043
2043
2043
2044
2044
2044
2040
2039
2039
2043
2048
2051
2052
2048
2042
2039
2038
2041
2043
2045
2046
2044
2045
2044
2045
2043
2042
2041
2042
2044
2047
2048
2047
2044
2045
2043
2042
2040
2039
2040
2044
2048
2052
2052
2050
2047
2043
2041
2042
2043
2045
2045
2044
2043
2043
2044
2046
2046
2046
2045
2043
2043
2044
2045
2044
2046
2045
2045
2044
2042
2042
2045
2048
2051
2052
2049
2048
2046
2044
2046
2044
2043
2041
2040
2040
2041
2042
2041
2042
2044
2043
2043
2041
2039
2038
2038
2040
2046
2051
2058
2067
2079
2091
2104
2105
2096
2077
2056
2041
2034
2036
2040
2043
2043
2042
2041
2041
2040
2040
2041
2041
2041
2041
2040
2041
2041
2040
2042
2042
2042
2040
2038
2037
2038
2042
2046
2047
2046
2043
2041
2039
2042
2044
2044
2045
2045
2045
2045
2046
2046
2047
2047
2048
2048
2049
2050
2050
2051
2051
2056
2056
2056
2053
2049
2048
2053
2059
2066
2068
2065
2059
2053
2049
2050
2048
2048
2045
2043
2041
2039
2037
2036
2035
2033
2032
2031
2030
2029
2029
2029
2031
2030
2031
2028
2027
2026
2027
2029
2032
2033
2032
2030
2028
2025
2027
2028
2029
2027
2028
2029
2030
2027
2025
2023
2023
2028
2032
2036
2035
2031
2025
2023
2024
2026
2027
2024
2022
2022
2024
2028
2030
2031
2029
2027
2025
2025
2025
2026
2026
2026
2026
2026
2026
2027
2027
2026
2026
2026
2026
2026
2027
2027
2026
2028
2026
2024
2021
2019
2019
2023
2027
2030
2031
2029
2026
2024
2021
2023
2022
2023
2023
2023
2023
2023
2023
2023
2023
2024
2024
2023
2024
2024
2025
2025
2027
2026
2026
2024
2022
2022
2023
2027
2030
2030
2029
2025
2023
2022
2023
2024
2025
2025
2025
2025
2025
2025
2025
2024
2023
2022
2023
2028
2036
2048
2057
2073
2082
2085
2078
2062
2046
2033
2028
2030
2034
2037
2035
2034
2031
2033
2034
2034
2035
2035
2036
2037
2036
2036
2037
2039
2039
2039
2040
2039
2039
2039
2041
2043
2043
2042
2039
2038
2039
2043
2047
2048
2048
2047
2045
2044
2045
2047
2048
2048
2049
2050
2051
2051
2052
2053
2054
2056
2057
2057
2058
2059
2059
2059
2062
2062
2062
2059
2058
2058
2060
2063
2064
2062
2057
2052
2048
2045
2046
2043
2043
2041
2040
2039
2039
2038
2038
2039
2040
2039
2040
2039
2039
2039
2041
2041
2041
2039
2036
2034
2034
2037
2042
2046
2048
2046
2042
2039
2036
2038
2039
2040
2040
2040
2040
2041
2041
2041
2041
2041
2041
2040
2040
2040
2041
2041
2043
2042
2042
2040
2038
2039
2040
2043
2046
2046
2045
2042
2040
2039
2040
2041
2041
2041
2042
2042
2043
2042
2042
2042
2042
2042
2041
2042
2042
2042
2043
2043
2043
2043
2042
2040
2039
2041
2043
2047
2048
2047
2045
2042
2042
2041
2042
2043
2043
2043
2044
2043
2043
2043
2043
2044
2045
2045
2045
2045
2045
2044
2047
2047
2047
2046
2043
2043
2043
2046
2049
2050
2050
2047
2044
2042
2042
2043
2043
2044
2044
2044
2044
2044
2043
2043
2041
2040
2040
2044
2050
2060
2073
2085
2098
2103
2100
2087
2069
2053
2044
2043
2046
2048
2048
2047
2044
2043
2045
2045
2045
2043
2043
2043
2043
2044
2044
2044
2044
2045
2046
2045
2045
2045
2043
2046
2045
2047
2045
2043
2043
2044
2048
2050
2052
2051
2049
2048
2047
2049
2050
2052
2052
2052
2053
2054
2055
2056
2057
2058
2059
2060
2060
2061
2061
2062
2064
2068
2069
2066
2062
2059
2059
2062
2067
2069
2066
2060
2053
2049
2047
2048
2046
2045
2043
2042
2041
2041
2041
2040
2041
2040
2040
2040
2040
2040
2040
2040
2041
2040
2040
2038
2037
2036
2038
2041
2044
2045
2044
2042
2040
2039
2041
2040
2041
2041
2041
2041
2041
2041
2041
2042
2042
2043
2042
2042
2041
2040
2039
2043
2042
2043
2040
2036
2035
2037
2043
2048
2050
2048
2043
2038
2035
2039
2039
2040
2040
2040
2040
2041
2041
2041
2041
2040
2040
2040
2039
2040
2040
2039
2042
2041
2042
2040
2038
2038
2038
2041
2043
2045
2045
2043
2041
2038
2039
2039
2040
2041
2041
2041
2042
2041
2042
2041
2042
2042
2041
2042
2042
2042
2041
2041
2041
2041
2041
2040
2039
2040
2041
2045
2048
2048
2047
2045
2044
2043
2044
2045
2045
2044
2044
2044
2044
2044
2044
2044
2044
2044
2044
2044
2046
2046
2046
2047
2045
2042
2038
2037
2040
2048
2059
2072
2085
2096
2102
2102
2093
2079
2062
2048
2042
2043
2046
2048
2049
2048
2046
2046
2046
2047
2047
2047
2047
2048
2048
2048
2047
2045
2045
2046
2049
2053
2055
2055
2052
2050
2048
2048
2050
2051
2053
2053
2054
2054
2055
2056
2056
2057
2057
2058
2059
2060
2061
2061
2062
2064
2064
2065
2063
2062
2063
2067
2074
2078
2080
2076
2073
2071
2071
2074
2077
2076
2075
2073
2071
2070
2068
2066
2064
2062
2059
2059
2057
2055
2053
2052
2052
2053
2054
2052
2050
2048
2049
2049
2051
2053
2054
2056
2058
2059
2058
2055
2053
2050
2052
2053
2055
2054
2054
2055
2055
2056
2056
2056
2056
2056
2055
2056
2059
2057
2056
2052
2049
2051
2056
2063
2066
2065
2060
2056
2053
2052
2057
2055
2056
2055
2056
2056
2057
2057
2057
2057
2057
2056
2056
2057
2057
2058
2058
2058
2058
2057
2055
2053
2052
2054
2057
2061
2062
2061
2059
2057
2054
2056
2056
2057
2057
2057
2057
2057
2057
2057
2057
2056
2056
2057
2057
2057
2057
2056
2059
2060
2059
2057
2053
2052
2053
2059
2064
2067
2066
2061
2057
2054
2055
2057
2057
2058
2058
2059
2060
2060
2060
2060
2060
2060
2059
2060
2060
2060
2059
2059
2059
2059
2059
2057
2056
2056
2056
2059
2061
2061
2061
2058
2056
2054
2053
2056
2060
2069
2080
2093
2106
2114
2117
2111
2098
2081
2066
2056
2053
2054
2057
2061
2061
2060
2057
2055
2056
2057
2061
2062
2062
2060
2058
2057
2056
2057
2058
2059
2059
2060
2060
2060
2060
2059
2059
2059
2059
2060
2060
2060
2060
2060
2061
2062
2061
2060
2060
2059
2062
2065
2068
2070
2069
2067
2066
2065
2068
2069
2070
2070
2071
2071
2072
2073
2073
2074
2074
2074
2074
2073
2072
2070
2067
2068
2065
2064
2060
2056
2053
2052
2054
2056
2058
2055
2051
2048
2046
2048
2049
2049
2050
2048
2048
2048
2049
2049
2049
2049
2050
2049
2051
2050
2050
2049
2048
2049
2049
2050
2049
2048
2048
2049
2053
2055
2055
2053
2050
2049
2049
2050
2051
2051
2051
2051
2051
2051
2052
2052
2052
2052
2052
2052
2052
2052
2052
2052
2055
2053
2053
2049
2048
2048
2053
2059
2062
2061
2057
2053
2052
2050
2054
2053
2054
2054
2054
2054
2054
2054
2054
2054
2056
2056
2057
2058
2058
2056
2058
2059
2059
2057
2054
2052
2052
2055
2059
2063
2063
2061
2057
2054
2053
2055
2056
2057
2057
2056
2056
2056
2054
2053
2053
2058
2066
2078
2092
2105
2115
2116
2114
2098
2080
2062
2049
2048
2053
2062
2068
2068
2065
2060
2057
2055
2057
2057
2057
2058
2058
2058
2059
2059
2059
2059
2060
2060
2059
2060
2060
2061
2061
2062
2063
2062
2061
2058
2058
2060
2063
2068
2069
2068
2066
2064
2064
2065
2067
2069
2069
2070
2070
2071
2072
2073
2074
2075
2076
2077
2077
2077
2079
2079
2080
2081
2081
2078
2075
2073
2072
2073
2073
2072
2068
2063
2059
2056
2055
2056
2055
2055
2055
2055
2054
2053
2053
2053
2053
2053
2054
2054
2055
2054
2055
2055
2056
2056
2055
2054
2053
2053
2056
2058
2060
2061
2059
2057
2055
2053
2055
2055
2056
2056
2056
2056
2055
2055
2055
2055
2055
2055
2056
2055
2056
2055
2053
2056
2054
2056
2053
2051
2051
2052
2056
2059
2061
2059
2056
2054
2053
2056
2056
2056
2056
2055
2054
2055
2054
2055
2055
2054
2055
2055
2055
2056
2055
2054
2053
2054
2054
2055
2054
2053
2053
2054
2057
2058
2058
2057
2054
2052
2052
2053
2055
2055
2055
2054
2054
2054
2054
2054
2054
2055
2055
2055
2054
2055
2055
2055
2059
2058
2057
2053
2051
2052
2055
2061
2064
2063
2059
2055
2053
2051
2054
2053
2054
2053
2054
2054
2054
2053
2054
2054
2053
2051
2050
2052
2058
2068
2079
2093
2105
2112
2110
2100
2084
2068
2057
2053
2053
2055
2056
2055
2052
2052
2052
2052
2053
2053
2053
2054
2053
2053
2054
2053
2054
2054
2054
2054
2054
2053
2057
2056
2055
2054
2051
2051
2053
2058
2063
2065
2064
2060
2057
2055
2057
2059
2058
2060
2060
2060
2062
2062
2063
2064
2064
2065
2065
2066
2067
2068
2069
2070
2071
2071
2070
2069
2068
2069
2072
2075
2076
2073
2069
2064
2060
2059
2057
2055
2053
2052
2051
2048
2046
2043
2043
2046
2049
2053
2052
2048
2046
2043
2043
2044
2046
2044
2042
2042
2042
2045
2048
2049
2049
2046
2044
2042
2041
2043
2044
2045
2045
2045
2045
2044
2044
2044
2043
2044
2044
2044
2045
2044
2043
2044
2045
2044
2043
2041
2039
2039
2042
2046
2048
2048
2047
2044
2041
2040
2042
2042
2043
2043
2043
2043
2043
2043
2042
2043
2042
2043
2043
2043
2043
2042
2041
2044
2043
2043
2040
2038
2038
2040
2045
2048
2049
2046
2042
2041
2040
2043
2044
2044
2043
2042
2042
2043
2043
2043
2044
2043
2044
2043
2044
2044
2045
2045
2045
2045
2043
2042
2039
2039
2041
2045
2048
2049
2048
2047
2044
2044
2044
2044
2045
2045
2045
2045
2044
2044
2043
2043
2043
2043
2043
2043
2042
2042
2041
2042
2045
2043
2042
2037
2033
2035
2042
2053
2066
2077
2087
2094
2098
2096
2088
2071
2055
2043
2037
2037
2040
2043
2046
2045
2045
2044
2043
2043
2042
2043
2042
2043
2044
2043
2042
2040
2039
2041
2044
2048
2048
2048
2046
2043
2042
2044
2045
2045
2045
2046
2046
2047
2047
2047
2047
2048
2048
2048
2049
2050
2050
2048
2053
2053
2054
2052
2050
2050
2052
2058
2064
2066
2066
2062
2059
2057
2058
2059
2059
2059
2058
2058
2057
2055
2054
2051
2048
2046
2043
2042
2040
2039
2038
2037
2037
2037
2036
2034
2032
2032
2033
2036
2037
2038
2036
2034
2033
2032
2033
2035
2035
2034
2034
2034
2033
2034
2034
2035
2035
2034
2034
2033
2034
2034
2035
2035
2035
2033
2030
2029
2030
2032
2035
2037
2037
2034
2032
2031
2030
2031
2032
2032
2032
2032
2033
2032
2032
2031
2031
2031
2031
2032
2032
2032
2031
2030
2031
2032
2032
2030
2029
2029
2031
2035
2037
2037
2035
2032
2030
2029
2032
2033
2033
2031
2031
2031
2030
2031
2031
2031
2031
2031
2032
2031
2031
2030
2029
2031
2032
2032
2029
2027
2025
2028
2033
2037
2039
2037
2032
2029
2028
2029
2031
2031
2032
2033
2033
2033
2032
2032
2032
2032
2032
2032
2032
2031
2029
2031
2029
2031
2029
2027
2024
2023
2027
2032
2038
2039
2034
2028
2024
2028
2035
2048
2060
2073
2083
2088
2084
2072
2055
2039
2028
2023
2024
2027
2030
2031
2030
2030
2030
2031
2031
2030
2029
2028
2030
2032
2034
2035
2033
2032
2030
2030
2032
2032
2033
2033
2033
2032
2033
2034
2035
2036
2037
2038
2037
2037
2037
2037
2038
2040
2042
2041
2040
2038
2037
2041
2045
2049
2051
2050
2048
2046
2045
2047
2048
2049
2049
2050
2050
2051
2051
2051
2051
2050
2050
2048
2047
2045
2043
2041
2040
2037
2035
2033
2031
2032
2032
2034
2035
2035
2034
2031
2030
2029
2030
2030
2031
2031
2031
2031
2032
2032
2033
2033
2033
2033
2032
2033
2033
2034
2034
2035
2035
2035
2033
2031
2030
2032
2034
2038
2040
2039
2037
2034
2033
2033
2034
2035
2035
2034
2034
2035
2035
2036
2036
2036
2035
2035
2036
2036
2037
2035
2036
2036
2036
2035
2034
2034
2036
2039
2042
2042
2040
2038
2036
2035
2035
2037
2037
2038
2038
2039
2039
2038
2039
2039
2039
2040
2040
2041
2041
2041
2042
2040
2042
2042
2041
2039
2038
2037
2039
2042
2045
2045
2043
2040
2039
2037
2040
2041
2041
2039
2038
2036
2036
2039
2046
2056
2069
2083
2095
2100
2098
2087
2068
2053
2042
2036
2034
2035
2037
2041
2045
2048
2050
2048
2044
2042
2040
2041
2043
2043
2043
2043
2044
2045
2044
2044
2045
2046
2047
2046
2046
2046
2046
2047
2047
2050
2049
2048
2046
2044
2047
2051
2058
2061
2059
2055
2052
2051
2052
2056
2057
2057
2058
2059
2059
2060
2062
2062
2064
2064
2065
2065
2065
2065
2064
2065
2066
2066
2062
2057
2051
2048
2046
2047
2049
2053
2055
2055
2052
2048
2044
2040
2037
2038
2040
2041
2040
2040
2040
2040
2041
2042
2042
2042
2041
2041
2042
2044
2044
2044
2040
2037
2035
2037
2043
2048
2050
2048
2044
2041
2039
2042
2040
2040
2037
2038
2040
2042
2044
2042
2041
2039
2039
2040
2040
2041
2039
2039
2042
2041
2042
2039
2036
2035
2037
2042
2047
2048
2048
2045
2041
2038
2038
2038
2040
2040
2040
2041
2042
2041
2041
2042
2042
2042
2040
2040
2041
2042
2043
2043
2043
2041
2039
2038
2038
2040
2043
2048
2048
2048
2046
2043
2041
2039
2041
2043
2042
2042
2042
2042
2042
2042
2043
2044
2044
2043
2043
2042
2042
2043
2043
2046
2047
2046
2043
2041
2041
2043
2048
2050
2050
2048
2044
2042
2040
2042
2043
2044
2044
2044
2044
2043
2043
2043
2042
2042
2040
2039
2039
2041
2047
2055
2069
2083
2095
2099
2096
2085
2072
2059
2050
2047
2045
2046
2045
2043
2044
2043
2044
2044
2043
2043
2043
2043
2043
2043
2044
2044
2044
2044
2045
2044
2043
2047
2046
2047
2044
2041
2040
2042
2048
2053
2056
2055
2050
2048
2047
2049
2050
2052
2051
2051
2049
2051
2053
2055
2057
2058
2059
2059
2060
2061
2060
2060
2061
2063
2062
2064
2062
2060
2062
2065
2071
2073
2072
2068
2062
2055
2054
2052
2050
2050
2048
2046
2044
2043
2042
2042
2042
2041
2041
2041
2041
2041
2039
2040
2042
2041
2040
2037
2034
2035
2041
2048
2051
2051
2047
2041
2038
2036
2040
2040
2041
2040
2040
2041
2041
2041
2042
2041
2041
2042
2041
2041
2040
2040
2039
2040
2040
2040
2037
2035
2034
2035
2040
2045
2046
2044
2041
2038
2034
2037
2037
2038
2038
2038
2038
2038
2038
2038
2038
2038
2038
2037
2037
2037
2038
2036
2041
2039
2039
2036
2032
2032
2034
2040
2045
2048
2046
2040
2036
2033
2034
2036
2037
2037
2036
2036
2037
2037
2038
2039
2037
2037
2036
2036
2036
2035
2036
2035
2036
2038
2038
2035
2032
2032
2034
2039
2043
2044
2042
2038
2035
2035
2036
2038
2037
2037
2037
2036
2036
2035
2036
2037
2037
2040
2040
2039
2038
2035
2033
2034
2033
2031
2029
2028
2033
2041
2053
2066
2080
2089
2092
2089
2078
2063
2046
2035
2029
2031
2035
2038
2039
2037
2036
2035
2035
2036
2036
2036
2036
2035
2037
2037
2036
2035
2033
2033
2035
2038
2041
2043
2041
2039
2037
2035
2037
2037
2038
2038
2038
2039
2039
2040
2040
2041
2040
2041
2042
2043
2044
2045
2043
2046
2045
2045
2045
2045
2046
2048
2052
2055
2057
2054
2051
2051
2050
2052
2053
2053
2052
2050
2048
2047
2044
2043
2041
2039
2037
2035
2033
2031
2030
2029
2028
2028
2026
2027
2025
2023
2023
2025
2029
2031
2032
2030
2027
2025
2024
2025
2026
2027
2027
2026
2027
2026
2026
2026
2026
2026
2026
2026
2025
2025
2025
2024
2027
2026
2025
2022
2020
2021
2026
2031
2033
2032
2028
2024
2023
2022
2026
2025
2025
2024
2024
2024
2024
2024
2024
2025
2025
2024
2025
2025
2025
2025
2025
2026
2026
2024
2022
2020
2020
2024
2027
2031
2031
2028
2025
2023
2022
2024
2024
2023
2024
2024
2025
2027
2028
2028
2027
2027
2027
2027
2027
2027
2027
2025
2029
2028
2026
2026
2023
2023
2024
2027
2031
2033
2034
2031
2029
2026
2025
2024
2022
2025
2030
2039
2051
2064
2077
2085
2086
2079
2064
2048
2033
2024
2022
2026
2030
2033
2032
2029
2028
2030
2033
2037
2038
2037
2035
2032
2030
2031
2033
2034
2034
2035
2035
2036
2036
2036
2037
2037
2038
2038
2039
2039
2040
2040
2041
2042
2041
2043
2041
2040
2041
2043
2047
2049
2051
2050
2049
2048
2047
2048
2050
2054
2055
2053
2050
2048
2049
2055
2062
2068
2067
2063
2057
2053
2052
2051
2053
2050
2048
2044
2040
2037
2037
2039
2041
2042
2040
2037
2034
2031
2034
2034
2035
2035
2035
2035
2035
2035
2034
2035
2035
2036
2037
2036
2037
2036
2035
2039
2038
2038
2037
2035
2035
2037
2040
2042
2044
2042
2038
2036
2035
2038
2038
2038
2038
2037
2037
2037
2037
2038
2038
2037
2038
2037
2038
2038
2038
2037
2038
2037
2037
2039
2037
2036
2036
2037
2041
2043
2044
2042
2040
2038
2038
2038
2039
2040
2039
2039
2038
2038
2038
2039
2039
2039
2039
2039
2039
2039
2039
2038
2041
2039
2039
2036
2035
2036
2039
2044
2048
2048
2045
2042
2040
2038
2041
2039
2040
2040
2040
2040
2040
2040
2040
2040
2040
2040
2040
2040
2040
2041
2041
2041
2041
2039
2036
2034
2034
2040
2050
2064
2077
2090
2098
2100
2094
2083
2066
2049
2039
2036
2037
2042
2045
2046
2044
2043
2042
2042
2042
2043
2043
2041
2045
2044
2043
2042
2039
2040
2042
2047
2050
2052
2051
2048
2045
2043
2044
2045
2046
2047
2047
2048
2048
2048
2048
2049
2049
2050
2050
2051
2052
2053
2054
2055
2056
2056
2056
2055
2055
2058
2061
2065
2067
2067
2065
2063
2063
2063
2063
2065
2064
2063
2061
2059
2056
2053
2050
2049
2048
2047
2046
2043
2042
2040
2040
2041
2040
2039
2037
2035
2036
2038
2043
2044
2044
2041
2039
2037
2036
2038
2039
2040
2040
2040
2040
2039
2039
2039
2039
2040
2040
2040
2040
2039
2040
2039
2039
2039
2037
2036
2035
2037
2039
2042
2044
2042
2040
2037
2036
2036
2037
2038
2038
2038
2038
2038
2037
2037
2037
2037
2037
2037
2037
2037
2037
2037
2035
2038
2037
2037
2037
2035
2034
2035
2036
2039
2040
2041
2039
2038
2035
2036
2035
2034
2036
2036
2036
2036
2036
2036
2036
2036
2037
2037
2037
2037
2037
2036
2036
2038
2037
2036
2034
2033
2036
2040
2044
2045
2042
2039
2037
2035
2036
2037
2036
2035
2033
2034
2034
2034
2034
2034
2035
2035
2036
2036
2035
2034
2032
2032
2032
2034
2039
2045
2055
2068
2085
2097
2100
2091
2072
2052
2036
2029
2030
2032
2037
2037
2036
2035
2034
2034
2034
2035
2035
2035
2035
2035
2035
2035
2035
2037
2037
2040
2037
2032
2029
2031
2035
2043
2048
2048
2044
2037
2032
2035
2034
2038
2039
2039
2040
2041
2043
2042
2043
2043
2043
2044
2044
2045
2046
2046
2048
2048
2050
2048
2048
2048
2049
2053
2055
2057
2057
2055
2053
2051
2050
2048
2047
2045
2042
2040
2039
2036
2034
2032
2031
2030
2028
2028
2027
2027
2028
2028
2028
2028
2027
2025
2024
2025
2027
2030
2031
2031
2029
2027
2026
2025
2025
2027
2027
2026
2027
2027
2027
2027
2027
2027
2027
2026
2026
2026
2027
2027
2028
2028
2028
2027
2024
2023
2023
2025
2028
2030
2030
2027
2025
2024
2024
2025
2025
2025
2025
2026
2026
2026
2026
2025
2025
2025
2025
2026
2026
2026
2026
2026
2026
2027
2027
2026
2025
2025
2026
2029
2031
2032
2032
2029
2028
2027
2028
2030
2030
2030
2030
2030
2029
2029
2028
2028
2028
2028
2028
2029
2029
2029
2027
2030
2029
2029
2027
2024
2023
2025
2032
2043
2055
2067
2077
2085
2086
2083
2072
2054
2040
2028
2023
2024
2028
2031
2033
2032
2033
2032
2032
2032
2032
2032
2031
2033
2032
2032
2029
2028
2028
2035
2040
2043
2041
2036
2033
2032
2034
2038
2038
2037
2036
2037
2036
2039
2039
2038
2039
2040
2041
2042
2043
2044
2044
2044
2046
2047
2048
2047
2046
2046
2048
2052
2055
2057
2055
2053
2052
2051
2054
2053
2054
2052
2050
2048
2047
2045
2044
2042
2040
2038
2035
2034
2033
2031
2033
2033
2033
2031
2029
2028
2028
2031
2034
2035
2034
2032
2031
2029
2031
2030
2031
2031
2032
2032
2032
2032
2032
2032
2032
2032
2033
2032
2033
2032
2033
2031
2035
2035
2033
2033
2030
2030
2030
2032
2036
2038
2040
2038
2036
2032
2031
2032
2031
2034
2034
2034
2034
2033
2034
2034
2034
2034
2033
2034
2034
2034
2034
2037
2038
2037
2036
2034
2033
2036
2040
2045
2047
2044
2040
2035
2032
2033
2034
2035
2035
2035
2035
2036
2037
2037
2037
2036
2035
2034
2033
2032
2033
2036
2045
2056
2070
2083
2091
2095
2091
2081
2066
2050
2038
2032
2032
2034
2038
2039
2037
2038
2038
2038
2039
2038
2037
2037
2037
2038
2038
2039
2039
2040
2040
2040
2041
2041
2041
2039
2038
2039
2042
2046
2048
2048
2047
2043
2042
2041
2043
2046
2047
2048
2048
2048
2049
2049
2050
2051
2052
2053
2055
2056
2057
2058
2056
2059
2058
2059
2059
2057
2057
2059
2062
2064
2064
2061
2054
2049
2045
2045
2044
2043
2042
2039
2037
2036
2035
2035
2036
2035
2036
2035
2035
2035
2035
2035
2035
2036
2036
2035
2034
2034
2035
2037
2041
2041
2040
2037
2034
2033
2035
2037
2037
2037
2036
2035
2035
2033
2036
2035
2036
2036
2036
2035
2035
2034
2034
2033
2037
2035
2035
2032
2031
2032
2035
2039
2041
2041
2038
2034
2033
2031
2034
2033
2034
2034
2035
2036
2036
2036
2037
2037
2038
2038
2038
2038
2038
2039
2037
2038
2037
2036
2034
2033
2032
2034
2037
2040
2040
2039
2036
2034
2032
2033
2032
2031
2032
2036
2044
2055
2069
2082
2093
2097
2092
2078
2060
2044
2034
2029
2035
2037
2039
2038
2033
2032
2033
2037
2042
2044
2044
2040
2038
2035
2035
2037
2036
2038
2037
2038
2040
2039
2040
2040
2040
2040
2039
2040
2040
2042
2043
2044
2044
2044
2043
2042
2041
2044
2048
2052
2055
2054
2052
2049
2048
2049
2051
2053
2053
2055
2055
2055
2057
2057
2058
2058
2057
2058
2058
2057
2056
2054
2050
2048
2045
2043
2039
2036
2034
2035
2037
2039
2039
2037
2034
2032
2030
2032
2033
2034
2034
2034
2034
2033
2034
2034
2033
2033
2033
2033
2034
2034
2035
2034
2035
2035
2035
2034
2032
2032
2032
2035
2038
2039
2039
2036
2034
2032
2032
2033
2034
2034
2034
2034
2034
2034
2034
2034
2034
2034
2034
2034
2034
2034
2032
2035
2034
2034
2035
2033
2034
2034
2037
2040
2041
2042
2039
2038
2035
2036
2035
2034
2036
2035
2035
2035
2035
2035
2036
2036
2037
2036
2036
2034
2033
2032
2034
2040
2048
2061
2073
2085
2094
2096
2090
2077
2057
2042
2032
2030
2034
2039
2041
2040
2037
2036
2035
2036
2036
2037
2037
2037
2037
2037
2037
2037
2037
2039
2039
2039
2038
2036
2036
2037
2042
2046
2048
2047
2044
2042
2040
2040
2043
2043
2045
2045
2046
2046
2047
2048
2048
2050
2052
2053
2054
2054
2055
2055
2056
2059
2058
2062
2060
2056
2054
2055
2059
2066
2071
2071
2065
2056
2048
2048
2045
2047
2045
2043
2042
2041
2041
2040
2040
2039
2039
2039
2039
2039
2039
2038
2039
2041
2040
2038
2036
2035
2036
2039
2044
2046
2046
2042
2040
2038
2038
2040
2039
2040
2039
2039
2041
2040
2041
2041
2040
2040
2039
2039
2040
2040
2041
2040
2041
2040
2039
2037
2037
2038
2039
2043
2044
2044
2042
2039
2038
2038
2039
2040
2040
2039
2039
2040
2041
2041
2041
2042
2041
2041
2042
2042
2042
2042
2041
2041
2041
2040
2038
2037
2037
2039
2042
2044
2044
2042
2040
2038
2037
2039
2039
2039
2036
2036
2037
2041
2050
2061
2075
2089
2099
2101
2094
2079
2060
2045
2037
2037
2040
2042
2042
2040
2040
2042
2044
2045
2044
2042
2039
2038
2040
2042
2043
2041
2038
2037
2038
2042
2048
2050
2050
2048
2044
2041
2043
2044
2045
2047
2046
2047
2047
2045
2044
2046
2048
2053
2056
2056
2054
2052
2052
2053
2055
2056
2057
2057
2057
2059
2060
2061
2062
2062
2062
2062
2064
2063
2063
2062
2060
2060
2057
2054
2049
2045
2044
2046
2050
2053
2050
2046
2040
2037
2036
2040
2041
2042
2041
2041
2040
2040
2040
2040
2040
2040
2041
2041
2041
2041
2040
2040
2040
2040
2041
2039
2038
2037
2039
2042
2044
2044
2042
2040
2038
2037
2039
2040
2041
2040
2039
2039
2039
2039
2040
2041
2040
2040
2039
2039
2039
2039
2039
2042
2042
2040
2037
2034
2033
2036
2040
2045
2046
2042
2039
2036
2035
2038
2038
2038
2037
2038
2038
2038
2039
2038
2038
2037
2037
2037
2037
2038
2038
2038
2040
2040
2041
2039
2038
2037
2038
2039
2041
2043
2042
2040
2038
2036
2036
2036
2037
2036
2036
2037
2037
2036
2037
2037
2037
2036
2034
2033
2032
2034
2041
2050
2062
2076
2086
2091
2090
2081
2067
2053
2042
2035
2034
2034
2036
2037
2036
2036
2036
2036
2035
2034
2033
2034
2035
2036
2037
2037
2036
2035
2036
2036
2037
2038
2038
2036
2034
2032
2033
2035
2039
2042
2042
2040
2038
2036
2036
2038
2038
2040
2041
2041
2042
2042
2043
2043
2043
2044
2045
2046
2048
2048
2048
2048
2050
2049
2049
2049
2049
2051
2053
2055
2055
2053
2049
2047
2044
2042
2041
2039
2036
2035
2033
2032
2031
2030
2029
2029
2028
2028
2028
2028
2028
2028
2027
2029
2028
2028
2027
2025
2026
2027
2030
2033
2034
2033
2030
2028
2026
2028
2028
2028
2028
2027
2027
2028
2027
2028
2028
2028
2028
2028
2028
2028
2028
2027
2027
2028
2027
2026
2024
2023
2023
2026
2030
2032
2030
2028
2026
2024
2024
2026
2027
2027
2027
2027
2026
2026
2026
2027
2027
2027
2028
2028
2028
2029
2028
2029
2029
2029
2029
2027
2026
2026
2028
2030
2032
2032
2029
2027
2024
2023
2025
2026
2027
2027
2027
2027
2026
2024
2023
2024
2028
2035
2047
2059
2072
2083
2087
2085
2072
2057
2037
2021
2014
2016
2027
2038
2045
2043
2037
2029
2024
2026
2026
2032
2030
2030
2031
2032
2033
2033
2033
2032
2033
2033
2034
2034
2035
2034
2035
2037
2037
2036
2034
2034
2035
2039
2043
2047
2047
2044
2042
2040
2041
2043
2043
2045
2045
2046
2048
2048
2049
2049
2049
2050
2050
2051
2052
2053
2054
2055
2054
2054
2053
2050
2048
2047
2048
2048
2049
2047
2043
2038
2035
2033
2033
2034
2034
2033
2034
2034
2035
2035
2035
2034
2033
2034
2034
2035
2036
2035
2035
2036
2035
2036
2034
2033
2033
2036
2039
2041
2042
2039
2037
2035
2033
2035
2035
2037
2036
2037
2037
2037
2037
2037
2037
2037
2036
2036
2037
2037
2036
2037
2037
2038
2037
2036
2035
2034
2036
2039
2041
2042
2041
2038
2036
2035
2037
2039
2039
2037
2036
2035
2035
2037
2040
2042
2043
2042
2042
2041
2042
2042
2041
2044
2044
2043
2040
2037
2037
2039
2044
2048
2049
2048
2043
2040
2038
2039
2040
2041
2041
2041
2040
2041
2039
2038
2037
2039
2044
2051
2063
2076
2089
2098
2100
2094
2079
2061
2045
2034
2034
2040
2048
2053
2052
2048
2044
2041
2040
2041
2042
2044
2044
2045
2044
2044
2044
2045
2047
2046
2046
2046
2046
2047
2046
2047
2047
2047
2048
2046
2045
2045
2049
2054
2058
2059
2055
2051
2048
2048
2050
2052
2054
2054
2056
2056
2057
2057
2058
2060
2062
2063
2064
2064
2063
2064
2062
2066
2066
2068
2064
2059
2053
2051
2055
2061
2067
2064
2057
2048
2040
2040
2039
2042
2042
2041
2039
2040
2042
2041
2042
2041
2040
2042
2042
2042
2040
2036
2037
2039
2044
2048
2048
2046
2041
2040
2040
2045
2048
2047
2043
2039
2038
2038
2038
2041
2041
2040
2039
2040
2040
2040
2039
2039
2038
2039
2041
2042
2043
2042
2041
2039
2036
2035
2034
2036
2040
2045
2047
2046
2044
2037
2035
2036
2037
2040
2039
2039
2037
2036
2036
2037
2040
2041
2042
2040
2040
2040
2039
2039
2037
2038
2039
2040
2039
2038
2037
2037
2041
2045
2046
2044
2039
2036
2034
2036
2040
2043
2044
2044
2043
2042
2041
2040
2040
2040
2040
2041
2042
2041
2042
2040
2041
2041
2040
2038
2036
2036
2039
2043
2047
2047
2043
2037
2034
2035
2044
2055
2068
2080
2091
2097
2094
2084
2067
2051
2040
2035
2036
2040
2042
2042
2040
2041
2041
2041
2039
2035
2035
2037
2043
2048
2048
2047
2043
2039
2038
2039
2041
2042
2045
2044
2043
2043
2041
2041
2043
2044
2046
2046
2046
2045
2045
2045
2044
2048
2048
2050
2048
2045
2045
2048
2057
2063
2063
2061
2054
2051
2050
2053
2055
2057
2061
2061
2060
2059
2059
2057
2060
2062
2062
2058
2054
2048
2047
2043
2047
2047
2045
2040
2036
2032
2034
2041
2047
2049
2046
2040
2035
2030
2034
2035
2037
2036
2035
2035
2035
2038
2039
2039
2039
2037
2035
2036
2036
2038
2037
2038
2037
2035
2033
2032
2033
2034
2038
2041
2043
2044
2041
2038
2032
2030
2030
2031
2031
2033
2033
2033
2033
2033
2034
2033
2034
2034
2033
2034
2033
2033
2035
2035
2036
2034
2033
2032
2032
2034
2037
2039
2038
2037
2035
2033
2034
2034
2035
2035
2035
2035
2035
2035
2036
2036
2036
2036
2036
2036
2036
2036
2036
2037
2036
2037
2036
2034
2033
2033
2035
2038
2040
2040
2039
2036
2035
2034
2034
2036
2036
2036
2036
2037
2037
2038
2039
2040
2039
2040
2040
2039
2039
2038
2038
2039
2038
2036
2034
2033
2035
2038
2041
2042
2041
2038
2036
2034
2035
2037
2035
2035
2034
2035
2040
2048
2059
2072
2084
2093
2093
2085
2071
2054
2041
2033
2034
2036
2038
2038
2037
2037
2040
2042
2043
2041
2038
2036
2035
2036
2039
2039
2039
2039
2040
2040
2040
2040
2040
2041
2041
2041
2042
2042
2043
2043
2042
2045
2044
2044
2043
2042
2043
2046
2048
2052
2053
2051
2049
2048
2049
2050
2053
2052
2054
2053
2053
2055
2055
2056
2057
2058
2059
2059
2059
2059
2059
2059
2057
2059
2056
2053
2048
2043
2043
2045
2049
2050
2047
2042
2036
2035
2035
2038
2037
2035
2034
2035
2036
2037
2038
2036
2036
2035
2034
2036
2036
2035
2035
2034
2037
2037
2036
2033
2031
2029
2032
2037
2042
2043
2040
2035
2032
2029
2032
2033
2033
2033
2032
2032
2031
2032
2032
2033
2033
2033
2033
2033
2032
2032
2031
2032
2032
2031
2029
2028
2028
2031
2033
2035
2035
2032
2030
2027
2027
2028
2029
2029
2029
2029
2029
2030
2030
2030
2030
2030
2030
2029
2029
2029
2029
2028
2030
2030
2029
2028
2026
2025
2026
2029
2033
2035
2035
2032
2029
2026
2027
2028
2028
2030
2029
2029
2030
2029
2030
2030
2030
2031
2030
2031
2031
2031
2031
2031
2031
2030
2029
2027
2026
2026
2027
2030
2032
2032
2030
2028
2027
2026
2027
2028
2027
2025
2024
2024
2026
2033
2043
2054
2067
2078
2084
2082
2073
2057
2042
2029
2023
2022
2023
2025
2027
2028
2031
2032
2031
2029
2027
2026
2025
2026
2026
2026
2026
2027
2028
2028
2028
2027
2027
2027
2027
2028
2028
2028
2029
2028
2029
2030
2030
2029
2028
2028
2030
2033
2035
2037
2036
2034
2034
2033
2035
2037
2037
2038
2039
2039
2039
2040
2040
2041
2042
2042
2043
2043
2044
2044
2043
2045
2044
2042
2040
2038
2037
2037
2036
2035
2031
2028
2025
2025
2021
2020
2018
2018
2022
2026
2029
2028
2024
2021
2017
2019
2021
2023
2022
2022
2022
2022
2023
2023
2024
2022
2020
2019
2019
2022
2026
2029
2028
2026
2023
2020
2023
2022
2023
2022
2021
2022
2023
2024
2025
2025
2025
2023
2024
2023
2024
2024
2023
2025
2026
2025
2025
2022
2021
2022
2027
2030
2033
2032
2028
2026
2025
2026
2030
2030
2031
2029
2028
2028
2029
2029
2030
2030
2030
2030
2030
2030
2030
2029
2029
2030
2030
2029
2027
2026
2027
2031
2033
2035
2033
2031
2032
2038
2048
2062
2077
2087
2091
2086
2072
2056
2040
2029
2026
2027
2031
2034
2035
2034
2034
2034
2036
2036
2035
2033
2031
2032
2034
2039
2043
2044
2044
2040
2038
2038
2036
2039
2038
2040
2040
2041
2042
2041
2042
2043
2044
2045
2045
2045
2046
2047
2048
2048
2049
2048
2048
2048
2049
2052
2056
2060
2060
2059
2057
2055
2055
2056
2057
2058
2059
2059
2059
2058
2057
2056
2055
2055
2052
2050
2048
2045
2043
2041
2039
2041
2040
2039
2035
2032
2032
2035
2040
2044
2045
2042
2038
2035
2032
2036
2037
2038
2038
2038
2038
2038
2038
2038
2038
2038
2038
2039
2039
2038
2039
2037
2038
2039
2038
2038
2036
2036
2036
2039
2042
2042
2041
2039
2037
2036
2036
2038
2038
2038
2038
2038
2038
2038
2038
2038
2038
2038
2038
2039
2039
2039
2038
2039
2039
2039
2038
2038
2038
2039
2041
2043
2043
2042
2040
2039
2038
2040
2041
2042
2042
2042
2042
2042
2042
2042
2042
2042
2042
2042
2041
2041
2040
2041
2041
2041
2041
2039
2039
2038
2039
2042
2044
2045
2042
2040
2039
2042
2049
2060
2073
2086
2096
2099
2094
2083
2066
2051
2042
2038
2039
2042
2044
2046
2044
2043
2044
2043
2043
2041
2040
2040
2043
2046
2048
2048
2045
2043
2043
2042
2046
2045
2046
2045
2044
2045
2045
2046
2047
2047
2047
2047
2048
2048
2048
2048
2048
2049
2051
2050
2050
2049
2050
2052
2056
2059
2061
2060
2058
2057
2057
2059
2060
2061
2061
2062
2062
2063
2063
2063
2062
2060
2058
2056
2054
2051
2049
2047
2048
2046
2044
2042
2038
2037
2037
2040
2044
2046
2046
2043
2041
2040
2039
2041
2039
2041
2040
2040
2041
2041
2041
2041
2040
2041
2040
2040
2040
2041
2041
2041
2041
2040
2040
2038
2037
2038
2039
2043
2045
2044
2042
2038
2037
2036
2036
2037
2037
2038
2037
2037
2037
2037
2038
2039
2039
2039
2038
2037
2038
2037
2038
2041
2039
2038
2033
2031
2032
2036
2043
2046
2046
2042
2038
2034
2033
2037
2037
2038
2039
2038
2038
2038
2039
2039
2040
2041
2042
2042
2042
2041
2041
2041
2042
2042
2041
2039
2037
2038
2040
2043
2045
2044
2042
2039
2038
2038
2039
2040
2040
2039
2037
2036
2036
2040
2048
2059
2072
2085
2095
2098
2093
2079
2061
2048
2037
2034
2035
2037
2040
2042
2044
2045
2045
2043
2041
2039
2038
2039
2039
2040
2040
2040
2040
2040
2040
2040
2040
2041
2041
2042
2042
2042
2042
2043
2044
2044
2045
2042
2041
2040
2042
2047
2050
2053
2052
2050
2048
2047
2049
2049
2052
2053
2052
2053
2052
2053
2055
2058
2060
2060
2060
2059
2059
2059
2059
2059
2059
2057
2056
2051
2048
2045
2046
2047
2048
2048
2044
2040
2038
2036
2039
2038
2039
2037
2036
2036
2036
2036
2037
2037
2038
2037
2037
2038
2037
2038
2036
2038
2038
2038
2037
2035
2034
2036
2037
2040
2041
2041
2038
2036
2034
2034
2036
2036
2036
2036
2035
2035
2035
2036
2035
2035
2034
2034
2035
2034
2035
2034
2036
2035
2035
2032
2029
2028
2030
2034
2039
2041
2040
2036
2034
2032
2032
2034
2032
2033
2032
2033
2034
2033
2034
2034
2032
2034
2033
2034
2031
2029
2028
2029
2033
2038
2039
2036
2031
2028
2028
2032
2034
2036
2033
2031
2031
2031
2032
2032
2032
2032
2032
2031
2031
2031
2030
2031
2031
2030
2030
2029
2029
2027
2026
2029
2029
2029
2026
2023
2021
2022
2026
2030
2035
2039
2045
2053
2062
2078
2084
2083
2073
2056
2040
2027
2022
2023
2026
2030
2031
2030
2029
2028
2028
2026
2028
2029
2029
2027
2025
2026
2027
2031
2034
2034
2032
2029
2027
2026
2028
2030
2030
2030
2030
2030
2031
2031
2031
2031
2031
2032
2032
2033
2034
2034
2033
2036
2035
2036
2036
2035
2036
2038
2040
2043
2044
2045
2043
2042
2041
2043
2044
2044
2045
2044
2044
2044
2043
2042
2040
2038
2036
2034
2032
2030
2028
2026
2025
2025
2024
2023
2021
2018
2018
2020
2023
2025
2024
2022
2020
2019
2020
2020
2019
2021
2020
2020
2019
2019
2020
2021
2023
2023
2023
2021
2020
2020
2017
2021
2022
2021
2021
2019
2018
2018
2022
2025
2027
2026
2023
2020
2019
2019
2022
2022
2022
2020
2019
2019
2020
2020
2021
2021
2021
2022
2022
2022
2022
2023
2022
2024
2024
2023
2022
2020
2020
2023
2026
2028
2028
2027
2023
2022
2020
2021
2022
2022
2022
2022
2022
2023
2023
2024
2024
2023
2022
2021
2022
2028
2037
2049
2066
2079
2086
2083
2069
2053
2038
2029
2027
2028
2030
2030
2029
2028
2027
2029
2028
2029
2030
2030
2032
2031
2031
2031
2031
2032
2032
2033
2033
2034
2034
2035
2036
2035
2034
2032
2033
2035
2039
2043
2044
2044
2041
2038
2037
2039
2040
2042
2043
2044
2045
2047
2048
2048
2049
2049
2049
2049
2051
2052
2053
2054
2053
2057
2056
2056
2051
2049
2048
2050
2054
2056
2055
2049
2044
2039
2035
2038
2037
2038
2037
2036
2036
2035
2034
2034
2034
2035
2035
2035
2036
2036
2037
2035
2037
2037
2038
2037
2035
2034
2035
2038
2041
2042
2041
2039
2037
2036
2036
2038
2038
2038
2038
2038
2038
2037
2037
2037
2037
2037
2037
2037
2037
2037
2036
2037
2037
2037
2036
2035
2034
2035
2038
2040
2042
2041
2040
2038
2036
2037
2037
2038
2038
2038
2038
2038
2038
2038
2038
2038
2038
2038
2038
2039
2039
2040
2040
2041
2042
2040
2039
2037
2038
2041
2044
2046
2045
2043
2040
2038
2038
2038
2039
2039
2038
2039
2039
2039
2039
2038
2038
2038
2038
2038
2041
2046
2054
2066
2081
2095
2101
2095
2082
2064
2049
2041
2040
2042
2043
2044
2043
2041
2042
2042
2042
2041
2040
2041
2041
2041
2042
2042
2042
2042
2043
2044
2044
2044
2043
2044
2045
2044
2044
2043
2042
2044
2046
2048
2050
2050
2048
2048
2046
2047
2048
2049
2050
2050
2050
2052
2052
2054
2055
2056
2056
2057
2058
2059
2060
2060
2062
2063
2062
2062
2059
2058
2058
2060
2063
2064
2061
2055
2050
2047
2044
2046
2042
2043
2041
2041
2041
2040
2040
2039
2039
2039
2038
2038
2038
2039
2040
2040
2042
2040
2039
2036
2035
2035
2038
2043
2045
2045
2043
2039
2038
2036
2038
2039
2039
2039
2040
2040
2040
2039
2039
2039
2039
2040
2040
2040
2040
2039
2037
2040
2039
2039
2036
2033
2033
2036
2041
2045
2046
2043
2039
2036
2033
2036
2036
2038
2039
2039
2039
2038
2038
2038
2038
2039
2038
2038
2039
2038
2038
2038
2039
2039
2039
2037
2036
2037
2039
2042
2045
2044
2041
2038
2036
2036
2038
2041
2041
2041
2041
2041
2041
2040
2040
2040
2040
2040
2040
2040
2040
2040
2038
2040
2039
2038
2037
2035
2036
2038
2042
2044
2043
2040
2036
2034
2037
2048
2058
2072
2085
2095
2096
2090
2076
2058
2044
2035
2034
2037
2040
2042
2041
2039
2040
2040
2040
2038
2037
2035
2037
2041
2044
2048
2047
2044
2039
2034
2035
2037
2042
2047
2048
2048
2043
2040
2037
2039
2042
2045
2046
2046
2046
2045
2045
2045
2047
2048
2048
2047
2045
2046
2049
2053
2057
2058
2056
2054
2053
2054
2058
2058
2059
2057
2056
2057
2058
2059
2060
2059
2057
2054
2052
2050
2048
2047
2043
2043
2042
2040
2037
2035
2033
2035
2037
2040
2041
2040
2037
2035
2033
2034
2035
2036
2036
2036
2036
2036
2036
2036
2036
2036
2036
2035
2035
2035
2035
2034
2036
2036
2035
2034
2030
2029
2029
2033
2038
2040
2040
2036
2033
2030
2029
2031
2030
2031
2032
2032
2034
2032
2032
2031
2031
2031
2031
2031
2031
2031
2031
2031
2032
2030
2030
2028
2027
2029
2031
2034
2036
2035
2033
2030
2029
2029
2029
2029
2030
2030
2029
2029
2029
2030
2031
2031
2031
2031
2029
2028
2029
2029
2030
2033
2031
2029
2024
2021
2021
2025
2032
2037
2038
2034
2029
2025
2023
2027
2028
2030
2031
2030
2029
2029
2029
2029
2029
2029
2028
2028
2029
2028
2028
2027
2029
2028
2027
2026
2024
2026
2028
2031
2033
2031
2028
2026
2030
2037
2049
2063
2076
2084
2085
2077
2063
2046
2032
2024
2022
2025
2029
2030
2030
2029
2028
2030
2029
2028
2026
2024
2025
2028
2031
2034
2034
2033
2030
2029
2028
2030
2030
2031
2031
2031
2031
2031
2031
2032
2032
2034
2034
2034
2034
2034
2035
2035
2037
2037
2037
2036
2035
2035
2038
2042
2046
2048
2047
2045
2043
2042
2044
2045
2046
2047
2047
2047
2048
2048
2047
2046
2045
2043
2042
2041
2039
2037
2033
2030
2030
2028
2029
2025
2022
2021
2023
2026
2029
2030
2027
2024
2023
2022
2025
2025
2026
2024
2023
2023
2023
2024
2025
2026
2026
2026
2026
2026
2026
2026
2026
2027
2028
2027
2026
2024
2023
2025
2027
2031
2032
2031
2028
2026
2025
2026
2027
2027
2027
2028
2027
2028
2028
2029
2028
2029
2029
2029
2029
2029
2029
2029
2032
2032
2031
2030
2026
2026
2027
2031
2036
2038
2039
2036
2034
2032
2032
2034
2032
2033
2033
2034
2035
2035
2034
2034
2034
2034
2033
2033
2032
2033
2034
2034
2034
2032
2030
2027
2026
2028
2033
2041
2049
2057
2066
2076
2085
2091
2091
2082
2067
2050
2037
2030
2030
2033
2037
2040
2041
2040
2039
2038
2037
2037
2037
2041
2040
2040
2036
2032
2031
2034
2042
2048
2049
2048
2044
2041
2036
2040
2040
2043
2043
2042
2043
2043
2044
2046
2048
2048
2047
2046
2047
2049
2050
2052
2052
2051
2052
2051
2051
2052
2056
2060
2065
2066
2064
2062
2058
2057
2059
2061
2062
2061
2060
2058
2056
2054
2052
2049
2048
2046
2045
2044
2043
2043
2041
2042
2042
2042
2040
2038
2037
2038
2042
2046
2048
2048
2044
2041
2040
2040
2042
2043
2043
2043
2043
2043
2043
2043
2043
2043
2044
2044
2044
2045
2044
2044
2044
2045
2045
2044
2041
2039
2039
2042
2048
2051
2050
2048
2045
2043
2044
2045
2044
2043
2041
2040
2041
2042
2045
2047
2046
2044
2042
2042
2041
2044
2045
2045
2046
2044
2043
2038
2037
2038
2042
2048
2050
2051
2048
2044
2042
2041
2043
2044
2046
2045
2043
2041
2041
2042
2044
2045
2046
2045
2044
2043
2043
2044
2045
2047
2046
2044
2040
2040
2039
2044
2049
2054
2054
2053
2049
2044
2041
2042
2043
2046
2046
2047
2046
2045
2045
2044
2043
2044
2044
2044
2044
2045
2045
2043
2044
2043
2041
2041
2044
2051
2065
2085
2102
2112
2109
2095
2075
2055
2043
2040
2039
2044
2047
2048
2048
2047
2046
2046
2046
2047
2045
2046
2046
2046
2047
2048
2048
2048
2046
2043
2041
2042
2047
2052
2055
2054
2051
2047
2044
2045
2046
2048
2048
2049
2049
2049
2049
2050
2051
2055
2056
2056
2054
2050
2049
2051
2057
2068
2070
2068
2060
2053
2049
2054
2065
2072
2075
2072
2066
2061
2057
2059
2058
2057
2054
2052
2049
2048
2046
2044
2043
2042
2040
2038
2038
2037
2036
2036
2036
2037
2036
2034
2032
2031
2034
2037
2041
2042
2040
2037
2033
2031
2032
2033
2034
2033
2033
2033
2033
2033
2033
2033
2033
2033
2033
2033
2033
2033
2031
2032
2031
2031
2030
2028
2027
2028
2032
2036
2038
2037
2033
2030
2027
2028
2030
2031
2031
2030
2029
2029
2028
2029
2030
2032
2033
2033
2031
2029
2027
2026
2026
2028
2028
2027
2026
2024
2024
2027
2030
2033
2033
2031
2028
2026
2027
2027
2028
2028
2027
2028
2027
2027
2027
2028
2028
2027
2027
2027
2028
2028
2029
2029
2032
2030
2030
2026
2022
2022
2024
2028
2033
2034
2031
2027
2025
2023
2027
2026
2027
2025
2024
2023
2024
2025
2026
2026
2026
2023
2022
2023
2027
2036
2046
2059
2072
2080
2081
2074
2059
2044
2031
2024
2022
2023
2026
2027
2025
2025
2026
2025
2025
2026
2026
2027
2027
2027
2027
2027
2028
2028
2028
2028
2029
2028
2031
2032
2032
2031
2028
2027
2027
2031
2037
2040
2041
2038
2035
2033
2033
2036
2036
2038
2038
2039
2041
2041
2042
2042
2043
2044
2045
2046
2047
2048
2048
2049
2050
2050
2050
2048
2048
2048
2050
2053
2054
2052
2048
2043
2040
2038
2036
2036
2034
2033
2031
2030
2030
2030
2030
2030
2030
2030
2030
2029
2029
2028
2028
2031
2029
2029
2026
2023
2023
2027
2034
2038
2039
2035
2031
2027
2025
2029
2030
2031
2032
2031
2031
2031
2032
2032
2031
2032
2032
2032
2033
2033
2033
2031
2033
2033
2031
2030
2029
2030
2032
2036
2038
2037
2035
2032
2031
2030
2031
2033
2033
2034
2034
2034
2034
2034
2034
2034
2034
2035
2035
2035
2036
2036
2034
2037
2035
2035
2034
2032
2033
2035
2039
2042
2042
2041
2038
2037
2036
2039
2039
2039
2039
2038
2038
2039
2038
2038
2038
2038
2039
2038
2039
2038
2039
2038
2039
2040
2040
2039
2037
2034
2035
2038
2046
2053
2063
2073
2083
2092
2097
2093
2081
2063
2047
2036
2033
2035
2039
2040
2044
2042
2040
2040
2039
2040
2041
2043
2044
2042
2040
2037
2035
2036
2040
2043
2044
2045
2043
2041
2041
2039
2042
2042
2043
2043
2044
2045
2045
2045
2047
2048
2049
2049
2049
2049
2048
2048
2048
2052
2053
2055
2053
2050
2048
2049
2053
2060
2066
2068
2066
2062
2058
2059
2058
2059
2060
2059
2058
2055
2054
2051
2049
2047
2045
2043
2041
2040
2039
2038
2038
2038
2038
2036
2033
2032
2032
2036
2040
2043
2043
2041
2038
2036
2035
2037
2038
2039
2039
2039
2040
2040
2040
2039
2039
2039
2039
2039
2039
2039
2040
2040
2041
2041
2039
2036
2034
2034
2037
2042
2046
2046
2044
2039
2037
2035
2037
2038
2038
2039
2039
2038
2038
2039
2039
2039
2039
2039
2040
2040
2041
2040
2039
2040
2039
2040
2038
2037
2037
2039
2043
2046
2047
2044
2041
2039
2037
2040
2040
2041
2042
2041
2041
2041
2041
2041
2040
2041
2041
2041
2042
2042
2043
2042
2042
2042
2042
2041
2040
2040
2041
2044
2046
2046
2046
2043
2041
2040
2042
2044
2045
2045
2044
2044
2044
2044
2044
2044
2044
2044
2044
2044
2044
2044
2042
2043
2042
2042
2041
2040
2040
2041
2043
2044
2044
2042
2042
2045
2051
2063
2076
2090
2099
2101
2094
2080
2063
2048
2040
2038
2041
2045
2046
2046
2044
2044
2044
2045
2045
2044
2043
2042
2043
2045
2047
2048
2048
2047
2045
2044
2045
2046
2046
2046
2046
2046
2046
2046
2046
2047
2048
2048
2048
2049
2048
2048
2048
2049
2052
2052
2054
2052
2050
2050
2052
2058
2063
2065
2061
2057
2055
2056
2063
2069
2073
2071
2066
2063
2061
2063
2065
2066
2064
2062
2059
2057
2054
2051
2048
2048
2047
2046
2041
2036
2033
2033
2038
2045
2049
2049
2045
2039
2034
2035
2036
2038
2038
2038
2038
2038
2038
2038
2038
2037
2037
2037
2036
2036
2036
2035
2038
2037
2037
2035
2032
2030
2029
2033
2037
2040
2039
2035
2032
2028
2029
2029
2029
2030
2029
2030
2030
2029
2030
2030
2029
2030
2029
2029
2029
2029
2030
2029
2030
2029
2028
2026
2026
2026
2027
2030
2031
2031
2030
2027
2027
2026
2027
2027
2028
2028
2028
2028
2028
2027
2027
2028
2028
2029
2029
2029
2028
2027
2027
2028
2028
2028
2026
2025
2025
2027
2030
2031
2032
2029
2028
2026
2025
2026
2026
2028
2028
2029
2029
2029
2029
2028
2028
2028
2027
2027
2027
2027
2026
2026
2027
2026
2026
2023
2022
2022
2025
2028
2031
2031
2029
2026
2024
2022
2022
2022
2024
2028
2036
2047
2058
2070
2079
2082
2077
2064
2048
2032
2022
2020
2020
2025
2027
2029
2026
2025
2024
2025
2027
2028
2029
2029
2027
2026
2025
2026
2027
2028
2028
2028
2028
2028
2028
2028
2028
2029
2029
2030
2030
2031
2030
2030
2030
2032
2033
2033
2032
2031
2032
2035
2038
2041
2041
2040
2039
2039
2040
2042
2043
2044
2044
2045
2046
2046
2047
2048
2048
2048
2048
2048
2048
2047
2045
2042
2042
2040
2039
2036
2032
2029
2029
2031
2033
2034
2031
2027
2025
2024
2027
2027
2029
2027
2026
2026
2027
2027
2028
2029
2030
2030
2030
2031
2030
2030
2029
2030
2032
2032
2029
2025
2022
2023
2028
2036
2042
2042
2037
2031
2025
2025
2027
2030
2030
2031
2032
2031
2032
2031
2032
2031
2031
2031
2031
2031
2032
2031
2033
2033
2034
2032
2028
2026
2026
2031
2036
2041
2042
2038
2034
2031
2031
2032
2033
2034
2034
2034
2035
2034
2035
2035
2035
2035
2034
2035
2035
2036
2036
2036
2037
2036
2036
2034
2034
2035
2038
2041
2043
2043
2041
2038
2037
2037
2039
2040
2040
2039
2038
2037
2037
2037
2038
2038
2038
2038
2038
2038
2039
2039
2038
2038
2036
2035
2037
2043
2053
2068
2085
2097
2101
2094
2079
2060
2044
2035
2032
2036
2039
2042
2042
2040
2040
2039
2040
2040
2040
2040
2041
2040
2041
2041
2041
2042
2042
2041
2040
2040
2042
2044
2047
2047
2046
2044
2043
2042
2044
2045
2046
2047
2048
2048
2048
2048
2048
2049
2050
2051
2051
2052
2053
2054
2053
2057
2057
2057
2056
2055
2056
2060
2064
2067
2066
2064
2061
2061
2060
2063
2062
2060
2058
2055
2052
2050
2048
2046
2045
2043
2042
2042
2041
2040
2039
2038
2039
2040
2040
2038
2037
2036
2037
2041
2044
2045
2044
2041
2039
2037
2039
2040
2041
2040
2040
2040
2040
2040
2040
2040
2041
2040
2040
2039
2041
2041
2039
2040
2040
2039
2040
2038
2037
2038
2040
2043
2044
2044
2042
2039
2038
2037
2039
2038
2040
2039
2039
2040
2039
2039
2040
2041
2042
2042
2041
2041
2039
2040
2039
2042
2042
2043
2040
2035
2033
2034
2038
2045
2048
2049
2047
2043
2038
2038
2038
2040
2041
2041
2042
2041
2042
2042
2042
2041
2042
2042
2042
2042
2042
2041
2043
2043
2044
2041
2038
2037
2037
2042
2046
2049
2049
2046
2043
2040
2040
2042
2042
2043
2044
2045
2045
2045
2045
2045
2044
2045
2044
2045
2044
2044
2044
2043
2046
2044
2042
2039
2035
2036
2041
2048
2052
2051
2047
2040
2037
2036
2044
2050
2059
2071
2085
2096
2102
2100
2088
2070
2053
2043
2039
2041
2046
2048
2048
2047
2045
2045
2043
2041
2040
2042
2046
2049
2051
2048
2047
2045
2043
2045
2045
2047
2047
2047
2048
2048
2048
2048
2049
2049
2048
2047
2046
2047
2051
2056
2060
2060
2056
2052
2048
2049
2052
2057
2059
2061
2060
2059
2059
2059
2061
2063
2064
2064
2065
2065
2065
2066
2067
2068
2068
2067
2067
2065
2064
2062
2058
2057
2054
2053
2050
2048
2046
2045
2045
2046
2048
2047
2045
2042
2040
2041
2041
2042
2042
2042
2042
2042
2042
2042
2042
2043
2043
2043
2043
2042
2042
2041
2041
2042
2042
2041
2039
2038
2037
2039
2042
2044
2044
2042
2040
2039
2039
2039
2040
2039
2039
2039
2039
2039
2039
2039
2039
2040
2040
2039
2039
2040
2039
2038
2040
2038
2039
2037
2036
2036
2038
2041
2044
2044
2041
2039
2036
2035
2039
2039
2039
2038
2037
2036
2036
2037
2037
2038
2038
2038
2038
2039
2038
2038
2036
2038
2039
2039
2035
2030
2027
2028
2035
2045
2049
2048
2044
2037
2032
2032
2034
2036
2036
2036
2036
2036
2037
2037
2037
2037
2036
2036
2036
2035
2035
2034
2038
2038
2039
2037
2034
2031
2032
2036
2040
2043
2042
2039
2036
2032
2034
2034
2034
2034
2034
2034
2034
2034
2034
2035
2035
2035
2034
2032
2031
2031
2035
2043
2053
2065
2077
2084
2086
2083
2074
2062
2049
2039
2033
2031
2032
2034
2036
2034
2034
2034
2033
2033
2033
2033
2034
2034
2034
2035
2035
2035
2036
2034
2035
2035
2035
2034
2032
2032
2033
2035
2040
2042
2042
2040
2037
2035
2035
2037
2037
2040
2041
2041
2042
2042
2042
2042
2043
2044
2045
2046
2047
2048
2048
2048
2049
2051
2052
2050
2049
2048
2049
2052
2056
2059
2058
2054
2050
2046
2045
2045
2043
2042
2039
2037
2035
2034
2033
2032
2032
2032
2032
2031
2031
2031
2029
2032
2032
2031
2030
2028
2027
2029
2032
2035
2037
2036
2034
2031
2029
2031
2031
2032
2032
2032
2032
2032
2031
2031
2031
2032
2032
2033
2033
2033
2032
2032
2032
2033
2033
2032
2030
2028
2028
2031
2034
2036
2036
2034
2031
2030
2031
2032
2033
2033
2033
2033
2033
2033
2033
2033
2034
2034
2035
2035
2034
2033
2034
2033
2035
2033
2033
2031
2031
2033
2035
2038
2038
2038
2036
2033
2034
2032
2034
2034
2035
2035
2035
2035
2034
2034
2035
2035
2037
2037
2038
2038
2037
2037
2035
2038
2038
2041
2038
2033
2031
2032
2036
2042
2046
2046
2042
2038
2033
2034
2034
2036
2036
2035
2035
2034
2034
2035
2040
2048
2058
2071
2083
2092
2094
2087
2075
2058
2045
2033
2029
2030
2034
2039
2043
2045
2045
2042
2040
2037
2038
2039
2040
2040
2040
2040
2041
2040
2041
2041
2041
2042
2042
2042
2043
2043
2043
2043
2046
2046
2044
2041
2038
2038
2044
2050
2055
2056
2053
2049
2047
2045
2048
2049
2050
2051
2053
2054
2055
2056
2056
2057
2057
2058
2059
2060
2061
2060
2060
2061
2060
2060
2056
2053
2050
2050
2052
2052
2051
2047
2043
2039
2036
2037
2035
2036
2035
2035
2035
2034
2035
2034
2034
2034
2034
2035
2035
2035
2034
2034
2035
2036
2036
2034
2032
2031
2033
2035
2038
2040
2038
2035
2033
2032
2033
2034
2035
2034
2034
2034
2033
2033
2033
2033
2033
2033
2034
2033
2034
2033
2032
2035
2034
2034
2032
2030
2030
2032
2036
2038
2040
2038
2036
2034
2031
2034
2034
2035
2035
2035
2036
2036
2036
2036
2036
2036
2036
2037
2037
2037
2037
2036
2036
2037
2037
2038
2036
2034
2034
2035
2039
2042
2043
2041
2039
2037
2036
2037
2038
2038
2038
2038
2038
2038
2038
2038
2038
2039
2040
2040
2040
2041
2040
2041
2042
2040
2041
2039
2037
2039
2040
2043
2044
2045
2043
2042
2038
2038
2039
2038
2040
2041
2040
2039
2037
2035
2036
2038
2045
2052
2063
2074
2086
2094
2095
2093
2078
2060
2044
2032
2030
2037
2046
2052
2049
2044
2039
2037
2040
2047
2048
2048
2043
2039
2038
2040
2043
2045
2044
2044
2043
2044
2043
2045
2045
2045
2047
2047
2048
2047
2046
2045
2045
2048
2051
2054
2055
2053
2051
2049
2051
2052
2053
2054
2055
2056
2058
2058
2059
2060
2061
2062
2063
2063
2064
2064
2065
2065
2067
2068
2065
2061
2057
2056
2059
2063
2066
2065
2059
2052
2048
2045
2046
2046
2045
2044
2043
2043
2043
2043
2044
2043
2043
2044
2044
2045
2045
2044
2043
2044
2043
2045
2043
2042
2040
2041
2045
2048
2049
2048
2046
2043
2040
2043
2042
2044
2043
2043
2043
2043
2043
2043
2043
2043
2043
2043
2043
2043
2043
2042
2045
2044
2044
2041
2039
2037
2039
2044
2048
2049
2048
2045
2042
2040
2042
2043
2044
2044
2044
2044
2044
2044
2043
2044
2044
2044
2044
2044
2044
2043
2042
2043
2043
2044
2043
2042
2042
2043
2045
2046
2047
2046
2045
2043
2042
2044
2044
2045
2044
2044
2044
2044
2044
2044
2044
2044
2044
2044
2044
2044
2044
2044
2044
2046
2047
2046
2045
2044
2043
2045
2048
2049
2048
2047
2045
2043
2043
2044
2044
2044
2044
2044
2044
2044
2045
2045
2045
2044
2043
2042
2042
2047
2054
2064
2077
2089
2100
2101
2094
2081
2064
2052
2046
2046
2047
2049
2050
2048
2047
2044
2043
2041
2042
2046
2048
2049
2050
2050
2049
2048
2048
2048
2047
2047
2046
2050
2051
2053
2050
2046
2041
2040
2045
2051
2058
2060
2058
2051
2047
2047
2049
2052
2055
2053
2052
2051
2053
2055
2057
2059
2059
2058
2058
2060
2061
2060
2063
2064
2064
2062
2059
2058
2060
2066
2072
2075
2073
2066
2059
2051
2051
2052
2051
2050
2048
2046
2045
2044
2044
2043
2042
2042
2041
2041
2041
2041
2041
2040
2042
2041
2041
2039
2036
2034
2038
2043
2048
2051
2050
2044
2040
2036
2038
2038
2040
2041
2041
2040
2042
2040
2040
2040
2041
2041
2041
2040
2039
2039
2040
2043
2040
2038
2034
2030
2032
2036
2044
2048
2048
2045
2038
2034
2032
2036
2038
2042
2042
2039
2038
2037
2037
2038
2038
2038
2037
2037
2037
2039
2039
2036
2038
2037
2036
2036
2034
2033
2034
2038
2043
2047
2044
2042
2039
2034
2036
2036
2037
2039
2038
2037
2036
2036
2036
2037
2037
2038
2038
2038
2039
2039
2039
2041
2042
2041
2038
2033
2031
2032
2038
2046
2048
2047
2041
2034
2031
2030
2033
2035
2036
2036
2036
2035
2035
2033
2033
2034
2038
2046
2056
2068
2081
2090
2091
2086
2072
2054
2037
2026
2024
2030
2038
2043
2043
2038
2034
2032
2032
2034
2035
2035
2034
2034
2034
2035
2035
2035
2036
2036
2036
2036
2036
2036
2036
2037
2038
2038
2039
2036
2035
2034
2036
2041
2046
2048
2047
2044
2041
2039
2040
2042
2046
2045
2045
2046
2046
2046
2047
2048
2050
2051
2052
2052
2051
2052
2050
2053
2054
2054
2052
2048
2048
2048
2049
2052
2054
2051
2046
2043
2037
2037
2035
2034
2034
2033
2034
2034
2034
2033
2033
2032
2031
2033
2033
2034
2035
2034
2036
2036
2035
2034
2030
2028
2029
2033
2039
2044
2044
2040
2036
2033
2032
2034
2035
2035
2033
2034
2034
2035
2034
2033
2034
2034
2033
2035
2034
2036
2036
2036
2036
2035
2033
2032
2029
2029
2034
2039
2042
2042
2039
2036
2033
2032
2034
2035
2036
2036
2036
2035
2035
2036
2037
2038
2039
2039
2040
2039
2040
2039
2038
2042
2043
2042
2038
2032
2030
2034
2043
2050
2053
2048
2039
2032
2026
2031
2035
2037
2038
2037
2035
2034
2033
2036
2042
2051
2063
2078
2089
2095
2094
2081
2068
2051
2038
2031
2029
2032
2038
2044
2048
2048
2045
2041
2039
2037
2038
2040
2040
2041
2041
2041
2041
2042
2042
2042
2040
2038
2038
2041
2046
2049
2050
2049
2047
2044
2042
2041
2041
2042
2043
2047
2051
2054
2053
2051
2048
2048
2050
2051
2053
2054
2054
2055
2054
2056
2057
2058
2059
2059
2060
2060
2061
2060
2061
2062
2061
2059
2055
2052
2051
2051
2053
2052
2050
2047
2042
2040
2040
2040
2040
2040
2039
2039
2039
2039
2039
2038
2039
2039
2039
2040
2040
2040
2040
2040
2040
2040
2042
2040
2038
2037
2037
2039
2043
2045
2046
2044
2040
2037
2038
2038
2040
2040
2040
2039
2039
2039
2039
2040
2041
2041
2041
2041
2040
2040
2038
2042
2042
2041
2041
2037
2035
2036
2038
2043
2046
2046
2043
2040
2037
2038
2039
2040
2041
2040
2040
2041
2041
2041
2041
2041
2041
2041
2042
2043
2044
2044
2045
2044
2044
2043
2040
2039
2039
2043
2047
2049
2048
2046
2043
2040
2040
2042
2042
2042
2041
2041
2042
2040
2039
2038
2039
2046
2054
2067
2080
2092
2099
2097
2089
2073
2055
2040
2032
2032
2038
2046
2049
2049
2047
2043
2041
2039
2041
2042
2042
2042
2041
2041
2042
2042
2043
2044
2044
2044
2044
2043
2044
2043
2042
2046
2045
2045
2042
2039
2037
2040
2047
2052
2056
2054
2050
2046
2042
2047
2048
2050
2052
2051
2051
2052
2053
2054
2054
2055
2055
2056
2057
2057
2058
2056
2059
2059
2058
2057
2053
2051
2051
2053
2055
2054
2051
2045
2040
2036
2035
2036
2036
2036
2035
2035
2035
2034
2034
2034
2034
2034
2035
2034
2034
2034
2033
2034
2034
2035
2034
2031
2030
2031
2034
2037
2039
2038
2035
2032
2031
2032
2034
2034
2034
2033
2033
2033
2032
2032
2032
2033
2033
2033
2033
2033
2032
2032
2031
2032
2032
2032
2031
2031
2031
2032
2034
2035
2035
2033
2031
2030
2029
2030
2032
2032
2033
2033
2033
2033
2033
2033
2033
2033
2033
2032
2032
2032
2031
2030
2030
2030
2030
2029
2028
2027
2027
2029
2032
2034
2033
2030
2026
2025
2029
2037
2049
2062
2076
2085
2089
2084
2072
2054
2038
2027
2023
2025
2028
2031
2031
2032
2032
2032
2029
2026
2024
2025
2029
2034
2036
2035
2032
2028
2026
2028
2028
2030
2030
2030
2031
2032
2033
2033
2033
2033
2032
2033
2034
2035
2035
2034
2036
2037
2038
2038
2036
2034
2034
2037
2042
2047
2048
2047
2045
2042
2042
2044
2043
2046
2046
2046
2048
2048
2048
2048
2047
2046
2044
2043
2040
2038
2035
2035
2035
2032
2030
2025
2021
2021
2024
2030
2033
2032
2029
2025
2023
2023
2025
2025
2026
2026
2026
2026
2026
2027
2027
2027
2027
2027
2026
2026
2027
2027
2026
2030
2029
2027
2024
2020
2018
2020
2026
2032
2036
2035
2031
2026
2021
2024
2024
2024
2027
2026
2026
2026
2026
2027
2028
2029
2029
2030
2030
2030
2030
2028
2031
2030
2029
2026
2023
2023
2026
2032
2036
2037
2034
2029
2026
2025
2027
2029
2029
2029
2027
2028
2030
2037
2048
2060
2075
2088
2093
2090
2078
2060
2042
2030
2024
2025
2028
2029
2030
2030
2033
2036
2037
2037
2035
2033
2032
2033
2034
2034
2035
2035
2035
2036
2036
2036
2037
2037
2038
2038
2038
2038
2039
2039
2039
2040
2041
2041
2040
2040
2041
2043
2046
2048
2048
2048
2046
2046
2047
2048
2050
2051
2051
2051
2052
2052
2053
2053
2054
2054
2054
2055
2054
2054
2052
2051
2050
2048
2046
2042
2039
2037
2036
2036
2036
2035
2034
2033
2033
2032
2032
2029
2030
2029
2029
2030
2030
2030
2030
2030
2030
2031
2032
2033
2032
2032
2030
2033
2033
2034
2032
2029
2027
2028
2031
2036
2038
2037
2034
2030
2028
2030
2031
2032
2031
2031
2031
2032
2032
2032
2032
2032
2032
2033
2034
2034
2034
2033
2034
2034
2034
2033
2029
2028
2029
2033
2034
2034
2032
2030
2032
2036
2039
2039
2034
2031
2027
2028
2029
2030
2030
2033
2040
2051
2064
2079
2090
2095
2090
2077
2059
2042
2031
2024
2024
2028
2033
2039
2040
2040
2037
2034
2032
2032
2034
2034
2035
2035
2035
2035
2035
2035
2035
2036
2036
2037
2038
2037
2038
2037
2036
2039
2040
2040
2037
2034
2033
2035
2042
2048
2052
2050
2047
2042
2038
2042
2044
2046
2048
2048
2048
2048
2049
2049
2050
2051
2051
2052
2053
2053
2054
2051
2054
2052
2049
2047
2042
2040
2040
2042
2044
2043
2040
2035
2031
2029
2029
2031
2031
2031
2031
2031
2031
2030
2031
2031
2031
2032
2032
2033
2032
2033
2032
2033
2034
2034
2034
2031
2030
2030
2033
2037
2039
2040
2037
2035
2032
2032
2033
2032
2033
2032
2032
2032
2032
2033
2033
2034
2035
2035
2035
2034
2034
2033
2034
2036
2035
2034
2031
2029
2030
2032
2036
2037
2036
2034
2031
2030
2032
2033
2034
2033
2031
2029
2030
2034
2041
2052
2065
2079
2090
2095
2091
2078
2060
2043
2032
2027
2029
2032
2034
2034
2034
2035
2037
2038
2038
2037
2036
2035
2036
2035
2035
2035
2033
2035
2035
2036
2037
2038
2038
2038
2038
2039
2039
2039
2038
2042
2043
2043
2043
2040
2039
2041
2044
2048
2051
2052
2050
2048
2046
2048
2048
2050
2052
2052
2052
2053
2054
2055
2056
2056
2057
2057
2057
2056
2055
2053
2053
2051
2048
2045
2040
2036
2036
2038
2041
2043
2042
2037
2034
2031
2032
2034
2034
2034
2032
2032
2033
2034
2034
2035
2034
2035
2034
2035
2035
2035
2036
2036
2036
2036
2036
2033
2032
2032
2034
2039
2042
2042
2040
2036
2035
2033
2035
2037
2038
2038
2038
2037
2037
2037
2038
2038
2037
2037
2036
2035
2036
2035
2035
2038
2037
2036
2032
2028
2027
2029
2036
2042
2045
2042
2036
2030
2026
2035
2045
2058
2073
2087
2096
2098
2091
2076
2056
2041
2031
2029
2032
2035
2038
2036
2039
2038
2038
2035
2033
2033
2036
2041
2046
2046
2044
2039
2036
2035
2037
2040
2041
2041
2041
2040
2040
2041
2041
2042
2042
2043
2044
2044
2044
2044
2045
2045
2046
2048
2048
2048
2048
2049
2051
2053
2057
2058
2057
2056
2055
2056
2057
2059
2059
2059
2059
2058
2057
2056
2055
2054
2051
2049
2047
2045
2042
2041
2040
2040
2040
2038
2036
2035
2034
2036
2038
2039
2040
2038
2036
2036
2036
2037
2038
2037
2037
2037
2037
2037
2037
2037
2037
2038
2038
2038
2038
2038
2038
2038
2039
2038
2039
2038
2037
2037
2038
2041
2042
2042
2040
2038
2037
2038
2040
2040
2041
2038
2037
2036
2036
2037
2036
2036
2036
2037
2037
2036
2036
2036
2035
2037
2037
2036
2035
2035
2040
2051
2068
2088
2103
2107
2100
2082
2060
2045
2032
2030
2033
2036
2039
2039
2039
2038
2038
2038
2037
2037
2037
2037
2037
2038
2039
2041
2040
2038
2035
2033
2035
2042
2048
2051
2051
2047
2043
2041
2042
2045
2045
2047
2047
2048
2050
2050
2051
2052
2052
2053
2054
2055
2055
2056
2056
2057
2060
2059
2058
2055
2053
2055
2060
2068
2071
2068
2062
2056
2051
2050
2051
2049
2046
2044
2042
2041
2041
2040
2038
2036
2035
2036
2036
2036
2037
2035
2036
2036
2035
2035
2033
2032
2032
2034
2038
2040
2041
2038
2036
2034
2034
2035
2035
2037
2036
2036
2037
2037
2037
2037
2038
2038
2039
2039
2039
2039
2039
2040
2040
2040
2039
2036
2033
2034
2037
2041
2043
2043
2040
2037
2035
2035
2035
2036
2037
2037
2036
2036
2034
2032
2033
2037
2046
2057
2072
2087
2097
2100
2091
2076
2057
2042
2032
2029
2031
2036
2039
2041
2041
2040
2038
2036
2035
2035
2036
2037
2037
2037
2036
2037
2037
2037
2036
2034
2033
2036
2040
2045
2047
2046
2043
2040
2037
2038
2039
2040
2042
2045
2047
2047
2046
2044
2043
2045
2046
2048
2048
2049
2050
2050
2051
2051
2052
2052
2052
2053
2053
2053
2052
2052
2051
2049
2048
2046
2042
2039
2035
2034
2033
2034
2034
2033
2031
2030
2029
2030
2033
2033
2033
2031
2029
2029
2029
2031
2031
2032
2032
2032
2032
2033
2032
2032
2031
2032
2034
2035
2033
2030
2027
2026
2028
2034
2040
2041
2040
2037
2034
2034
2033
2034
2034
2034
2035
2035
2035
2035
2034
2034
2034
2034
2034
2035
2034
2033
2033
2035
2035
2034
2031
2027
2026
2029
2034
2042
2050
2059
2071
2084
2094
2099
2090
2075
2055
2040
2032
2030
2034
2037
2039
2038
2036
2037
2036
2037
2037
2036
2038
2038
2037
2035
2033
2033
2036
2040
2044
2044
2042
2039
2038
2037
2039
2040
2040
2040
2040
2041
2043
2043
2045
2045
2045
2046
2047
2048
2049
2049
2048
2049
2050
2050
2050
2050
2050
2052
2056
2058
2059
2057
2056
2054
2052
2053
2053
2052
2050
2048
2047
2043
2041
2038
2037
2036
2036
2035
2035
2034
2034
2034
2035
2035
2035
2034
2033
2033
2034
2037
2039
2040
2040
2038
2037
2036
2036
2037
2038
2038
2039
2039
2039
2039
2039
2039
2039
2040
2041
2042
2042
2043
2043
2043
2042
2042
2041
2040
2040
2042
2044
2047
2047
2046
2043
2041
2039
2040
2041
2042
2043
2043
2042
2041
2038
2035
2034
2037
2045
2058
2074
2092
2107
2113
2112
2100
2080
2059
2045
2039
2042
2048
2053
2055
2051
2048
2046
2043
2045
2047
2047
2047
2048
2048
2048
2049
2049
2050
2050
2051
2051
2052
2052
2052
2051
2053
2054
2055
2055
2055
2055
2057
2060
2062
2067
2067
2064
2062
2060
2062
2064
2066
2069
2068
2068
2068
2068
2069
2072
2072
2073
2074
2074
2074
2074
2074
2072
2074
2072
2069
2063
2058
2054
2055
2058
2062
2064
2061
2057
2054
2052
2054
2054
2056
2056
2057
2058
2058
2059
2059
2059
2059
2059
2059
2059
2060
2060
2059
2059
2058
2057
2056
2055
2053
2054
2055
2058
2060
2059
2056
2053
2051
2051
2051
2051
2052
2051
2051
2052
2052
2051
2051
2051
2050
2050
2049
2049
2049
2049
2048
2050
2051
2050
2048
2046
2044
2045
2048
2053
2061
2072
2085
2100
2113
2121
2118
2105
2085
2068
2056
2052
2053
2056
2057
2056
2055
2054
2054
2055
2054
2053
2055
2055
2055
2052
2049
2048
2050
2056
2062
2066
2063
2057
2052
2048
2050
2052
2054
2055
2055
2055
2055
2055
2056
2056
2058
2058
2059
2060
2060
2061
2059
2062
2063
2063
2063
2061
2061
2062
2065
2070
2072
2072
2069
2066
2064
2063
2065
2063
2061
2059
2056
2054
2052
2051
2049
2048
2048
2047
2047
2046
2046
2044
2045
2044
2044
2043
2041
2041
2042
2045
2048
2048
2048
2045
2043
2041
2042
2043
2043
2043
2043
2042
2043
2042
2042
2043
2043
2043
2042
2042
2042
2042
2043
2042
2043
2042
2043
2041
2040
2041
2041
2044
2045
2046
2044
2042
2041
2040
2041
2042
2042
2042
2043
2043
2044
2044
2044
2044
2043
2043
2042
2042
2042
2042
2042
2043
2042
2042
2041
2040
2040
2041
2044
2045
2045
2041
2037
2034
2034
2042
2051
2066
2079
2092
2099
2100
2092
2076
2060
2045
2037
2036
2039
2043
2044
2043
2043
2044
2043
2040
2037
2036
2038
2041
2046
2047
2046
2043
2040
2039
2040
2041
2042
2043
2043
2044
2044
2045
2045
2046
2046
2046
2046
2046
2047
2048
2048
2051
2050
2050
2049
2048
2048
2049
2054
2059
2063
2062
2059
2057
2056
2058
2060
2060
2061
2060
2061
2062
2061
2061
2059
2056
2054
2052
2050
2048
2047
2045
2044
2044
2042
2040
2038
2036
2037
2038
2039
2041
2042
2046
2048
2047
2045
2041
2037
2034
2036
2038
2040
2039
2040
2040
2040
2040
2040
2040
2039
2040
2039
2040
2043
2042
2040
2035
2032
2031
2035
2042
2048
2049
2046
2040
2034
2030
2034
2034
2036
2037
2037
2036
2036
2036
2036
2036
2036
2036
2037
2037
2037
2037
2036
2038
2038
2037
2036
2033
2033
2036
2041
2046
2047
2045
2041
2038
2037
2037
2039
2040
2041
2041
2042
2042
2043
2043
2043
2043
2044
2045
2046
2045
2045
2042
2042
2043
2046
2047
2045
2044
2043
2046
2048
2053
2053
2050
2047
2043
2041
2042
2044
2046
2047
2045
2044
2044
2044
2044
2045
2044
2044
2045
2045
2045
2046
2045
2047
2048
2048
2045
2041
2040
2043
2048
2051
2051
2049
2044
2041
2040
2041
2043
2042
2042
2042
2042
2043
2043
2043
2041
2039
2038
2037
2041
2047
2055
2065
2079
2091
2098
2096
2086
2071
2055
2047
2042
2045
2045
2044
2041
2037
2038
2040
2043
2043
2043
2040
2038
2038
2038
2042
2043
2044
2044
2043
2041
2041
2040
2043
2045
2045
2043
2041
2038
2039
2042
2048
2051
2051
2049
2047
2044
2044
2044
2045
2045
2046
2047
2048
2050
2053
2053
2052
2051
2050
2051
2053
2055
2055
2056
2057
2057
2057
2054
2053
2055
2059
2063
2066
2063
2057
2051
2048
2047
2047
2045
2043
2040
2040
2039
2039
2038
2035
2034
2033
2035
2036
2035
2035
2034
2033
2035
2038
2037
2034
2030
2028
2031
2036
2042
2043
2040
2036
2032
2030
2032
2033
2034
2034
2033
2032
2033
2033
2034
2034
2035
2034
2033
2033
2033
2032
2031
2035
2035
2035
2032
2027
2025
2029
2037
2043
2046
2044
2037
2032
2027
2031
2032
2032
2034
2033
2034
2034
2033
2032
2031
2032
2033
2034
2035
2034
2035
2032
2035
2034
2035
2033
2029
2029
2030
2035
2042
2045
2043
2038
2033
2030
2030
2032
2034
2035
2035
2035
2035
2035
2035
2035
2035
2034
2035
2035
2036
2036
2036
2037
2036
2037
2034
2034
2033
2034
2039
2043
2046
2046
2044
2040
2035
2034
2033
2035
2035
2037
2037
2036
2036
2036
2036
2036
2036
2037
2035
2034
2032
2031
2033
2039
2047
2055
2063
2073
2082
2090
2091
2085
2068
2049
2036
2029
2032
2037
2041
2041
2039
2038
2037
2038
2038
2039
2039
2039
2040
2040
2040
2040
2039
2042
2043
2043
2042
2038
2037
2038
2042
2047
2049
2050
2048
2045
2043
2042
2043
2043
2045
2046
2048
2049
2049
2048
2048
2049
2051
2052
2054
2053
2054
2053
2053
2056
2057
2057
2056
2054
2054
2056
2061
2065
2066
2063
2059
2053
2051
2051
2051
2052
2049
2046
2043
2041
2042
2043
2042
2040
2037
2034
2034
2035
2036
2037
2038
2037
2036
2037
2034
2034
2035
2037
2040
2042
2043
2040
2038
2036
2036
2037
2037
2037
2036
2036
2037
2037
2038
2037
2037
2037
2037
2038
2038
2038
2038
2037
2039
2038
2037
2035
2034
2035
2037
2042
2043
2043
2040
2037
2036
2034
2036
2037
2037
2037
2037
2038
2038
2038
2038
2037
2037
2037
2037
2037
2038
2038
2038
2041
2040
2038
2035
2033
2032
2036
2042
2048
2048
2046
2040
2036
2032
2036
2037
2038
2039
2038
2038
2039
2039
2040
2040
2040
2040
2040
2041
2041
2041
2039
2041
2040
2040
2039
2037
2037
2038
2041
2045
2046
2045
2041
2038
2037
2035
2036
2037
2040
2046
2054
2065
2076
2087
2092
2091
2083
2068
2053
2042
2037
2038
2043
2045
2047
2044
2042
2041
2042
2045
2048
2048
2048
2044
2042
2040
2040
2042
2042
2043
2042
2042
2043
2042
2043
2044
2045
2045
2045
2046
2046
2046
2047
2046
2047
2048
2048
2048
2048
2048
2050
2053
2055
2055
2055
2053
2053
2053
2054
2056
2057
2056
2058
2059
2059
2058
2056
2055
2057
2061
2066
2066
2063
2058
2052
2049
2048
2048
2047
2044
2042
2042
2043
2044
2044
2043
2041
2040
2039
2040
2039
2039
2038
2038
2039
2041
2041
2042
2041
2040
2040
2038
2040
2040
2040
2040
2041
2042
2041
2039
2038
2037
2039
2041
2044
2045
2043
2040
2038
2037
2038
2038
2039
2039
2039
2039
2039
2039
2040
2039
2039
2039
2038
2039
2039
2040
2040
2041
2040
2040
2039
2036
2037
2038
2042
2046
2048
2047
2043
2041
2039
2041
2042
2042
2043
2042
2042
2043
2044
2045
2046
2046
2046
2046
2046
2046
2046
2046
2047
2048
2046
2044
2040
2039
2041
2044
2048
2049
2048
2046
2043
2041
2042
2042
2042
2042
2042
2047
2054
2064
2077
2088
2097
2099
2093
2079
2062
2048
2039
2039
2044
2047
2047
2045
2041
2041
2046
2051
2055
2056
2052
2048
2044
2041
2045
2045
2046
2048
2048
2048
2048
2048
2048
2048
2048
2048
2049
2050
2050
2051
2050
2053
2054
2053
2051
2049
2049
2053
2058
2063
2064
2062
2058
2055
2056
2057
2060
2061
2062
2063
2062
2062
2063
2063
2064
2064
2065
2066
2065
2065
2063
2061
2060
2058
2056
2053
2050
2048
2048
2049
2049
2050
2048
2046
2044
2043
2044
2044
2044
2044
2043
2043
2044
2044
2044
2044
2044
2044
2043
2043
2043
2042
2042
2041
2041
2041
2041
2040
2040
2041
2042
2044
2045
2044
2042
2040
2039
2039
2040
2041
2041
2040
2040
2040
2040
2040
2040
2040
2041
2040
2040
2040
2040
2040
2039
2041
2040
2040
2039
2038
2039
2040
2042
2045
2045
2043
2041
2039
2038
2040
2041
2041
2040
2038
2038
2039
2041
2043
2043
2043
2041
2040
2040
2041
2042
2041
2042
2041
2040
2039
2037
2037
2039
2042
2045
2046
2045
2043
2040
2039
2040
2041
2042
2043
2043
2043
2043
2042
2043
2043
2042
2042
2041
2040
2040
2040
2040
2041
2040
2040
2039
2037
2036
2037
2039
2042
2043
2044
2044
2048
2057
2070
2084
2092
2093
2086
2073
2058
2045
2037
2035
2037
2041
2042
2044
2042
2042
2043
2041
2042
2042
2042
2040
2039
2040
2042
2046
2048
2048
2047
2044
2042
2041
2042
2043
2044
2044
2044
2044
2045
2046
2046
2047
2047
2047
2048
2048
2049
2050
2049
2052
2052
2051
2049
2047
2047
2049
2056
2062
2065
2063
2059
2055
2051
2055
2057
2057
2060
2059
2059
2059
2058
2058
2056
2055
2053
2051
2050
2048
2048
2044
2044
2043
2041
2039
2037
2037
2038
2041
2044
2045
2043
2040
2037
2036
2036
2038
2038
2038
2038
2038
2038
2038
2038
2037
2037
2037
2037
2037
2038
2038
2037
2038
2037
2036
2035
2032
2032
2033
2036
2039
2039
2037
2034
2032
2031
2032
2033
2032
2033
2032
2031
2032
2031
2032
2031
2031
2032
2031
2031
2031
2031
2031
2031
2031
2031
2031
2029
2028
2030
2031
2035
2035
2035
2033
2030
2028
2029
2030
2031
2031
2031
2030
2030
2030
2031
2031
2032
2032
2032
2031
2031
2031
2030
2031
2032
2031
2031
2030
2030
2031
2034
2037
2038
2037
2035
2033
2031
2032
2033
2033
2034
2032
2031
2030
2028
2029
2030
2033
2034
2033
2032
2032
2031
2030
2030
2031
2033
2037
2045
2054
2067
2081
2089
2089
2079
2060
2042
2028
2023
2024
2028
2032
2034
2034
2033
2034
2033
2033
2033
2032
2033
2033
2033
2033
2033
2033
2035
2035
2034
2034
2032
2032
2033
2035
2040
2042
2042
2039
2037
2035
2036
2037
2037
2038
2038
2038
2039
2039
2040
2040
2040
2041
2041
2042
2043
2044
2045
2045
2046
2046
2046
2044
2044
2045
2048
2051
2053
2053
2051
2048
2046
2044
2045
2044
2043
2041
2039
2037
2036
2034
2033
2033
2033
2032
2032
2030
2030
2030
2029
2032
2032
2031
2028
2026
2026
2029
2031
2033
2035
2034
2035
2035
2033
2034
2030
2027
2027
2028
2029
2030
2029
2030
2029
2030
2030
2030
2031
2030
2031
2028
2030
2030
2030
2029
2028
2027
2029
2031
2035
2037
2035
2032
2029
2027
2028
2030
2031
2031
2032
2031
2030
2030
2030
2032
2032
2033
2034
2034
2034
2034
2034
2034
2033
2035
2033
2032
2032
2032
2035
2037
2038
2037
2035
2033
2033
2033
2035
2035
2035
2034
2033
2033
2034
2040
2049
2061
2075
2086
2093
2090
2080
2064
2047
2035
2029
2029
2031
2035
2037
2039
2042
2044
2043
2042
2039
2038
2038
2039
2041
2041
2041
2041
2041
2042
2042
2043
2043
2044
2044
2044
2044
2045
2045
2045
2047
2047
2047
2047
2047
2047
2048
2050
2053
2054
2053
2052
2051
2050
2053
2054
2056
2055
2055
2055
2055
2056
2058
2060
2062
2061
2060
2060
2059
2059
2059
2058
2057
2054
2051
2049
2048
2048
2048
2048
2048
2047
2045
2042
2040
2040
2040
2040
2041
2041
2042
2042
2042
2042
2042
2042
2042
2042
2042
2042
2043
2043
2045
2044
2043
2042
2039
2039
2040
2043
2047
2048
2048
2046
2043
2041
2042
2042
2042
2043
2042
2041
2043
2042
2042
2042
2042
2043
2042
2043
2043
2043
2043
2044
2045
2044
2043
2041
2040
2042
2045
2049
2051
2050
2047
2043
2041
2041
2043
2045
2046
2046
2046
2046
2046
2046
2046
2046
2045
2045
2045
2045
2046
2045
2045
2048
2046
2045
2042
2039
2039
2043
2048
2051
2050
2048
2046
2048
2053
2068
2082
2094
2102
2100
2089
2073
2056
2045
2039
2040
2044
2048
2049
2048
2048
2047
2048
2048
2048
2046
2044
2044
2047
2050
2054
2055
2053
2050
2048
2048
2048
2049
2050
2051
2051
2051
2051
2052
2052
2053
2053
2054
2055
2055
2056
2057
2057
2058
2059
2059
2059
2058
2059
2060
2065
2068
2070
2069
2066
2065
2064
2064
2067
2066
2068
2068
2068
2068
2067
2067
2066
2064
2063
2060
2059
2056
2054
2053
2050
2050
2049
2049
2048
2048
2048
2048
2050
2051
2051
2050
2048
2048
2048
2048
2049
2049
2049
2048
2048
2048
2049
2049
2049
2049
2048
2048
2048
2048
2048
2048
2048
2048
2048
2048
2047
2046
2047
2048
2050
2050
2048
2048
2046
2045
2046
2047
2047
2048
2047
2046
2046
2046
2046
2048
2049
2050
2049
2048
2047
2046
2046
2048
2049
2048
2047
2045
2043
2045
2048
2050
2052
2051
2048
2046
2045
2045
2046
2047
2048
2048
2048
2048
2048
2048
2048
2047
2047
2047
2047
2047
2047
2047
2048
2047
2047
2046
2044
2044
2045
2047
2050
2053
2053
2050
2048
2047
2048
2048
2048
2048
2048
2047
2048
2047
2047
2047
2046
2046
2046
2046
2046
2046
2047
2045
2047
2044
2042
2040
2042
2048
2060
2075
2090
2100
2103
2098
2087
2069
2056
2045
2041
2041
2045
2048
2048
2048
2047
2047
2047
2047
2047
2047
2047
2046
2045
2047
2048
2048
2047
2044
2043
2045
2050
2054
2057
2056
2052
2048
2046
2048
2049
2050
2052
2051
2051
2051
2052
2053
2053
2054
2054
2055
2056
2056
2057
2057
2059
2060
2060
2059
2058
2058
2060
2064
2068
2069
2069
2066
2064
2063
2062
2064
2063
2063
2061
2060
2057
2055
2053
2051
2049
2048
2048
2048
2047
2047
2046
2046
2045
2044
2043
2042
2042
2044
2047
2050
2050
2048
2046
2044
2043
2043
2044
2044
2045
2044
2044
2044
2043
2044
2044
2044
2045
2044
2045
2044
2044
2043
2044
2045
2045
2044
2041
2040
2041
2042
2046
2047
2047
2045
2042
2040
2041
2042
2043
2042
2042
2042
2042
2042
2042
2042
2043
2043
2043
2043
2042
2042
2041
2042
2043
2042
2042
2041
2040
2040
2042
2045
2047
2047
2044
2043
2040
2040
2041
2042
2042
2043
2043
2043
2042
2039
2038
2039
2043
2048
2049
2048
2045
2042
2039
2042
2042
2040
2040
2038
2039
2041
2045
2047
2047
2045
2042
2039
2038
2041
2041
2042
2042
2042
2042
2044
2044
2045
2045
2043
2042
2041
2041
2042
2041
2040
2042
2041
2040
2040
2038
2038
2039
2041
2044
2045
2044
2039
2037
2039
2046
2056
2067
2080
2089
2094
2092
2081
2065
2049
2039
2034
2035
2039
2041
2042
2041
2040
2041
2040
2040
2038
2037
2038
2040
2044
2045
2045
2042
2039
2039
2038
2040
2041
2042
2041
2041
2041
2042
2042
2043
2043
2043
2044
2044
2044
2046
2047
2046
2049
2049
2048
2047
2044
2043
2046
2051
2056
2060
2059
2055
2051
2048
2050
2052
2052
2055
2055
2055
2055
2055
2055
2054
2055
2053
2053
2051
2048
2047
2044
2044
2043
2041
2038
2034
2032
2033
2036
2040
2041
2039
2035
2031
2030
2031
2034
2034
2034
2034
2033
2033
2033
2033
2033
2033
2033
2033
2033
2033
2033
2032
2033
2032
2033
2032
2031
2031
2031
2034
2035
2036
2035
2033
2031
2029
2030
2030
2032
2031
2031
2031
2030
2030
2030
2030
2030
2031
2031
2031
2031
2031
2030
2030
2030
2032
2032
2031
2029
2028
2029
2032
2035
2036
2035
2033
2031
2031
2031
2033
2033
2033
2032
2032
2031
2030
2030
2030
2031
2031
2030
2030
2030
2029
2028
2030
2030
2030
2028
2026
2026
2030
2040
2051
2064
2076
2085
2087
2082
2070
2054
2038
2027
2022
2023
2027
2031
2033
2034
2034
2033
2032
2032
2033
2034
2034
2035
2035
2033
2033
2033
2033
2035
2037
2039
2039
2038
2037
2036
2037
2038
2039
2039
2039
2040
2040
2041
2042
2043
2044
2044
2044
2045
2045
2046
2047
2048
2049
2050
2050
2049
2048
2048
2049
2054
2058
2061
2060
2057
2054
2052
2053
2054
2052
2052
2049
2048
2047
2045
2044
2042
2040
2038
2037
2037
2036
2036
2036
2036
2038
2037
2034
2031
2028
2030
2035
2042
2045
2044
2040
2035
2032
2033
2037
2038
2037
2037
2037
2038
2039
2040
2039
2038
2037
2037
2038
2038
2039
2038
2038
2040
2040
2039
2035
2033
2032
2036
2042
2047
2048
2045
2040
2036
2034
2036
2038
2039
2039
2039
2039
2039
2039
2040
2040
2041
2041
2042
2042
2042
2043
2042
2042
2042
2042
2040
2038
2039
2040
2044
2046
2046
2044
2041
2039
2039
2040
2041
2040
2039
2038
2041
2047
2057
2070
2084
2096
2102
2100
2088
2071
2054
2041
2036
2037
2041
2044
2044
2044
2044
2045
2047
2048
2047
2045
2044
2043
2044
2045
2047
2047
2047
2047
2047
2047
2048
2048
2048
2048
2049
2049
2050
2049
2051
2051
2051
2052
2051
2051
2051
2052
2054
2057
2059
2060
2059
2057
2058
2058
2061
2062
2063
2063
2063
2064
2064
2065
2066
2067
2068
2068
2068
2067
2066
2064
2061
2062
2058
2055
2053
2050
2049
2050
2051
2051
2049
2047
2045
2044
2043
2046
2046
2046
2046
2045
2045
2045
2046
2047
2047
2047
2047
2047
2047
2048
2049
2049
2049
2048
2048
2047
2045
2044
2044
2047
2049
2052
2051
2049
2046
2044
2042
2044
2045
2045
2046
2046
2046
2047
2046
2046
2045
2045
2045
2045
2046
2046
2045
2047
2046
2046
2044
2043
2042
2043
2045
2048
2049
2049
2048
2045
2043
2044
2044
2045
2045
2045
2045
2045
2045
2046
2046
2046
2046
2045
2044
2044
2044
2045
2046
2046
2047
2046
2044
2043
2043
2046
2048
2051
2052
2049
2047
2042
2039
2039
2041
2043
2046
2048
2047
2047
2045
2045
2046
2045
2044
2042
2040
2041
2045
2048
2061
2073
2086
2096
2100
2097
2087
2075
2063
2053
2048
2045
2043
2041
2044
2044
2043
2044
2045
2044
2044
2044
2043
2042
2043
2045
2046
2046
2047
2046
2044
2045
2047
2046
2045
2045
2044
2045
2046
2048
2049
2050
2053
2055
2055
2053
2051
2048
2047
2048
2050
2052
2053
2054
2055
2055
2056
2057
2058
2059
2059
2060
2063
2063
2062
2060
2059
2059
2062
2067
2069
2071
2068
2063
2058
2052
2050
2048
2044
2044
2043
2044
2044
2045
2042
2039
2039
2039
2040
2042
2043
2043
2040
2040
2038
2039
2038
2037
2037
2038
2041
2046
2048
2048
2043
2040
2035
2035
2037
2039
2040
2040
2039
2038
2038
2038
2039
2039
2039
2039
2039
2039
2038
2038
2037
2040
2040
2040
2037
2035
2034
2037
2044
2047
2048
2045
2041
2038
2036
2038
2038
2038
2038
2037
2038
2038
2040
2041
2041
2041
2040
2039
2037
2038
2038
2039
2041
2041
2040
2038
2036
2036
2039
2041
2044
2047
2045
2043
2039
2038
2037
2037
2037
2039
2038
2039
2039
2039
2039
2039
2039
2039
2039
2038
2038
2038
2039
2040
2040
2040
2037
2036
2036
2037
2041
2045
2048
2047
2044
2041
2039
2039
2040
2041
2040
2040
2040
2040
2038
2037
2036
2037
2039
2038
2039
2039
2038
2038
2037
2036
2035
2034
2035
2041
2051
2067
2086
2098
2100
2093
2076
2057
2042
2035
2032
2032
2035
2036
2038
2039
2038
2037
2034
2035
2036
2037
2038
2037
2036
2033
2038
2038
2038
2036
2033
2032
2034
2040
2044
2046
2045
2041
2037
2033
2037
2038
2040
2043
2042
2042
2041
2041
2041
2043
2043
2044
2047
2046
2048
2048
2047
2047
2048
2048
2049
2049
2048
2049
2052
2056
2060
2059
2056
2051
2048
2048
2049
2048
2047
2045
2042
2040
2038
2036
2034
2033
2032
2032
2031
2031
2030
2028
2028
2027
2027
2026
2025
2024
2024
2028
2033
2037
2035
2030
2026
2023
2024
2028
2030
2030
2028
2025
2025
2027
2029
2029
2028
2026
2025
2025
2026
2028
2029
2027
2027
2026
2026
2027
2028
2029
2030
2030
2030
2027
2024
2023
2023
2022
2024
2025
2025
2025
