1983
1983
1982
1981
1979
1978
1976
1976
1975
1975
1974
1974
1975
1975
1976
1976
1974
1971
1967
1965
1969
1983
2010
2045
2078
2096
2090
2059
2013
1968
1937
1925
1929
1942
1955
1966
1973
1977
1978
1978
1977
1978
1978
1979
1980
1981
1981
1982
1982
1983
1984
1985
1986
1986
1986
1986
1986
1986
1987
1987
1988
1988
1989
1990
1992
1993
1994
1995
1995
1996
1998
2001
2003
2005
2006
2007
2008
2009
2012
2014
2017
2020
2023
2025
2028
2030
2031
2032
2033
2034
2034
2034
2033
2031
2026
2021
2014
2007
2000
1994
1989
1985
1982
1979
1977
1974
1972
1971
1970
1970
1970
1970
1971
1971
1971
1971
1970
1969
1969
1969
1969
1970
1970
1971
1971
1970
1970
1969
1969
1969
1970
1971
1972
1972
1973
1973
1973
1972
1972
1972
1973
1973
1974
1974
1974
1974
1974
1974
1974
1973
1973
1973
1973
1974
1974
1974
1974
1974
1974
1974
1974
1974
1975
1974
1974
1974
1974
1974
1973
1973
1974
1974
1975
1975
1975
1975
1975
1975
1974
1973
1973
1974
1975
1976
1976
1976
1975
1975
1974
1974
1974
1974
1975
1975
1974
1973
1972
1971
1970
1971
1972
1975
1977
1979
1980
1980
1979
1978
1977
1976
1975
1974
1974
1975
1974
1974
1973
1972
1971
1971
1972
1973
1973
1972
1969
1966
1966
1974
1994
2025
2061
2089
2096
2077
2037
1988
1946
1922
1917
1926
1941
1955
1966
1974
1977
1977
1976
1976
1975
1976
1977
1978
1979
1979
1980
1981
1981
1981
1981
1982
1983
1984
1985
1986
1987
1987
1987
1987
1988
1988
1989
1991
1992
1994
1995
1995
1996
1997
1999
2000
2002
2004
2007
2009
2011
2014
2016
2019
2021
2024
2027
2029
2032
2034
2035
2036
2035
2034
2032
2028
2024
2018
2012
2006
2000
1993
1987
1982
1977
1974
1972
1970
1969
1969
1968
1967
1967
1967
1966
1966
1965
1965
1966
1966
1966
1966
1966
1965
1964
1964
1965
1966
1967
1967
1968
1968
1968
1968
1967
1967
1967
1968
1968
1969
1970
1971
1971
1971
1970
1970
1970
1971
1971
1972
1972
1971
1970
1969
1969
1970
1970
1971
1971
1971
1971
1971
1971
1970
1970
1970
1970
1970
1970
1970
1970
1970
1970
1970
1970
1970
1971
1971
1972
1972
1973
1973
1972
1972
1971
1971
1971
1972
1973
1974
1974
1974
1973
1972
1972
1973
1973
1973
1972
1971
1970
1970
1969
1970
1971
1973
1975
1977
1979
1980
1980
1979
1978
1977
1975
1974
1973
1972
1973
1973
1973
1973
1972
1972
1972
1972
1973
1972
1971
1968
1965
1966
1975
1996
2028
2062
2088
2091
2069
2029
1982
1945
1925
1924
1934
1948
1962
1971
1977
1979
1978
1977
1976
1976
1977
1977
1978
1979
1980
1981
1982
1982
1983
1983
1984
1984
1985
1985
1986
1987
1988
1989
1989
1989
1989
1989
1990
1992
1994
1995
1996
1997
1998
1999
2001
2002
2004
2007
2009
2012
2014
2015
2017
2018
2020
2023
2026
2029
2031
2033
2033
2033
2032
2030
2026
2021
2016
2010
2004
1998
1993
1987
1982
1978
1974
1972
1970
1969
1969
1969
1968
1968
1967
1966
1966
1965
1966
1966
1966
1967
1967
1967
1966
1966
1966
1966
1966
1967
1967
1968
1968
1968
1968
1968
1968
1968
1969
1970
1970
1971
1971
1971
1970
1970
1970
1970
1971
1971
1971
1971
1971
1971
1971
1971
1971
1971
1971
1972
1972
1972
1972
1972
1972
1972
1972
1972
1972
1972
1972
1973
1973
1973
1972
1972
1972
1971
1971
1972
1972
1973
1974
1974
1974
1973
1972
1972
1972
1973
1974
1975
1975
1975
1974
1974
1973
1973
1974
1974
1975
1975
1975
1975
1975
1975
1974
1973
1972
1972
1972
1972
1973
1974
1976
1977
1979
1980
1981
1982
1982
1982
1981
1979
1977
1975
1974
1974
1974
1975
1975
1975
1975
1975
1975
1974
1973
1971
1968
1967
1970
1982
2006
2039
2071
2091
2088
2060
2018
1973
1941
1927
1929
1941
1955
1967
1975
1979
1981
1980
1980
1980
1981
1981
1981
1980
1981
1982
1983
1984
1985
1985
1986
1986
1986
1986
1986
1986
1987
1988
1989
1990
1991
1992
1992
1992
1993
1994
1995
1997
1999
2000
2001
2002
2002
2004
2005
2008
2010
2013
2016
2019
2022
2024
2026
2028
2029
2030
2031
2032
2033
2033
2032
2028
2024
2018
2011
2005
1999
1993
1988
1984
1981
1978
1975
1972
1970
1969
1969
1969
1970
1970
1970
1969
1968
1967
1967
1967
1967
1968
1968
1969
1969
1969
1969
1969
1968
1968
1968
1969
1969
1970
1970
1970
1970
1970
1970
1970
1971
1971
1972
1972
1972
1972
1972
1971
1971
1971
1971
1972
1972
1973
1973
1973
1972
1972
1972
1972
1972
1973
1973
1973
1973
1973
1972
1972
1972
1972
1973
1973
1974
1974
1974
1973
1972
1972
1972
1972
1973
1973
1974
1974
1975
1974
1974
1974
1974
1974
1975
1976
1977
1977
1977
1976
1976
1975
1975
1975
1976
1977
1978
1978
1978
1977
1976
1975
1974
1974
1975
1976
1977
1978
1980
1982
1983
1984
1985
1985
1985
1985
1984
1983
1982
1981
1980
1980
1979
1979
1979
1979
1979
1980
1981
1980
1978
1975
1972
1971
1976
1993
2023
2059
2090
2104
2091
2055
2009
1966
1939
1931
1937
1949
1963
1974
1982
1987
1989
1989
1989
1989
1989
1990
1991
1992
1992
1992
1992
1993
1994
1995
1996
1996
1997
1997
1998
1998
1999
1999
2000
2001
2003
2004
2005
2006
2005
2005
2006
2007
2009
2011
2013
2014
2015
2017
2018
2021
2023
2026
2029
2031
2034
2036
2038
2040
2041
2043
2045
2046
2046
2046
2044
2040
2035
2029
2022
2015
2008
2002
1997
1993
1990
1986
1983
1981
1980
1979
1979
1978
1978
1977
1977
1978
1978
1978
1978
1978
1977
1977
1977
1977
1978
1978
1978
1978
1978
1978
1978
1978
1978
1979
1980
1980
1981
1981
1981
1981
1981
1981
1981
1982
1982
1982
1981
1981
1981
1981
1981
1981
1981
1982
1983
1983
1982
1981
1980
1980
1980
1980
1981
1982
1982
1982
1982
1982
1981
1981
1980
1980
1980
1980
1981
1981
1981
1981
1981
1981
1981
1981
1981
1980
1980
1980
1979
1979
1978
1978
1978
1980
1981
1983
1984
1985
1986
1987
1987
1986
1984
1982
1981
1980
1980
1981
1981
1980
1980
1980
1979
1979
1979
1978
1977
1975
1972
1972
1978
1995
2024
2060
2090
2102
2087
2048
2001
1958
1931
1923
1929
1942
1955
1967
1976
1982
1984
1984
1983
1982
1982
1983
1983
1984
1986
1987
1987
1988
1988
1988
1988
1989
1989
1990
1990
1991
1991
1991
1992
1992
1993
1994
1995
1996
1997
1998
1999
2000
2001
2002
2004
2005
2006
2007
2009
2011
2014
2017
2020
2022
2024
2026
2027
2029
2030
2032
2034
2034
2033
2031
2028
2023
2018
2012
2005
1998
1991
1985
1980
1975
1972
1969
1966
1965
1963
1962
1961
1961
1961
1961
1961
1961
1961
1961
1961
1961
1961
1961
1961
1961
1961
1962
1962
1963
1964
1965
1965
1965
1965
1965
1965
1965
1966
1966
1967
1967
1968
1968
1968
1967
1967
1968
1968
1968
1969
1970
1970
1970
1970
1969
1969
1968
1968
1969
1970
1970
1970
1970
1970
1969
1969
1969
1970
1970
1971
1972
1972
1972
1971
1971
1970
1971
1971
1972
1973
1973
1973
1973
1973
1973
1973
1972
1972
1973
1973
1973
1973
1973
1973
1972
1972
1972
1973
1973
1974
1974
1974
1974
1974
1973
1972
1972
1971
1972
1972
1973
1974
1976
1977
1979
1980
1980
1981
1981
1980
1979
1978
1977
1976
1975
1974
1973
1973
1973
1974
1974
1975
1975
1974
1973
1970
1967
1965
1966
1975
1994
2025
2060
2089
2098
2081
2043
1996
1955
1932
1928
1937
1951
1963
1972
1977
1979
1979
1978
1978
1978
1978
1978
1978
1979
1979
1979
1980
1980
1981
1981
1982
1983
1983
1983
1984
1985
1986
1987
1988
1988
1989
1990
1990
1991
1991
1992
1994
1995
1997
1998
1999
2000
2002
2003
2005
2007
2009
2011
2013
2015
2018
2021
2024
2026
2028
2029
2031
2032
2032
2031
2029
2026
2021
2015
2009
2002
1996
1991
1987
1983
1980
1976
1974
1971
1970
1969
1968
1968
1968
1969
1969
1969
1969
1969
1969
1969
1969
1970
1971
1972
1971
1971
1970
1969
1969
1969
1970
1971
1972
1972
1972
1972
1971
1971
1970
1970
1971
1971
1972
1973
1973
1972
1972
1971
1971
1971
1971
1972
1972
1973
1973
1972
1972
1971
1970
1970
1971
1972
1973
1973
1973
1973
1973
1972
1972
1972
1972
1972
1973
1973
1973
1973
1973
1973
1972
1972
1972
1973
1974
1974
1974
1974
1973
1972
1972
1972
1972
1973
1974
1974
1974
1974
1974
1974
1973
1973
1973
1974
1974
1975
1975
1976
1975
1975
1975
1975
1975
1976
1977
1977
1977
1977
1976
1976
1976
1976
1976
1975
1975
1975
1974
1974
1975
1976
1977
1978
1980
1982
1983
1984
1984
1982
1981
1979
1977
1976
1976
1977
1977
1977
1977
1976
1976
1975
1976
1976
1974
1972
1969
1969
1977
1995
2025
2060
2088
2097
2082
2045
1999
1960
1936
1931
1938
1951
1964
1973
1980
1983
1983
1983
1982
1982
1982
1982
1982
1983
1984
1984
1985
1986
1986
1986
1986
1986
1986
1987
1988
1989
1990
1991
1991
1992
1992
1992
1992
1992
1992
1993
1995
1997
1999
2000
2001
2002
2003
2005
2007
2009
2011
2013
2016
2018
2021
2023
2024
2025
2027
2029
2031
2032
2032
2031
2029
2026
2022
2016
2010
2003
1997
1992
1987
1983
1979
1975
1972
1970
1969
1969
1969
1969
1969
1968
1968
1967
1966
1966
1966
1967
1967
1967
1967
1966
1966
1965
1965
1966
1966
1967
1968
1968
1969
1969
1969
1968
1968
1969
1969
1970
1970
1971
1971
1970
1970
1969
1969
1969
1969
1970
1970
1971
1970
1970
1969
1968
1968
1967
1968
1969
1970
1971
1971
1970
1969
1968
1968
1968
1969
1970
1970
1969
1969
1969
1970
1970
1971
1971
1971
1971
1971
1972
1972
1972
1972
1972
1972
1972
1973
1973
1973
1973
1973
1973
1973
1972
1972
1973
1974
1975
1976
1977
1977
1977
1976
1976
1975
1975
1975
1975
1975
1974
1974
1975
1976
1977
1978
1979
1981
1982
1983
1983
1983
1981
1979
1977
1976
1977
1977
1978
1978
1977
1976
1976
1976
1976
1976
1974
1971
1968
1970
1981
2003
2037
2070
2094
2095
2070
2028
1981
1945
1927
1926
1936
1951
1964
1975
1982
1987
1989
1989
1989
1989
1988
1988
1988
1989
1989
1990
1991
1991
1992
1993
1993
1992
1992
1993
1994
1995
1996
1997
1998
1998
1999
1999
2000
2000
2001
2002
2003
2005
2007
2008
2009
2010
2011
2012
2014
2016
2019
2022
2025
2027
2029
2031
2033
2035
2037
2039
2040
2041
2041
2039
2036
2032
2027
2020
2013
2006
2000
1994
1989
1984
1981
1978
1976
1973
1972
1971
1970
1970
1970
1970
1969
1968
1968
1968
1968
1968
1969
1969
1969
1969
1969
1969
1969
1969
1968
1968
1968
1969
1970
1971
1971
1971
1971
1971
1971
1972
1972
1973
1974
1974
1973
1973
1972
1972
1972
1972
1972
1973
1973
1973
1973
1972
1972
1972
1972
1972
1972
1972
1972
1972
1973
1973
1973
1972
1972
1972
1973
1973
1974
1973
1973
1972
1971
1971
1971
1972
1973
1973
1973
1973
1973
1972
1972
1972
1972
1971
1970
1970
1969
1968
1968
1968
1967
1968
1969
1971
1973
1975
1976
1977
1977
1976
1975
1973
1972
1971
1971
1971
1971
1971
1970
1970
1969
1969
1968
1969
1969
1968
1966
1964
1963
1970
1988
2019
2054
2085
2095
2079
2041
1992
1950
1924
1918
1926
1940
1954
1965
1972
1975
1976
1975
1974
1974
1973
1973
1974
1974
1975
1976
1977
1978
1978
1978
1979
1979
1980
1981
1983
1984
1985
1985
1985
1985
1985
1986
1987
1989
1991
1991
1992
1992
1993
1994
1995
1997
1999
2001
2004
2007
2009
2011
2013
2015
2017
2020
2023
2026
2028
2030
2032
2032
2031
2029
2025
2021
2017
2012
2006
2000
1994
1987
1982
1977
1973
1970
1969
1968
1967
1967
1967
1966
1965
1964
1964
1963
1964
1964
1965
1966
1966
1966
1965
1965
1964
1964
1964
1965
1966
1967
1967
1968
1968
1967
1968
1968
1969
1970
1970
1971
1972
1972
1971
1971
1970
1969
1969
1969
1970
1971
1971
1971
1970
1969
1969
1970
1970
1971
1971
1971
1971
1971
1971
1971
1971
1970
1970
1971
1972
1972
1972
1972
1972
1972
1972
1972
1972
1971
1972
1972
1973
1973
1973
1973
1973
1973
1973
1973
1974
1974
1974
1974
1973
1973
1972
1973
1973
1974
1975
1975
1975
1975
1975
1975
1975
1974
1974
1974
1975
1976
1976
1976
1975
1974
1973
1972
1972
1973
1975
1977
1979
1981
1982
1983
1983
1983
1983
1984
1983
1983
1981
1980
1978
1977
1977
1976
1977
1977
1978
1978
1978
1978
1976
1974
1970
1969
1974
1988
2015
2049
2081
2098
2091
2060
2016
1972
1943
1932
1936
1948
1961
1972
1979
1982
1983
1982
1982
1983
1984
1985
1985
1985
1984
1984
1984
1985
1986
1988
1989
1989
1990
1990
1990
1990
1990
1990
1991
1992
1994
1995
1996
1996
1997
1997
1998
2000
2001
2003
2004
2005
2006
2007
2009
2011
2013
2015
2017
2020
2023
2025
2027
2029
2030
2031
2032
2034
2034
2035
2034
2032
2028
2022
2016
2009
2003
1997
1993
1989
1985
1982
1979
1976
1974
1973
1972
1971
1971
1972
1972
1973
1973
1972
1972
1971
1970
1970
1971
1972
1972
1972
1973
1972
1972
1971
1971
1972
1972
1973
1973
1974
1974
1974
1974
1974
1973
1973
1973
1974
1975
1976
1976
1976
1975
1974
1974
1974
1974
1975
1975
1975
1976
1975
1975
1975
1975
1975
1975
1975
1975
1975
1975
1975
1975
1975
1974
1974
1974
1974
1974
1975
1975
1975
1975
1974
1974
1974
1974
1975
1975
1975
1976
1976
1976
1975
1975
1975
1975
1976
1976
1977
1977
1977
1976
1976
1976
1976
1976
1976
1976
1976
1976
1975
1974
1973
1973
1974
1975
1977
1979
1981
1982
1982
1982
1981
1979
1978
1977
1976
1976
1976
1976
1976
1975
1975
1975
1975
1974
1974
1973
1970
1968
1966
1968
1978
1999
2031
2065
2091
2094
2072
2032
1986
1948
1929
1927
1936
1950
1963
1973
1979
1982
1981
1980
1980
1980
1981
1982
1983
1983
1983
1983
1984
1984
1984
1985
1986
1986
1987
1987
1988
1988
1989
1990
1991
1992
1993
1994
1995
1996
1997
1997
1998
1998
1999
2000
2002
2004
2006
2007
2009
2010
2012
2014
2017
2021
2024
2027
2030
2032
2034
2035
2036
2037
2037
2036
2034
2030
2026
2020
2014
2007
2001
1995
1989
1985
1981
1978
1976
1975
1974
1973
1972
1971
1970
1970
1970
1970
1971
1971
1972
1973
1973
1973
1973
1973
1973
1973
1974
1975
1975
1975
1975
1975
1975
1976
1976
1976
1976
1976
1977
1977
1977
1977
1977
1977
1977
1977
1977
1978
1979
1979
1979
1978
1977
1976
1976
1976
1976
1977
1978
1978
1979
1978
1978
1978
1978
1978
1979
1979
1979
1979
1978
1978
1978
1978
1978
1978
1978
1979
1979
1979
1979
1978
1977
1977
1977
1977
1978
1978
1979
1979
1978
1977
1977
1976
1975
1975
1976
1977
1978
1980
1982
1983
1983
1983
1983
1983
1983
1983
1982
1980
1979
1978
1977
1976
1976
1976
1977
1978
1979
1979
1979
1977
1974
1971
1970
1974
1989
2015
2049
2081
2097
2087
2053
2007
1962
1933
1921
1925
1935
1948
1960
1969
1976
1979
1981
1981
1982
1983
1984
1984
1985
1985
1985
1985
1985
1986
1987
1988
1989
1989
1990
1990
1990
1990
1991
1991
1992
1994
1996
1997
1998
1998
1998
1998
1999
2001
2003
2005
2006
2008
2009
2011
2013
2015
2017
2020
2023
2026
2028
2031
2032
2034
2035
2036
2037
2037
2037
2034
2030
2025
2018
2012
2005
1998
1992
1986
1981
1977
1974
1972
1970
1968
1967
1966
1965
1965
1965
1965
1965
1965
1965
1965
1964
1964
1964
1965
1965
1965
1964
1964
1964
1964
1964
1964
1964
1964
1965
1965
1966
1966
1967
1967
1967
1967
1967
1968
1968
1969
1969
1969
1969
1968
1968
1968
1968
1968
1968
1967
1967
1966
1966
1967
1967
1967
1967
1967
1968
1968
1969
1970
1969
1968
1967
1966
1966
1966
1967
1968
1968
1968
1968
1968
1968
1967
1967
1968
1968
1970
1970
1971
1970
1970
1969
1969
1969
1970
1970
1970
1971
1971
1971
1971
1970
1970
1970
1970
1970
1970
1970
1969
1969
1969
1970
1972
1975
1977
1979
1980
1980
1979
1978
1976
1975
1973
1973
1972
1972
1972
1973
1973
1973
1972
1972
1971
1971
1969
1967
1965
1965
1972
1991
2020
2055
2085
2097
2083
2047
2000
1957
1932
1926
1933
1948
1961
1970
1976
1978
1978
1977
1977
1977
1978
1978
1978
1978
1978
1978
1979
1980
1981
1982
1983
1983
1983
1983
1984
1985
1986
1987
1987
1988
1989
1989
1989
1989
1989
1990
1992
1993
1995
1996
1998
1999
2000
2002
2004
2007
2010
2012
2015
2017
2019
2020
2022
2024
2026
2028
2030
2031
2031
2030
2028
2024
2020
2015
2009
2004
1998
1992
1987
1982
1979
1976
1974
1972
1970
1970
1970
1970
1970
1970
1970
1969
1968
1968
1968
1969
1970
1970
1971
1971
1971
1970
1970
1970
1970
1971
1972
1972
1972
1972
1972
1972
1972
1973
1974
1974
1975
1975
1976
1976
1975
1975
1974
1975
1975
1976
1977
1977
1977
1977
1976
1976
1976
1977
1977
1977
1977
1977
1977
1978
1978
1978
1978
1977
1977
1977
1978
1979
1979
1979
1978
1978
1978
1978
1979
1979
1980
1980
1980
1980
1979
1979
1979
1979
1979
1980
1981
1981
1981
1980
1980
1980
1980
1980
1981
1982
1982
1982
1982
1982
1982
1981
1981
1981
1982
1982
1983
1983
1983
1982
1982
1982
1981
1981
1981
1981
1981
1981
1981
1981
1981
1982
1984
1986
1988
1989
1990
1990
1990
1989
1987
1985
1984
1983
1983
1983
1983
1983
1983
1983
1983
1983
1982
1981
1979
1976
1974
1976
1986
2007
2039
2072
2096
2098
2076
2036
1990
1954
1936
1934
1944
1958
1970
1979
1984
1987
1987
1986
1985
1984
1984
1984
1984
1984
1985
1986
1987
1987
1988
1988
1988
1988
1987
1988
1989
1990
1992
1993
1994
1994
1994
1994
1994
1995
1996
1998
1999
2001
2002
2003
2003
2004
2005
2007
2009
2011
2014
2016
2019
2021
2023
2025
2027
2028
2030
2032
2033
2034
2034
2033
2031
2027
2023
2018
2012
2006
2000
1995
1990
1986
1982
1979
1976
1974
1973
1972
1971
1971
1971
1970
1970
1969
1969
1969
1969
1970
1970
1970
1970
1970
1970
1970
1969
1970
1970
1971
1972
1972
1972
1972
1971
1971
1970
1970
1970
1971
1971
1972
1972
1972
1971
1971
1971
1971
1971
1972
1972
1972
1971
1970
1970
1970
1970
1970
1971
1971
1971
1971
1972
1971
1971
1970
1969
1969
1969
1970
1971
1972
1973
1972
1972
1971
1971
1971
1971
1971
1972
1972
1971
1971
1971
1971
1971
1971
1971
1971
1972
1972
1973
1973
1972
1972
1972
1972
1972
1972
1972
1972
1972
1972
1972
1972
1972
1972
1972
1973
1973
1974
1974
1974
1973
1972
1971
1970
1970
1971
1972
1974
1975
1977
1978
1979
1980
1981
1981
1982
1982
1981
1979
1978
1976
1976
1975
1975
1975
1975
1975
1976
1976
1976
1976
1973
1970
1968
1970
1981
2005
2038
2072
2096
2097
2072
2030
1983
1946
1928
1927
1937
1951
1964
1974
1981
1985
1985
1984
1984
1985
1986
1987
1987
1988
1988
1988
1988
1988
1989
1990
1991
1992
1992
1991
1991
1991
1992
1993
1995
1996
1998
1999
1999
2000
2000
2001
2002
2003
2004
2005
2007
2008
2010
2011
2013
2015
2017
2019
2022
2025
2028
2030
2032
2034
2035
2037
2038
2039
2039
2039
2038
2035
2030
2023
2017
2010
2003
1998
1993
1989
1985
1982
1979
1977
1975
1973
1972
1972
1971
1972
1972
1972
1972
1972
1971
1971
1971
1970
1970
1970
1970
1971
1971
1971
1971
1971
1971
1972
1973
1974
1975
1976
1976
1975
1975
1975
1976
1976
1977
1977
1977
1977
1976
1976
1976
1976
1977
1977
1978
1978
1978
1978
1978
1978
1977
1977
1977
1977
1977
1978
1979
1979
1978
1978
1978
1978
1978
1978
1979
1979
1979
1979
1978
1977
1977
1977
1977
1977
1978
1978
1978
1978
1979
1979
1981
1983
1984
1985
1987
1988
1989
1989
1987
1985
1982
1980
1979
1979
1979
1979
1979
1979
1978
1978
1977
1978
1977
1976
1973
1972
1975
1989
2016
2050
2083
2099
2089
2054
2008
1963
1934
1923
1926
1937
1948
1960
1969
1978
1983
1985
1986
1985
1984
1983
1983
1984
1985
1987
1988
1989
1990
1990
1990
1991
1991
1991
1991
1992
1993
1994
1995
1996
1996
1997
1997
1998
1999
2000
2002
2004
2006
2007
2008
2009
2010
2012
2014
2017
2019
2022
2024
2026
2028
2031
2033
2035
2038
2040
2041
2042
2042
2041
2038
2033
2028
2021
2014
2008
2001
1995
1990
1985
1980
1977
1973
1971
1969
1968
1968
1968
1968
1968
1968
1967
1967
1967
1966
1966
1966
1967
1968
1968
1968
1967
1967
1967
1967
1967
1968
1969
1969
1969
1969
1969
1968
1968
1968
1969
1969
1970
1970
1971
1971
1970
1970
1970
1970
1970
1971
1972
1972
1972
1972
1971
1970
1969
1969
1969
1969
1970
1970
1971
1971
1971
1970
1969
1969
1969
1970
1970
1972
1972
1971
1970
1969
1969
1970
1970
1970
1970
1970
1969
1968
1968
1969
1970
1972
1975
1977
1979
1979
1979
1978
1977
1976
1974
1973
1973
1972
1973
1973
1973
1972
1972
1971
1970
1970
1969
1969
1966
1963
1962
1965
1979
2005
2040
2075
2097
2095
2066
2021
1972
1936
1919
1921
1933
1949
1962
1970
1973
1974
1973
1972
1972
1972
1973
1974
1975
1975
1975
1976
1976
1975
1975
1974
1975
1976
1978
1979
1981
1981
1982
1982
1982
1982
1983
1983
1985
1986
1988
1989
1990
1990
1990
1990
1992
1995
1997
2000
2003
2005
2006
2007
2008
2009
2011
2013
2016
2019
2022
2023
2024
2024
2022
2020
2016
2011
2005
2000
1994
1989
1983
1977
1971
1967
1963
1962
1961
1961
1961
1960
1959
1959
1958
1957
1957
1958
1958
1959
1960
1960
1960
1960
1960
1959
1959
1959
1960
1960
1961
1962
1962
1962
1961
1961
1961
1962
1963
1964
1964
1964
1964
1964
1964
1964
1964
1964
1964
1964
1965
1965
1965
1965
1964
1964
1964
1964
1965
1965
1965
1966
1966
1966
1966
1965
1965
1965
1966
1966
1967
1968
1968
1968
1968
1968
1967
1967
1968
1968
1968
1969
1969
1969
1969
1969
1968
1967
1966
1965
1964
1964
1964
1964
1964
1964
1965
1967
1969
1972
1974
1975
1975
1975
1973
1972
1970
1969
1968
1968
1969
1969
1969
1969
1969
1968
1969
1969
1969
1968
1966
1963
1962
1967
1982
2009
2045
2077
2093
2085
2052
2006
1961
1931
1921
1926
1939
1954
1966
1973
1977
1978
1977
1976
1975
1975
1975
1976
1977
1978
1979
1980
1981
1982
1982
1982
1982
1982
1983
1984
1985
1986
1986
1987
1987
1988
1988
1988
1989
1990
1991
1993
1994
1995
1996
1997
1998
2000
2001
2004
2006
2009
2011
2013
2015
2017
2019
2021
2023
2025
2027
2028
2029
2028
2027
2024
2021
2016
2011
2006
2000
1994
1987
1982
1977
1974
1971
1970
1968
1968
1967
1966
1966
1965
1965
1964
1964
1964
1965
1966
1966
1966
1966
1965
1965
1965
1966
1966
1967
1968
1968
1968
1968
1968
1968
1968
1968
1968
1969
1970
1971
1971
1971
1971
1970
1970
1970
1970
1971
1971
1971
1971
1971
1971
1971
1970
1970
1970
1970
1971
1972
1972
1972
1972
1972
1971
1971
1971
1971
1972
1973
1973
1973
1973
1972
1972
1971
1971
1972
1972
1973
1973
1973
1973
1973
1972
1972
1972
1972
1973
1973
1974
1974
1974
1974
1973
1973
1973
1973
1973
1974
1975
1975
1975
1975
1974
1974
1974
1974
1974
1975
1975
1975
1975
1974
1973
1972
1972
1972
1972
1974
1976
1979
1981
1982
1981
1981
1980
1980
1979
1979
1978
1977
1976
1975
1974
1973
1973
1973
1974
1975
1975
1975
1974
1971
1968
1965
1966
1976
1997
2030
2065
2090
2093
2070
2028
1981
1944
1925
1925
1936
1950
1963
1971
1976
1977
1977
1977
1977
1977
1978
1979
1980
1980
1981
1981
1981
1981
1982
1983
1984
1985
1985
1986
1986
1986
1986
1986
1987
1988
1989
1990
1991
1991
1992
1993
1994
1995
1996
1998
2000
2001
2003
2004
2005
2007
2009
2011
2013
2016
2019
2021
2024
2025
2027
2027
2028
2028
2028
2028
2027
2024
2020
2015
2008
2001
1995
1989
1984
1981
1978
1975
1973
1971
1970
1968
1967
1966
1966
1967
1967
1967
1966
1965
1965
1964
1965
1965
1966
1967
1967
1968
1968
1968
1968
1967
1967
1967
1968
1968
1969
1969
1970
1969
1969
1969
1969
1969
1969
1970
1970
1970
1970
1970
1970
1969
1969
1969
1969
1970
1970
1971
1971
1970
1970
1970
1970
1970
1970
1971
1972
1972
1972
1971
1971
1971
1970
1970
1971
1971
1972
1972
1972
1971
1971
1970
1970
1971
1971
1972
1973
1973
1973
1972
1972
1971
1971
1971
1971
1972
1973
1973
1973
1973
1972
1972
1972
1972
1973
1974
1974
1974
1974
1973
1972
1972
1972
1972
1973
1974
1974
1975
1975
1974
1973
1972
1971
1971
1972
1974
1976
1978
1980
1981
1981
1981
1980
1979
1979
1978
1977
1976
1975
1975
1974
1973
1972
1972
1972
1973
1973
1973
1970
1967
1964
1963
1971
1990
2020
2056
2085
2094
2078
2040
1992
1951
1927
1921
1929
1943
1956
1967
1974
1978
1979
1979
1979
1979
1980
1982
1983
1984
1985
1985
1985
1985
1986
1987
1988
1990
1992
1994
1995
1996
1996
1997
1997
1997
1998
1999
2001
2002
2003
2003
2004
2004
2005
2005
2006
2007
2008
2010
2013
2015
2018
2020
2022
2024
2028
2031
2034
2038
2040
2042
2043
2043
2042
2041
2040
2038
2034
2029
2023
2016
2009
2003
1997
1992
1987
1983
1980
1978
1977
1976
1975
1975
1974
1974
1973
1974
1974
1974
1975
1974
1974
1973
1973
1972
1972
1973
1973
1974
1974
1974
1974
1974
1974
1974
1975
1976
1976
1976
1976
1976
1976
1975
1975
1976
1976
1976
1976
1977
1977
1977
1976
1976
1975
1975
1975
1975
1976
1976
1977
1976
1976
1975
1974
1974
1974
1975
1976
1976
1976
1975
1975
1974
1974
1973
1974
1974
1975
1976
1976
1976
1975
1974
1974
1974
1974
1974
1974
1973
1973
1972
1972
1972
1974
1976
1978
1979
1980
1981
1981
1980
1979
1976
1974
1973
1973
1974
1974
1975
1974
1973
1972
1971
1971
1971
1970
1969
1966
1965
1968
1982
2007
2042
2075
2094
2088
2056
2009
1963
1930
1916
1917
1928
1941
1954
1964
1972
1976
1978
1977
1977
1977
1977
1977
1978
1979
1980
1981
1981
1981
1982
1983
1983
1984
1984
1985
1986
1987
1988
1989
1989
1989
1989
1990
1991
1993
1994
1996
1996
1997
1998
1999
2001
2003
2005
2007
2009
2011
2013
2016
2018
2020
2022
2025
2027
2029
2031
2033
2034
2034
2032
2030
2026
2020
2014
2006
2000
1993
1988
1983
1978
1974
1969
1966
1964
1963
1963
1963
1964
1964
1963
1962
1961
1960
1959
1959
1960
1960
1961
1961
1962
1962
1961
1961
1961
1962
1962
1963
1964
1965
1965
1966
1966
1966
1966
1967
1967
1968
1968
1968
1967
1967
1967
1967
1968
1969
1969
1970
1970
1970
1969
1969
1968
1968
1968
1969
1969
1970
1970
1970
1969
1968
1967
1967
1967
1968
1969
1969
1968
1966
1964
1962
1960
1960
1960
1960
1961
1961
1962
1962
1962
1962
1962
1962
1962
1962
1962
1962
1962
1962
1962
1962
1962
1962
1962
1962
1962
1962
1962
1962
1962
1962
1963
1964
1966
1968
1970
1972
1973
1972
1971
1969
1967
1966
1965
1965
1965
1965
1965
1964
1964
1964
1964
1965
1964
1962
1960
1957
1958
1965
1984
2015
2050
2080
2090
2075
2038
1991
1949
1924
1917
1924
1937
1951
1962
1969
1972
1972
1971
1970
1970
1969
1969
1970
1971
1972
1974
1974
1975
1975
1975
1976
1976
1977
1978
1978
1979
1980
1982
1983
1985
1987
1988
1990
1992
1993
1995
1996
1997
1997
1998
1999
2001
2003
2006
2008
2010
2013
2015
2017
2018
2020
2022
2025
2027
2030
2032
2034
2036
2037
2036
2034
2031
2027
2022
2016
2010
2004
1998
1993
1988
1984
1981
1979
1978
1976
1976
1975
1975
1975
1975
1975
1975
1974
1973
1973
1973
1973
1973
1973
1974
1974
1975
1975
1976
1976
1976
1977
1977
1977
1977
1977
1978
1978
1978
1978
1979
1980
1981
1983
1984
1985
1984
1983
1982
1981
1981
1982
1983
1983
1984
1984
1983
1983
1982
1982
1983
1983
1984
1985
1985
1985
1984
1984
1984
1985
1985
1985
1985
1984
1983
1982
1981
1981
1981
1982
1982
1983
1984
1985
1986
1987
1988
1988
1989
1990
1990
1989
1988
1987
1986
1984
1983
1982
1981
1981
1981
1983
1984
1985
1984
1982
1979
1974
1973
1978
1995
2023
2058
2090
2103
2090
2053
2005
1961
1931
1921
1924
1934
1946
1958
1969
1978
1983
1986
1987
1987
1987
1987
1987
1987
1986
1986
1987
1987
1987
1987
1987
1987
1989
1990
1990
1990
1990
1990
1990
1991
1992
1992
1992
1992
1992
1993
1994
1994
1995
1997
1998
2000
2002
2003
2005
2006
2009
2011
2015
2018
2020
2023
2025
2026
2027
2028
2029
2030
2030
2030
2028
2023
2017
2009
2000
1992
1985
1979
1974
1969
1966
1963
1960
1959
1957
1956
1954
1953
1953
1953
1954
1954
1954
1954
1953
1953
1953
1953
1954
1955
1956
1957
1958
1958
1958
1958
1957
1957
1957
1957
1957
1957
1957
1958
1959
1960
1961
1962
1963
1963
1963
1963
1963
1963
1963
1964
1964
1964
1964
1964
1964
1964
1965
1965
1965
1967
1968
1970
1970
1968
1966
1965
1965
1965
1967
1967
1966
1965
1965
1964
1965
1966
1967
1968
1968
1967
1966
1965
1966
1967
1969
1971
1973
1975
1975
1974
1972
1970
1968
1968
1969
1970
1971
1971
1971
1969
1968
1968
1969
1971
1973
1973
1972
1970
1972
1984
2009
2045
2083
2109
2110
2083
2037
1985
1945
1927
1928
1941
1959
1974
1984
1990
1992
1991
1990
1989
1990
1991
1993
1996
1997
1999
1999
1999
1999
1999
2001
2002
2005
2006
2008
2009
2010
2010
2011
2011
2011
2012
2014
2016
2019
2021
2023
2024
2024
2025
2026
2028
2031
2035
2038
2041
2043
2044
2045
2046
2047
2048
2051
2053
2056
2057
2058
2058
2058
2057
2054
2050
2045
2038
2031
2023
2016
2009
2004
1999
1995
1991
1987
1984
1982
1981
1980
1979
1978
1977
1977
1976
1975
1974
1973
1973
1974
1974
1974
1972
1971
1969
1969
1969
1971
1972
1972
1972
1972
1972
1972
1971
1971
1972
1972
1973
1974
1974
1973
1973
1972
1971
1972
1973
1975
1976
1977
1977
1976
1975
1975
1975
1975
1976
1977
1977
1977
1976
1975
1974
1975
1976
1977
1977
1977
1977
1977
1977
1976
1975
1974
1973
1973
1975
1978
1981
1983
1983
1983
1983
1982
1982
1981
1980
1980
1980
1980
1980
1980
1979
1979
1978
1978
1978
1979
1980
1981
1979
1976
1972
1971
1977
1993
2021
2057
2092
2110
2102
2067
2017
1968
1934
1921
1926
1941
1958
1972
1981
1986
1987
1986
1986
1987
1988
1990
1990
1990
1989
1989
1988
1989
1989
1991
1992
1993
1993
1993
1993
1992
1992
1992
1993
1994
1995
1996
1998
1998
1998
1999
2000
2001
2003
2005
2007
2008
2010
2011
2012
2014
2016
2019
2022
2024
2027
2029
2031
2034
2036
2037
2038
2037
2035
2033
2030
2027
2021
2015
2008
2001
1995
1989
1984
1980
1976
1974
1972
1971
1970
1969
1968
1967
1967
1966
1967
1967
1968
1968
1968
1967
1966
1966
1966
1966
1967
1967
1968
1967
1967
1967
1967
1967
1967
1967
1967
1968
1969
1969
1969
1968
1968
1968
1968
1968
1968
1968
1968
1968
1969
1968
1967
1966
1965
1965
1966
1968
1968
1968
1968
1967
1967
1967
1967
1967
1967
1967
1968
1968
1968
1968
1968
1968
1967
1967
1967
1967
1967
1967
1968
1968
1968
1968
1969
1969
1969
1970
1971
1971
1971
1970
1968
1967
1966
1967
1968
1969
1970
1972
1973
1974
1975
1977
1978
1978
1978
1977
1976
1974
1972
1970
1970
1970
1970
1971
1972
1972
1972
1972
1972
1971
1968
1965
1962
1964
1974
1996
2029
2065
2093
2098
2076
2033
1983
1941
1919
1916
1926
1941
1955
1965
1972
1976
1977
1977
1978
1979
1979
1979
1978
1975
1972
1970
1969
1969
1971
1973
1974
1975
1976
1976
1975
1975
1975
1976
1977
1979
1981
1983
1983
1983
1982
1982
1984
1986
1988
1990
1991
1993
1994
1996
1998
2000
2002
2004
2006
2008
2011
2013
2015
2017
2018
2020
2021
2022
2022
2021
2019
2015
2010
2003
1996
1990
1984
1979
1975
1971
1967
1964
1962
1960
1958
1958
1959
1960
1960
1960
1960
1959
1958
1958
1958
1958
1958
1958
1959
1959
1960
1960
1960
1959
1959
1959
1960
1961
1962
1963
1963
1963
1962
1961
1961
1961
1962
1963
1964
1965
1965
1965
1964
1963
1962
1962
1963
1964
1966
1966
1967
1967
1966
1965
1964
1964
1964
1965
1966
1968
1969
1969
1969
1967
1966
1965
1966
1967
1968
1970
1970
1970
1969
1969
1968
1968
1969
1969
1970
1970
1970
1970
1971
1971
1972
1973
1973
1973
1973
1972
1972
1972
1973
1973
1972
1971
1970
1970
1971
1972
1973
1974
1974
1973
1972
1971
1971
1972
1973
1974
1974
1972
1970
1968
1967
1967
1969
1972
1975
1977
1977
1976
1976
1976
1976
1977
1976
1976
1975
1974
1973
1972
1972
1972
1973
1974
1974
1974
1974
1974
1973
1971
1968
1966
1968
1980
2005
2040
2072
2091
2084
2052
2007
1961
1930
1918
1921
1933
1948
1960
1970
1976
1979
1979
1979
1979
1979
1979
1980
1980
1980
1981
1981
1981
1981
1981
1981
1982
1983
1984
1985
1985
1985
1985
1985
1985
1986
1988
1990
1991
1993
1994
1994
1995
1995
1996
1996
1997
1998
2000
2002
2004
2007
2009
2010
2012
2014
2017
2019
2021
2023
2025
2027
2028
2027
2026
2024
2022
2020
2016
2012
2007
2001
1995
1989
1983
1978
1974
1972
1971
1971
1970
1968
1967
1966
1965
1965
1965
1965
1966
1966
1965
1965
1965
1965
1966
1966
1967
1968
1969
1969
1969
1969
1968
1968
1968
1969
1970
1971
1972
1972
1972
1972
1972
1972
1973
1973
1974
1975
1977
1977
1978
1977
1977
1976
1976
1976
1976
1977
1977
1978
1978
1978
1978
1977
1977
1977
1978
1978
1979
1980
1981
1981
1982
1981
1981
1981
1982
1983
1984
1984
1985
1985
1985
1985
1984
1984
1984
1985
1985
1986
1987
1988
1988
1988
1988
1988
1988
1989
1989
1990
1990
1989
1989
1988
1988
1988
1989
1989
1988
1988
1987
1987
1987
1989
1991
1993
1995
1996
1996
1996
1996
1995
1993
1992
1991
1990
1990
1990
1990
1990
1990
1990
1989
1989
1988
1987
1986
1984
1984
1988
2002
2026
2059
2091
2107
2098
2065
2019
1975
1944
1932
1935
1946
1959
1971
1981
1990
1995
1998
1999
1999
1998
1997
1996
1997
1998
1999
2001
2002
2003
2003
2003
2003
2004
2004
2005
2006
2006
2007
2007
2008
2008
2008
2008
2009
2010
2011
2013
2015
2016
2018
2019
2019
2020
2021
2023
2026
2029
2033
2035
2038
2039
2041
2042
2044
2046
2048
2048
2049
2050
2049
2048
2045
2040
2035
2029
2023
2017
2011
2005
1999
1995
1991
1988
1985
1983
1982
1982
1982
1982
1982
1982
1981
1980
1980
1980
1980
1980
1980
1980
1980
1980
1980
1980
1981
1982
1983
1983
1983
1983
1983
1983
1983
1983
1983
1983
1983
1984
1985
1986
1986
1986
1985
1985
1985
1985
1985
1985
1985
1985
1984
1984
1984
1984
1984
1984
1983
1983
1982
1982
1983
1983
1983
1983
1982
1981
1980
1981
1981
1982
1982
1981
1980
1979
1979
1979
1979
1980
1981
1983
1985
1986
1987
1987
1987
1986
1985
1984
1983
1982
1981
1980
1979
1979
1979
1979
1979
1980
1980
1980
1979
1976
1973
1972
1976
1991
2017
2052
2084
2099
2087
2051
2003
1958
1928
1918
1922
1934
1947
1960
1971
1979
1983
1984
1984
1983
1983
1984
1986
1987
1988
1988
1988
1988
1989
1989
1990
1991
1991
1992
1992
1993
1994
1995
1995
1996
1996
1996
1997
1997
1999
2000
2001
2002
2003
2004
2006
2008
2011
2013
2015
2017
2019
2021
2023
2025
2028
2030
2033
2035
2037
2039
2039
2039
2038
2036
2033
2030
2025
2018
2010
2002
1994
1987
1981
1976
1973
1970
1968
1966
1965
1963
1962
1961
1961
1961
1961
1961
1961
1962
1962
1962
1961
1960
1960
1960
1961
1962
1962
1962
1962
1962
1962
1962
1963
1963
1964
1964
1965
1965
1966
1966
1966
1965
1965
1966
1966
1967
1968
1968
1968
1967
1966
1966
1966
1966
1966
1967
1967
1968
1968
1968
1967
1966
1966
1966
1967
1968
1968
1967
1967
1966
1966
1966
1965
1965
1964
1964
1964
1966
1968
1970
1972
1973
1974
1974
1974
1974
1974
1972
1971
1969
1967
1966
1966
1966
1967
1967
1968
1968
1969
1968
1967
1964
1960
1957
1959
1970
1993
2028
2065
2092
2095
2069
2024
1973
1932
1912
1911
1923
1939
1953
1964
1970
1973
1974
1973
1972
1972
1973
1975
1976
1976
1976
1976
1976
1976
1977
1978
1979
1980
1981
1981
1981
1981
1982
1982
1983
1984
1986
1987
1988
1988
1989
1989
1989
1990
1992
1994
1996
1999
2000
2002
2004
2006
2008
2011
2014
2016
2019
2020
2022
2023
2024
2025
2026
2027
2027
2025
2022
2017
2010
2003
1996
1989
1983
1977
1973
1969
1967
1964
1963
1961
1960
1959
1958
1958
1958
1958
1958
1959
1959
1958
1957
1957
1957
1957
1958
1958
1958
1958
1959
1960
1960
1961
1961
1960
1960
1960
1961
1961
1961
1961
1961
1961
1961
1961
1962
1962
1963
1963
1963
1963
1962
1962
1962
1963
1963
1964
1964
1963
1963
1963
1963
1963
1963
1962
1962
1963
1963
1963
1963
1963
1963
1963
1964
1964
1964
1965
1965
1965
1965
1964
1963
1962
1962
1962
1962
1962
1963
1963
1964
1966
1968
1969
1970
1971
1971
1971
1970
1969
1967
1965
1964
1963
1963
1963
1964
1964
1964
1964
1964
1963
1961
1959
1956
1954
1958
1970
1995
2031
2067
2092
2092
2065
2019
1968
1930
1912
1913
1926
1942
1955
1964
1968
1970
1970
1970
1970
1971
1972
1972
1973
1973
1973
1974
1975
1976
1977
1978
1978
1978
1979
1979
1980
1981
1982
1982
1983
1984
1985
1986
1986
1987
1987
1987
1988
1990
1992
1994
1996
1997
1998
2000
2001
2003
2006
2008
2011
2014
2016
2018
2019
2020
2021
2022
2023
2024
2024
2022
2019
2014
2007
2001
1994
1988
1982
1978
1974
1971
1968
1966
1964
1962
1961
1960
1959
1959
1959
1959
1960
1959
1959
1958
1957
1958
1959
1960
1960
1960
1960
1959
1959
1960
1960
1960
1961
1962
1963
1964
1963
1962
1962
1961
1961
1962
1963
1964
1965
1966
1965
1964
1964
1964
1964
1965
1966
1966
1965
1965
1965
1964
1963
1963
1962
1962
1963
1964
1965
1965
1965
1965
1965
1965
1964
1964
1964
1964
1964
1964
1964
1964
1964
1963
1963
1962
1963
1964
1964
1965
1965
1966
1966
1966
1965
1965
1964
1964
1965
1965
1966
1966
1966
1966
1966
1966
1966
1966
1965
1964
1964
1964
1965
1966
1969
1971
1974
1976
1977
1977
1976
1974
1972
1970
1969
1968
1968
1969
1970
1970
1969
1968
1967
1967
1968
1969
1968
1966
1964
1966
1976
1998
2031
2066
2091
2094
2069
2027
1979
1940
1921
1921
1932
1949
1963
1974
1979
1981
1980
1979
1978
1978
1979
1979
1980
1980
1981
1982
1983
1984
1985
1985
1985
1985
1986
1987
1989
1990
1991
1991
1991
1991
1992
1992
1993
1994
1995
1997
1999
2000
2001
2001
2002
2003
2004
2005
2007
2010
2013
2016
2019
2021
2023
2025
2026
2028
2030
2032
2032
2033
2032
2031
2029
2026
2021
2016
2009
2003
1998
1993
1989
1985
1980
1977
1974
1973
1973
1973
1974
1974
1973
1973
1972
1972
1972
1972
1972
1973
1973
1973
1974
1973
1973
1973
1974
1975
1977
1977
1977
1976
1975
1975
1974
1974
1974
1974
1975
1976
1977
1978
1978
1978
1978
1977
1977
1976
1977
1977
1978
1978
1978
1977
1976
1976
1975
1975
1975
1975
1976
1976
1975
1975
1975
1975
1975
1976
1976
1977
1978
1979
1980
1981
1982
1982
1983
1983
1983
1984
1985
1986
1988
1990
1991
1991
1991
1991
1991
1991
1992
1993
1994
1995
1996
1996
1996
1995
1994
1993
1994
1995
1996
1998
1998
1998
1997
1997
1997
1997
1998
1998
1998
1996
1995
1993
1993
1994
1995
1997
2000
2002
2004
2006
2006
2006
2004
2003
2001
1999
1998
1997
1996
1996
1995
1995
1995
1995
1995
1996
1996
1996
1995
1992
1989
1991
2000
2021
2053
2088
2113
2116
2092
2050
2004
1966
1947
1946
1957
1973
1988
1999
2006
2009
2009
2009
2009
2010
2012
2013
2014
2015
2015
2016
2017
2018
2019
2020
2022
2023
2025
2027
2029
2029
2029
2029
2028
2029
2029
2030
2031
2032
2032
2031
2030
2030
2029
2029
2030
2031
2033
2034
2035
2035
2035
2036
2037
2038
2038
2038
2037
2036
2034
2033
2033
2032
2030
2028
2024
2019
2012
2005
1997
1988
1980
1973
1968
1963
1960
1957
1955
1953
1951
1950
1949
1949
1948
1948
1947
1947
1948
1949
1950
1950
1949
1948
1947
1947
1947
1949
1951
1952
1954
1954
1954
1954
1954
1954
1954
1955
1957
1958
1960
1960
1961
1960
1960
1960
1961
1962
1964
1965
1965
1964
1964
1963
1962
1963
1964
1966
1967
1968
1969
1969
1969
1968
1966
1965
1965
1966
1968
1970
1970
1970
1970
1970
1970
1970
1971
1971
1972
1973
1973
1973
1973
1973
1974
1974
1974
1975
1975
1975
1975
1975
1974
1973
1974
1975
1976
1976
1976
1976
1974
1973
1971
1969
1968
1967
1968
1969
1970
1970
1971
1970
1970
1969
1968
1968
1967
1968
1969
1970
1971
1973
1975
1976
1977
1978
1978
1978
1978
1977
1977
1976
1976
1975
1974
1973
1973
1972
1972
1973
1974
1975
1974
1972
1968
1966
1968
1980
2003
2036
2068
2088
2085
2058
2016
1971
1937
1921
1922
1933
1948
1961
1972
1978
1981
1981
1980
1979
1979
1979
1981
1982
1983
1984
1984
1983
1983
1982
1983
1984
1985
1986
1987
1988
1989
1990
1990
1991
1992
1993
1994
1994
1995
1995
1995
1996
1998
2000
2001
2002
2003
2003
2004
2006
2008
2011
2014
2016
2018
2020
2023
2024
2026
2027
2028
2029
2030
2031
2031
2029
2026
2020
2014
2007
2001
1995
1990
1985
1982
1979
1977
1975
1973
1971
1969
1967
1965
1964
1964
1965
1966
1967
1967
1966
1966
1966
1966
1966
1967
1967
1967
1967
1966
1966
1967
1968
1968
1969
1970
1971
1972
1974
1974
1974
1974
1973
1973
1973
1974
1975
1977
1977
1976
1975
1974
1974
1974
1974
1975
1976
1977
1978
1978
1978
1977
1976
1976
1976
1977
1978
1979
1979
1979
1979
1979
1979
1979
1978
1978
1977
1977
1977
1976
1976
1975
1975
1975
1975
1975
1975
1975
1974
1974
1973
1972
1972
1972
1973
1974
1975
1975
1974
1972
1971
1970
1971
1972
1973
1973
1973
1973
1972
1972
1972
1971
1971
1971
1972
1974
1976
1978
1979
1979
1979
1978
1976
1975
1973
1972
1972
1971
1971
1970
1969
1969
1970
1971
1971
1970
1967
1964
1962
1965
1977
2000
2033
2064
2084
2080
2051
2008
1964
1931
1915
1916
1926
1940
1952
1963
1971
1974
1975
1974
1973
1973
1973
1973
1974
1974
1976
1977
1978
1978
1979
1979
1979
1980
1981
1983
1984
1985
1985
1986
1986
1987
1988
1989
1991
1991
1992
1993
1993
1995
1996
1997
1999
2000
2003
2006
2008
2011
2013
2015
2017
2019
2021
2024
2026
2028
2030
2032
2033
2033
2032
2030
2027
2023
2019
2014
2008
2002
1996
1990
1984
1979
1976
1974
1973
1973
1972
1971
1969
1968
1967
1967
1967
1967
1967
1967
1967
1967
1967
1968
1967
1967
1968
1969
1970
1970
1971
1970
1969
1968
1968
1968
1968
1969
1970
1970
1971
1972
1972
1972
1971
1971
1970
1970
1971
1972
1972
1972
1972
1972
1972
1971
1971
1972
1972
1972
1973
1973
1973
1973
1972
1972
1972
1972
1972
1973
1974
1974
1974
1974
1973
1973
1973
1973
1974
1975
1975
1976
1975
1974
1973
1972
1972
1973
1974
1975
1976
1976
1975
1975
1974
1974
1975
1975
1975
1975
1975
1975
1975
1975
1975
1975
1976
1978
1981
1983
1984
1983
1983
1981
1980
1980
1979
1978
1978
1977
1977
1977
1977
1977
1976
1976
1976
1976
1975
1973
1971
1970
1975
1989
2015
2048
2079
2093
2082
2048
2003
1961
1933
1924
1928
1941
1955
1967
1975
1981
1983
1983
1982
1982
1981
1981
1981
1981
1982
1983
1985
1985
1986
1986
1985
1985
1986
1986
1987
1989
1989
1990
1991
1992
1992
1993
1993
1993
1994
1995
1997
1998
1999
2000
2001
2002
2003
2005
2007
2010
2012
2014
2016
2018
2020
2022
2024
2026
2028
2030
2031
2032
2032
2032
2030
2027
2023
2018
2013
2007
2001
1995
1989
1984
1980
1977
1974
1973
1971
1970
1969
1968
1967
1967
1966
1966
1965
1965
1965
1966
1968
1969
1969
1969
1969
1968
1967
1966
1965
1964
1965
1967
1968
1968
1967
1966
1967
1967
1969
1970
1970
1970
1970
1970
1970
1972
1973
1974
1975
1974
1973
1972
1972
1972
1972
1972
1973
1973
1974
1974
1974
1973
1973
1973
1974
1974
1974
1974
1974
1974
1974
1974
1973
1972
1971
1971
1971
1971
1971
1971
1971
1970
1970
1970
1970
1970
1970
1969
1969
1968
1968
1967
1967
1966
1965
1964
1963
1963
1963
1964
1964
1965
1965
1966
1967
1969
1971
1972
1973
1973
1973
1972
1971
1969
1967
1965
1965
1965
1966
1967
1967
1966
1966
1965
1965
1964
1962
1959
1958
1963
1978
2005
2039
2068
2083
2073
2042
1997
1955
1928
1917
1921
1933
1946
1958
1967
1973
1975
1976
1975
1975
1976
1976
1977
1977
1978
1980
1982
1983
1985
1988
1989
1991
1991
1991
1991
1991
1991
1993
1994
1996
1997
1997
1997
1998
1998
1999
2000
2002
2004
2005
2006
2007
2008
2009
2010
2012
2014
2017
2019
2022
2024
2026
2027
2028
2030
2031
2033
2034
2035
2034
2032
2029
2025
2019
2013
2007
2001
1995
1989
1982
1976
1972
1968
1966
1965
1964
1963
1962
1962
1962
1962
1962
1962
1962
1962
1961
1961
1961
1961
1962
1962
1962
1962
1961
1961
1961
1961
1962
1963
1963
1964
1964
1963
1963
1963
1963
1964
1964
1965
1965
1965
1965
1965
1964
1964
1964
1964
1965
1966
1966
1966
1966
1965
1965
1964
1964
1964
1965
1966
1966
1967
1967
1966
1966
1965
1965
1965
1966
1967
1967
1967
1967
1966
1966
1965
1965
1966
1966
1967
1968
1968
1968
1968
1967
1966
1965
1965
1965
1965
1966
1968
1969
1970
1972
1973
1974
1975
1975
1976
1975
1974
1973
1971
1970
1969
1968
1968
1969
1969
1970
1970
1969
1969
1968
1966
1964
1962
1963
1970
1988
2016
2050
2078
2088
2072
2035
1988
1948
1923
1917
1924
1938
1952
1963
1971
1975
1977
1976
1976
1975
1976
1976
1977
1977
1978
1978
1979
1980
1981
1982
1982
1983
1983
1984
1984
1984
1985
1986
1987
1988
1989
1990
1990
1991
1991
1992
1993
1995
1997
1999
2001
2002
2003
2004
2005
2007
2009
2012
2014
2017
2019
2022
2023
2025
2027
2028
2029
2030
2031
2030
2028
2024
2018
2012
2006
2000
1994
1989
1984
1980
1976
1973
1970
1967
1965
1964
1963
1963
1964
1964
1964
1964
1964
1963
1963
1963
1964
1964
1965
1965
1965
1965
1965
1965
1965
1965
1965
1965
1966
1966
1967
1967
1967
1968
1968
1968
1968
1968
1968
1969
1970
1970
1970
1969
1969
1969
1969
1969
1970
1970
1971
1970
1970
1970
1969
1969
1970
1970
1970
1971
1970
1970
1970
1970
1970
1970
1970
1970
1971
1971
1971
1971
1971
1971
1971
1971
1971
1971
1972
1973
1972
1971
1970
1968
1968
1968
1969
1971
1973
1976
1977
1978
1978
1978
1978
1978
1978
1977
1976
1976
1975
1974
1973
1973
1973
1973
1974
1976
1978
1979
1978
1976
1973
1972
1978
1994
2022
2056
2087
2101
2088
2052
2004
1960
1931
1922
1928
1941
1956
1969
1978
1984
1986
1986
1985
1984
1985
1986
1987
1988
1988
1988
1988
1988
1989
1990
1991
1992
1993
1994
1994
1993
1993
1994
1994
1996
1997
1999
2000
2000
2001
2002
2003
2004
2005
2006
2007
2009
2010
2012
2014
2016
2018
2020
2022
2024
2026
2029
2031
2034
2035
2036
2037
2037
2036
2035
2033
2030
2026
2020
2014
2006
1999
1992
1986
1982
1979
1977
1975
1974
1972
1971
1969
1968
1968
1968
1968
1969
1969
1970
1969
1969
1968
1968
1968
1968
1968
1968
1968
1969
1970
1970
1970
1970
1970
1970
1970
1971
1971
1971
1972
1971
1971
1971
1971
1971
1971
1972
1973
1973
1973
1973
1973
1972
1971
1971
1971
1972
1972
1973
1973
1972
1972
1971
1971
1971
1971
1972
1973
1973
1973
1973
1972
1972
1972
1972
1972
1972
1973
1972
1972
1972
1972
1971
1971
1970
1968
1967
1967
1968
1970
1972
1974
1975
1976
1977
1977
1977
1977
1976
1975
1974
1973
1972
1971
1971
1971
1971
1972
1972
1972
1972
1970
1968
1965
1963
1963
1971
1989
2019
2055
2084
2094
2077
2038
1989
1945
1920
1915
1923
1939
1954
1966
1973
1976
1977
1975
1974
1974
1974
1974
1974
1974
1974
1974
1975
1976
1977
1977
1978
1978
1978
1978
1978
1978
1979
1980
1982
1983
1984
1984
1985
1985
1986
1987
1988
1990
1992
1994
1996
1998
1999
2001
2002
2003
2005
2007
2010
2013
2016
2019
2021
2023
2023
2024
2025
2026
2027
2026
2024
2020
2014
2008
2001
1995
1989
1983
1979
1976
1973
1971
1969
1967
1965
1964
1963
1963
1963
1964
1964
1964
1964
1964
1963
1963
1963
1963
1963
1964
1964
1965
1966
1966
1966
1966
1966
1966
1967
1968
1968
1969
1969
1968
1968
1968
1968
1968
1969
1970
1970
1970
1969
1969
1968
1968
1969
1969
1970
1970
1970
1970
1970
1969
1969
1969
1969
1970
1970
1970
1970
1970
1970
1969
1969
1969
1969
1970
1971
1971
1972
1972
1972
1972
1971
1971
1971
1971
1972
1972
1972
1972
1972
1972
1972
1971
1971
1971
1972
1972
1972
1972
1972
1971
1970
1970
1972
1974
1976
1978
1980
1980
1980
1979
1978
1977
1975
1974
1974
1973
1973
1973
1972
1972
1971
1970
1970
1971
1971
1970
1968
1967
1968
1978
1999
2031
2063
2085
2085
2060
2018
1971
1936
1919
1919
1931
1946
1959
1970
1976
1978
1978
1977
1977
1977
1977
1977
1978
1978
1979
1980
1981
1982
1982
1983
1983
1983
1983
1984
1985
1986
1988
1988
1989
1989
1989
1989
1990
1991
1993
1995
1996
1997
1998
1999
2000
2001
2003
2004
2007
2009
2011
2013
2015
2016
2018
2021
2023
2026
2028
2029
2030
2030
2029
2027
2024
2020
2016
2011
2005
2000
1994
1989
1983
1978
1975
1972
1971
1970
1970
1969
1968
1967
1966
1965
1965
1965
1965
1966
1967
1967
1968
1968
1967
1967
1966
1966
1966
1967
1968
1969
1969
1969
1968
1968
1968
1968
1969
1969
1970
1971
1971
1970
1970
1970
1970
1970
1970
1971
1971
1971
1971
1971
1970
1969
1969
1969
1969
1970
1971
1971
1971
1970
1970
1969
1970
1970
1970
1970
1971
1971
1971
1970
1971
1971
1971
1971
1971
1971
1971
1972
1972
1972
1972
1971
1971
1971
1972
1973
1973
1973
1973
1973
1973
1973
1973
1973
1973
1973
1973
1974
1973
1973
1972
1971
1971
1971
1972
1972
1973
1972
1972
1972
1972
1973
1975
1977
1979
1980
1981
1981
1980
1979
1977
1975
1974
1973
1972
1972
1973
1973
1974
1974
1973
1973
1972
1971
1970
1968
1966
1969
1979
2001
2032
2064
2085
2084
2059
2017
1972
1938
1923
1923
1934
1947
1959
1969
1976
1980
1981
1980
1980
1980
1980
1980
1980
1980
1980
1982
1983
1984
1985
1985
1985
1986
1986
1987
1988
1990
1991
1992
1994
1995
1995
1996
1996
1997
1999
2001
2003
2005
2007
2008
2009
2011
2014
2017
2020
2023
2026
2029
2032
2034
2036
2037
2038
2040
2042
2045
2047
2048
2049
2048
2046
2042
2038
2033
2028
2023
2017
2012
2007
2002
1999
1996
1994
1993
1993
1993
1993
1992
1992
1991
1991
1991
1991
1991
1992
1992
1993
1993
1993
1992
1991
1991
1991
1991
1992
1993
1993
1993
1994
1994
1994
1994
1993
1993
1993
1994
1995
1995
1995
1994
1994
1994
1995
1995
1995
1996
1996
1996
1996
1996
1996
1995
1995
1995
1995
1995
1996
1996
1996
1995
1995
1994
1994
1993
1993
1994
1994
1995
1995
1995
1994
1993
1993
1993
1993
1993
1993
1992
1992
1992
1992
1992
1992
1992
1992
1992
1992
1993
1993
1992
1991
1991
1990
1990
1990
1991
1991
1991
1991
1990
1990
1990
1990
1990
1990
1991
1991
1992
1991
1991
1990
1989
1988
1987
1987
1987
1987
1988
1989
1990
1992
1993
1994
1995
1995
1996
1996
1996
1994
1992
1990
1989
1988
1988
1988
1989
1989
1989
1989
1989
1988
1986
1983
1981
1982
1990
2008
2037
2070
2096
2103
2085
2046
1998
1958
1935
1931
1940
1955
1969
1980
1988
1991
1992
1992
1993
1994
1995
1995
1995
1994
1993
1993
1993
1994
1995
1997
1997
1998
1999
1999
1999
1999
2000
2000
2002
2003
2004
2004
2004
2004
2005
2006
2007
2009
2011
2013
2014
2015
2016
2017
2018
2020
2022
2025
2028
2031
2034
2036
2038
2039
2040
2040
2041
2042
2042
2042
2041
2038
2034
2028
2023
2016
2010
2004
1999
1994
1990
1987
1984
1981
1979
1977
1976
1975
1976
1976
1976
1976
1975
1974
1974
1974
1975
1975
1975
1975
1975
1975
1975
1976
1977
1977
1977
1977
1977
1977
1977
1977
1977
1977
1976
1977
1977
1977
1978
1978
1978
1979
1979
1979
1979
1978
1978
1978
1979
1980
1980
1980
1979
1979
1978
1977
1977
1977
1978
1979
1979
1980
1979
1979
1978
1978
1977
1978
1978
1979
1979
1979
1978
1978
1977
1977
1977
1977
1978
1979
1979
1979
1979
1978
1977
1976
1976
1976
1976
1977
1978
1979
1981
1981
1982
1983
1983
1984
1984
1984
1983
1981
1980
1979
1978
1977
1976
1976
1976
1977
1977
1977
1977
1975
1972
1969
1969
1975
1991
2018
2051
2080
2091
2077
2042
1994
1952
1925
1915
1920
1932
1946
1958
1969
1976
1980
1981
1981
1981
1982
1983
1983
1984
1985
1985
1985
1986
1986
1987
1988
1988
1989
1989
1989
1989
1989
1990
1992
1993
1994
1995
1996
1997
1998
1998
1999
2000
2001
2003
2005
2008
2009
2010
2012
2013
2015
2018
2022
2025
2027
2029
2031
2033
2034
2035
2036
2037
2037
2037
2035
2032
2027
2021
2014
2007
1999
1993
1987
1983
1980
1977
1975
1973
1970
1969
1967
1967
1967
1968
1969
1969
1970
1969
1969
1968
1968
1967
1968
1968
1969
1970
1970
1970
1970
1969
1969
1970
1970
1971
1972
1972
1973
1973
1973
1972
1972
1972
1972
1972
1972
1973
1973
1973
1973
1972
1972
1972
1972
1972
1972
1972
1973
1973
1973
1972
1972
1972
1972
1972
1973
1973
1973
1973
1973
1973
1973
1973
1973
1974
1974
1974
1974
1973
1973
1973
1973
1973
1974
1974
1975
1975
1975
1975
1974
1974
1974
1974
1974
1974
1975
1975
1974
1973
1972
1972
1972
1973
1975
1977
1980
1982
1982
1982
1981
1980
1979
1978
1977
1977
1976
1976
1976
1975
1975
1974
1973
1973
1974
1974
1974
1972
1969
1967
1971
1986
2012
2047
2080
2098
2090
2057
2010
1962
1929
1916
1921
1936
1952
1966
1974
1979
1980
1979
1978
1977
1977
1978
1979
1980
1981
1981
1981
1981
1982
1982
1983
1983
1985
1986
1986
1987
1987
1987
1987
1988
1989
1990
1991
1992
1993
1995
1996
1996
1996
1997
1998
2000
2003
2005
2007
2009
2011
2013
2015
2016
2018
2020
2023
2025
2028
2030
2031
2032
2032
2031
2029
2027
2023
2018
2013
2007
2000
1994
1987
1982
1977
1974
1971
1970
1969
1969
1968
1967
1966
1965
1965
1965
1965
1966
1967
1967
1967
1967
1967
1967
1966
1966
1966
1967
1967
1968
1968
1968
1968
1967
1967
1967
1968
1970
1971
1971
1970
1969
1969
1969
1969
1969
1969
1970
1970
1970
1970
1969
1968
1967
1967
1967
1967
1968
1968
1969
1969
1969
1968
1967
1967
1966
1966
1967
1968
1968
1968
1968
1968
1967
1967
1967
1968
1969
1969
1970
1970
1969
1969
1968
1968
1968
1969
1969
1970
1971
1971
1971
1971
1970
1970
1970
1970
1970
1970
1970
1970
1969
1969
1968
1968
1969
1969
1970
1970
1970
1969
1969
1968
1967
1967
1967
1968
1971
1974
1976
1978
1979
1979
1978
1977
1976
1975
1974
1973
1972
1972
1971
1971
1970
1970
1970
1971
1972
1971
1970
1966
1963
1963
1969
1987
2017
2051
2080
2089
2073
2035
1987
1945
1921
1916
1925
1940
1955
1967
1974
1978
1978
1977
1975
1975
1976
1977
1978
1979
1979
1980
1980
1980
1980
1981
1981
1982
1983
1984
1985
1986
1986
1987
1987
1987
1988
1988
1990
1991
1992
1993
1994
1995
1996
1997
1998
2001
2003
2005
2007
2008
2010
2011
2013
2015
2018
2020
2022
2025
2027
2028
2029
2029
2029
2028
2027
2025
2021
2017
2012
2006
1999
1993
1987
1982
1978
1975
1973
1971
1970
1969
1969
1968
1967
1967
1967
1967
1967
1967
1967
1967
1967
1967
1967
1967
1967
1968
1968
1969
1969
1969
1969
1968
1968
1968
1969
1969
1970
1971
1972
1972
1972
1972
1971
1971
1971
1971
1972
1972
1973
1973
1973
1973
1972
1971
1971
1971
1972
1973
1973
1974
1974
1973
1972
1972
1972
1972
1974
1975
1976
1976
1976
1976
1975
1975
1975
1976
1976
1977
1977
1977
1977
1977
1977
1977
1978
1979
1980
1981
1981
1982
1982
1982
1981
1981
1981
1981
1981
1982
1983
1983
1982
1981
1981
1980
1979
1980
1980
1981
1982
1982
1982
1982
1981
1980
1979
1978
1978
1979
1980
1982
1984
1987
1988
1989
1990
1989
1989
1988
1988
1986
1985
1984
1983
1983
1983
1983
1983
1983
1983
1984
1983
1982
1979
1976
1977
1984
2002
2031
2065
2092
2098
2078
2038
1990
1949
1926
1923
1932
1947
1961
1972
1980
1984
1986
1986
1985
1985
1986
1987
1988
1989
1989
1990
1990
1990
1990
1990
1991
1992
1992
1993
1993
1993
1993
1993
1993
1994
1996
1997
1998
1998
1999
1999
2000
2001
2002
2004
2005
2007
2009
2010
2012
2014
2016
2018
2019
2022
2024
2027
2030
2031
2032
2033
2033
2034
2034
2034
2034
2032
2028
2023
2017
2010
2003
1997
1991
1987
1983
1980
1978
1975
1973
1971
1970
1969
1969
1970
1970
1971
1971
1970
1970
1969
1969
1968
1968
1969
1970
1971
1971
1971
1971
1971
1971
1971
1972
1972
1973
1973
1973
1973
1973
1972
1972
1972
1973
1974
1975
1976
1975
1975
1974
1973
1973
1973
1973
1973
1974
1974
1975
1975
1974
1973
1973
1973
1973
1973
1974
1974
1975
1975
1974
1974
1973
1973
1973
1974
1975
1975
1976
1975
1974
1973
1973
1973
1974
1975
1975
1975
1975
1974
1974
1973
1972
1972
1973
1974
1975
1976
1975
1974
1972
1971
1971
1971
1972
1974
1976
1978
1980
1982
1982
1982
1981
1980
1979
1978
1977
1976
1976
1975
1975
1974
1973
1973
1974
1975
1975
1975
1973
1969
1967
1970
1983
2008
2043
2076
2096
2091
2060
2014
1966
1931
1917
1919
1933
1949
1963
1974
1980
1982
1981
1980
1979
1980
1980
1981
1982
1983
1983
1984
1984
1984
1984
1985
1986
1988
1989
1990
1990
1990
1991
1991
1991
1992
1993
1994
1996
1997
1998
1999
1999
2000
2001
2002
2004
2006
2008
2010
2012
2014
2016
2018
2020
2022
2024
2027
2030
2032
2034
2035
2035
2035
2034
2033
2030
2027
2023
2017
2011
2004
1997
1990
1985
1980
1978
1975
1974
1972
1971
1969
1968
1968
1967
1967
1967
1967
1968
1968
1968
1968
1968
1968
1967
1967
1968
1968
1969
1970
1970
1970
1969
1968
1968
1968
1969
1971
1971
1971
1971
1971
1970
1969
1969
1970
1970
1971
1971
1972
1971
1971
1971
1971
1971
1971
1971
1971
1972
1972
1972
1972
1971
1971
1971
1972
1973
1974
1974
1974
1973
1973
1972
1972
1972
1972
1973
1974
1974
1975
1975
1975
1975
1975
1974
1974
1975
1975
1976
1976
1976
1976
1975
1975
1975
1975
1975
1976
1976
1977
1977
1976
1976
1975
1974
1973
1973
1973
1974
1975
1976
1977
1979
1980
1981
1982
1982
1983
1983
1982
1981
1979
1978
1976
1976
1975
1975
1975
1976
1976
1977
1977
1975
1973
1970
1967
1968
1974
1992
2020
2054
2083
2093
2077
2040
1992
1950
1925
1919
1927
1942
1956
1968
1975
1979
1980
1980
1980
1980
1981
1981
1981
1982
1982
1982
1983
1984
1984
1985
1986
1987
1987
1987
1987
1988
1988
1989
1990
1992
1993
1993
1994
1994
1994
1995
1996
1998
1999
2001
2002
2004
2005
2006
2008
2009
2011
2013
2016
2019
2022
2024
2026
2027
2028
2029
2030
2031
2032
2033
2031
2029
2024
2018
2012
2005
1999
1993
1988
1984
1980
1977
1974
1972
1970
1968
1968
1967
1968
1968
1968
1968
1967
1966
1966
1966
1966
1967
1967
1968
1969
1969
1969
1968
1967
1967
1967
1967
1968
1969
1969
1969
1969
1969
1968
1968
1968
1968
1969
1970
1970
1971
1971
1971
1970
1970
1970
1970
1971
1971
1971
1971
1971
1971
1971
1970
1971
1971
1971
1972
1972
1972
1972
1971
1970
1970
1970
1971
1971
1972
1972
1971
1971
1970
1970
1970
1971
1971
1972
1972
1973
1973
1973
1972
1971
1970
1971
1971
1972
1973
1974
1974
1974
1973
1973
1972
1972
1972
1972
1972
1972
1972
1971
1970
1970
1971
1973
1976
1978
1980
1981
1981
1981
1980
1978
1976
1975
1974
1973
1974
1974
1974
1974
1973
1973
1973
1974
1973
1972
1970
1968
1969
1977
1995
2025
2058
2084
2090
2069
2029
1982
1942
1921
1918
1927
1942
1956
1968
1975
1980
1981
1981
1980
1980
1980
1981
1982
1983
1985
1986
1987
1987
1987
1987
1988
1988
1989
1990
1991
1992
1993
1993
1993
1994
1994
1995
1996
1997
1999
2000
2002
2003
2004
2004
2005
2006
2007
2010
2012
2015
2017
2019
2020
2022
2024
2026
2028
2030
2032
2034
2035
2036
2035
2034
2031
2027
2023
2018
2013
2007
2001
1995
1990
1985
1980
1977
1974
1972
1971
1970
1970
1970
1970
1970
1969
1968
1967
1967
1967
1968
1969
1969
1968
1967
1967
1966
1967
1968
1969
1970
1970
1970
1970
1970
1970
1970
1970
1971
1972
1973
1973
1974
1974
1973
1973
1973
1974
1974
1974
1974
1974
1973
1973
1973
1973
1972
1972
1972
1973
1973
1973
1973
1973
1973
1972
1972
1971
1972
1972
1973
1974
1974
1974
1973
1972
1972
1972
1973
1974
1974
1974
1974
1973
1973
1973
1973
1973
1973
1974
1974
1974
1974
1974
1973
1972
1971
1971
1971
1972
1975
1977
1979
1980
1980
1980
1980
1979
1979
1979
1978
1978
1977
1977
1976
1976
1975
1975
1975
1976
1977
1977
1976
1973
1970
1969
1974
1990
2016
2050
2080
2093
2080
2045
1998
1954
1926
1916
1920
1932
1946
1959
1969
1977
1981
1982
1981
1981
1982
1983
1984
1985
1985
1985
1985
1986
1986
1987
1988
1989
1990
1990
1991
1991
1991
1991
1992
1992
1993
1995
1996
1998
1999
1999
1999
1999
2000
2001
2003
2006
2008
2011
2013
2015
2016
2017
2019
2021
2024
2027
2030
2033
2034
2036
2036
2037
2037
2036
2034
2032
2027
2022
2016
2009
2002
1995
1989
1984
1980
1977
1975
1973
1972
1971
1970
1969
1968
1967
1967
1968
1968
1969
1968
1968
1968
1967
1967
1967
1967
1968
1969
1969
1970
1970
1969
1969
1968
1969
1969
1970
1971
1971
1972
1971
1971
1971
1971
1972
1973
1973
1974
1974
1973
1973
1973
1972
1972
1972
1972
1973
1973
1974
1974
1974
1973
1972
1971
1971
1971
1972
1972
1973
1973
1973
1973
1972
1971
1971
1972
1973
1974
1974
1974
1974
1973
1973
1972
1972
1973
1974
1975
1975
1975
1975
1974
1974
1974
1974
1974
1974
1975
1976
1976
1976
1976
1975
1975
1975
1975
1975
1975
1975
1975
1974
1974
1973
1973
1973
1973
1973
1974
1975
1978
1980
1982
1982
1982
1982
1981
1981
1981
1981
1980
1979
1978
1977
1976
1976
1975
1976
1976
1977
1977
1977
1975
1972
1968
1968
1973
1990
2018
2053
2086
2101
2089
2053
2005
1959
1930
1921
1928
1944
1959
1971
1978
1981
1981
1980
1979
1980
1981
1982
1982
1983
1983
1982
1982
1983
1983
1984
1985
1986
1986
1987
1987
1987
1988
1988
1988
1990
1991
1992
1993
1994
1994
1994
1994
1996
1997
1999
2000
2001
2003
2004
2005
2007
2009
2011
2013
2015
2018
2020
2021
2022
2023
2024
2025
2026
2027
2027
2027
2025
2021
2016
2010
2004
1997
1992
1986
1982
1979
1976
1973
1971
1968
1967
1966
1966
1966
1966
1966
1966
1966
1966
1965
1965
1965
1965
1965
1965
1966
1966
1966
1966
1965
1964
1964
1964
1965
1966
1967
1967
1967
1967
1967
1967
1966
1966
1967
1967
1968
1968
1968
1967
1967
1966
1966
1966
1967
1968
1968
1967
1966
1965
1964
1963
1963
1964
1964
1965
1965
1966
1966
1965
1965
1964
1964
1964
1965
1965
1966
1967
1967
1967
1967
1966
1965
1965
1966
1967
1967
1968
1969
1969
1968
1968
1968
1968
1968
1968
1969
1969
1970
1970
1969
1969
1969
1968
1969
1969
1969
1970
1970
1970
1970
1970
1970
1970
1971
1971
1972
1971
1971
1970
1970
1970
1970
1970
1969
1968
1968
1968
1969
1970
1972
1974
1975
1976
1976
1976
1976
1976
1975
1974
1972
1971
1970
1970
1970
1970
1970
1970
1970
1969
1969
1968
1967
1965
1963
1963
1968
1983
2008
2042
2071
2086
2076
2043
1997
1954
1927
1918
1923
1936
1950
1962
1969
1974
1975
1975
1974
1974
1974
1975
1975
1976
1977
1977
1978
1978
1979
1979
1979
1980
1980
1981
1981
1981
1982
1983
1984
1985
1986
1987
1987
1987
1987
1988
1990
1992
1993
1995
1995
1995
1995
1996
1997
1998
2001
2003
2007
2009
2012
2014
2015
2016
2018
2019
2021
2023
2025
2025
2024
2022
2018
2014
2008
2003
1997
1992
1987
1982
1978
1974
1971
1969
1967
1966
1965
1966
1966
1966
1965
1965
1964
1963
1963
1964
1965
1966
1966
1967
1967
1967
1967
1966
1966
1966
1967
1968
1969
1969
1969
1969
1968
1968
1968
1968
1969
1970
1970
1971
1971
1970
1970
1970
1970
1969
1969
1970
1970
1970
1971
1971
1971
1970
1970
1970
1970
1970
1971
1971
1971
1971
1971
1971
1971
1971
1971
1972
1972
1972
1972
1972
1971
1970
1970
1970
1970
1971
1972
1973
1974
1973
1973
1972
1972
1972
1972
1972
1973
1973
1973
1974
1973
1973
1972
1972
1972
1972
1973
1973
1974
1974
1973
1973
1973
1973
1973
1973
1973
1973
1974
1974
1974
1973
1973
1973
1973
1973
1974
1975
1975
1974
1973
1971
1970
1970
1970
1971
1973
1975
1976
1978
1979
1979
1980
1980
1980
1979
1979
1978
1977
1976
1975
1975
1974
1974
1974
1974
1975
1975
1975
1973
1970
1966
1966
1973
1991
2021
2054
2081
2089
2070
2032
1985
1945
1922
1917
1926
1940
1954
1966
1974
1978
1979
1979
1979
1979
1980
1982
1983
1983
1984
1984
1984
1984
1984
1985
1985
1986
1987
1987
1988
1988
1988
1988
1989
1989
1990
1992
1993
1993
1994
1994
1995
1996
1997
1998
2000
2002
2004
2005
2007
2008
2010
2012
2014
2016
2019
2022
2024
2027
2029
2030
2030
2031
2031
2031
2031
2030
2028
2024
2018
2011
2004
1998
1992
1988
1984
1982
1979
1977
1974
1972
1970
1969
1968
1969
1969
1970
1970
1970
1969
1968
1967
1967
1967
1968
1968
1969
1969
1969
1968
1967
1967
1968
1969
1971
1972
1972
1972
1973
1972
1972
1972
1971
1971
1972
1973
1975
1975
1975
1975
1974
1973
1973
1973
1974
1974
1975
1975
1974
1974
1974
1973
1973
1973
1973
1974
1974
1975
1975
1975
1974
1974
1974
1974
1974
1975
1975
1976
1976
1976
1976
1976
1975
1975
1975
1975
1976
1977
1977
1977
1976
1976
1976
1975
1976
1976
1976
1977
1977
1977
1977
1976
1975
1975
1976
1976
1977
1978
1978
1977
1976
1975
1975
1975
1976
1979
1981
1983
1985
1985
1986
1985
1984
1982
1981
1980
1979
1979
1979
1979
1978
1978
1978
1978
1978
1979
1978
1977
1974
1972
1974
1986
2008
2041
2073
2093
2090
2061
2017
1970
1936
1921
1921
1932
1945
1959
1970
1979
1984
1985
1985
1985
1985
1985
1986
1986
1987
1988
1989
1989
1989
1989
1989
1990
1990
1991
1992
1993
1994
1994
1994
1995
1995
1996
1998
1999
2000
2001
2001
2002
2003
2004
2005
2006
2007
2009
2012
2014
2016
2017
2019
2021
2024
2026
2028
2030
2032
2035
2036
2037
2038
2037
2036
2034
2031
2026
2021
2015
2009
2002
1996
1990
1984
1980
1977
1974
1972
1971
1970
1969
1967
1966
1965
1965
1965
1965
1966
1967
1968
1967
1967
1966
1965
1965
1966
1966
1967
1967
1968
1968
1968
1968
1967
1967
1967
1968
1969
1970
1970
1970
1969
1969
1969
1970
1970
1971
1971
1971
1971
1971
1970
1969
1969
1969
1969
1969
1970
1970
1971
1971
1971
1971
1970
1970
1970
1971
1971
1971
1971
1971
1971
1970
1970
1969
1969
1970
1971
1971
1972
1972
1972
1971
1971
1970
1971
1972
1973
1973
1974
1973
1973
1973
1972
1972
1972
1972
1972
1972
1971
1971
1972
1973
1974
1976
1978
1980
1980
1981
1980
1979
1977
1975
1974
1973
1973
1973
1973
1973
1973
1973
1973
1973
1973
1971
1970
1967
1966
1970
1983
2007
2041
2074
2095
2091
2061
2016
1969
1934
1920
1922
1935
1950
1963
1973
1978
1980
1979
1978
1978
1979
1980
1980
1980
1980
1981
1983
1984
1986
1986
1986
1986
1986
1987
1987
1988
1989
1989
1990
1990
1991
1991
1992
1992
1993
1995
1996
1998
1999
2000
2001
2002
2003
2004
2006
2008
2011
2014
2017
2020
2023
2024
2026
2027
2029
2031
2033
2035
2035
2035
2033
2030
2026
2022
2016
2010
2004
1998
1993
1988
1983
1979
1976
1973
1972
1970
1970
1970
1970
1970
1970
1969
1968
1968
1968
1969
1969
1970
1969
1969
1968
1967
1967
1967
1967
1968
1968
1969
1970
1970
1970
1969
1969
1968
1969
1969
1970
1971
1972
1972
1972
1971
1971
1970
1970
1971
1971
1972
1972
1971
1971
1970
1970
1970
1970
1971
1971
1971
1971
1971
1971
1970
1970
1970
1971
1971
1971
1971
1971
1971
1971
1972
1972
1972
1972
1972
1972
1973
1973
1974
1973
1973
1972
1972
1972
1973
1973
1974
1975
1975
1975
1974
1974
1973
1973
1973
1974
1975
1976
1976
1976
1975
1975
1975
1975
1975
1976
1976
1976
1976
1976
1975
1974
1973
1972
1972
1973
1974
1976
1978
1980
1981
1981
1981
1980
1980
1980
1980
1979
1978
1977
1976
1976
1975
1975
1975
1975
1975
1975
1975
1974
1971
1968
1968
1973
1988
2016
2050
2082
2096
2084
2049
2002
1957
1928
1920
1927
1942
1957
1969
1977
1979
1979
1978
1977
1977
1979
1981
1982
1983
1982
1982
1982
1981
1982
1983
1985
1986
1987
1988
1988
1987
1987
1987
1988
1988
1989
1991
1992
1993
1993
1994
1994
1994
1996
1997
1999
2001
2003
2004
2006
2007
2009
2011
2013
2016
2018
2020
2022
2023
2024
2026
2027
2027
2028
2028
2028
2026
2023
2018
2012
2005
1999
1993
1987
1983
1979
1975
1973
1971
1969
1967
1966
1965
1965
1965
1965
1966
1966
1966
1965
1965
1964
1964
1964
1964
1965
1966
1967
1967
1967
1967
1967
1966
1966
1966
1967
1968
1969
1969
1969
1969
1968
1968
1968
1968
1969
1970
1970
1970
1970
1969
1969
1969
1969
1969
1970
1970
1970
1970
1970
1970
1970
1970
1969
1969
1970
1970
1971
1971
1971
1971
1970
1969
1969
1969
1970
1971
1971
1971
1971
1971
1970
1970
1970
1970
1971
1972
1973
1973
1973
1972
1971
1971
1971
1971
1972
1973
1973
1974
1973
1973
1973
1973
1973
1973
1974
1974
1974
1974
1974
1974
1973
1973
1973
1974
1974
1975
1975
1976
1975
1975
1975
1974
1974
1974
1974
1974
1974
1974
1973
1973
1974
1976
1978
1980
1982
1983
1983
1983
1982
1980
1978
1977
1976
1975
1976
1976
1976
1976
1975
1975
1974
1974
1974
1973
1971
1969
1969
1974
1991
2018
2052
2081
2093
2079
2043
1996
1954
1927
1920
1927
1941
1956
1967
1975
1980
1981
1981
1980
1980
1980
1980
1981
1982
1982
1983
1984
1985
1986
1986
1986
1986
1986
1987
1987
1989
1990
1991
1992
1992
1992
1992
1992
1993
1994
1995
1997
1998
1999
2000
2002
2003
2004
2006
2008
2010
2012
2014
2016
2018
2020
2021
2023
2026
2028
2031
2033
2034
2035
2034
2032
2030
2026
2022
2017
2011
2006
2000
1995
1989
1984
1980
1976
1973
1972
1971
1971
1971
1970
1970
1969
1968
1968
1968
1969
1970
1971
1972
1972
1971
1971
1970
1970
1970
1970
1971
1972
1973
1973
1973
1972
1972
1973
1973
1974
1974
1974
1974
1974
1974
1974
1974
1973
1973
1973
1974
1975
1977
1977
1978
1977
1976
1975
1974
1975
1976
1976
1976
1976
1976
1976
1977
1977
1977
1977
1976
1976
1976
1977
1977
1977
1977
1976
1976
1975
1976
1977
1978
1979
1979
1979
1978
1977
1976
1976
1976
1976
1977
1977
1978
1978
1977
1977
1977
1977
1977
1978
1978
1978
1978
1978
1977
1977
1977
1977
1977
1977
1978
1978
1979
1979
1979
1978
1977
1977
1977
1977
1977
1977
1977
1978
1978
1980
1982
1983
1984
1985
1985
1984
1983
1982
1980
1978
1977
1977
1977
1978
1978
1978
1978
1978
1977
1976
1974
1972
1970
1973
1985
2007
2038
2070
2089
2086
2058
2014
1968
1935
1919
1920
1929
1941
1953
1964
1973
1979
1981
1982
1982
1982
1982
1982
1982
1983
1984
1985
1985
1985
1986
1986
1987
1987
1988
1988
1989
1989
1991
1992
1993
1993
1994
1994
1994
1994
1995
1997
1998
2000
2001
2002
2003
2004
2005
2007
2009
2012
2014
2017
2019
2021
2023
2025
2027
2028
2030
2032
2033
2035
2035
2035
2033
2029
2025
2019
2013
2007
2001
1995
1990
1985
1980
1976
1972
1970
1969
1969
1969
1969
1968
1968
1967
1966
1966
1966
1966
1966
1967
1967
1967
1967
1967
1967
1967
1966
1966
1966
1967
1968
1969
1970
1970
1970
1969
1969
1969
1969
1969
1970
1971
1972
1972
1972
1971
1970
1970
1970
1970
1971
1971
1972
1972
1972
1971
1970
1970
1970
1971
1972
1972
1972
1971
1970
1970
1969
1969
1970
1970
1971
1971
1971
1971
1971
1970
1970
1970
1970
1970
1970
1971
1971
1971
1970
1970
1970
1970
1970
1971
1971
1971
1971
1971
1970
1970
1970
1970
1971
1971
1971
1971
1972
1972
1972
1971
1970
1970
1970
1971
1972
1972
1973
1972
1972
1971
1970
1969
1968
1968
1968
1968
1968
1968
1968
1968
1969
1971
1973
1975
1976
1977
1977
1976
1975
1973
1971
1970
1969
1969
1969
1969
1969
1969
1968
1968
1968
1967
1965
1962
1960
1960
1969
1988
2018
2052
2080
2088
2070
2032
1984
1942
1917
1912
1921
1936
1951
1962
1968
1971
1971
1970
1969
1970
1971
1971
1971
1971
1971
1972
1972
1973
1974
1974
1974
1974
1974
1975
1975
1977
1978
1978
1979
1979
1979
1980
1981
1982
1983
1984
1985
1986
1986
1988
1989
1990
1992
1993
1995
1997
2000
2002
2005
2007
2009
2011
2013
2015
2017
2019
2021
2022
2022
2022
2020
2018
2015
2012
2007
2001
1995
1989
1983
1978
1973
1969
1966
1963
1962
1961
1961
1961
1961
1960
1959
1959
1958
1958
1959
1959
1960
1960
1960
1960
1960
1959
1959
1959
1960
1962
1962
1963
1962
1961
1961
1961
1961
1962
1962
1963
1964
1964
1964
1964
1963
1963
1963
1963
1964
1965
1965
1966
1966
1965
1965
1965
1964
1965
1965
1966
1966
1967
1967
1966
1966
1965
1965
1965
1966
1966
1967
1967
1968
1968
1968
1967
1966
1966
1966
1967
1968
1968
1968
1968
1967
1967
1967
1967
1967
1968
1968
1969
1970
1969
1969
1968
1967
1967
1968
1969
1970
1970
1970
1970
1969
1968
1968
1969
1969
1970
1971
1971
1971
1971
1971
1970
1970
1970
1970
1970
1971
1971
1972
1972
1971
1970
1969
1968
1970
1972
1975
1978
1979
1979
1978
1977
1976
1975
1974
1973
1972
1972
1971
1971
1970
1970
1970
1970
1970
1970
1970
1969
1966
1964
1967
1978
2001
2033
2066
2087
2085
2057
2014
1968
1933
1918
1920
1933
1948
1961
1970
1976
1978
1978
1976
1975
1975
1975
1977
1978
1979
1980
1981
1981
1980
1980
1979
1980
1981
1983
1984
1985
1986
1986
1986
1986
1986
1987
1988
1989
1991
1992
1993
1994
1994
1995
1995
1996
1998
2000
2002
2005
2007
2009
2010
2012
2014
2016
2018
2021
2023
2025
2027
2028
2029
2029
2029
2027
2025
2021
2017
2012
2006
2001
1996
1991
1987
1984
1981
1978
1976
1974
1973
1972
1971
1970
1970
1969
1969
1969
1970
1971
1971
1971
1970
1969
1968
1969
1969
1970
1970
1971
1971
1971
1970
1970
1970
1970
1970
1971
1972
1973
1974
1974
1974
1974
1974
1974
1974
1975
1975
1976
1976
1976
1976
1976
1976
1977
1977
1978
1978
1978
1978
1978
1977
1976
1975
1975
1975
1976
1977
1978
1978
1977
1976
1976
1975
1976
1976
1976
1976
1976
1976
1976
1976
1976
1977
1977
1978
1978
1978
1978
1978
1978
1977
1977
1977
1977
1978
1979
1979
1979
1979
1979
1978
1977
1977
1977
1978
1978
1978
1978
1978
1978
1977
1977
1977
1977
1977
1977
1977
1977
1976
1975
1975
1974
1976
1978
1981
1984
1985
1985
1985
1984
1982
1980
1979
1978
1977
1977
1978
1978
1978
1977
1976
1976
1975
1975
1974
1973
1971
1971
1973
1983
2004
2035
2067
2089
2089
2062
2019
1972
1936
1919
1918
1927
1940
1953
1964
1973
1979
1980
1980
1980
1980
1981
1982
1982
1983
1983
1984
1985
1986
1987
1987
1987
1987
1987
1987
1988
1989
1991
1991
1992
1992
1992
1992
1993
1994
1995
1997
1998
1999
2000
2001
2002
2003
2004
2006
2008
2011
2014
2016
2019
2021
2022
2023
2025
2027
2029
2031
2033
2034
2034
2033
2032
2029
2025
2020
2014
2008
2002
1996
1990
1984
1979
1974
1971
1969
1968
1967
1966
1966
1965
1964
1963
1963
1963
1963
1963
1963
1964
1964
1964
1964
1963
1963
1963
1963
1964
1964
1965
1966
1966
1966
1965
1965
1965
1965
1966
1967
1968
1968
1968
1968
1968
1968
1968
1968
1969
1969
1970
1970
1970
1969
1968
1968
1968
1968
1969
1969
1970
1970
1969
1969
1968
1968
1967
1967
1967
1967
1968
1968
1969
1969
1968
1967
1967
1967
1968
1969
1970
1970
1970
1970
1969
1968
1968
1968
1969
1970
1971
1971
1970
1970
1969
1969
1969
1969
1970
1970
1971
1971
1970
1970
1969
1969
1969
1970
1971
1971
1971
1971
1970
1970
1969
1968
1968
1968
1969
1971
1973
1976
1977
1977
1977
1976
1976
1975
1975
1974
1973
1972
1971
1970
1970
1969
1970
1970
1971
1971
1971
1970
1968
1965
1963
1964
1975
1996
2029
2063
2088
2092
2069
2026
1978
1938
1918
1917
1928
1944
1958
1968
1973
1975
1975
1974
1974
1974
1976
1977
1978
1979
1979
1979
1979
1979
1979
1980
1981
1982
1983
1983
1984
1984
1984
1985
1986
1986
1987
1989
1990
1991
1992
1992
1992
1993
1994
1996
1998
2000
2001
2002
2003
2004
2005
2007
2009
2012
2015
2018
2020
2022
2024
2025
2026
2026
2026
2026
2025
2022
2019
2015
2010
2003
1996
1989
1981
1975
1970
1967
1964
1962
1961
1959
1958
1957
1957
1957
1958
1958
1958
1958
1958
1957
1957
1957
1957
1957
1958
1959
1959
1959
1959
1958
1958
1957
1958
1958
1960
1961
1962
1962
1962
1962
1961
1961
1962
1962
1963
1963
1964
1964
1963
1963
1962
1962
1963
1963
1963
1963
1964
1964
1964
1964
1964
1964
1964
1964
1964
1965
1965
1966
1966
1965
1965
1964
1964
1965
1965
1966
1967
1967
1967
1966
1965
1965
1965
1966
1967
1968
1969
1969
1969
1968
1968
1967
1967
1967
1968
1968
1969
1969
1969
1970
1969
1969
1969
1969
1969
1970
1971
1972
1971
1971
1970
1970
1970
1971
1971
1972
1972
1972
1972
1971
1971
1970
1970
1971
1972
1972
1973
1973
1972
1972
1971
1971
1970
1970
1971
1971
1972
1974
1976
1978
1979
1980
1980
1980
1979
1978
1977
1976
1975
1974
1973
1972
1972
1972
1972
1973
1973
1974
1973
1972
1969
1966
1965
1969
1982
2007
2041
2073
2092
2086
2055
2010
1964
1931
1918
1922
1936
1951
1964
1972
1977
1978
1977
1976
1976
1977
1978
1979
1979
1980
1980
1980
1980
1980
1981
1982
1984
1985
1985
1985
1985
1985
1986
1987
1988
1989
1991
1992
1992
1992
1992
1993
1994
1996
1997
1999
2000
2001
2003
2004
2005
2007
2009
2012
2015
2018
2020
2022
2024
2026
2027
2028
2030
2031
2032
2032
2031
2029
2025
2020
2014
2008
2001
1995
1990
1986
1982
1979
1975
1972
1970
1969
1968
1968
1968
1969
1969
1969
1969
1968
1967
1967
1967
1967
1967
1968
1968
1968
1968
1967
1967
1967
1967
1968
1968
1969
1969
1969
1969
1969
1969
1969
1969
1970
1970
1971
1971
1971
1971
1971
1971
1971
1971
1971
1972
1972
1972
1972
1972
1971
1970
1969
1969
1970
1971
1972
1973
1974
1975
1976
1977
1977
1977
1977
1978
1978
1979
1979
1978
1978
1977
1977
1977
1978
1980
1981
1982
1982
1982
1981
1981
1981
1981
1982
1982
1982
1983
1983
1984
1984
1984
1983
1982
1981
1981
1982
1983
1984
1985
1985
1984
1984
1984
1984
1984
1984
1984
1985
1985
1985
1984
1983
1983
1982
1982
1983
1983
1983
1983
1982
1982
1982
1982
1982
1981
1981
1980
1981
1981
1983
1985
1987
1989
1990
1990
1990
1990
1989
1988
1986
1984
1984
1983
1983
1983
1982
1982
1982
1982
1981
1981
1980
1979
1977
1975
1976
1982
1999
2026
2059
2087
2097
2082
2046
1998
1956
1930
1923
1929
1942
1955
1966
1975
1981
1985
1987
1987
1987
1986
1986
1985
1986
1987
1988
1989
1990
1990
1990
1990
1991
1991
1991
1992
1993
1994
1995
1996
1997
1997
1997
1998
1998
1998
1999
2000
2001
2002
2004
2005
2007
2008
2009
2010
2012
2014
2017
2020
2023
2024
2026
2027
2029
2031
2033
2035
2037
2039
2039
2038
2036
2033
2028
2024
2019
2014
2008
2002
1996
1990
1984
1980
1977
1975
1974
1973
1973
1973
1972
1972
1971
1970
1969
1969
1969
1970
1970
1971
1971
1971
1971
1971
1970
1970
1970
1970
1971
1971
1972
1972
1972
1972
1972
1972
1972
1972
1973
1974
1975
1975
1975
1974
1973
1972
1973
1974
1975
1976
1976
1975
1974
1974
1973
1973
1973
1974
1974
1975
1975
1975
1974
1973
1973
1972
1973
1974
1975
1975
1976
1975
1974
1974
1973
1973
1974
1974
1974
1974
1974
1974
1974
1974
1974
1974
1974
1974
1975
1975
1975
1975
1975
1974
1974
1974
1975
1975
1976
1975
1974
1973
1972
1972
1972
1973
1975
1978
1980
1982
1983
1982
1981
1980
1979
1978
1978
1977
1977
1976
1975
1974
1974
1973
1973
1973
1974
1975
1974
1972
1969
1967
1971
1985
2011
2046
2078
2097
2089
2057
2011
1964
1931
1918
1920
1932
1946
1960
1970
1977
1980
1980
1980
1979
1979
1980
1981
1982
1984
1984
1985
1985
1985
1985
1985
1985
1986
1987
1989
1990
1991
1991
1991
1991
1992
1993
1994
1995
1997
1998
1999
2000
2001
2001
2002
2003
2005
2007
2009
2012
2014
2016
2018
2020
2022
2024
2027
2030
2033
2035
2037
2038
2038
2038
2036
2034
2032
2028
2023
2017
2010
2003
1996
1990
1985
1980
1978
1976
1975
1974
1973
1972
1971
1970
1969
1968
1968
1969
1969
1970
1970
1970
1969
1968
1968
1968
1969
1969
1970
1970
1971
1971
1971
1970
1970
1970
1970
1971
1972
1973
1973
1973
1972
1972
1972
1972
1973
1973
1973
1973
1973
1973
1972
1972
1972
1972
1972
1972
1972
1972
1972
1971
1971
1970
1969
1968
1968
1969
1970
1970
1971
1970
1970
1969
1969
1969
1969
1969
1970
1970
1971
1971
1970
1970
1969
1969
1969
1970
1971
1971
1971
1970
1970
1969
1969
1970
1970
1971
1971
1971
1971
1971
1971
1970
1971
1971
1971
1972
1972
1972
1972
1972
1972
1971
1971
1971
1972
1973
1973
1973
1972
1971
1970
1969
1968
1969
1971
1973
1975
1976
1976
1975
1974
1973
1973
1972
1972
1971
1971
1970
1970
1969
1968
1968
1967
1967
1967
1968
1968
1966
1964
1962
1963
1972
1992
2024
2059
2086
2091
2070
2029
1981
1940
1918
1916
1926
1942
1956
1966
1971
1974
1973
1972
1972
1972
1973
1974
1975
1976
1976
1977
1977
1977
1977
1977
1978
1979
1980
1981
1982
1983
1984
1984
1983
1983
1983
1983
1985
1986
1988
1989
1990
1991
1992
1994
1996
1997
1999
2001
2003
2005
2008
2010
2013
2015
2017
2019
2022
2025
2027
2029
2031
2032
2033
2033
2032
2030
2028
2025
2020
2015
2009
2002
1997
1992
1988
1985
1982
1979
1977
1975
1974
1973
1972
1971
1971
1971
1971
1972
1973
1973
1973
1973
1973
1973
1972
1972
1973
1973
1974
1974
1974
1973
1973
1973
1973
1974
1975
1975
1976
1975
1975
1975
1975
1975
1975
1975
1976
1976
1977
1977
1977
1977
1977
1977
1977
1977
1978
1978
1979
1979
1979
1979
1979
1978
1978
1978
1979
1979
1980
1980
1980
1980
1979
1979
1979
1979
1980
1981
1982
1982
1981
1980
1979
1980
1980
1981
1982
1982
1983
1983
1983
1982
1982
1982
1982
1983
1983
1984
1985
1985
1985
1984
1983
1983
1983
1983
1984
1985
1985
1985
1984
1984
1984
1984
1984
1984
1984
1985
1985
1985
1984
1984
1984
1983
1983
1983
1984
1984
1984
1983
1983
1983
1984
1986
1988
1990
1991
1991
1990
1989
1989
1989
1988
1988
1986
1985
1985
1984
1983
1983
1982
1981
1981
1981
1981
1979
1977
1975
1975
1981
1998
2026
2058
2086
2095
2080
2044
1997
1956
1931
1924
1931
1943
1957
1968
1975
1979
1980
1980
1979
1979
1979
1979
1979
1979
1979
1980
1981
1982
1983
1983
1983
1983
1983
1983
1984
1984
1985
1986
1987
1987
1988
1988
1989
1989
1990
1992
1993
1994
1995
1996
1996
1997
1998
2000
2002
2005
2007
2009
2011
2013
2014
2016
2018
2020
2022
2025
2026
2028
2029
2029
2028
2026
2023
2019
2014
2009
2004
1998
1992
1986
1981
1977
1973
1971
1969
1967
1966
1966
1966
1965
1965
1964
1963
1963
1963
1964
1965
1965
1965
1965
1964
1963
1963
1962
1963
1963
1964
1965
1965
1965
1964
1964
1964
1964
1965
1966
1967
1967
1967
1967
1966
1966
1967
1967
1968
1968
1968
1968
1968
1968
1967
1967
1966
1966
1967
1967
1968
1968
1968
1968
1967
1967
1967
1967
1968
1968
1968
1968
1968
1968
1968
1968
1968
1968
1969
1969
1970
1970
1970
1969
1968
1967
1967
1968
1969
1970
1971
1971
1971
1971
1971
1971
1970
1971
1971
1971
1972
1972
1972
1972
1971
1971
1970
1971
1971
1973
1974
1974
1974
1973
1973
1972
1972
1972
1973
1974
1975
1976
1976
1975
1975
1974
1975
1976
1977
1980
1983
1984
1984
1983
1981
1980
1979
1979
1979
1979
1979
1979
1978
1978
1977
1976
1974
1974
1974
1975
1974
1973
1970
1970
1975
1990
2017
2051
2082
2095
2082
2047
1999
1955
1927
1917
1923
1935
1949
1962
1972
1979
1982
1982
1981
1980
1981
1981
1982
1982
1983
1984
1985
1986
1987
1987
1987
1987
1987
1988
1989
1990
1991
1991
1991
1991
1992
1994
1995
1997
1998
1999
1999
1999
2000
2001
2002
2003
2005
2006
2008
2010
2012
2014
2017
2019
2021
2023
2025
2027
2030
2032
2034
2036
2037
2037
2035
2033
2030
2027
2023
2017
2011
2004
1998
1992
1987
1983
1978
1975
1973
1972
1971
1970
1969
1968
1967
1967
1967
1968
1969
1969
1969
1969
1968
1968
1967
1967
1967
1968
1968
1969
1969
1969
1969
1969
1969
1969
1970
1970
1971
1971
1972
1971
1971
1971
1971
1971
1972
1973
1973
1974
1974
1974
1973
1973
1973
1972
1973
1973
1973
1973
1974
1974
1974
1974
1973
1973
1973
1973
1974
1974
1974
1973
1973
1972
1972
1972
1972
1973
1974
1974
1974
1974
1973
1972
1972
1972
1973
1974
1974
1975
1975
1975
1974
1974
1974
1974
1974
1974
1975
1976
1976
1976
1975
1974
1974
1974
1975
1975
1976
1975
1975
1975
1975
1977
1979
1982
1983
1983
1983
1982
1981
1980
1979
1978
1977
1977
1976
1976
1976
1976
1976
1975
1975
1974
1974
1973
1970
1968
1967
1973
1989
2017
2052
2083
2098
2086
2051
2004
1960
1931
1921
1926
1938
1952
1964
1972
1978
1980
1981
1980
1980
1980
1979
1980
1980
1981
1982
1984
1985
1987
1987
1987
1987
1986
1986
1987
1988
1989
1991
1992
1993
1993
1994
1994
1995
1995
1996
1997
1999
2001
2002
2004
2005
2006
2007
2009
2010
2012
2015
2018
2021
2023
2025
2027
2028
2030
2032
2034
2036
2037
2037
2036
2034
2031
2027
2022
2016
2010
2003
1997
1992
1987
1982
1978
1975
1973
1972
1971
1971
1971
1971
1970
1970
1969
1969
1968
1968
1969
1969
1970
1970
1969
1968
1966
1965
1965
1966
1967
1968
1968
1969
1968
1968
1968
1968
1969
1969
1970
1970
1971
1971
1971
1972
1971
1971
1971
1971
1971
1972
1972
1972
1972
1971
1971
1971
1971
1971
1972
1972
1972
1972
1972
1971
1971
1971
1971
1972
1973
1973
1974
1974
1973
1973
1972
1972
1972
1972
1972
1972
1972
1972
1972
1971
1971
1971
1971
1971
1972
1973
1973
1974
1973
1973
1972
1972
1972
1973
1973
1974
1974
1974
1973
1973
1973
1973
1973
1973
1973
1974
1974
1974
1974
1974
1973
1973
1973
1974
1974
1975
1975
1975
1975
1975
1974
1974
1973
1974
1975
1978
1982
1984
1984
1983
1981
1980
1979
1979
1979
1979
1979
1978
1976
1975
1974
1973
1972
1972
1972
1973
1972
1970
1967
1964
1965
1974
1996
2029
2064
2090
2095
2073
2032
1983
1943
1922
1919
1930
1945
1960
1970
1975
1977
1977
1976
1975
1976
1977
1978
1979
1979
1980
1980
1980
1979
1979
1980
1981
1982
1984
1985
1985
1986
1985
1985
1985
1986
1987
1988
1990
1991
1992
1993
1993
1993
1994
1995
1996
1998
2000
2002
2003
2005
2006
2008
2010
2012
2014
2017
2021
2023
2025
2026
2026
2026
2025
2025
2025
2025
2023
2019
2014
2008
2001
1995
1989
1984
1980
1976
1974
1971
1970
1968
1966
1965
1964
1964
1965
1965
1965
1965
1965
1964
1964
1964
1964
1964
1965
1965
1966
1966
1967
1967
1967
1967
1967
1967
1968
1968
1969
1970
1970
1969
1969
1969
1968
1969
1969
1970
1971
1971
1971
1970
1970
1970
1970
1971
1971
1971
1970
1970
1970
1970
1970
1970
1969
1969
1969
1970
1971
1972
1972
1972
1971
1971
1970
1970
1971
1971
1972
1972
1972
1972
1972
1971
1971
1971
1971
1971
1971
1971
1972
1972
1972
1972
1972
1972
1972
1973
1975
1976
1976
1975
1975
1974
1974
1974
1975
1975
1975
1976
1976
1975
1975
1975
1975
1975
1975
1975
1976
1976
1976
1976
1976
1976
1976
1976
1976
1976
1976
1976
1976
1977
1978
1980
1983
1985
1985
1985
1984
1984
1983
1982
1981
1980
1979
1978
1977
1977
1976
1976
1977
1978
1979
1979
1978
1975
1973
1973
1979
1995
2023
2057
2087
2099
2087
2051
2005
1962
1935
1926
1932
1945
1958
1969
1977
1982
1984
1984
1984
1984
1984
1984
1984
1984
1985
1986
1987
1989
1990
1991
1991
1991
1991
1991
1991
1992
1993
1994
1995
1996
1997
1997
1998
1999
2001
2002
2003
2003
2004
2005
2007
2008
2010
2011
2013
2014
2017
2019
2021
2024
2026
2028
2031
2033
2035
2037
2038
2040
2042
2043
2043
2042
2040
2036
2031
2026
2020
2014
2008
2002
1997
1993
1989
1985
1983
1981
1979
1978
1978
1978
1977
1977
1977
1976
1975
1975
1975
1975
1976
1977
1977
1977
1976
1974
1974
1974
1974
1975
1976
1977
1977
1977
1977
1977
1977
1977
1977
1977
1977
1978
1980
1980
1980
1980
1979
1978
1978
1979
1979
1980
1980
1979
1979
1978
1978
1978
1978
1978
1978
1979
1979
1979
1979
1979
1979
1979
1979
1980
1980
1980
1979
1979
1979
1979
1980
1980
1980
1980
1980
1980
1980
1980
1980
1979
1979
1978
1978
1979
1980
1981
1981
1981
1980
1979
1978
1979
1979
1980
1980
1979
1979
1979
1979
1979
1979
1979
1979
1980
1981
1984
1986
1988
1988
1987
1985
1984
1983
1984
1984
1984
1983
1982
1980
1979
1978
1978
1978
1978
1978
1978
1977
1975
1972
1970
1973
1985
2008
2042
2075
2097
2094
2066
2021
1973
1937
1920
1920
1931
1945
1959
1970
1978
1982
1982
1982
1981
1982
1982
1983
1984
1985
1985
1985
1985
1986
1986
1987
1988
1989
1990
1990
1991
1991
1991
1992
1992
1993
1994
1995
1996
1997
1998
1999
1999
2000
2001
2003
2005
2007
2008
2010
2011
2013
2015
2017
2019
2022
2025
2027
2030
2032
2033
2034
2035
2036
2036
2036
2036
2034
2030
2025
2019
2011
2004
1997
1991
1986
1982
1979
1976
1974
1973
1971
1970
1969
1968
1967
1967
1968
1969
1969
1968
1968
1967
1967
1967
1967
1968
1969
1969
1970
1970
1969
1969
1969
1969
1970
1971
1972
1972
1972
1972
1972
1972
1972
1973
1973
1973
1973
1974
1974
1974
1973
1973
1973
1973
1974
1974
1975
1975
1975
1975
1975
1975
1974
1974
1974
1975
1976
1976
1976
1976
1975
1975
1974
1974
1974
1974
1975
1975
1976
1976
1975
1975
1975
1975
1975
1975
1975
1975
1975
1975
1975
1974
1973
1972
1972
1973
1973
1974
1974
1974
1973
1973
1973
1973
1974
1974
1974
1973
1973
1973
1973
1973
1972
1972
1972
1973
1974
1976
1979
1981
1983
1982
1981
1979
1978
1978
1979
1980
1980
1978
1976
1973
1971
1970
1970
1971
1973
1974
1974
1972
1968
1964
1963
1969
1985
2013
2048
2081
2097
2088
2054
2007
1960
1930
1920
1927
1942
1959
1971
1978
1980
1979
1977
1977
1977
1979
1981
1982
1983
1983
1983
1983
1984
1984
1985
1986
1988
1990
1990
1990
1990
1989
1988
1989
1990
1991
1992
1993
1994
1995
1995
1995
1994
1994
1996
1997
1999
2001
2003
2004
2005
2006
2007
2009
2011
2014
2016
2018
2020
2021
2023
2025
2027
2027
2028
2027
2026
2024
2021
2016
2011
2005
1998
1992
1987
1983
1979
1977
1975
1973
1971
1970
1969
1968
1968
1968
1968
1968
1968
1968
1967
1966
1966
1966
1966
1967
1968
1969
1970
1970
1971
1971
1971
1971
1971
1971
1971
1972
1972
1972
1972
1973
1973
1973
1972
1972
1972
1972
1973
1974
1975
1975
1976
1976
1977
1977
1978
1978
1978
1978
1977
1975
1974
1975
1976
1976
1975
1974
1972
1972
1973
1974
1975
1976
1976
1977
1977
1976
1976
1976
1976
1976
1976
1976
1975
1975
1976
1976
1977
1977
1977
1976
1976
1977
1978
1979
1980
1980
1979
1979
1978
1977
1978
1978
1979
1980
1981
1982
1982
1982
1981
1980
1979
1979
1978
1979
1979
1980
1981
1981
1981
1980
1981
1982
1985
1988
1990
1991
1990
1988
1986
1985
1984
1983
1983
1982
1982
1981
1981
1981
1981
1981
1980
1980
1980
1978
1977
1975
1974
1977
1988
2011
2043
2074
2095
2093
2065
2022
1975
1940
1924
1925
1937
1952
1965
1975
1981
1984
1984
1982
1980
1979
1979
1980
1981
1982
1984
1985
1986
1985
1984
1984
1983
1984
1985
1987
1988
1989
1989
1990
1991
1991
1992
1992
1993
1993
1995
1996
1998
1999
1999
1998
1999
2000
2003
2006
2008
2010
2011
2012
2014
2016
2020
2023
2025
2026
2027
2029
2030
2031
2030
2028
2025
2022
2019
2016
2011
2006
2000
1994
1988
1982
1977
1973
1970
1969
1968
1968
1968
1966
1964
1962
1961
1962
1963
1965
1966
1966
1965
1964
1963
1963
1964
1965
1966
1967
1967
1966
1966
1965
1965
1965
1966
1967
1968
1969
1969
1969
1969
1970
1970
1970
1970
1969
1969
1969
1970
1971
1971
1971
1970
1969
1968
1969
1969
1970
1971
1973
1974
1974
1973
1972
1970
1968
1968
1968
1970
1971
1971
1971
1971
1971
1971
1971
1971
1971
1971
1971
1972
1972
1972
1972
1972
1972
1972
1973
1973
1973
1972
1971
1970
1970
1971
1973
1974
1974
1973
1972
1971
1971
1971
1972
1972
1972
1972
1972
1972
1973
1973
1973
1973
1973
1971
1971
1971
1974
1977
1980
1982
1982
1980
1978
1977
1977
1978
1978
1977
1976
1974
1973
1973
1972
1972
1972
1972
1973
1973
1973
1972
1971
1968
1967
1969
1980
2003
2036
2068
2088
2084
2054
2009
1963
1930
1917
1921
1934
1948
1960
1969
1974
1976
1976
1976
1976
1976
1976
1977
1978
1979
1979
1980
1981
1982
1982
1983
1983
1983
1984
1984
1985
1985
1986
1987
1988
1989
1990
1990
1991
1991
1992
1992
1993
1994
1996
1998
2000
2001
2002
2003
2004
2005
2007
2009
2012
2015
2018
2021
2023
2025
2026
2027
2029
2030
2031
2031
2029
2026
2022
2017
2012
2007
2001
1995
1989
1984
1981
1978
1975
1973
1970
1968
1966
1965
1964
1965
1965
1966
1967
1967
1967
1967
1966
1966
1965
1966
1966
1967
1967
1967
1967
1967
1967
1967
1967
1968
1968
1969
1971
1973
1974
1976
1976
1976
1975
1975
1975
1976
1977
1978
1978
1978
1977
1977
1976
1976
1976
1977
1977
1977
1977
1976
1976
1975
1975
1975
1976
1977
1978
1979
1979
1979
1978
1978
1978
1978
1978
1979
1979
1980
1981
1981
1980
1979
1978
1978
1979
1980
1981
1981
1980
1979
1978
1978
1979
1980
1981
1982
1983
1982
1981
1981
1981
1983
1985
1986
1988
1989
1989
1989
1989
1988
1988
1989
1991
1993
1996
1999
2000
2000
1999
1997
1995
1992
1990
1987
1984
1980
1975
1971
1967
1965
1964
1964
1965
1964
1963
1961
1961
1966
1979
2003
2036
2066
2083
2076
2045
1998
1953
1921
1908
1911
1923
1937
1950
1961
1969
1974
1976
1976
1976
1975
1975
1975
1976
1977
1978
1979
1980
1981
1982
1982
1982
1982
1982
1983
1984
1985
1986
1987
1988
1988
1989
1989
1989
1991
1993
1995
1997
1999
2000
2000
2000
2000
2001
2003
2006
2008
2010
2013
2015
2017
2020
2022
2024
2027
2029
2031
2032
2033
2033
2032
2030
2028
2025
2021
2016
2010
2004
1998
1992
1987
1982
1978
1974
1972
1971
1971
1971
1970
1970
1969
1968
1967
1967
1968
1968
1968
1968
1968
1967
1967
1967
1967
1967
1967
1968
1970
1971
1971
1971
1969
1968
1968
1968
1970
1971
1973
1973
1973
1972
1970
1970
1970
1970
1971
1972
1972
1972
1973
1973
1972
1972
1972
1972
1973
1973
1974
1974
1974
1974
1973
1972
1971
1970
1970
1970
1971
1973
1973
1973
1973
1972
1971
1971
1971
1972
1973
1973
1972
1972
1972
1971
1971
1970
1970
1971
1972
1973
1975
1977
1979
1979
1978
1978
1977
1977
1977
1977
1976
1975
1973
1972
1970
1970
1970
1971
1972
1973
1973
1971
1968
1964
1962
1967
1983
2011
2047
2079
2093
2082
2047
1998
1952
1922
1911
1916
1929
1944
1958
1968
1974
1976
1975
1975
1975
1977
1979
1981
1982
1982
1982
1981
1982
1982
1983
1984
1985
1986
1987
1988
1989
1989
1990
1990
1990
1991
1993
1995
1997
1999
1999
1998
1998
1998
2000
2002
2005
2008
2010
2011
2012
2013
2015
2018
2021
2025
2029
2032
2033
2034
2035
2036
2037
2038
2038
2037
2034
2030
2025
2020
2013
2005
1998
1991
1986
1983
1980
1978
1976
1974
1972
1970
1968
1967
1967
1967
1968
1969
1969
1969
1968
1967
1966
1966
1967
1968
1968
1968
1968
1968
1968
1969
1969
1969
1969
1969
1969
1969
1970
1970
1970
1970
1970
1970
1970
1970
1971
1972
1972
1972
1972
1972
1971
1971
1972
1972
1972
1971
1971
1971
1971
1971
1972
1972
1972
1972
1972
1972
1972
1973
1973
1972
1972
1971
1971
1971
1971
1972
1972
1973
1973
1972
1972
1972
1972
1972
1973
1974
1975
1974
1973
1971
1970
1970
1970
1970
1971
1973
1975
1977
1979
1980
1979
1978
1977
1977
1977
1977
1976
1975
1973
1972
1971
1970
1970
1971
1972
1972
1973
1971
1968
1964
1961
1963
1973
1995
2029
2065
2092
2096
2073
2030
1980
1940
1918
1917
1928
1943
1957
1968
1974
1977
1977
1977
1976
1976
1976
1977
1977
1978
1978
1978
1978
1979
1980
1981
1981
1981
1982
1982
1983
1984
1984
1984
1984
1985
1986
1986
1987
1987
1987
1988
1989
1990
1991
1992
1993
1993
1993
1994
1996
1998
2000
2002
2004
2006
2007
2009
2011
2012
2014
2015
2015
2016
2016
2017
2017
2015
2012
2007
2001
1995
1988
1983
1978
1974
1970
1967
1963
1960
1957
1956
1956
1956
1956
1956
1956
1955
1955
1956
1956
1956
1956
1956
1956
1956
1957
1958
1959
1959
1958
1957
1957
1957
1958
1959
1960
1961
1961
1962
1962
1962
1961
1960
1960
1960
1961
1961
1961
1961
1961
1961
1962
1962
1963
1962
1962
1960
1959
1957
1957
1956
1957
1958
1958
1959
1960
1960
1960
1961
1961
1961
1961
1960
1960
1961
1962
1962
1963
1962
1962
1962
1962
1963
1963
1964
1964
1965
1965
1965
1965
1964
1964
1964
1965
1966
1967
1967
1966
1965
1964
1963
1964
1966
1969
1972
1974
1975
1974
1974
1973
1972
1971
1970
1969
1969
1969
1970
1970
1968
1966
1965
1964
1964
1966
1966
1966
1964
1961
1961
1968
1985
2014
2049
2079
2090
2074
2036
1988
1945
1919
1913
1921
1936
1951
1963
1971
1975
1976
1974
1973
1972
1972
1972
1973
1975
1976
1977
1978
1978
1979
1979
1980
1980
1981
1981
1982
1982
1983
1983
1983
1983
1984
1985
1987
1988
1989
1989
1990
1991
1992
1993
1995
1997
1998
2001
2003
2005
2007
2009
2010
2012
2013
2016
2018
2021
2024
2026
2027
2027
2028
2027
2026
2023
2020
2016
2013
2009
2005
2000
1994
1989
1984
1980
1977
1975
1974
1973
1972
1972
1971
1970
1969
1968
1968
1969
1970
1971
1971
1971
1970
1969
1969
1969
1969
1969
1969
1969
1969
1969
1969
1969
1970
1970
1971
1972
1972
1972
1972
1971
1971
1971
1971
1972
1972
1972
1972
1972
1972
1972
1972
1971
1971
1971
1971
1972
1972
1972
1972
1972
1973
1974
1974
1975
1976
1977
1978
1979
1979
1979
1978
1978
1977
1977
1978
1979
1981
1982
1982
1981
1980
1980
1980
1981
1981
1981
1981
1981
1981
1981
1982
1982
1983
1983
1983
1983
1983
1983
1984
1984
1984
1983
1982
1981
1980
1980
1980
1981
1981
1982
1983
1984
1985
1986
1988
1989
1989
1988
1987
1986
1984
1983
1981
1980
1979
1980
1982
1983
1983
1983
1982
1981
1981
1979
1977
1977
1982
1998
2026
2059
2090
2102
2088
2050
2003
1959
1932
1924
1930
1942
1956
1968
1977
1983
1985
1986
1986
1986
1987
1987
1987
1987
1987
1987
1988
1989
1990
1991
1992
1992
1992
1992
1992
1992
1992
1993
1994
1995
1996
1997
1997
1997
1997
1998
1999
2001
2003
2004
2006
2007
2008
2009
2010
2011
2013
2016
2019
2022
2025
2026
2027
2028
2029
2031
2033
2035
2037
2038
2038
2036
2032
2027
2021
2015
2008
2002
1997
1991
1987
1983
1979
1976
1973
1972
1971
1972
1972
1972
1971
1970
1969
1969
1969
1970
1971
1971
1971
1971
1970
1969
1969
1968
1969
1970
1971
1972
1973
1973
1973
1973
1972
1972
1972
1973
1973
1974
1974
1974
1974
1975
1975
1975
1975
1975
1975
1975
1975
1975
1975
1975
1975
1975
1974
1974
1974
1974
1975
1975
1976
1977
1977
1978
1977
1976
1975
1975
1975
1975
1976
1977
1977
1977
1977
1977
1977
1977
1977
1977
1977
1977
1978
1978
1979
1979
1979
1978
1977
1977
1976
1976
1976
1976
1977
1979
1981
1983
1985
1986
1987
1986
1984
1982
1980
1979
1978
1978
1978
1978
1977
1976
1976
1976
1977
1978
1978
1976
1973
1971
1975
1988
2013
2047
2079
2096
2089
2058
2013
1969
1937
1922
1921
1930
1941
1954
1966
1976
1982
1985
1986
1985
1984
1983
1982
1983
1984
1986
1987
1988
1988
1988
1988
1988
1989
1989
1990
1991
1992
1993
1994
1995
1995
1995
1995
1995
1996
1997
1999
2000
2001
2002
2003
2004
2005
2008
2010
2013
2015
2016
2018
2019
2021
2023
2026
2028
2031
2034
2035
2036
2036
2035
2034
2032
2029
2025
2019
2013
2007
2001
1995
1990
1985
1981
1977
1973
1970
1968
1967
1967
1967
1967
1967
1966
1966
1965
1966
1966
1966
1966
1966
1966
1966
1965
1964
1964
1964
1965
1966
1966
1967
1967
1967
1966
1966
1966
1966
1967
1968
1968
1969
1969
1969
1969
1968
1968
1968
1969
1970
1971
1971
1970
1969
1969
1969
1969
1969
1969
1969
1969
1969
1969
1969
1969
1969
1969
1970
1970
1971
1970
1970
1969
1969
1969
1969
1969
1969
1970
1970
1971
1972
1972
1972
1972
1971
1971
1971
1971
1972
1972
1973
1973
1973
1972
1971
1970
1970
1971
1971
1971
1971
1971
1972
1973
1975
1976
1978
1979
1980
1980
1980
1978
1976
1975
1974
1973
1973
1973
1973
1972
1972
1971
1971
1971
1971
1969
1967
1965
1965
1971
1987
2014
2049
2082
2098
2089
2055
2007
1959
1927
1916
1922
1936
1951
1963
1970
1974
1975
1974
1973
1973
1973
1974
1974
1975
1975
1975
1976
1977
1977
1978
1979
1980
1980
1981
1981
1981
1981
1981
1981
1981
1981
1982
1982
1982
1983
1984
1986
1988
1991
1993
1994
1994
1995
1995
1996
1998
2001
2004
2007
2010
2012
2014
2016
2018
2019
2021
2022
2024
2025
2026
2026
2024
2021
2017
2012
2006
2001
1995
1989
1984
1979
1975
1972
1970
1968
1967
1967
1967
1967
1967
1966
1965
1963
1962
1961
1961
1962
1963
1964
1965
1965
1964
1963
1963
1963
1964
1965
1967
1967
1967
1967
1966
1965
1965
1966
1967
1968
1969
1969
1968
1968
1968
1968
1969
1969
1969
1969
1969
1969
1969
1969
1969
1969
1969
1969
1969
1969
1969
1970
1970
1970
1970
1970
1970
1971
1971
1972
1973
1973
1972
1971
1971
1971
1971
1972
1973
1974
1974
1974
1974
1973
1972
1972
1971
1972
1973
1974
1975
1975
1975
1974
1973
1973
1972
1973
1973
1974
1975
1975
1975
1974
1974
1973
1974
1974
1974
1975
1975
1975
1975
1975
1974
1973
1973
1972
1973
1974
1976
1978
1980
1981
1981
1981
1981
1981
1981
1980
1980
1979
1978
1977
1975
1974
1972
1972
1972
1973
1974
1975
1976
1975
1972
1969
1966
1969
1980
2005
2039
2073
2096
2094
2066
2021
1973
1938
1922
1925
1938
1954
1967
1975
1980
1981
1980
1978
1978
1979
1981
1982
1983
1983
1983
1982
1982
1982
1983
1984
1985
1986
1987
1987
1987
1987
1987
1987
1989
1990
1991
1992
1993
1993
1994
1994
1995
1996
1997
1998
1999
2001
2003
2005
2007
2008
2010
2011
2012
2014
2016
2019
2021
2024
2026
2027
2028
2029
2029
2030
2030
2029
2026
2022
2016
2009
2002
1996
1991
1987
1984
1980
1977
1974
1972
1970
1969
1968
1968
1969
1969
1969
1969
1969
1969
1969
1970
1969
1969
1969
1970
1970
1970
1971
1971
1971
1971
1971
1970
1971
1971
1972
1972
1972
1971
1971
1971
1971
1972
1973
1973
1973
1973
1972
1972
1971
1971
1971
1971
1972
1973
1973
1973
1972
1972
1971
1971
1971
1972
1973
1974
1975
1975
1975
1975
1974
1973
1972
1972
1972
1973
1974
1974
1974
1973
1973
1973
1973
1973
1973
1974
1975
1975
1975
1975
1974
1974
1974
1976
1977
1978
1978
1977
1976
1974
1974
1974
1975
1975
1976
1977
1977
1978
1978
1978
1978
1978
1978
1979
1981
1982
1983
1984
1984
1983
1982
1982
1983
1984
1985
1985
1984
1983
1982
1981
1981
1982
1983
1986
1988
1990
1992
1993
1993
1993
1992
1990
1989
1987
1986
1986
1986
1986
1987
1986
1986
1985
1985
1986
1986
1985
1982
1981
1983
1994
2017
2050
2084
2105
2101
2071
2026
1978
1943
1928
1929
1941
1955
1969
1979
1987
1991
1991
1990
1990
1989
1990
1990
1991
1992
1993
1994
1994
1994
1993
1992
1992
1993
1994
1995
1996
1996
1997
1997
1997
1998
1999
2000
2002
2003
2004
2005
2005
2006
2007
2008
2008
2010
2011
2013
2016
2018
2020
2022
2023
2025
2027
2029
2032
2034
2037
2039
2041
2042
2042
2041
2040
2037
2034
2030
2024
2018
2012
2006
2000
1996
1991
1987
1984
1981
1979
1979
1978
1977
1976
1974
1973
1973
1973
1974
1975
1975
1975
1975
1974
1972
1972
1972
1974
1975
1975
1975
1975
1975
1974
1974
1975
1975
1975
1976
1976
1977
1977
1977
1977
1977
1977
1978
1978
1978
1978
1979
1979
1978
1977
1976
1975
1976
1977
1978
1978
1978
1977
1976
1976
1976
1976
1976
1976
1976
1976
1976
1977
1977
1977
1976
1976
1976
1976
1976
1976
1977
1977
1977
1977
1976
1976
1975
1976
1976
1977
1978
1978
1977
1976
1975
1975
1975
1976
1977
1978
1977
1976
1975
1973
1973
1973
1974
1976
1978
1980
1981
1982
1983
1982
1982
1981
1980
1979
1979
1978
1977
1976
1975
1974
1975
1975
1976
1976
1976
1975
1973
1970
1968
1972
1986
2012
2048
2081
2100
2093
2060
2013
1966
1932
1919
1922
1935
1950
1962
1972
1979
1981
1981
1980
1980
1980
1980
1981
1983
1984
1985
1985
1986
1985
1985
1986
1987
1988
1989
1990
1990
1990
1990
1990
1990
1991
1992
1994
1996
1997
1998
1999
1999
2000
2001
2002
2003
2004
2006
2008
2011
2014
2015
2017
2018
2020
2022
2025
2028
2030
2032
2034
2034
2033
2032
2031
2029
2027
2023
2018
2012
2006
1999
1992
1986
1981
1976
1973
1971
1969
1968
1967
1966
1965
1964
1964
1964
1964
1965
1966
1966
1965
1964
1963
1962
1962
1962
1963
1964
1964
1964
1964
1965
1965
1965
1965
1965
1965
1966
1966
1967
1967
1968
1968
1968
1968
1967
1967
1968
1968
1969
1969
1969
1969
1968
1968
1968
1968
1969
1969
1970
1970
1970
1970
1969
1969
1969
1970
1970
1970
1970
1969
1969
1969
1970
1970
1970
1970
1970
1970
1971
1971
1971
1970
1969
1969
1969
1970
1971
1972
1972
1972
1972
1971
1971
1970
1970
1971
1971
1971
1971
1971
1970
1969
1969
1968
1968
1968
1968
1969
1969
1968
1967
1967
1968
1970
1973
1976
1979
1980
1979
1978
1976
1975
1973
1973
1973
1972
1972
1972
1971
1971
1970
1970
1970
1970
1970
1970
1969
1967
1965
1968
1979
2002
2035
2068
2090
2089
2062
2019
1971
1936
1919
1920
1932
1947
1960
1970
1975
1978
1977
1977
1976
1976
1977
1977
1978
1979
1979
1980
1980
1981
1981
1981
1982
1982
1983
1983
1984
1985
1986
1986
1987
1987
1987
1987
1988
1988
1989
1991
1992
1993
1994
1995
1996
1998
2000
2002
2004
2006
2008
2010
2011
2013
2015
2017
2020
2023
2025
2027
2029
2029
2028
2028
2027
2025
2022
2018
2013
2007
2001
1995
1989
1984
1979
1975
1972
1970
1969
1968
1968
1968
1967
1967
1967
1966
1965
1965
1966
1966
1967
1966
1966
1965
1964
1964
1965
1965
1966
1967
1967
1967
1967
1968
1968
1967
1967
1967
1968
1968
1969
1970
1970
1970
1970
1969
1969
1969
1970
1971
1972
1972
1971
1970
1969
1969
1969
1970
1970
1971
1972
1972
1972
1971
1970
1969
1969
1969
1970
1970
1971
1971
1971
1971
1970
1970
1970
1970
1970
1971
1971
1971
1971
1971
1971
1971
1971
1972
1972
1973
1973
1972
1972
1972
1971
1971
1971
1971
1971
1972
1972
1973
1973
1972
1972
1972
1972
1972
1973
1973
1973
1972
1972
1971
1971
1972
1974
1976
1979
1981
1982
1982
1981
1980
1978
1975
1974
1974
1974
1974
1975
1975
1976
1976
1976
1977
1977
1977
1976
1974
1973
1975
1986
2009
2041
2074
2096
2095
2069
2025
1979
1943
1926
1926
1937
1952
1965
1976
1983
1987
1988
1987
1987
1986
1986
1986
1986
1986
1986
1988
1989
1991
1991
1991
1990
1990
1991
1993
1995
1996
1998
1998
1997
1997
1996
1996
1997
1999
2000
2003
2005
2006
2008
2008
2009
2008
2009
2010
2012
2014
2017
2019
2021
2023
2024
2026
2028
2031
2034
2036
2038
2039
2039
2038
2036
2034
2031
2027
2022
2016
2010
2003
1997
1991
1987
1983
1980
1977
1975
1974
1974
1973
1973
1973
1973
1972
1972
1972
1972
1972
1972
1972
1972
1972
1972
1971
1971
1970
1970
1970
1970
1971
1972
1972
1972
1972
1972
1972
1973
1974
1975
1975
1975
1975
1975
1975
1974
1975
1975
1976
1976
1977
1976
1975
1974
1973
1974
1974
1974
1974
1974
1974
1974
1974
1974
1974
1973
1974
1974
1975
1975
1976
1976
1976
1975
1975
1974
1974
1975
1975
1976
1976
1976
1976
1975
1974
1974
1973
1973
1973
1974
1974
1976
1977
1979
1980
1980
1981
1981
1981
1981
1980
1978
1977
1975
1974
1973
1973
1974
1975
1975
1975
1974
1973
1972
1970
1968
1967
1970
1980
2001
2033
2067
2091
2092
2067
2024
1975
1937
1917
1916
1925
1939
1952
1963
1971
1976
1978
1979
1979
1980
1980
1980
1980
1981
1981
1982
1983
1984
1985
1986
1986
1986
1987
1987
1987
1987
1988
1989
1990
1992
1993
1994
1995
1996
1997
1997
1997
1998
2000
2001
2003
2005
2006
2007
2009
2010
2013
2016
2019
2022
2024
2026
2028
2029
2031
2032
2035
2037
2038
2037
2035
2031
2025
2019
2012
2006
2000
1994
1989
1984
1980
1976
1974
1972
1970
1969
1968
1967
1967
1967
1967
1968
1968
1967
1967
1967
1967
1967
1967
1968
1968
1968
1968
1968
1968
1969
1969
1970
1970
1970
1971
1971
1971
1971
1971
1971
1971
1972
1972
1973
1973
1972
1972
1971
1971
1972
1972
1973
1973
1973
1972
1971
1971
1971
1972
1972
1973
1972
1972
1972
1972
1973
1973
1972
1972
1972
1972
1972
1973
1973
1974
1974
1973
1973
1973
1973
1973
1974
1975
1975
1975
1975
1974
1973
1972
1972
1972
1973
1974
1974
1974
1974
1972
1970
1969
1968
1968
1969
1970
1972
1974
1975
1976
1976
1975
1975
1975
1975
1975
1974
1973
1972
1970
1968
1967
1966
1966
1967
1968
1970
1971
1971
1968
1964
1960
1959
1966
1984
2013
2048
2079
2092
2079
2043
1994
1949
1920
1913
1921
1937
1953
1964
1970
1973
1973
1972
1972
1973
1974
1975
1976
1976
1976
1977
1977
1978
1979
1979
1980
1981
1982
1983
1982
1982
1982
1983
1984
1985
1986
1986
1987
1988
1988
1989
1990
1992
1993
1995
1996
1997
1999
2000
2001
2002
2004
2006
2008
2011
2013
2016
2018
2020
2022
2023
2025
2025
2026
2026
2025
2023
2020
2016
2010
2004
1998
1992
1986
1981
1977
1974
1971
1968
1966
1965
1964
1963
1963
1964
1964
1964
1964
1964
1964
1964
1963
1963
1963
1964
1965
1965
1965
1965
1965
1965
1965
1966
1966
1967
1967
1967
1967
1967
1967
1967
1967
1967
1968
1969
1970
1970
1970
1969
1968
1968
1968
1968
1969
1970
1971
1971
1971
1970
1970
1969
1969
1969
1969
1970
1970
1971
1971
1971
1971
1970
1970
1970
1970
1971
1972
1973
1973
1973
1972
1971
1970
1970
1970
1971
1972
1973
1973
1973
1972
1972
1972
1972
1973
1974
1974
1974
1973
1971
1970
1970
1970
1971
1973
1975
1977
1979
1981
1981
1980
1979
1979
1978
1979
1978
1977
1976
1975
1974
1974
1974
1974
1974
1974
1974
1974
1973
1971
1969
1967
1969
1979
2002
2036
2071
2094
2094
2066
2022
1973
1937
1920
1921
1933
1949
1963
1973
1978
1980
1980
1979
1978
1979
1981
1982
1984
1985
1986
1987
1988
1989
1989
1990
1990
1991
1992
1993
1994
1995
1995
1995
1996
1998
1999
2000
2001
2002
2003
2004
2004
2005
2005
2006
2008
2010
2013
2015
2016
2018
2019
2021
2023
2025
2027
2030
2032
2035
2037
2039
2040
2040
2040
2040
2038
2036
2032
2027
2021
2013
2006
2000
1994
1989
1986
1983
1980
1978
1977
1976
1974
1974
1973
1973
1973
1973
1973
1972
1972
1972
1971
1970
1970
1970
1970
1970
1971
1971
1971
1971
1970
1969
1969
1969
1969
1970
1971
1971
1971
1971
1971
1971
1971
1971
1972
1972
1973
1973
1972
1971
1971
1971
1971
1972
1972
1971
1971
1971
1972
1972
1972
1972
1971
1971
1972
1973
1974
1974
1974
1973
1973
1973
1973
1974
1974
1974
1974
1974
1973
1973
1972
1971
1969
1968
1969
1971
1974
1977
1979
1980
1981
1980
1980
1978
1977
1976
1975
1975
1974
1974
1973
1973
1972
1972
1972
1973
1974
1974
1973
1970
1967
1967
1974
1993
2023
2058
2084
2090
2069
2029
1981
1941
1918
1913
1920
1933
1946
1959
1969
1976
1978
1978
1978
1978
1979
1980
1981
1981
1981
1981
1981
1981
1982
1982
1983
1984
1985
1986
1987
1988
1988
1989
1990
1990
1991
1992
1993
1994
1995
1996
1997
1997
1998
2000
2001
2002
2003
2005
2007
2009
2011
2013
2015
2017
2019
2021
2024
2026
2029
2031
2032
2033
2033
2033
2031
2028
2024
2019
2013
2006
2000
1994
1988
1983
1979
1976
1973
1972
1970
1969
1968
1966
1965
1964
1963
1963
1964
1964
1964
1963
1962
1962
1961
1961
1961
1962
1962
1963
1962
1962
1961
1961
1961
1961
1962
1962
1962
1961
1962
1962
1962
1962
1962
1962
1962
1962
1962
1962
1962
1962
1961
1961
1961
1961
1961
1961
1961
1960
1959
1958
1956
1955
1954
1953
1952
1952
1951
1951
1952
1952
1952
1952
1952
1952
1951
1951
1951
1951
1952
1953
1953
1952
1951
1949
1948
1947
1946
1947
1947
1948
1950
1951
1953
1956
1958
1960
1961
1961
1961
1960
1959
1957
1955
1955
1956
1957
1958
1958
1959
1959
1959
1959
1959
1959
1958
1956
1955
1957
1967
1988
2021
2055
2080
2084
2061
2019
1971
1933
1914
1914
1926
1941
1955
1966
1973
1977
1979
1980
1980
1981
1982
1983
1985
1987
1989
1990
1992
1992
1993
1993
1993
1992
1992
1993
1994
1995
1995
1996
1997
1997
1998
1998
1999
1999
2000
2001
2003
2004
2006
2007
2007
2008
2010
2012
2014
2016
2018
2019
2021
2024
2026
2028
2029
2031
2033
2035
2037
2037
2037
2035
2033
2030
2026
2021
2015
2009
2003
1997
1992
1987
1983
1980
1978
1976
