2046
2048
2048
2048
2048
2047
2047
2048
2052
2054
2054
2053
2050
2049
2049
2051
2051
2055
2055
2055
2054
2053
2052
2053
2056
2058
2059
2058
2057
2056
2055
2057
2056
2057
2057
2058
2058
2059
2060
2060
2060
2060
2059
2059
2059
2060
2063
2070
2078
2087
2090
2087
2078
2066
2057
2053
2054
2057
2060
2061
2061
2060
2060
2061
2060
2061
2061
2061
2062
2062
2062
2061
2062
2062
2062
2063
2063
2063
2062
2062
2064
2063
2063
2062
2062
2064
2067
2070
2072
2071
2068
2065
2064
2063
2066
2066
2068
2068
2068
2068
2067
2066
2066
2066
2067
2066
2066
2066
2065
2065
2064
2065
2064
2062
2061
2059
2060
2061
2063
2064
2062
2059
2056
2055
2055
2056
2057
2057
2057
2057
2057
2058
2058
2058
2058
2058
2058
2058
2057
2057
2056
2055
2057
2056
2056
2055
2053
2053
2054
2057
2060
2061
2059
2057
2055
2054
2055
2056
2056
2056
2056
2056
2056
2056
2056
2056
2056
2056
2056
2055
2055
2054
2054
2053
2052
2050
2048
2048
2049
2051
2054
2056
2057
2054
2051
2048
2046
2047
2048
2050
2051
2056
2063
2070
2077
2077
2072
2060
2048
2040
2038
2040
2044
2048
2048
2048
2048
2049
2047
2045
2045
2046
2048
2052
2053
2052
2050
2048
2046
2047
2048
2048
2048
2048
2048
2048
2048
2048
2048
2048
2048
2048
2048
2048
2048
2047
2048
2049
2049
2048
2047
2046
2047
2049
2053
2054
2054
2051
2048
2047
2047
2047
2047
2046
2045
2044
2043
2043
2042
2042
2041
2040
2039
2038
2038
2038
2037
2038
2037
2037
2035
2033
2032
2033
2036
2040
2042
2040
2036
2033
2031
2032
2033
2035
2035
2036
2036
2037
2037
2037
2036
2036
2035
2035
2036
2037
2037
2037
2037
2039
2039
2038
2035
2033
2033
2036
2042
2047
2048
2046
2041
2037
2035
2037
2038
2039
2038
2038
2038
2038
2038
2038
2038
2039
2039
2040
2040
2040
2040
2039
2039
2038
2039
2038
2039
2045
2056
2068
2076
2074
2064
2048
2036
2028
2029
2033
2039
2042
2046
2048
2052
2054
2054
2053
2051
2050
2049
2051
2053
2056
2055
2054
2054
2052
2051
2050
2051
2053
2055
2058
2058
2057
2055
2053
2052
2054
2056
2057
2057
2057
2057
2057
2057
2058
2058
2059
2060
2061
2060
2060
2060
2059
2060
2061
2061
2059
2057
2055
2055
2057
2059
2059
2059
2056
2053
2051
2051
2051
2051
2050
2049
2049
2049
2050
2050
2049
2049
2048
2048
2048
2048
2047
2047
2047
2048
2048
2048
2046
2044
2044
2044
2048
2049
2048
2048
2045
2045
2044
2044
2045
2044
2044
2043
2044
2044
2045
2045
2045
2044
2044
2043
2042
2042
2042
2043
2043
2042
2043
2040
2041
2040
2042
2045
2047
2046
2044
2042
2039
2039
2039
2039
2039
2038
2039
2040
2041
2041
2041
2038
2037
2036
2036
2036
2039
2044
2050
2060
2064
2063
2058
2048
2040
2035
2033
2034
2036
2036
2037
2037
2037
2038
2036
2035
2036
2037
2038
2039
2037
2036
2035
2036
2036
2036
2036
2035
2035
2035
2037
2037
2037
2035
2033
2034
2037
2041
2044
2045
2043
2041
2038
2037
2038
2038
2039
2040
2041
2041
2041
2041
2041
2041
2041
2041
2040
2038
2037
2036
2036
2035
2036
2035
2034
2031
2029
2029
2030
2034
2037
2038
2036
2032
2028
2028
2028
2029
2031
2030
2030
2029
2029
2029
2028
2028
2029
2029
2029
2029
2028
2028
2028
2028
2027
2027
2026
2024
2024
2025
2028
2030
2030
2028
2026
2025
2024
2026
2026
2027
2027
2027
2027
2026
2026
2026
2026
2026
2026
2027
2027
2027
2027
2026
2027
2027
2027
2026
2025
2025
2027
2028
2030
2030
2028
2026
2025
2024
2026
2026
2026
2026
2026
2026
2026
2027
2027
2027
2027
2026
2027
2028
2032
2036
2042
2049
2051
2050
2044
2034
2024
2019
2020
2023
2027
2028
2028
2027
2026
2028
2028
2030
2029
2029
2029
2029
2030
2030
2031
2031
2032
2032
2031
2031
2031
2032
2032
2034
2034
2033
2034
2034
2035
2036
2038
2039
2038
2038
2037
2038
2038
2040
2040
2039
2039
2039
2040
2040
2040
2040
2040
2040
2040
2040
2040
2039
2038
2038
2038
2037
2037
2036
2035
2035
2035
2036
2037
2037
2037
2036
2035
2034
2033
2032
2033
2033
2033
2034
2034
2034
2035
2035
2034
2034
2034
2034
2034
2034
2035
2036
2037
2036
2035
2034
2033
2034
2037
2039
2039
2038
2036
2035
2034
2034
2035
2035
2035
2035
2035
2036
2036
2037
2037
2037
2036
2037
2037
2038
2038
2038
2039
2039
2038
2036
2035
2034
2035
2037
2039
2039
2039
2037
2036
2035
2035
2036
2036
2036
2036
2036
2037
2037
2039
2044
2052
2060
2064
2063
2054
2042
2031
2025
2027
2029
2032
2032
2031
2032
2035
2039
2041
2041
2038
2036
2034
2033
2036
2036
2036
2036
2036
2036
2037
2037
2037
2038
2038
2038
2038
2039
2039
2038
2040
2040
2039
2040
2039
2039
2041
2043
2045
2047
2046
2045
2044
2043
2043
2044
2044
2046
2046
2046
2046
2045
2044
2044
2044
2043
2043
2042
2042
2041
2040
2039
2040
2039
2037
2035
2034
2034
2037
2041
2043
2043
2040
2037
2035
2035
2037
2038
2038
2038
2038
2038
2038
2037
2037
2038
2038
2039
2039
2039
2039
2038
2038
2040
2039
2040
2039
2039
2039
2040
2042
2042
2042
2041
2040
2039
2039
2040
2040
2041
2040
2040
2040
2040
2039
2039
2039
2039
2039
2039
2039
2038
2038
2038
2038
2039
2038
2038
2037
2038
2039
2041
2042
2042
2041
2041
2045
2052
2062
2067
2065
2056
2045
2034
2029
2029
2033
2037
2039
2039
2039
2038
2038
2038
2038
2038
2039
2038
2039
2038
2038
2039
2040
2041
2042
2042
2041
2040
2040
2039
2040
2038
2039
2039
2039
2041
2041
2042
2042
2042
2042
2042
2042
2041
2040
2040
2040
2041
2042
2042
2041
2040
2039
2040
2042
2043
2044
2042
2040
2038
2037
2037
2037
2036
2036
2035
2035
2035
2034
2034
2033
2033
2033
2033
2033
2034
2033
2032
2034
2033
2033
2031
2030
2030
2031
2033
2034
2035
2034
2033
2032
2032
2033
2033
2033
2033
2034
2034
2035
2035
2035
2034
2034
2034
2034
2034
2035
2035
2036
2035
2036
2036
2035
2033
2031
2031
2033
2038
2042
2043
2041
2037
2034
2032
2032
2033
2035
2034
2034
2034
2034
2034
2034
2034
2033
2034
2035
2035
2035
2035
2034
2034
2034
2036
2039
2046
2054
2061
2064
2059
2048
2036
2027
2024
2025
2030
2033
2035
2035
2035
2035
2035
2034
2034
2034
2034
2035
2035
2035
2035
2035
2034
2034
2036
2035
2033
2032
2031
2034
2038
2043
2044
2042
2039
2036
2035
2037
2039
2039
2040
2040
2041
2041
2041
2041
2042
2043
2044
2045
2045
2045
2045
2044
2045
2044
2045
2043
2042
2041
2041
2043
2044
2044
2043
2041
2039
2038
2039
2039
2040
2039
2039
2038
2039
2039
2041
2041
2041
2041
2041
2041
2040
2040
2040
2040
2041
2041
2041
2040
2039
2039
2041
2043
2044
2044
2042
2041
2041
2041
2043
2043
2043
2042
2042
2042
2042
2042
2042
2043
2043
2043
2043
2043
2043
2043
2044
2044
2044
2045
2044
2045
2046
2048
2048
2048
2047
2044
2042
2040
2040
2039
2037
2037
2036
2037
2037
2038
2038
2038
2038
2039
2039
2038
2037
2037
2037
2038
2041
2047
2053
2060
2064
2062
2056
2048
2039
2033
2031
2032
2035
2037
2039
2040
2040
2040
2040
2040
2040
2041
2041
2041
2042
2042
2042
2042
2042
2042
2041
2044
2043
2043
2041
2041
2041
2043
2047
2049
2049
2049
2048
2048
2045
2046
2045
2046
2049
2053
2056
2056
2054
2052
2050
2050
2052
2053
2053
2053
2053
2052
2052
2054
2052
2049
2047
2045
2046
2049
2053
2055
2053
2048
2045
2042
2042
2045
2046
2047
2047
2047
2047
2047
2047
2046
2046
2046
2047
2047
2047
2047
2047
2046
2048
2047
2046
2044
2043
2043
2046
2049
2051
2051
2049
2047
2046
2045
2048
2048
2049
2049
2049
2049
2049
2049
2049
2049
2050
2050
2051
2052
2052
2052
2051
2051
2052
2052
2052
2050
2050
2049
2050
2051
2052
2051
2049
2049
2048
2049
2050
2050
2050
2050
2050
2050
2049
2048
2048
2048
2050
2056
2064
2073
2078
2077
2071
2059
2048
2040
2038
2040
2045
2048
2050
2050
2050
2049
2048
2048
2048
2048
2049
2049
2049
2049
2048
2049
2049
2049
2050
2050
2050
2049
2049
2049
2049
2049
2050
2050
2050
2049
2049
2049
2051
2052
2054
2054
2053
2053
2053
2053
2055
2055
2055
2055
2055
2055
2055
2055
2055
2055
2054
2053
2052
2051
2051
2050
2049
2049
2048
2048
2047
2046
2046
2047
2048
2048
2047
2046
2046
2046
2046
2047
2046
2045
2045
2046
2045
2046
2046
2046
2046
2045
2045
2044
2045
2044
2045
2044
2044
2046
2045
2044
2043
2043
2044
2046
2047
2048
2047
2044
2043
2042
2042
2044
2044
2044
2044
2044
2045
2045
2046
2046
2046
2046
2045
2045
2045
2045
2044
2045
2043
2043
2042
2040
2040
2042
2044
2046
2047
2046
2044
2043
2041
2041
2041
2042
2045
2051
2060
2069
2073
2070
2060
2048
2037
2032
2033
2037
2041
2043
2042
2043
2042
2041
2039
2038
2038
2040
2042
2043
2044
2043
2041
2040
2039
2041
2041
2042
2041
2042
2042
2042
2043
2042
2042
2042
2043
2043
2044
2045
2044
2045
2047
2046
2045
2043
2043
2045
2048
2053
2055
2055
2052
2049
2047
2047
2048
2048
2048
2048
2047
2046
2045
2044
2044
2043
2043
2043
2042
2042
2041
2041
2040
2041
2040
2040
2038
2037
2038
2040
2043
2045
2044
2042
2039
2037
2036
2038
2039
2039
2040
2040
2040
2040
2041
2041
2041
2041
2041
2041
2042
2042
2042
2041
2042
2042
2041
2040
2039
2038
2040
2042
2045
2046
2046
2044
2042
2041
2043
2043
2043
2043
2042
2042
2041
2041
2041
2041
2041
2041
2041
2041
2040
2041
2041
2042
2042
2041
2040
2038
2039
2042
2049
2060
2069
2073
2069
2059
2046
2037
2032
2032
2035
2038
2040
2040
2040
2040
2040
2040
2040
2040
2040
2040
2040
2040
2040
2040
2039
2040
2039
2038
2038
2040
2041
2042
2042
2040
2039
2039
2039
2041
2040
2041
2040
2040
2040
2041
2041
2042
2042
2042
2042
2042
2042
2043
2043
2043
2044
2044
2043
2041
2038
2036
2037
2039
2041
2041
2039
2036
2033
2031
2031
2032
2031
2031
2031
2031
2031
2031
2031
2031
2030
2030
2030
2030
2030
2031
2030
2032
2031
2031
2030
2029
2029
2030
2031
2033
2034
2032
2031
2030
2030
2031
2031
2031
2032
2032
2033
2033
2033
2032
2032
2031
2032
2032
2032
2033
2034
2034
2033
2033
2032
2031
2028
2026
2024
2026
2030
2034
2036
2034
2031
2027
2026
2027
2027
2028
2027
2027
2028
2032
2039
2048
2055
2058
2054
2045
2033
2024
2021
2022
2026
2028
2029
2028
2027
2028
2030
2033
2035
2036
2034
2032
2030
2029
2032
2032
2034
2034
2034
2034
2034
2034
2034
2034
2034
2035
2036
2036
2036
2037
2036
2038
2038
2038
2037
2037
2037
2039
2042
2044
2045
2043
2042
2041
2039
2041
2042
2042
2042
2042
2041
2040
2038
2037
2037
2037
2037
2036
2035
2034
2033
2031
2032
2031
2032
2030
2028
2027
2026
2027
2028
2028
2027
2026
2024
2023
2023
2023
2023
2022
2022
2021
2021
2021
2021
2022
2021
2022
2022
2022
2021
2020
2019
2019
2022
2024
2025
2023
2020
2017
2017
2019
2021
2022
2021
2020
2019
2019
2019
2019
2019
2018
2018
2017
2017
2017
2017
2017
2018
2017
2017
2017
2017
2017
2018
2017
2016
2015
2015
2016
2022
2032
2044
2051
2052
2045
2034
2024
2019
2020
2023
2027
2028
2028
2028
2027
2029
2029
2030
2031
2031
2031
2031
2032
2033
2034
2034
2035
2034
2033
2033
2033
2034
2036
2038
2039
2039
2038
2037
2036
2037
2038
2039
2040
2040
2041
2041
2041
2041
2041
2042
2042
2043
2043
2044
2044
2043
2045
2044
2044
2043
2041
2041
2041
2043
2045
2045
2044
2042
2040
2038
2039
2039
2040
2040
2040
2040
2040
2040
2040
2040
2040
2040
2040
2040
2039
2039
2039
2038
2041
2039
2038
2035
2034
2034
2038
2042
2045
2044
2041
2037
2035
2034
2037
2037
2038
2038
2038
2038
2038
2038
2037
2038
2037
2038
2038
2038
2039
2038
2038
2038
2037
2036
2036
2035
2036
2037
2039
2040
2040
2039
2037
2034
2032
2032
2030
2030
2029
2030
2033
2039
2048
2055
2060
2057
2049
2037
2027
2022
2022
2024
2030
2032
2033
2031
2030
2030
2032
2035
2038
2039
2038
2035
2034
2033
2034
2035
2035
2035
2036
2036
2036
2036
2036
2036
2037
2038
2039
2039
2038
2038
2037
2038
2039
2040
2040
2040
2040
2041
2043
2045
2046
2046
2046
2045
2045
2045
2045
2045
2044
2043
2043
2042
2042
2042
2041
2041
2040
2040
2040
2039
2039
2039
2038
2038
2038
2037
2037
2036
2036
2037
2038
2038
2038
2037
2036
2036
2036
2037
2037
2037
2036
2036
2036
2036
2036
2037
2037
2038
2038
2037
2037
2037
2036
2037
2037
2037
2038
2037
2037
2037
2037
2039
2041
2042
2041
2039
2037
2035
2035
2035
2036
2036
2036
2035
2034
2035
2034
2035
2035
2035
2034
2034
2033
2033
2033
2035
2038
2044
2051
2059
2062
2059
2050
2039
2028
2022
2022
2025
2029
2033
2033
2032
2032
2032
2032
2032
2032
2032
2032
2032
2032
2032
2032
2032
2032
2031
2033
2032
2032
2031
2029
2029
2030
2032
2034
2035
2035
2034
2033
2032
2033
2033
2034
2034
2035
2037
2038
2038
2038
2037
2037
2037
2036
2037
2037
2037
2037
2036
2037
2035
2035
2032
2029
2027
2028
2032
2035
2037
2035
2032
2028
2026
2027
2027
2030
2029
2029
2029
2029
2028
2028
2028
2028
2029
2028
2028
2028
2028
2028
2029
2028
2028
2027
2026
2027
2028
2031
2033
2033
2032
2030
2028
2027
2028
2028
2029
2029
2029
2030
2030
2030
2030
2029
2029
2029
2028
2029
2028
2029
2027
2028
2028
2026
2025
2024
2024
2026
2028
2030
2031
2029
2027
2025
2024
2026
2026
2028
2033
2041
2048
2053
2051
2043
2031
2019
2013
2012
2015
2019
2021
2020
2021
2019
2019
2017
2016
2016
2017
2019
2021
2021
2020
2018
2017
2016
2018
2018
2019
2020
2020
2020
2020
2020
2022
2023
2024
2025
2026
2026
2026
2026
2027
2028
2030
2031
2031
2030
2031
2032
2034
2036
2037
2036
2034
2033
2032
2033
2034
2034
2034
2033
2032
2031
2031
2031
2030
2030
2030
2030
2030
2029
2028
2027
2028
2028
2028
2028
2026
2026
2027
2028
2030
2031
2030
2029
2028
2027
2027
2027
2027
2028
2029
2030
2031
2031
2031
2031
2031
2031
2032
2032
2031
2032
2032
2032
2034
2035
2033
2032
2030
2029
2031
2033
2035
2035
2034
2032
2030
2030
2030
2030
2029
2028
2028
2028
2028
2028
2028
2029
2028
2028
2028
2029
2030
2031
2031
2034
2033
2033
2031
2030
2029
2032
2040
2049
2059
2064
2063
2054
2041
2031
2023
2023
2026
2030
2033
2034
2034
2033
2032
2031
2031
2031
2032
2032
2033
2033
2033
2034
2033
2032
2029
2026
2026
2028
2032
2036
2037
2036
2031
2027
2025
2027
2030
2036
2037
2037
2034
2032
2030
2030
2032
2034
2035
2035
2036
2037
2038
2041
2044
2045
2045
2044
2043
2042
2044
2046
2048
2047
2044
2042
2040
2038
2040
2038
2038
2037
2039
2041
2043
2044
2043
2042
2040
2039
2040
2040
2041
2042
2040
2041
2041
2040
2038
2036
2036
2038
2042
2047
2048
2047
2044
2042
2039
2041
2041
2043
2043
2044
2043
2043
2042
2042
2041
2040
2040
2039
2039
2039
2038
2038
2040
2041
2042
2041
2039
2038
2038
2040
2042
2044
2043
2040
2038
2036
2037
2038
2039
2039
2038
2037
2037
2038
2039
2039
2039
2038
2038
2039
2042
2048
2056
2065
2070
2068
2059
2045
2034
2029
2030
2037
2043
2045
2045
2043
2042
2042
2043
2044
2044
2043
2043
2043
2044
2045
2047
2047
2047
2047
2046
2046
2047
2047
2048
2048
2049
2048
2048
2048
2048
2049
2051
2052
2053
2051
2050
2049
2048
2048
2048
2050
2051
2054
2056
2056
2055
2054
2052
2053
2053
2053
2052
2051
2049
2050
2051
2050
2050
2048
2045
2044
2045
2048
2050
2049
2048
2045
2042
2042
2043
2044
2044
2043
2044
2044
2045
2046
2045
2043
2042
2042
2043
2044
2044
2043
2042
2044
2043
2043
2041
2041
2040
2042
2044
2046
2046
2044
2042
2040
2039
2040
2040
2041
2042
2044
2043
2043
2042
2044
2043
2043
2043
2043
2042
2042
2042
2042
2041
2041
2041
2040
2037
2036
2036
2038
2042
2045
2046
2044
2039
2036
2035
2036
2040
2048
2057
2066
2071
2069
2058
2046
2034
2028
2028
2032
2037
2039
2039
2038
2040
2039
2039
2037
2035
2034
2036
2041
2044
2046
2044
2041
2039
2038
2039
2040
2041
2041
2041
2041
2041
2042
2042
2043
2044
2044
2045
2045
2045
2045
2044
2046
2047
2047
2046
2045
2045
2047
2049
2053
2054
2052
2048
2046
2044
2045
2047
2047
2047
2046
2046
2046
2045
2044
2043
2043
2042
2042
2042
2043
2042
2041
2041
2042
2042
2041
2040
2039
2040
2042
2045
2047
2046
2043
2041
2039
2039
2041
2042
2043
2044
2044
2045
2044
2043
2042
2042
2042
2043
2044
2045
2046
2045
2045
2047
2045
2044
2041
2040
2041
2044
2048
2050
2050
2048
2046
2044
2044
2046
2046
2046
2045
2045
2045
2045
2045
2045
2045
2045
2045
2044
2043
2043
2044
2043
2046
2045
2044
2041
2040
2046
2058
2073
2083
2082
2070
2052
2039
2030
2032
2036
2040
2042
2042
2043
2042
2042
2041
2041
2041
2041
2042
2041
2041
2042
2041
2043
2043
2042
2041
2039
2038
2039
2041
2043
2044
2044
2042
2040
2039
2040
2041
2041
2042
2043
2043
2043
2044
2044
2044
2044
2044
2045
2045
2045
2045
2044
2045
2044
2044
2043
2042
2041
2040
2041
2041
2041
2040
2038
2037
2035
2035
2034
2034
2034
2034
2035
2035
2035
2035
2035
2035
2035
2035
2035
2035
2035
2036
2037
2038
2037
2036
2034
2034
2035
2039
2042
2044
2043
2041
2039
2038
2040
2041
2042
2043
2043
2043
2043
2043
2043
2043
2043
2043
2043
2043
2043
2044
2044
2045
2047
2046
2047
2045
2045
2045
2047
2049
2050
2050
2048
2047
2045
2045
2047
2046
2047
2047
2047
2047
2046
2046
2045
2044
2045
2047
2051
2059
2068
2074
2074
2068
2056
2045
2036
2033
2036
2042
2048
2051
2052
2051
2049
2048
2048
2048
2049
2050
2051
2052
2052
2053
2053
2053
2054
2054
2054
2054
2055
2055
2055
2055
2056
2057
2057
2056
2055
2055
2057
2061
2064
2066
2065
2063
2061
2060
2062
2063
2064
2064
2062
2062
2061
2061
2060
2060
2060
2060
2060
2059
2058
2057
2056
2056
2056
2055
2054
2052
2050
2049
2050
2052
2052
2052
2051
2049
2049
2049
2050
2049
2049
2049
2049
2049
2049
2050
2049
2051
2052
2052
2051
2049
2048
2049
2052
2059
2060
2059
2055
2050
2049
2052
2058
2064
2065
2062
2059
2056
2055
2057
2058
2060
2060
2060
2061
2063
2063
2064
2064
2064
2063
2063
2063
2062
2062
2061
2061
2061
2061
2060
2059
2058
2058
2060
2061
2061
2060
2058
2057
2056
2056
2059
2062
2069
2079
2086
2088
2082
2070
2056
2047
2043
2044
2048
2051
2052
2051
2052
2051
2050
2049
2048
2048
2048
2049
2050
2050
2049
2048
2047
2045
2045
2044
2044
2044
2044
2045
2047
2047
2046
2045
2044
2043
2043
2043
2043
2044
2044
2044
2044
2043
2042
2041
2040
2040
2042
2044
2046
2046
2044
2042
2040
2040
2040
2040
2040
2039
2038
2037
2036
2035
2034
2033
2033
2032
2031
2030
2030
2029
2028
2029
2028
2027
2025
2023
2023
2025
2027
2029
2029
2026
2024
2023
2022
2024
2023
2024
2023
2022
2022
2021
2021
2021
2020
2020
2020
2020
2020
2020
2020
2018
2019
2018
2017
2017
2015
2015
2015
2017
2018
2018
2017
2015
2014
2012
2012
2011
2010
2010
2010
2009
2008
2007
2006
2005
2005
2005
2006
2006
2005
2004
2003
2003
2004
2006
2010
2017
2024
2030
2031
2026
2015
2002
1993
1989
1990
1995
1998
2000
2000
1998
1997
1997
1997
1997
1997
1998
1998
1998
1999
1999
2002
2004
2007
2008
2008
2007
2005
2005
2005
2008
2011
2011
2011
2008
2007
2006
2008
2010
2010
2010
2010
2010
2010
2011
2011
2012
2013
2013
2012
2012
2011
2011
2011
2010
2011
2010
2009
2007
2005
2004
2005
2007
2009
2010
2009
2006
2004
2001
2003
2003
2003
2003
2002
2002
2003
2004
2005
2005
2004
2004
2003
2003
2004
2005
2006
2007
2008
2007
2007
2006
2007
2009
2012
2013
2014
2013
2011
2010
2010
2010
2011
2011
2012
2012
2012
2012
2013
2013
2013
2014
2014
2015
2016
2016
2017
2016
2017
2016
2017
2016
2015
2015
2016
2018
2020
2020
2019
2018
2017
2016
2017
2017
2019
2019
2019
2019
2020
2020
2021
2024
2030
2040
2048
2053
2050
2041
2029
2019
2015
2015
2018
2020
2021
2022
2023
2026
2027
2027
2026
2025
2025
2025
2026
2026
2026
2026
2026
2027
2026
2026
2026
2026
2026
2027
2027
2028
2028
2029
2029
2031
2031
2031
2029
2027
2028
2030
2035
2039
2040
2037
2034
2032
2031
2033
2034
2035
2035
2035
2035
2034
2034
2034
2034
2034
2033
2033
2032
2032
2032
2030
2032
2031
2031
2030
2029
2029
2030
2032
2034
2034
2033
2031
2030
2030
2031
2032
2032
2032
2032
2033
2033
2034
2034
2034
2034
2034
2034
2034
2034
2034
2034
2036
2036
2036
2036
2034
2033
2034
2036
2039
2041
2041
2039
2037
2036
2036
2037
2038
2039
2038
2039
2038
2039
2040
2041
2042
2042
2042
2042
2042
2042
2042
2042
2042
2042
2042
2042
2042
2042
2044
2045
2046
2046
2045
2044
2044
2043
2044
2044
2045
2046
2048
2055
2064
2072
2076
2073
2063
2050
2040
2036
2037
2042
2046
2048
2048
2048
2048
2047
2047
2048
2049
2051
2052
2052
2051
2050
2050
2051
2049
2052
2051
2051
2051
2051
2051
2052
2054
2054
2054
2053
2053
2053
2053
2055
2055
2055
2055
2054
2053
2054
2055
2058
2060
2061
2060
2058
2057
2056
2056
2057
2056
2056
2056
2056
2056
2055
2055
2054
2054
2053
2053
2053
2053
2053
2053
2055
2054
2053
2052
2051
2051
2053
2055
2057
2057
2055
2054
2053
2053
2054
2053
2052
2053
2054
2055
2056
2057
2057
2057
2057
2057
2057
2058
2059
2059
2059
2059
2060
2059
2059
2058
2056
2057
2058
2060
2062
2062
2062
2060
2059
2059
2060
2060
2061
2062
2062
2061
2061
2061
2060
2060
2060
2060
2060
2060
2060
2059
2059
2060
2060
2060
2058
2057
2058
2059
2062
2065
2066
2064
2066
2072
2081
2091
2091
2084
2070
2055
2047
2046
2048
2054
2058
2059
2059
2059
2059
2059
2059
2058
2060
2060
2060
2060
2059
2058
2058
2060
2062
2063
2062
2061
2059
2058
2058
2059
2059
2061
2061
2062
2062
2063
2063
2063
2063
2063
2063
2064
2064
2064
2064
2065
2065
2066
2064
2062
2061
2062
2065
2068
2070
2068
2065
2061
2059
2059
2059
2060
2060
2059
2058
2058
2057
2057
2057
2057
2057
2057
2056
2056
2056
2055
2056
2057
2057
2056
2054
2053
2054
2055
2058
2059
2058
2056
2054
2054
2054
2055
2055
2055
2055
2054
2055
2055
2055
2056
2056
2055
2055
2055
2054
2055
2055
2054
2054
2056
2056
2053
2051
2049
2050
2054
2059
2063
2062
2058
2055
2051
2052
2052
2053
2052
2052
2052
2052
2052
2051
2051
2051
2051
2052
2052
2052
2051
2050
2050
2049
2051
2053
2059
2068
2076
2081
2078
2068
2054
2043
2037
2037
2041
2045
2047
2047
2047
2046
2047
2047
2047
2048
2048
2048
2048
2048
2048
2049
2049
2049
2048
2048
2048
2048
2047
2048
2048
2050
2051
2051
2051
2049
2048
2048
2048
2049
2049
2050
2051
2052
2053
2052
2052
2052
2052
2052
2052
2052
2052
2052
2051
2052
2051
2049
2048
2047
2047
2048
2049
2050
2050
2048
2046
2045
2044
2044
2045
2045
2045
2045
2045
2044
2044
2043
2043
2043
2043
2043
2043
2043
2043
2042
2043
2043
2043
2041
2040
2040
2042
2046
2048
2048
2047
2044
2042
2040
2042
2042
2044
2043
2043
2043
2043
2043
2043
2043
2043
2043
2044
2043
2043
2043
2041
2043
2042
2042
2041
2041
2041
2042
2044
2046
2046
2045
2043
2042
2041
2041
2041
2041
2041
2041
2041
2041
2041
2041
2041
2041
2041
2041
2042
2041
2040
2039
2040
2039
2040
2043
2048
2057
2066
2072
2070
2061
2048
2036
2030
2030
2034
2038
2040
2040
2039
2039
2039
2039
2039
2040
2041
2041
2042
2042
2041
2041
2040
2040
2041
2041
2040
2039
2039
2039
2042
2044
2045
2044
2042
2041
2041
2042
2043
2043
2043
2043
2043
2043
2043
2044
2044
2045
2045
2045
2045
2045
2045
2044
2044
2044
2044
2044
2042
2041
2040
2040
2042
2043
2043
2042
2041
2039
2038
2038
2038
2039
2038
2038
2039
2039
2039
2039
2039
2039
2040
2041
2041
2041
2040
2039
2040
2040
2041
2041
2039
2039
2041
2043
2045
2047
2046
2044
2042
2041
2041
2042
2043
2043
2043
2043
2044
2044
2045
2045
2045
2045
2045
2045
2045
2045
2045
2046
2046
2046
2044
2043
2043
2044
2046
2048
2048
2047
2046
2045
2045
2046
2047
2047
2047
2048
2048
2048
2048
2048
2047
2046
2046
2046
2047
2048
2048
2048
2048
2048
2048
2048
2046
2044
2044
2047
2050
2056
2063
2070
2076
2078
2074
2065
2053
2044
2038
2039
2043
2047
2048
2048
2048
2048
2048
2048
2048
2049
2049
2049
2051
2051
2050
2048
2047
2046
2048
2052
2055
2056
2053
2050
2048
2047
2049
2050
2052
2052
2052
2052
2052
2052
2052
2052
2052
2053
2053
2054
2054
2055
2054
2056
2055
2054
2053
2052
2052
2054
2057
2059
2059
2056
2053
2051
2049
2050
2051
2050
2051
2051
2050
2050
2050
2050
2050
2051
2051
2051
2051
2050
2049
2048
2049
2049
2050
2050
2050
2049
2049
2050
2051
2051
2051
2051
2050
2050
2051
2051
2052
2051
2051
2051
2050
2050
2051
2051
2051
2051
2051
2051
2051
2051
2051
2051
2051
2051
2051
2050
2050
2051
2052
2054
2055
2055
2053
2052
2052
2052
2053
2052
2051
2050
2050
2050
2050
2050
2050
2050
2050
2050
2050
2051
2051
2050
2050
2049
2049
2049
2051
2056
2065
2074
2081
2081
2073
2059
2047
2038
2037
2040
2044
2048
2048
2048
2048
2048
2048
2048
2049
2049
2048
2047
2045
2046
2048
2052
2056
2056
2053
2048
2045
2045
2047
2049
2051
2051
2050
2049
2049
2049
2051
2050
2050
2050
2050
2050
2051
2052
2052
2052
2053
2053
2053
2053
2054
2054
2053
2054
2053
2053
2051
2050
2049
2049
2049
2050
2050
2049
2048
2047
2045
2045
2044
2045
2044
2045
2046
2046
2046
2045
2045
2044
2043
2043
2043
2044
2044
2044
2044
2044
2044
2043
2041
2040
2040
2042
2045
2048
2048
2048
2045
2042
2041
2042
2043
2044
2044
2044
2044
2044
2043
2043
2043
2043
2044
2044
2044
2044
2044
2043
2044
2044
2044
2043
2041
2041
2043
2046
2049
2050
2048
2046
2043
2040
2041
2042
2042
2043
2043
2043
2043
2043
2042
2042
2043
2043
2043
2043
2042
2042
2041
2044
2048
2054
2064
2069
2070
2064
2054
2045
2037
2034
2033
2036
2038
2039
2041
2040
2041
2041
2040
2040
2040
2040
2041
2041
2042
2042
2041
2041
2040
2040
2041
2041
2042
2041
2040
2040
2040
2041
2043
2044
2045
2044
2043
2042
2043
2043
2044
2044
2044
2044
2045
2045
2046
2046
2047
2047
2047
2046
2046
2046
2045
2045
2045
2045
2044
2043
2042
2042
2042
2043
2043
2042
2041
2039
2039
2039
2039
2039
2039
2038
2038
2038
2038
2038
2038
2038
2038
2038
2038
2037
2037
2037
2037
2038
2037
2037
2036
2035
2035
2036
2039
2040
2041
2040
2039
2038
2037
2039
2038
2038
2037
2038
2038
2039
2039
2039
2038
2038
2037
2036
2036
2037
2037
2037
2038
2038
2036
2035
2034
2033
2035
2038
2040
2042
2041
2039
2037
2036
2037
2037
2036
2036
2036
2035
2035
2035
2035
2035
2035
2035
2035
2035
2035
2036
2035
2035
2034
2035
2034
2036
2042
2050
2061
2067
2066
2055
2042
2030
2023
2023
2027
2031
2033
2033
2034
2034
2034
2034
2034
2034
2034
2034
2035
2035
2035
2035
2035
2036
2035
2035
2034
2033
2034
2036
2038
2040
2040
2039
2037
2036
2036
2037
2038
2038
2039
2039
2039
2039
2039
2039
2039
2040
2041
2041
2041
2041
2041
2040
2041
2040
2039
2037
2036
2036
2038
2040
2041
2041
2038
2036
2034
2033
2036
2036
2036
2036
2035
2035
2034
2034
2034
2033
2034
2034
2034
2035
2034
2034
2032
2034
2033
2033
2033
2031
2032
2032
2035
2037
2037
2037
2035
2033
2032
2033
2034
2034
2035
2035
2036
2036
2037
2036
2036
2035
2035
2036
2036
2037
2036
2036
2036
2036
2037
2036
2034
2033
2034
2038
2041
2044
2043
2040
2037
2036
2035
2037
2037
2038
2037
2037
2036
2036
2036
2037
2037
2037
2037
2037
2038
2038
2038
2039
2040
2039
2038
2037
2037
2042
2050
2063
2071
2073
2066
2053
2041
2032
2029
2030
2035
2038
2039
2040
2040
2041
2041
2041
2042
2042
2043
2043
2044
2044
2045
2047
2046
2046
2045
2044
2045
2046
2048
2048
2049
2048
2047
2046
2044
2046
2045
2045
2046
2046
2047
2047
2047
2046
2048
2047
2047
2047
2047
2047
2048
2048
2049
2049
2048
2047
2045
2045
2046
2048
2048
2048
2046
2043
2041
2039
2040
2039
2039
2038
2037
2037
2037
2037
2037
2037
2036
2036
2036
2035
2035
2034
2033
2034
2035
2037
2037
2036
2035
2034
2036
2040
2043
2042
2040
2037
2036
2035
2036
2038
2038
2038
2038
2039
2040
2040
2040
2039
2039
2038
2039
2039
2040
2040
2040
2041
2041
2041
2039
2038
2038
2040
2043
2046
2047
2044
2041
2039
2038
2038
2039
2040
2039
2039
2038
2039
2039
2039
2038
2037
2037
2037
2039
2040
2042
2045
2052
2060
2067
2067
2059
2048
2037
2032
2033
2036
2038
2038
2037
2035
2038
2038
2040
2039
2039
2039
2039
2040
2040
2040
2040
2040
2040
2040
2040
2040
2039
2041
2040
2041
2039
2038
2036
2039
2043
2047
2047
2044
2040
2039
2041
2047
2049
2049
2046
2043
2042
2043
2045
2047
2047
2046
2046
2046
2046
2046
2046
2045
2045
2046
2045
2043
2041
2038
2039
2043
2047
2049
2048
2045
2041
2038
2037
2040
2041
2042
2041
2040
2040
2040
2040
2040
2040
2040
2040
2040
2040
2040
2040
2040
2041
2040
2039
2038
2037
2037
2039
2041
2044
2045
2043
2040
2037
2035
2037
2038
2039
2040
2038
2037
2037
2038
2039
2038
2037
2035
2035
2036
2038
2040
2039
2040
2038
2036
2033
2031
2030
2032
2036
2039
2040
2038
2035
2032
2029
2032
2032
2033
2033
2032
2032
2031
2031
2031
2033
2040
2048
2055
2060
2058
2050
2039
2029
2023
2022
2023
2025
2027
2027
2031
2033
2033
2032
2029
2027
2026
2027
2029
2029
2030
2029
2029
2029
2028
2027
2027
2027
2027
2029
2029
2030
2031
2030
2030
2030
2031
2029
2029
2028
2029
2032
2035
2038
2037
2034
2031
2029
2029
2030
2033
2033
2034
2034
2034
2033
2033
2031
2031
2030
2029
2029
2028
2027
2027
2026
2026
2026
2025
2023
2021
2021
2022
2025
2029
2030
2028
2025
2022
2021
2022
2022
2023
2023
2022
2023
2023
2023
2022
2022
2022
2022
2023
2022
2023
2022
2023
2025
2025
2024
2023
2022
2022
2024
2027
2030
2031
2030
2027
2025
2022
2025
2026
2026
2027
2026
2026
2026
2026
2026
2026
2027
2027
2028
2029
2029
2029
2027
2029
2029
2029
2027
2026
2025
2028
2031
2034
2035
2033
2030
2027
2026
2028
2029
2030
2031
2031
2031
2033
2033
2034
2035
2040
2047
2054
2060
2059
2052
2041
2030
2025
2024
2026
2028
2029
2031
2033
2036
2038
2038
2035
2033
2031
2031
2033
2034
2035
2033
2033
2033
2033
2034
2035
2036
2036
2037
2037
2038
2038
2038
2039
2040
2040
2040
2039
2039
2040
2042
2044
2045
2045
2044
2043
2043
2043
2045
2046
2046
2047
2047
2047
2047
2047
2047
2047
2046
2046
2045
2045
2044
2044
2044
2046
2045
2046
2044
2044
2044
2045
2048
2049
2049
2048
2045
2044
2042
2045
2044
2045
2044
2044
2045
2045
2046
2046
2046
2048
2047
2048
2047
2047
2047
2048
2049
2050
2050
2049
2048
2048
2049
2052
2053
2054
2053
2052
2051
2050
2051
2051
2051
2051
2052
2052
2053
2054
2055
2055
2054
2054
2053
2052
2052
2052
2053
2053
2052
2053
2052
2051
2051
2051
2053
2054
2055
2054
2053
2051
2051
2053
2057
2066
2075
2082
2083
2077
2065
2052
2044
2042
2044
2048
2052
2054
2054
2054
2054
2054
2053
2052
2052
2052
2053
2054
2056
2057
2056
2055
2054
2054
2053
2055
2055
2055
2055
2056
2056
2056
2057
2057
2057
2057
2058
2059
2059
2060
2060
2060
2062
2062
2062
2061
2061
2062
2064
2067
2067
2067
2065
2063
2062
2061
2063
2063
2062
2061
2060
2059
2059
2058
2058
2057
2057
2057
2057
2057
2057
2056
2055
2056
2056
2055
2055
2054
2054
2056
2058
2060
2060
2058
2056
2055
2054
2055
2056
2056
2056
2056
2057
2057
2057
2057
2058
2058
2058
2058
2058
2058
2057
2057
2057
2058
2058
2057
2057
2056
2058
2060
2062
2063
2062
2060
2058
2057
2057
2058
2058
2058
2057
2057
2057
2057
2057
2057
2057
2057
2057
2057
2057
2057
2057
2057
2057
2057
2056
2056
2060
2068
2079
2088
2090
2084
2071
2057
2048
2046
2048
2051
2054
2055
2055
2055
2055
2055
2055
2055
2056
2056
2056
2055
2056
2055
2055
2057
2056
2055
2055
2054
2055
2056
2058
2059
2060
2060
2058
2057
2054
2056
2055
2055
2057
2057
2057
2057
2057
2057
2058
2058
2059
2059
2058
2058
2058
2058
2059
2059
2058
2057
2054
2054
2054
2054
2056
2055
2053
2051
2050
2048
2049
2049
2048
2048
2048
2048
2048
2049
2048
2048
2048
2046
2045
2046
2048
2051
2052
2052
2048
2048
2046
2045
2046
2047
2048
2048
2050
2050
2050
2048
2048
2047
2046
2046
2048
2048
2048
2049
2049
2049
2048
2048
2048
2048
2048
2048
2048
2048
2048
2049
2048
2048
2047
2047
2047
2048
2050
2051
2051
2050
2050
2049
2048
2049
2049
2049
2049
2049
2048
2048
2048
2048
2048
2048
2048
2048
2048
2049
2050
2050
2049
2048
2048
2047
2047
2049
2055
2065
2075
2082
2080
2071
2059
2048
2042
2041
2044
2047
2048
2048
2048
2048
2048
2048
2048
2049
2049
2049
2049
2049
2048
2049
2049
2048
2048
2048
2048
2049
2051
2053
2052
2050
2048
2048
2048
2049
2050
2050
2051
2051
2052
2052
2052
2052
2052
2052
2053
2054
2055
2055
2055
2054
2054
2054
2054
2053
2051
2051
2051
2054
2057
2058
2057
2053
2049
2047
2046
2047
2048
2048
2048
2047
2047
2047
2048
2048
2048
2048
2048
2048
2048
2048
2048
2048
2049
2048
2048
2048
2047
2048
2049
2051
2052
2051
2049
2048
2049
2048
2051
2051
2051
2051
2050
2051
2051
2051
2052
2052
2053
2052
2052
2052
2051
2051
2050
2051
2050
2049
2048
2047
2047
2048
2050
2051
2051
2049
2047
2045
2043
2045
2045
2046
2046
2046
2047
2047
2047
2047
2047
2047
2047
2047
2046
2046
2045
2045
2045
2046
2046
2046
2045
2044
2044
2047
2048
2049
2048
2046
2045
2045
2048
2053
2062
2071
2077
2078
2071
2059
2048
2039
2036
2038
2042
2046
2048
2048
2048
2048
2048
2048
2047
2046
2046
2047
2048
2050
2051
2051
2050
2048
2048
2048
2047
2048
2048
2048
2049
2050
2050
2050
2050
2050
2050
2050
2051
2052
2053
2052
2053
2053
2053
2053
2052
2052
2054
2056
2058
2059
2057
2055
2053
2051
2052
2052
2052
2052
2052
2051
2050
2050
2049
2049
2049
2048
2048
2049
2048
2048
2048
2048
2048
2048
2047
2046
2046
2047
2048
2050
2051
2051
2049
2048
2047
2046
2048
2048
2048
2048
2048
2048
2048
2048
2048
2048
2048
2048
2049
2048
2048
2048
2047
2048
2048
2047
2046
2045
2046
2048
2050
2051
2050
2048
2047
2046
2046
2047
2048
2048
2048
2048
2048
2049
2048
2048
2048
2048
2048
2048
2047
2046
2046
2046
2046
2046
2046
2045
2044
2044
2045
2047
2048
2047
2046
2045
2045
2048
2058
2066
2073
2073
2066
2054
2042
2034
2032
2035
2039
2042
2043
2043
2043
2043
2043
2042
2044
2043
2043
2043
2043
2044
2046
2047
2048
2047
2045
2043
2042
2042
2044
2044
2043
2043
2043
2044
2044
2045
2045
2046
2046
2046
2046
2046
2046
2046
2046
2048
2048
2048
2048
2048
2048
2048
2049
2050
2050
2049
2048
2047
2045
2045
2044
2044
2042
2042
2042
2041
2041
2041
2040
2040
2039
2039
2039
2039
2039
2038
2039
2039
2039
2039
2038
2038
2039
2042
2045
2045
2044
2042
2040
2039
2039
2040
2040
2040
2041
2041
2041
2041
2041
2041
2041
2041
2041
2041
2041
2041
2042
2042
2042
2042
2041
2040
2039
2040
2042
2044
2045
2044
2042
2040
2039
2039
2039
2040
2041
2041
2042
2044
2044
2044
2043
2042
2041
2041
2041
2041
2041
2041
2040
2040
2040
2039
2038
2037
2038
2040
2043
2044
2043
2041
2039
2037
2038
2044
2053
2062
2068
2069
2063
2051
2041
2032
2030
2032
2036
2040
2041
2040
2040
2038
2039
2038
2039
2038
2038
2039
2040
2042
2043
2044
2043
2041
2040
2039
2041
2041
2042
2042
2042
2043
2042
2042
2042
2042
2043
2043
2044
2044
2044
2044
2044
2045
2045
2045
2045
2045
2046
2047
2048
2049
2049
2048
2046
2045
2045
2045
2045
2045
2044
2044
2043
2043
2042
2042
2041
2041
2041
2041
2041
2041
2040
2039
2040
2039
2039
2040
2038
2038
2039
2041
2041
2040
2039
2038
2039
2042
2043
2043
2041
2039
2037
2037
2038
2039
2039
2039
2040
2041
2041
2041
2040
2040
2039
2039
2041
2041
2040
2038
2038
2039
2041
2044
2043
2042
2039
2036
2035
2036
2038
2038
2038
2037
2037
2037
2037
2037
2038
2038
2039
2039
2039
2039
2039
2039
2040
2041
2040
2039
2037
2036
2036
2039
2042
2044
2044
2042
2039
2038
2037
2039
2040
2040
2039
2038
2039
2040
2042
2047
2053
2061
2068
2070
2065
2054
2044
2034
2032
2033
2036
2038
2039
2040
2041
2043
2043
2043
2041
2040
2040
2039
2040
2041
2041
2040
2040
2041
2041
2041
2041
2041
2041
2041
2041
2041
2042
2043
2043
2045
2044
2043
2042
2041
2041
2044
2048
2049
2050
2048
2047
2045
2045
2045
2046
2046
2047
2047
2047
2047
2047
2046
2046
2045
2045
2044
2044
2043
2043
2043
2042
2042
2041
2041
2040
2039
2040
2042
2044
2044
2043
2041
2040
2039
2039
2040
2041
2041
2041
2041
2041
2041
2041
2041
2041
2041
2041
2042
2042
2042
2042
2041
2042
2041
2040
2039
2039
2039
2040
2043
2044
2045
2043
2042
2040
2039
2041
2041
2041
2041
2041
2041
2040
2040
2040
2040
2041
2041
2042
2043
2043
2043
2042
2042
2042
2041
2040
2039
2039
2040
2042
2044
2044
2043
2041
2040
2039
2041
2041
2040
2040
2040
2040
2042
2046
2051
2060
2068
2071
2066
2056
2044
2034
2029
2030
2035
2038
2040
2039
2038
2039
2042
2044
2046
2046
2044
2042
2040
2040
2041
2041
2042
2041
2041
2041
2042
2042
2043
2043
2043
2043
2044
2044
2044
2044
2043
2045
2045
2044
2044
2043
2044
2046
2048
2049
2049
2048
2047
2047
2046
2048
2048
2048
2048
2047
2047
2047
2046
2045
2044
2043
2042
2041
2040
2039
2039
2038
2040
2039
2039
2038
2037
2036
2037
2039
2040
2040
2039
2038
2037
2036
2037
2037
2037
2037
2037
2037
2038
2038
2038
2038
2038
2038
2038
2038
2037
2039
2038
2039
2039
2038
2037
2036
2037
2038
2040
2041
2041
2040
2038
2038
2037
2037
2037
2037
2037
2037
2037
2037
2038
2038
2038
2038
2038
2038
2038
2038
2038
2038
2039
2037
2037
2036
2035
2035
2035
2037
2038
2039
2038
2037
2036
2035
2036
2035
2035
2035
2035
2036
2039
2045
2053
2061
2065
2064
2056
2045
2035
2029
2027
2030
2034
2036
2036
2035
2035
2037
2039
2041
2041
2040
2039
2038
2036
2037
2039
2039
2039
2039
2039
2039
2039
2039
2039
2040
2040
2040
2041
2041
2042
2041
2041
2042
2042
2041
2040
2040
2041
2043
2046
2048
2048
2046
2044
2043
2042
2045
2044
2045
2044
2044
2044
2044
2043
2043
2042
2042
2041
2041
2040
2040
2039
2038
2039
2039
2038
2037
2036
2037
2039
2042
2043
2043
2041
2038
2037
2037
2039
2039
2039
2039
2039
2039
2039
2039
2039
2039
2039
2040
2040
2041
2041
2041
2040
2040
2041
2041
2040
2038
2038
2039
2041
2045
2047
2046
2044
2041
2039
2038
2039
2039
2041
2040
2040
2040
2039
2040
2040
2040
2040
2040
2040
2039
2039
2039
2039
2041
2042
2042
2041
2040
2040
2042
2044
2045
2044
2043
2041
2040
2039
2041
2041
2040
2040
2039
2039
2040
2040
2041
2041
2041
2040
2040
2039
2039
2041
2045
2054
2062
2068
2067
2060
2049
2040
2035
2034
2037
2039
2040
2039
2037
2039
2038
2038
2038
2039
2040
2040
2041
2041
2041
2040
2040
2040
2040
2040
2041
2041
2041
2041
2041
2040
2039
2040
2041
2044
2046
2046
2046
2044
2043
2042
2042
2043
2044
2044
2045
2045
2045
2046
2046
2046
2046
2046
2046
2045
2046
2046
2045
2045
2044
2044
2043
2041
2041
2041
2041
2043
2044
2043
2042
2041
2040
2039
2039
2040
2040
2041
2041
2042
2043
2043
2041
2039
2037
2038
2041
2045
2047
2046
2043
2041
2039
2040
2040
2042
2042
2044
2045
2046
2045
2044
2043
2042
2042
2043
2043
2043
2043
2042
2042
2042
2042
2042
2042
2042
2042
2043
2043
2044
2043
2042
2044
2043
2043
2042
2042
2043
2045
2048
2049
2049
2048
2045
2044
2042
2044
2044
2044
2044
2044
2044
2044
2043
2043
2043
2044
2044
2045
2045
2044
2043
2042
2044
2046
2049
2057
2065
2071
2071
2065
2054
2043
2035
2032
2034
2037
2041
2043
2043
2043
2043
2042
2042
2043
2042
2043
2043
2043
2043
2043
2043
2043
2043
2042
2043
2043
2043
2042
2041
2042
2044
2047
2048
2048
2048
2046
2045
2044
2046
2046
2047
2047
2047
2047
2048
2048
2049
2050
2050
2050
2049
2048
2048
2048
2048
2048
2048
2047
2045
2044
2044
2045
2047
2047
2046
2044
2042
2041
2040
2042
2042
2041
2041
2041
2041
2041
2041
2041
2041
2041
2041
2041
2041
2040
2040
2041
2042
2042
2042
2040
2040
2040
2043
2045
2046
2046
2044
2042
2041
2041
2042
2042
2042
2042
2042
2042
2042
2043
2043
2042
2042
2041
2041
2041
2041
2041
2043
2043
2042
2041
2040
2039
2040
2042
2045
2047
2047
2045
2043
2041
2042
2041
2041
2041
2041
2041
2041
2042
2042
2042
2041
2041
2041
2042
2042
2042
2041
2041
2041
2040
2043
2048
2054
2063
2069
2069
2062
2050
2039
2031
2029
2032
2036
2038
2039
2039
2039
2040
2041
2041
2041
2040
2040
2040
2040
2040
2041
2041
2040
2040
2040
2041
2041
2041
2040
2041
2043
2045
2046
2045
2044
2043
2042
2042
2043
2044
2044
2045
2045
2045
2045
2045
2046
2046
2047
2047
2048
2048
2047
2047
2046
2047
2046
2045
2043
2041
2041
2041
2043
2044
2044
2042
2040
2039
2038
2040
2039
2040
2039
2039
2039
2039
2039
2039
2039
2039
2039
2040
2040
2039
2039
2038
2039
2040
2039
2038
2037
2037
2038
2041
2044
2045
2043
2040
2038
2037
2038
2040
2040
2040
2040
2040
2040
2040
2040
2040
2040
2040
2041
2040
2040
2039
2039
2039
2041
2040
2040
2038
2036
2037
2039
2042
2044
2044
2041
2039
2038
2038
2040
2040
2041
2040
2039
2038
2038
2039
2039
2039
2039
2038
2038
2037
2037
2037
2037
2039
2039
2039
2037
2036
2036
2037
2040
2048
2055
2063
2065
2062
2052
2043
2036
2032
2034
2036
2038
2038
2038
2039
2040
2040
2039
2038
2038
2038
2039
2039
2041
2040
2039
2038
2037
2036
2037
2040
2042
2044
2043
2041
2040
2039
2040
2040
2040
2039
2040
2041
2041
2043
2042
2043
2043
2043
2044
2043
2043
2044
2044
2045
2045
2045
2044
2042
2040
2040
2042
2046
2048
2048
2045
2043
2041
2040
2040
2040
2039
2039
2039
2039
2039
2038
2035
2034
2033
2035
2035
2036
2035
2033
2033
2032
2033
2033
2034
2034
2036
2038
2040
2041
2039
2037
2036
2035
2036
2036
2037
2037
2038
2039
2041
2041
2042
2041
2040
2040
2040
2040
2040
2040
2040
2041
2041
2040
2039
2037
2036
2037
2040
2043
2045
2045
2043
2040
2037
2037
2037
2038
2040
2040
2040
2039
2039
2038
2038
2038
2037
2037
2037
2037
2038
2037
2038
2039
2039
2038
2037
2036
2036
2039
2042
2043
2043
2041
2039
2041
2045
2055
2063
2068
2067
2057
2047
2036
2030
2031
2034
2038
2040
2042
2042
2043
2043
2040
2041
2040
2040
2039
2037
2039
2040
2042
2045
2046
2044
2041
2039
2038
2039
2040
2040
2041
2042
2042
2042
2042
2041
2041
2042
2043
2043
2043
2044
2044
2045
2046
2048
2047
2047
2044
2043
2044
2048
2052
2055
2054
2049
2045
2042
2041
2043
2043
2044
2042
2041
2040
2040
2040
2041
2041
2041
2040
2040
2039
2039
2039
2038
2040
2039
2039
2037
2036
2036
2037
2039
2040
2041
2042
2043
2043
2041
2041
2038
2036
2035
2036
2038
2039
2039
2039
2039
2039
2039
2038
2039
2039
2039
2039
2041
2041
2041
2039
2037
2036
2037
2040
2043
2045
2043
2041
2039
2037
2040
2041
2042
2041
2041
2040
2040
2040
2040
2040
2039
2038
2038
2038
2038
2039
2039
2040
2040
2041
2039
2036
2034
2034
2037
2043
2050
2058
2064
2066
2064
2056
2045
2034
2027
2025
2027
2033
2038
2040
2039
2038
2037
2037
2037
2038
2039
2040
2040
2040
2040
2038
2037
2036
2037
2039
2043
2045
2045
2043
2041
2040
2039
2038
2039
2040
2041
2044
2045
2045
2044
2044
2043
2043
2044
2045
2046
2047
2048
2048
2048
2047
2047
2046
2046
2047
2048
2048
2047
2045
2042
2040
2039
2038
2039
2039
2039
2039
2039
2038
2038
2038
2037
2037
2037
2037
2037
2037
2038
2038
2037
2037
2036
2037
2036
2036
2037
2038
2040
2041
2041
2039
2038
2037
2036
2038
2038
2038
2038
2037
2038
2037
2037
2038
2038
2038
2038
2038
2038
2038
2037
2036
2037
2037
2037
2036
2035
2036
2037
2038
2040
2040
2038
2037
2036
2036
2038
2038
2038
2038
2037
2036
2036
2035
2035
2035
2035
2036
2036
2035
2035
2034
2034
2035
2035
2035
2034
2032
2031
2032
2034
2040
2048
2056
2062
2063
2057
2046
2034
2025
2022
2023
2027
2031
2031
2032
2031
2031
2031
2030
2030
2030
2030
2030
2031
2031
2031
2030
2029
2029
2030
2032
2034
2033
2032
2030
2029
2029
2029
2030
2030
2030
2030
2030
2030
2031
2031
2031
2032
2032
2032
2032
2032
2032
2032
2032
2034
2033
2033
2031
2029
2029
2031
2033
2034
2033
2031
2028
2026
2024
2026
2025
2025
2024
2024
2024
2024
2024
2024
2024
2024
2023
2023
2023
2023
2024
2024
2025
2025
2023
2023
2022
2022
2024
2026
2028
2028
2027
2025
2023
2022
2023
2023
2022
2024
2024
2024
2024
2024
2024
2024
2023
2023
2023
2023
2023
2023
2023
2025
2024
2023
2022
2020
2021
2022
2026
2028
2028
2026
2024
2022
2021
2023
2023
2024
2024
2025
2025
2026
2025
2025
2024
2024
2023
2023
2023
2023
2023
2024
2023
2024
2023
2023
2022
2022
2023
2023
2024
2025
2025
2027
2032
2040
2047
2051
2048
2038
2026
2016
2011
2012
2016
2020
2022
2022
2022
2022
2021
2021
2021
2021
2021
2021
2021
2021
2021
2021
2022
2023
2024
2024
2022
2020
2019
2019
2020
2021
2022
2023
2023
2023
2023
2023
2023
2023
2023
2024
2025
2026
2026
2026
2025
2026
2027
2027
2027
2026
2026
2027
2029
2030
2030
2028
2025
2024
2023
2023
2024
2024
2023
2023
2022
2021
2021
2020
2021
2021
2021
2021
2021
2021
2020
2021
2021
2022
2022
2022
2021
2020
2021
2022
2023
2024
2024
2023
2022
2022
2022
2022
2022
2022
2023
2023
2024
2024
2024
2025
2025
2024
2024
2024
2024
2024
2024
2024
2025
2025
2025
2024
2024
2025
2026
2028
2028
2027
2026
2024
2024
2024
2026
2027
2027
2028
2028
2028
2029
2029
2029
2029
2028
2028
2027
2027
2027
2027
2027
2029
2029
2029
2028
2026
2026
2027
2030
2031
2032
2031
2030
2032
2037
2048
2054
2059
2055
2046
2034
2024
2019
2020
2024
2028
2030
2030
2030
2031
2031
2031
2032
2032
2030
2031
2030
2030
2030
2032
2034
2036
2036
2034
2033
2032
2032
2032
2032
2034
2034
2035
2035
2036
2036
2036
2036
2035
2035
2035
2036
2037
2038
2039
2040
2040
2039
2038
2038
2039
2042
2044
2045
2044
2041
2038
2037
2035
2035
2035
2035
2035
2035
2034
2034
2033
2033
2032
2033
2033
2033
2033
2033
2033
2033
2033
2032
2031
2030
2031
2033
2035
2037
2037
2036
2034
2033
2032
2032
2033
2033
2034
2034
2034
2035
2035
2033
2031
2030
2031
2034
2037
2039
2039
2036
2034
2032
2032
2032
2033
2032
2034
2036
2038
2039
2039
2037
2035
2033
2033
2034
2035
2036
2036
2036
2035
2034
2034
2033
2033
2034
2035
2035
2035
2035
2036
2035
2036
2036
2034
2033
2032
2034
2040
2049
2059
2066
2066
2060
2048
2036
2028
2025
2025
2030
2033
2035
2036
2036
2036
2036
2036
2037
2037
2036
2036
2036
2036
2038
2037
2037
2037
2036
2037
2038
2040
2041
2040
2039
2038
2037
2037
2040
2039
2040
2040
2039
2040
2040
2040
2040
2041
2042
2042
2043
2043
2043
2043
2044
2043
2045
2045
2044
2042
2041
2041
2042
2044
2044
2043
2041
2038
2037
2036
2038
2037
2037
2036
2036
2036
2036
2036
2037
2037
2037
2037
2036
2036
2036
2036
2036
2038
2038
2038
2037
2036
2035
2036
2038
2039
2040
2040
2039
2037
2037
2038
2038
2038
2038
2038
2039
2039
2039
2039
2039
2039
2039
2039
2039
2039
2040
2039
2041
2042
2040
2038
2036
2037
2039
2042
2045
2046
2044
2042
2040
2039
2038
2039
2037
2038
2039
2040
2040
2040
2040
2040
2040
2040
2040
2040
2039
2039
2039
2041
2044
2050
2058
2065
2067
2064
2054
2045
2037
2033
2033
2035
2038
2040
2039
2040
2041
2041
2041
2042
2042
2042
2042
2042
2042
2043
2043
2044
2044
2044
2043
2043
2042
2042
2041
2041
2043
2044
2046
2047
2047
2046
2045
2044
2043
2045
2046
2047
2047
2047
2047
2047
2048
2048
2048
2048
2048
2048
2048
2048
2048
2047
2047
2046
2046
2044
2044
2043
2044
2045
2045
2045
2044
2042
2041
2039
2041
2041
2042
2042
2042
2042
2042
2042
2042
2042
2042
2042
2042
2042
2042
2042
2041
2042
2042
2042
2041
2040
2041
2042
2044
2046
2046
2045
2043
2042
2042
2043
2044
2044
2043
2043
2043
2043
2043
2043
2043
2044
2044
2044
2044
2044
2043
2043
2043
2043
2042
2042
2041
2041
2041
2043
2045
2046
2047
2046
2045
2044
2044
2044
2043
2043
2043
2042
2042
2042
2043
2043
2043
2043
2043
2043
2042
2043
2042
2043
2043
2043
2042
2042
2045
2051
2061
2071
2075
2072
2060
2048
2037
2032
2033
2037
2040
2042
2043
2043
2042
2042
2043
2043
2043
2044
2044
2043
2044
2044
2043
2045
2044
2044
2042
2041
2041
2043
2046
2048
2048
2047
2046
2045
2044
2047
2046
2047
2046
2047
2048
2048
2049
2049
2050
2050
2050
2050
2050
2051
2051
2051
2052
2051
2050
2049
2048
2048
2049
2051
2051
2050
2048
2046
2045
2045
2046
2046
2044
2043
2043
2043
2044
2044
2044
2044
2044
2044
2043
2043
2043
2043
2042
2044
2044
2043
2041
2039
2039
2041
2044
2047
2048
2047
2045
2042
2041
2042
2042
2043
2044
2044
2044
2044
2044
2044
2043
2043
2043
2043
2043
2043
2043
2043
2043
2043
2042
2041
2040
2040
2042
2043
2045
2047
2046
2046
2044
2043
2042
2043
2042
2042
2042
2042
2042
2041
2041
2040
2040
2040
2041
2041
2042
2043
2043
2042
2041
2040
2041
2041
2046
2053
2064
2072
2074
2068
2055
2042
2031
2028
2031
2036
2040
2042
2042
2043
2042
2042
2041
2041
2041
2042
2043
2044
2044
2044
2043
2044
2045
2045
2045
2044
2043
2044
2046
2048
2048
2048
2047
2046
2046
2047
2048
2048
2048
2048
2048
2049
2049
2049
2050
2051
2051
2052
2052
2052
2051
2051
2051
2051
2051
2050
2049
2048
2048
2048
2049
2049
2048
2047
2045
2043
2044
2043
2044
2043
2042
2042
2041
2042
2042
2041
2041
2041
2041
2041
2041
2040
2040
2039
2042
2042
2041
2040
2039
2038
2040
2042
2045
2045
2043
2041
2041
2039
2042
2042
2042
2041
2041
2041
2041
2041
2042
2042
2041
2041
2040
2040
2040
2041
2040
2042
2042
2042
2042
2043
2044
2043
2042
2042
2042
2043
2045
2047
2045
2044
2041
2039
2038
2040
2042
2043
2043
2043
2043
2043
2042
2042
2042
2043
2048
2053
2064
2072
2072
2066
2054
2041
2034
2032
2036
2041
2043
2043
2042
2041
2042
2043
2042
2042
2043
2043
2044
2043
2043
2043
2043
2043
2043
2043
2043
2043
2044
2045
2045
2045
2044
2042
2042
2043
2045
2047
2048
2047
2046
2045
2044
2045
2045
2046
2047
2048
2049
2050
2050
2050
2049
2048
2048
2048
2048
2048
2047
2045
2045
2043
2042
2041
2040
2040
2041
2042
2043
2043
2041
2039
2038
2037
2036
2038
2038
2039
2039
2039
2039
2038
2038
2038
2038
2038
2039
2039
2039
2040
2040
2040
2040
2040
2040
2038
2038
2039
2041
2044
2045
2045
2043
2041
2040
2040
2042
2042
2042
2042
2042
2043
2043
2044
2044
2044
2044
2044
2044
2044
2044
2044
2043
2045
2044
2043
2042
2041
2041
2042
2044
2045
2045
2043
2041
2040
2040
2041
2042
2042
2043
2043
2043
2042
2040
2039
2039
2041
2048
2057
2066
2072
2070
2061
2049
2038
2031
2030
2031
2035
2038
2041
2043
2043
2042
2039
2038
2037
2038
2039
2039
2040
2039
2038
2038
2038
2038
2039
2040
2040
2040
2040
2039
2039
2040
2040
2042
2042
2041
2040
2039
2040
2041
2044
2045
2045
2044
2044
2044
2043
2045
2046
2046
2047
2046
2046
2046
2046
2046
2045
2044
2043
2042
2041
2040
2038
2037
2038
2037
2037
2035
2032
2031
2032
2035
2038
2040
2039
2037
2035
2034
2036
2037
2037
2038
2038
2039
2039
2039
2039
2040
2039
2039
2039
2039
2039
2040
2039
2041
2040
2039
2038
2036
2036
2037
2040
2041
2042
2041
2039
2038
2038
2039
2040
2039
2037
2037
2037
2038
2038
2038
2038
2038
2039
2039
2039
2040
2040
2040
2039
2040
2039
2037
2035
2034
2034
2037
2040
2042
2042
2040
2038
2037
2036
2037
2037
2037
2037
2037
2039
2044
2052
2061
2068
2068
2060
2048
2037
2029
2028
2030
2034
2036
2036
2035
2035
2035
2037
2039
2040
2040
2039
2038
2037
2036
2038
2038
2038
2038
2038
2038
2038
2039
2038
2039
2039
2040
2041
2042
2043
2043
2043
2043
2043
2044
2044
2044
2045
2046
2048
2049
2050
2049
2048
2048
2047
2048
2048
2048
2047
2045
2045
2044
2043
2042
2041
2041
2040
2040
2040
2039
2038
2036
2036
2036
2035
2034
2033
2032
2032
2034
2035
2036
2035
2034
2033
2032
2032
2033
2033
2034
2034
2034
2034
2033
2033
2034
2034
2035
2035
2035
2034
2034
2033
2034
2035
2035
2035
2033
2032
2032
2033
2035
2037
2037
2036
2034
2033
2033
2033
2033
2034
2034
2034
2034
2035
2035
2036
2036
2036
2036
2036
2035
2035
2033
2034
2034
2033
2033
2032
2032
2033
2035
2037
2037
2036
2035
2034
2034
2033
2034
2033
2033
2034
2038
2046
2055
2064
2067
2062
2050
2037
2027
2023
2025
2029
2032
2036
2036
2036
2034
2033
2033
2034
2038
2040
2041
2039
2037
2036
2035
2037
2037
2037
2037
2037
2037
2037
2037
2037
2038
2039
2039
2039
2039
2039
2040
2040
2042
2042
2041
2040
2039
2040
2042
2046
2048
2049
2048
2045
2043
2041
2043
2044
2044
2044
2043
2042
2042
2041
2041
2041
2040
2038
2038
2037
2037
2037
2036
2038
2037
2037
2036
2034
2034
2035
2038
2041
2042
2041
2039
2037
2035
2036
2037
2037
2038
2039
2040
2040
2040
2040
2040
2040
2040
2040
2041
2041
2041
2042
2042
2042
2041
2041
2040
2040
2040
2041
2042
2043
2043
2042
2040
2039
2038
2039
2040
2041
2042
2042
2042
2042
2042
2042
2042
2041
2041
2041
2041
2041
2041
2040
2040
2040
2040
2039
2039
2039
2040
2042
2043
2043
2041
2039
2038
2039
2046
2055
2065
2072
2072
2064
2049
2036
2027
2027
2033
2041
2045
2045
2042
2040
2037
2039
2040
2041
2040
2040
2040
2041
2043
2044
2044
2043
2042
2041
2041
2042
2042
2042
2042
2042
2043
2043
2043
2043
2043
2044
2045
2045
2045
2045
2045
2045
2045
2046
2046
2048
2048
2047
2048
2048
2049
2050
2050
2049
2048
2047
2046
2045
2044
2045
2043
2042
2041
2041
2041
2040
2041
2040
2039
2039
2038
2038
2038
2038
2039
2038
2038
2036
2035
2035
2036
2039
2040
2040
2039
2038
2037
2036
2038
2038
2039
2039
2039
2039
2039
2039
2039
2040
2040
2040
2040
2040
2040
2040
2039
2041
2041
2040
2039
2037
2037
2037
2039
2041
2042
2041
2040
2039
2037
2039
2038
2039
2039
2040
2040
2041
2041
2041
2040
2040
2039
2038
2038
2037
2037
2037
2038
2039
2038
2037
2036
2036
2037
2039
2040
2040
2039
2038
2037
2039
2046
2055
2063
2068
2066
2056
2044
2033
2028
2028
2032
2036
2037
2037
2037
2037
2037
2038
2038
2038
2037
2035
2035
2035
2038
2041
2042
2041
2040
2038
2037
2036
2038
2038
2039
2039
2040
2041
2041
2041
2041
2041
2041
2042
2042
2042
2043
2043
2045
2045
2045
2045
2044
2044
2046
2047
2048
2048
2047
2045
2044
2043
2042
2042
2042
2042
2040
2039
2039
2038
2038
2037
2037
2037
2037
2038
2038
2038
2038
2038
2038
2037
2037
2035
2035
2035
2037
2039
2040
2040
2039
2038
2037
2036
2038
2038
2038
2038
2038
2038
2038
2038
2038
2040
2040
2039
2038
2037
2036
2037
2038
2042
2042
2041
2039
2036
2036
2038
2041
2043
2044
2042
2039
2037
2036
2037
2038
2038
2038
2038
2038
2038
2038
2038
2039
2039
2041
2041
2041
2041
2040
2039
2040
2040
2040
2039
2037
2035
2036
2039
2042
2044
2043
2040
2038
2036
2037
2038
2038
2038
2037
2036
2037
2039
2045
2052
2062
2068
2069
2062
2050
2039
2030
2028
2031
2035
2038
2038
2036
2035
2037
2040
2043
2043
2042
2039
2036
2035
2037
2040
2040
2039
2039
2037
2039
2040
2041
2040
2040
2039
2039
2040
2041
2042
2040
2040
2041
2041
2039
2038
2037
2039
2044
2048
2049
2048
2046
2044
2042
2044
2044
2045
2044
2044
2044
2044
2043
2043
2042
2041
2041
2041
2040
2040
2039
2038
2039
2039
2039
2038
2036
2035
2035
2038
2041
2043
2042
2040
2038
2037
2036
2035
2035
2036
2037
2040
2041
2041
2040
2038
2037
2035
2037
2037
2038
2039
2040
2040
2040
2039
2038
2035
2033
2035
2038
2043
2046
2046
2043
2039
2037
2035
2037
2037
2039
2039
2040
2040
2040
2040
2039
2039
2039
2038
2039
2039
2040
2040
2041
2041
2040
2040
2038
2036
2036
2037
2040
2042
2042
2041
2038
2036
2034
2036
2037
2038
2037
2037
2036
2036
2035
2036
2038
2043
2051
2061
2069
2070
2064
2050
2038
2028
2025
2026
2030
2034
2036
2040
2042
2043
2041
2038
2036
2034
2037
2038
2039
2039
2039
2039
2039
2038
2038
2038
2039
2040
2040
2040
2040
2040
2038
2040
2040
2041
2041
2040
2040
2041
2044
2047
2048
2048
2047
2046
2045
2046
2046
2046
2046
2046
2047
2047
2047
2047
2046
2045
2044
2043
2043
2042
2041
2040
2040
2040
2039
2038
2037
2036
2036
2038
2041
2043
2042
2039
2037
2035
2035
2036
2037
2038
2037
2037
2037
2037
2037
2038
2038
2038
2038
2038
2037
2037
2037
2037
2039
2038
2038
2035
2034
2034
2037
2041
2043
2043
2040
2038
2036
2035
2036
2036
2036
2035
2036
2036
2036
2036
2036
2036
2036
2036
2036
2036
2035
2035
2035
2037
2038
2039
2037
2036
2035
2035
2038
2041
2043
2043
2040
2038
2034
2035
2035
2037
2038
2038
2038
2037
2036
2035
2035
2036
2035
2035
2035
2034
2035
2037
2042
2050
2058
2063
2064
2058
2049
2039
2032
2029
2030
2034
2038
2040
2038
2037
2033
2032
2034
2035
2038
2037
2036
2036
2035
2035
2035
2036
2036
2037
2037
2038
2039
2038
2037
2035
2033
2035
2039
2043
2045
2044
2042
2039
2037
2037
2040
2040
2041
2042
2043
2044
2044
2045
2044
2044
2044
2044
2044
2044
2044
2044
2043
2043
2041
2040
2038
2037
2036
2037
2038
2039
2039
2038
2037
2036
2034
2036
2036
2037
2037
2037
2036
2036
2036
2036
2036
2036
2037
2037
2037
2037
2037
2036
2037
2037
2037
2036
2036
2036
2037
2039
2041
2042
2040
2039
2037
2036
2037
2038
2039
2039
2039
2039
2039
2039
2039
2039
2039
2039
2039
2039
2039
2039
2039
2039
2039
2039
2039
2038
2038
2039
2040
2041
2042
2041
2040
2039
2039
2040
2041
2041
2040
2040
2040
2040
2040
2040
2039
2039
2039
2039
2040
2040
2039
2039
2039
2039
2038
2038
2037
2036
2038
2044
2053
2063
2070
2071
2064
2051
2041
2033
2030
2032
2036
2038
2039
2038
2038
2038
2039
2039
2039
2039
2038
2038
2038
2037
2039
2041
2040
2038
2036
2035
2037
2042
2045
2045
2043
2040
2039
2038
2040
2042
2041
2041
2041
2042
2042
2043
2043
2044
2044
2044
2045
2045
2045
2046
2045
2047
2047
2047
2045
2042
2041
2041
2044
2047
2047
2045
2042
2039
2038
2039
2039
2039
2039
2039
2039
2039
2039
2039
2039
2039
2039
2039
2039
2039
2039
2039
2040
2041
2040
2040
2038
2038
2038
2040
2041
2042
2042
2041
2040
2040
2039
2041
2040
2039
2039
2040
2041
2043
2043
2043
2042
2041
2040
2040
2040
2041
2040
2041
2040
2040
2039
2038
2038
2039
2041
2043
2044
2044
2042
2041
2040
2041
2040
2041
2040
2041
2041
2042
2042
2041
2040
2039
2039
2039
2040
2041
2041
2041
2041
2041
2040
2039
2039
2038
2040
2046
2055
2066
2073
2073
2064
2050
2037
2029
2027
2030
2035
2038
2039
2040
2040
2040
2040
2040
2041
2041
2042
2042
2041
2042
2042
2042
2042
2041
2041
2042
2043
2044
2046
2045
2044
2043
2041
2040
2041
2041
2043
2043
2044
2044
2044
2044
2045
2045
2046
2047
2048
2048
2048
2048
2047
2047
2047
2046
2046
2045
2044
2044
2045
2045
2045
2044
2042
2040
2038
2038
2038
2037
2037
2037
2037
2037
2037
2037
2037
2037
2036
2036
2036
2036
2036
2036
2037
2037
2036
2036
2034
2034
2035
2038
2040
2041
2040
2038
2036
2034
2036
2037
2037
2038
2037
2037
2037
2037
2038
2038
2039
2038
2038
2038
2037
2037
2037
2036
2039
2038
2037
2035
2034
2034
2037
2041
2044
2043
2041
2038
2036
2035
2037
2037
2036
2035
2035
2035
2036
2037
2037
2037
2037
2037
2037
2037
2036
2035
2034
2035
2036
2040
2045
2053
2061
2065
2064
2056
2044
2033
2026
2025
2027
2033
2035
2036
2035
2035
2035
2034
2035
2035
2035
2035
2035
2035
2035
2036
2036
2036
2037
2038
2036
2035
2033
2032
2033
2036
2040
2042
2041
2039
2037
2036
2036
2038
2038
2039
2039
2039
2039
2040
2041
2043
2043
2043
2042
2042
2042
2041
2043
2043
2042
2041
2039
2037
2036
2036
2036
2037
2037
2036
2034
2033
2031
2031
2031
2032
2032
2033
2033
2034
2034
2033
2033
2032
2032
2032
2032
2033
2033
2033
2032
2033
2033
2032
2032
2031
2031
2033
2035
2037
2037
2035
2033
2032
2031
2033
2034
2035
2034
2034
2034
2034
2033
2033
2033
2033
2033
2034
2033
2034
2033
2032
2032
2032
2033
2032
2032
2033
2033
2035
2036
2037
2036
2035
2033
2032
2033
2033
2033
2033
2032
2032
2032
2032
2031
2031
2032
2032
2032
2032
2032
2032
2031
2031
2032
2034
2040
2048
2056
2062
2063
2055
2044
2031
2023
2022
2025
2029
2031
2033
2033
2034
2033
2031
2030
2031
2033
2037
2039
2039
2036
2033
2031
2031
2032
2033
2033
2033
2032
2032
2032
2034
2035
2036
2036
2035
2035
2035
2035
2036
2036
2037
2037
2037
2037
2038
2038
2039
2039
2040
2040
2040
2039
2039
2038
2037
2039
2038
2037
2034
2032
2032
2033
2036
2036
2035
2033
2031
2031
2031
2032
2031
2031
2030
2030
2031
2031
2031
2031
2032
2031
2031
2031
2031
2031
2031
2031
2033
2032
2033
2031
2030
2030
2032
2034
2037
2037
2036
2035
2033
2032
2034
2034
2035
2034
2035
2035
2035
2036
2036
2036
2036
2036
2036
2035
2035
2035
2034
2035
2035
2034
2033
2032
2032
2034
2037
2041
2043
2042
2039
2036
2034
2033
2034
2034
2035
2036
2035
2036
2036
2036
2037
2037
2037
2036
2035
2034
2034
2034
2038
2042
2048
2055
2061
2062
2058
2050
2042
2034
2029
2029
2031
2033
2035
2035
2035
2035
2035
2036
2037
2037
2037
2036
2035
2036
2036
2037
2037
2037
2037
2036
2038
2037
2036
2035
2034
2035
2037
2041
2044
2043
2041
2039
2038
2037
2040
2041
2041
2041
2042
2043
2043
2043
2043
2043
2044
2044
2045
2045
2045
2044
2043
2042
2042
2042
2041
2040
2039
2039
2040
2041
2042
2041
2040
2038
2037
2038
2039
2040
2040
2040
2040
2040
2041
2041
2042
2042
2043
2044
2045
2045
2045
2044
2045
2045
2045
2045
2044
2044
2045
2046
2047
2048
2047
2046
2046
2046
2046
2046
2046
2047
2047
2048
2048
2048
2048
2049
2049
2050
2050
2050
2051
2051
2051
2052
2053
2053
2052
2051
2050
2050
2051
2052
2053
2053
2052
2051
2050
2050
2050
2050
2050
2049
2049
2048
2048
2048
2049
2053
2060
2069
2077
2079
2073
2061
2048
2040
2035
2036
2039
2042
2044
2046
2048
2049
2048
2048
2046
2045
2044
2045
2045
2044
2044
2045
2045
2045
2045
2044
2045
2044
2045
2044
2044
2044
2044
2044
2045
2045
2046
2045
2044
2043
2044
2046
2047
2048
2048
2047
2046
2045
2046
2046
2047
2046
2044
2043
2044
2046
2048
2048
2045
2037
2029
2022
2022
2027
2034
2042
2047
2046
2042
2037
2031
2029
2030
2032
2034
2033
2031
2029
2028
2027
2028
2028
2027
2027
2028
2028
2028
2028
2027
2026
2026
2027
2028
2029
2029
2028
2028
2027
2027
2024
2023
2021
2021
2023
2025
2027
2026
2025
2024
2023
2024
2024
2024
2023
2023
2024
2025
2025
2025
2023
2022
2020
2019
2019
2019
2019
2019
2018
2020
2017
2016
2014
2011
2011
2013
2017
2018
2017
2014
2010
2008
2009
2018
2027
2037
2045
2044
2035
2020
2007
1998
1997
2000
2006
2009
2011
2011
2010
2010
2010
2010
2010
2008
2007
2007
2008
2010
2012
2013
2013
2012
2011
2010
2011
2011
2012
2012
2011
2011
2010
2010
2010
2010
2010
2010
2011
2011
2012
2012
2012
2013
2014
2014
2014
2014
2014
2015
2016
2017
2016
2015
2013
2011
2009
2008
2008
2006
2006
2005
2004
2004
2003
2002
2001
2000
2000
2000
2000
2000
1999
1999
1999
1999
1999
1999
1997
1996
1996
1997
1999
2001
2002
2002
2001
2000
1999
2000
2000
2001
2001
2001
2000
2001
2001
2002
2002
2003
2003
2003
2002
2002
2001
2000
2003
2003
2003
2002
2001
2001
2002
2005
2007
2008
2007
2006
2005
2005
2006
2006
2006
2005
2004
2003
2003
2004
2004
2004
2004
2004
2004
2003
2004
2004
2004
2004
2003
2001
1999
1998
2000
2007
2018
2030
2039
2041
2035
2023
2010
2002
1999
2002
2005
2008
2009
2009
2009
2009
2010
2011
2011
2011
2011
2011
2011
2012
2013
2015
2014
2012
2011
2010
2012
2016
2020
2022
2021
2020
2018
2018
2019
2021
2022
2022
2024
2024
2025
2026
2026
2026
2026
2026
2026
2027
2029
2029
2028
2028
2027
2026
2025
2026
2026
2027
2028
2028
2027
2025
2024
2023
2022
2022
2022
2021
2021
2022
2023
2024
2024
2024
2023
2023
2023
2023
2024
2024
2025
2025
2025
2026
2026
2025
2025
2024
2025
2026
2028
2030
2030
2028
2027
2027
2026
2029
2029
2030
2030
2029
2029
2029
2029
2029
2029
2029
2030
2030
2030
2031
2030
2029
2030
2029
2029
2028
2028
2029
2031
2034
2036
2037
2034
2032
2030
2029
2031
2031
2031
2031
2031
2031
2031
2031
2031
2032
2032
2032
2033
2033
2033
2032
2030
2030
2030
2032
2037
2045
2054
2063
2066
2061
2049
2037
2027
2023
2025
2029
2033
2033
2033
2033
2033
2033
2033
2033
2034
2034
2034
2035
2035
2035
2035
2035
2036
2036
2036
2036
2035
2034
2035
2036
2038
2040
2040
2039
2039
2038
2038
2040
2039
2040
2040
2040
2041
2042
2043
2044
2044
2044
2044
2044
2044
2044
2044
2044
2045
2044
2043
2041
2039
2038
2039
2040
2041
2040
2038
2036
2035
2035
2037
2037
2037
2037
2036
2036
2036
2037
2037
2038
2038
2038
2038
2037
2037
2037
2036
2038
2038
2037
2037
2036
2035
2035
2038
2040
2042
2042
2040
2038
2035
2036
2035
2036
2037
2037
2037
2037
2037
2037
2036
2036
2036
2037
2036
2036
2036
2035
2037
2036
2036
2034
2032
2031
2032
2035
2037
2038
2038
2037
2036
2035
2037
2037
2037
2037
2037
2037
2037
2038
2038
2037
2037
2036
2035
2035
2037
2038
2039
2039
2039
2038
2036
2034
2032
2032
2035
2041
2048
2058
2066
2070
2066
2056
2045
2034
2029
2029
2033
2038
2040
2040
2040
2039
2039
2038
2038
2039
2039
2040
2040
2041
2040
2040
2039
2038
2038
2039
2042
2044
2045
2044
2043
2042
2041
2043
2043
2044
2044
2044
2044
2044
2044
2044
2044
2044
2045
2046
2047
2048
2048
2048
2048
2047
2047
2046
2046
2047
2047
2048
2048
2048
2046
2045
2043
2041
2042
2042
2042
2041
2040
2040
2039
2039
2039
2039
2040
2040
2040
2041
2040
2041
2040
2041
2042
2041
2041
2041
2041
2041
2042
2043
2043
2043
2041
2041
2040
2041
2042
2042
2042
2042
2043
2042
2042
2042
2042
2041
2041
2041
2042
2042
2042
2041
2041
2041
2041
2041
2040
2040
2041
2042
2043
2044
2045
2044
2043
2042
2042
2041
2041
2042
2041
2041
2040
2040
2040
2039
2039
2039
2039
2039
2039
2039
2039
2038
2039
2038
2038
2037
2040
2048
2058
2070
2075
2070
2057
2042
2030
2024
2028
2033
2037
2039
2039
2039
2040
2040
2040
2040
2040
2041
2041
2041
2040
2040
2039
2041
2040
2041
2040
2038
2036
2036
2037
2038
2039
2038
2037
2035
2033
2034
2033
2035
2034
2035
2035
2036
2037
2037
2037
2037
2037
2037
2037
2037
2036
2036
2035
2036
2034
2032
2029
2027
2027
2029
2032
2033
2031
2028
2025
2022
2021
2022
2022
2022
2023
2023
2024
2024
2024
2024
2024
2023
2022
2022
2022
2022
2023
2023
2022
2022
2020
2019
2018
2019
2020
2023
2025
2025
2024
2023
2022
2023
2024
2025
2025
2027
2028
2029
2029
2029
2029
2028
2028
2028
2028
2029
2029
2030
2028
2031
2030
2029
2028
2027
2028
2030
2034
2035
2035
2032
2029
2027
2025
2028
2029
2029
2030
2030
2031
2031
2032
2032
2032
2032
2032
2033
2033
2035
2039
2047
2056
2064
2066
2059
2047
2033
2025
2024
2028
2033
2035
2035
2034
2032
2033
2033
2034
2034
2035
2036
2036
2036
2036
2036
2036
2036
2036
2036
2036
2036
2036
2036
2037
2037
2037
2036
2036
2037
2039
2041
2042
2042
2040
2039
2038
2038
2040
2040
2041
2041
2042
2042
2042
2042
2042
2041
2041
2041
2040
2040
2039
2038
2037
2036
2036
2036
2035
2033
2032
2033
2034
2036
2036
2035
2034
2032
2031
2033
2033
2035
2033
2031
2030
2030
2033
2037
2039
2039
2036
2033
2031
2031
2032
2033
2035
2035
2035
2034
2033
2033
2035
2038
2039
2039
2038
2036
2035
2034
2036
2036
2036
2035
2035
2036
2036
2037
2037
2037
2037
2036
2036
2036
2035
2035
2035
2037
2037
2037
2037
2036
2036
2036
2038
2039
2040
2039
2037
2036
2035
2036
2035
2036
2035
2035
2035
2036
2036
2037
2037
2036
2035
2035
2035
2036
2039
2045
2053
2064
2067
2064
2053
2041
2031
2028
2031
2035
2038
2038
2037
2035
2035
2036
2036
2036
2037
2038
2038
2038
2037
2037
2038
2038
2037
2037
2037
2037
2037
2038
2038
2038
2036
2035
2034
2035
2039
2041
2042
2040
2038
2037
2038
2041
2043
2044
2044
2044
2043
2044
2044
2045
2044
2044
2043
2043
2043
2042
2042
2041
2040
2042
2041
2039
2036
2033
2032
2034
2039
2043
2044
2042
2038
2034
2031
2034
2035
2037
2037
2037
2037
2036
2036
2035
2035
2035
2036
2037
2038
2038
2038
2038
2038
2038
2039
2039
2037
2037
2038
2040
2044
2046
2045
2043
2040
2037
2038
2039
2041
2041
2041
2041
2041
2040
2042
2042
2042
2043
2042
2043
2042
2042
2041
2042
2042
2044
2043
2041
2042
2042
2045
2048
2049
2049
2048
2047
2046
2046
2046
2046
2046
2047
2048
2047
2047
2047
2046
2046
2046
2046
2046
2046
2046
2045
2044
2044
2045
2044
2045
2048
2057
2068
2076
2078
2070
2055
2040
2031
2029
2034
2041
2043
2043
2041
2041
2041
2043
2044
2044
2044
2044
2045
2047
2048
2048
2047
2048
2048
2048
2048
2046
2047
2048
2051
2054
2056
2055
2053
2052
2050
2051
2051
2052
2053
2054
2054
2055
2056
2057
2057
2058
2058
2058
2058
2059
2059
2058
2060
2061
2060
2057
2053
2051
2053
2057
2061
2062
2059
2055
2051
2048
2050
2051
2051
2051
2050
2051
2050
2051
2052
2052
2052
2051
2050
2050
2050
2051
2051
2054
2055
2056
2054
2051
2051
2052
2056
2061
2064
2064
2062
2061
2059
2061
2060
2061
2060
2062
2063
2064
2064
2062
2060
2059
2059
2059
2059
2059
2059
2062
2062
2064
2063
2060
2055
2052
2053
2057
2062
2064
2063
2059
2053
2048
2047
2048
2048
2048
2048
2048
2049
2049
2050
2049
2048
2047
2045
2044
2042
2042
2042
2044
2050
2059
2068
2072
2068
2058
2047
2039
2037
2038
2041
2043
2042
2040
2042
2044
2046
2045
2044
2043
2042
2043
2044
2045
2045
2046
2045
2044
2045
2046
2046
2048
2048
2047
2044
2043
2043
2044
2048
2051
2053
2053
2051
2049
2046
2047
2047
2048
2050
2050
2051
2051
2051
2052
2053
2054
2054
2054
2054
2054
2055
2053
2052
2051
2049
2047
2045
2044
2045
2046
2048
2048
2048
2046
2043
2042
2041
2042
2043
2042
2043
2043
2043
2042
2042
2041
2042
2043
2043
2044
2042
2042
2041
2042
2043
2044
2044
2042
2040
2039
2040
2042
2043
2045
2044
2043
2042
2042
2042
2041
2041
2040
2040
2040
2040
2039
2039
2038
2038
2038
2038
2038
2039
2040
2040
2042
2041
2039
2038
2037
2038
2040
2043
2044
2043
2042
2040
2040
2040
2043
2045
2046
2046
2046
2045
2043
2042
2042
2043
2046
2052
2060
2067
2069
2064
2052
2041
2029
2024
2022
2024
2026
2028
2031
2032
2032
2029
2025
2022
2019
2019
2018
2018
2017
2018
2019
2020
2020
2021
2021
2022
2023
2024
2024
2024
2023
2023
2024
2026
2028
2028
2027
2027
2027
2029
2031
2032
2031
2030
2030
2030
2031
2033
2032
2033
2034
2035
2036
2037
2036
2036
2035
2035
2035
2034
2034
2033
2032
2032
2034
2033
2032
2029
2028
2029
2032
2037
2038
2037
2034
2031
2029
2028
2030
2030
2030
2031
2031
2031
2031
2030
2030
2030
2031
2031
2032
2033
2033
2031
2029
2030
2031
2034
2037
2037
2036
2034
2033
2033
2035
2036
2036
2036
2034
2037
2037
2037
2037
2036
2037
2037
2037
2037
2037
2038
2038
2038
2038
2039
2039
2037
2039
2037
2035
2035
2033
2034
2035
2037
2040
2040
2039
2037
2035
2034
2035
2035
2036
2036
2037
2041
2047
2055
2063
2067
2063
2053
2041
2031
2027
2028
2031
2035
2037
2036
2036
2035
2034
2034
2036
2039
2040
2040
2039
2037
2035
2035
2036
2035
2036
2036
2037
2037
2038
2038
2038
2038
2039
2039
2040
2040
2039
2039
2039
2039
2040
2041
2041
2041
2042
2043
2045
2047
2048
2047
2046
2044
2044
2044
2044
2045
2043
2042
2041
2040
2040
2040
2040
2039
2039
2038
2038
2038
2037
2036
2037
2036
2036
2035
2034
2034
2036
2037
2038
2038
2037
2036
2035
2034
2036
2035
2034
2033
2033
2034
2035
2036
2037
2037
2037
2037
2036
2036
2036
2036
2035
2037
2037
2037
2036
2034
2033
2034
2036
2038
2040
2039
2038
2036
2035
2035
2035
2035
2036
2037
2039
2040
2040
2040
2040
2040
2040
2040
2040
2040
2040
2039
2040
2041
2041
2040
2039
2039
2039
2041
2042
2043
2043
2042
2040
2039
2040
2041
2043
2048
2057
2066
2072
2072
2064
2051
2039
2031
2031
2033
2038
2041
2042
2043
2045
2046
2044
2042
2040
2040
2043
2047
2051
2050
2048
2046
2044
2043
2044
2046
2046
2046
2047
2048
2047
2047
2047
2048
2048
2048
2048
2049
2049
2049
2049
2051
2050
2050
2049
2049
2050
2052
2054
2056
2056
2054
2052
2051
2049
2052
2051
2052
2051
2049
2049
2048
2048
2048
2047
2047
2046
2046
2046
2047
2046
2045
2047
2045
2046
2043
2042
2042
2044
2048
2049
2051
2048
2046
2044
2042
2045
2045
2047
2047
2047
2048
2048
2048
2048
2048
2049
2049
2049
2049
2049
2049
2048
2048
2049
2049
2048
2048
2048
2049
2050
2051
2051
2050
2049
2049
2049
2049
2050
2050
2050
2050
2050
2049
2049
2048
2048
2049
2049
2049
2048
2048
2048
2048
2048
2049
2050
2050
2049
2048
2048
2049
2050
2053
2058
2066
2074
2078
2077
2068
2056
2044
2037
2036
2040
2044
2047
2048
2048
2048
2048
2048
2048
2048
2048
2048
2049
2049
2048
2048
2047
2048
2050
2053
2054
2053
2051
2049
2048
2048
2049
2049
2049
2050
2050
2050
2050
2050
2050
2050
2050
2050
2049
2049
2048
2048
2048
2050
2048
2048
2045
2043
2042
2043
2046
2047
2047
2045
2042
2039
2037
2038
2036
2037
2036
2036
2036
2037
2037
2037
2036
2036
2036
2036
2036
2036
2037
2037
2038
2039
2038
2036
2034
2034
2035
2039
2043
2044
2044
2042
2041
2040
2042
2044
2044
2046
2046
2047
2048
2048
2048
2048
2049
2049
2049
2050
2051
2051
2051
2051
2052
2052
2051
2049
2048
2048
2052
2056
2058
2056
2055
2052
2050
2051
2052
2052
2052
2052
2053
2054
2054
2054
2054
2053
2054
2053
2053
2053
2053
2053
2051
2053
2052
2050
2048
2049
2054
2064
2077
2086
2086
2076
2060
2047
2037
2039
2043
2048
2050
2051
2050
2050
2049
2049
2049
2049
2050
2051
2052
2053
2054
2054
2054
2053
2054
2053
2053
2053
2053
2054
2056
2056
2056
2055
2054
2053
2054
2054
2055
2055
2055
2054
2054
2054
2055
2055
2055
2055
2055
2055
2055
2055
2054
2053
2053
2051
2050
2049
2049
2049
2049
2049
2048
2046
2043
2042
2041
2041
2041
2041
2040
2040
2040
2040
2040
2040
2040
2041
2041
2042
2042
2042
2042
2041
2041
2041
2042
2042
2042
2042
2042
2043
2043
2044
2044
2043
2042
2041
2041
2040
2042
2041
2041
2040
2039
2039
2039
2038
2038
2038
2038
2038
2037
2037
2037
2035
2037
2036
2035
2035
2034
2035
2036
2039
2040
2040
2040
2039
2039
2035
2035
2034
2034
2037
2040
2042
2042
2039
2036
2035
2036
2037
2038
2038
2038
2037
2036
2037
2039
2040
2043
2048
2057
2065
2069
2066
2056
2043
2032
2028
2029
2034
2038
2039
2038
2038
2039
2039
2039
2039
2039
2040
2040
2040
2040
2040
2040
2040
2040
2042
2041
2040
2038
2038
2040
2043
2048
2048
2048
2045
2043
2042
2042
2045
2044
2045
2046
2046
2047
2048
2048
2048
2048
2048
2048
2048
2048
2048
2048
2048
2047
2046
2045
2046
2046
2046
2046
2046
2046
2045
2043
2044
2043
2042
2042
2043
2043
2043
2044
2043
2043
2043
2042
2042
2042
2042
2042
2042
2043
2042
2044
2045
2045
2044
2042
2041
2041
2044
2047
2048
2048
2048
2046
2045
2044
2046
2046
2047
2047
2048
2048
2047
2047
2046
2046
2046
2047
2048
2048
2048
2047
2047
2048
2047
2048
2047
2047
2047
2048
2050
2051
2051
2049
2047
2045
2045
2045
2045
2047
2047
2047
2047
2047
2047
2046
2047
2048
2048
2048
2048
2048
2048
2050
2055
2064
2072
2076
2074
2066
2055
2046
2040
2039
2041
2044
2046
2047
2047
2048
2047
2048
2048
2048
2048
2048
2048
2049
2049
2049
2049
2049
2049
2049
2049
2049
2049
2050
2049
2048
2048
2049
2051
2052
2053
2053
2052
2051
2050
2052
2052
2054
2054
2054
2054
2054
2054
2054
2054
2055
2055
2055
2055
2055
2054
2053
2051
2053
2052
2051
2050
2049
2048
2049
2051
2052
2052
2051
2049
2048
2047
2048
2048
2047
2047
2047
2047
2047
2047
2047
2047
2047
2047
2047
2047
2046
2046
2045
2046
2048
2048
2047
2045
2044
2045
2048
2051
2052
2051
2048
2047
2045
2045
2046
2047
2047
2046
2047
2047
2047
2047
2047
2047
2047
2048
2048
2048
2048
2047
2048
2047
2046
2045
2043
2043
2043
2045
2048
2048
2048
2046
2044
2043
2044
2045
2045
2045
2044
2045
2046
2049
2056
2065
2073
2075
2070
2059
2047
2037
2032
2034
2039
2043
2044
2044
2043
2044
2047
2049
2050
2049
2048
2046
2044
2043
2046
2046
2046
2047
2047
2047
2047
2046
2046
2046
2047
2047
2048
2048
2048
2048
2048
2049
2049
2049
2049
2048
2049
2050
2052
2054
2054
2053
2052
2050
2049
2051
2051
2052
2051
2050
2050
2049
2048
2048
2047
2046
2046
2046
2045
2045
2045
2043
2044
2042
2042
2041
2040
2041
2042
2044
2046
2046
2044
2043
2041
2040
2042
2042
2042
2042
2042
2042
2042
2043
2043
2043
2043
2043
2044
2044
2044
2044
2043
2043
2043
2043
2043
2042
2042
2042
2044
2045
2046
2045
2043
2042
2041
2042
2043
2044
2044
2045
2045
2045
2044
2043
2042
2042
2042
2042
2043
2043
2042
2042
2041
2041
2042
2042
2042
2042
2042
2042
2042
2043
2044
2046
2050
2058
2066
2071
2069
2059
2047
2035
2029
2029
2033
2038
2041
2042
2041
2041
2040
2039
2038
2039
2041
2041
2040
2039
2038
2039
2042
2044
2045
2043
2042
2040
2040
2040
2042
2042
2042
2042
2042
2042
2043
2044
2045
2045
2045
2045
2045
2046
2046
2046
2046
2048
2047
2047
2045
2043
2043
2045
2048
2049
2049
2047
2045
2043
2042
2042
2041
2041
2040
2040
2040
2040
2040
2040
2040
2040
2039
2039
2039
2039
2040
2040
2041
2041
2041
2039
2037
2037
2038
2041
2043
2044
2043
2041
2040
2039
2040
2041
2041
2041
2041
2041
2041
2041
2041
2041
2041
2040
2040
2040
2040
2040
2040
2042
2042
2041
2038
2035
2034
2037
2042
2047
2048
2046
2043
2040
2037
2039
2041
2041
2041
2041
2041
2041
2040
2040
2039
2039
2039
2039
2039
2039
2039
2040
2040
2041
2040
2039
2037
2036
2038
2044
2052
2062
2069
2069
2061
2048
2035
2029
2026
2030
2034
2037
2038
2038
2038
2037
2038
2037
2039
2039
2040
2039
2037
2036
2039
2041
2044
2044
2042
2040
2040
2042
2046
2047
2046
2043
2042
2042
2044
2045
2046
2047
2047
2047
2047
2047
2047
2048
2048
2048
2049
2050
2050
2050
2049
2049
2049
2048
2048
2048
2048
2048
2048
2048
2047
2045
2043
2042
2041
2041
2041
2041
2040
2040
2040
2040
2040
2040
2040
2040
2040
2040
2040
2040
2040
2040
2040
2040
2041
2040
2040
2040
2041
2041
2042
2043
2043
2042
2041
2040
2040
2041
2042
2041
2041
2041
2040
2040
2040
2040
2041
2041
2041
2040
2040
2040
2040
2039
2040
2040
2040
2039
2038
2039
2040
2042
2044
2044
2043
2042
2042
2040
2042
2042
2041
2041
2040
2040
2040
2040
2041
2041
2041
2041
2041
2040
2041
2041
2040
2041
2040
2040
2039
2039
2042
2049
2060
2069
2072
2067
2055
2042
2032
2029
2030
2034
2037
2039
2039
2039
2039
2039
2040
2040
2040
2040
2040
2041
2041
2041
2041
2042
2041
2040
2039
2039
2039
2042
2044
2045
2045
2043
2042
2042
2042
2043
2043
2044
2044
2044
2045
2045
2046
2046
2047
2046
2046
2046
2046
2047
2047
2047
2047
2046
2045
2043
2042
2042
2044
2047
2048
2047
2045
2042
2040
2039
2039
2039
2040
2041
2042
2042
2041
2041
2040
2040
2040
2040
2040
2040
2041
2040
2041
2042
2041
2040
2038
2038
2039
2042
2044
2046
2045
2043
2042
2041
2040
2043
2042
2043
2043
2042
2042
2042
2042
2042
2042
2042
2042
2043
2042
2043
2042
2042
2044
2043
2043
2041
2040
2041
2044
2048
2050
2050
2047
2044
2042
2041
2043
2044
2044
2044
2044
2044
2044
2044
2043
2044
2044
2044
2045
2044
2044
2044
2046
2049
2056
2064
2071
2073
2068
2058
2048
2039
2035
2035
2038
2042
2044
2044
2045
2045
2044
2044
2045
2045
2045
2045
2045
2045
2046
2047
2047
2047
2047
2047
2047
2047
2048
2048
2047
2047
2048
2049
2051
2052
2051
2050
2049
2048
2049
2050
2052
2052
2052
2052
2052
2051
2051
2052
2052
2053
2053
2052
2051
2050
2049
2048
2049
2048
2048
2047
2046
2046
2046
2047
2047
2046
2044
2043
2042
2040
2043
2043
2043
2043
2042
2042
2042
2043
2043
2043
2043
2043
2042
2042
2042
2042
2041
2043
2042
2042
2041
2040
2040
2041
2043
2045
2047
2046
2044
2043
2041
2042
2041
2041
2042
2042
2043
2044
2044
2044
2044
2044
2044
2044
2044
2044
2045
2044
2045
2044
2043
2042
2040
2039
2040
2043
2045
2046
2046
2043
2042
2041
2041
2041
2040
2040
2041
2043
2048
2054
2063
2069
2070
2063
2051
2038
2029
2027
2029
2033
2038
2040
2039
2037
2036
2037
2039
2043
2045
2045
2042
2040
2038
2037
2038
2039
2039
2039
2039
2039
2039
2039
2039
2039
2039
2040
2040
2041
2041
2041
2041
2042
2042
2042
2042
2042
2043
2045
2047
2048
2048
2047
2046
2045
2044
2046
2046
2047
2045
2044
2043
2043
2043
2042
2042
2042
2042
2042
2042
2043
2043
2042
2044
2042
2042
2040
2040
2040
2041
2045
2046
2047
2045
2042
2040
2040
2041
2041
2042
2042
2043
2043
2043
2043
2042
2042
2042
2043
2043
2043
2044
2044
2043
2043
2043
2042
2042
2042
2041
2041
2042
2042
2041
2041
2040
2039
2039
2039
2039
2038
2038
2037
2037
2037
2037
2037
2036
2035
2035
2034
2035
2035
2035
2035
2035
2034
2034
2034
2034
2035
2039
2046
2055
2063
2067
2062
2051
2039
2030
2025
2028
2032
2035
2037
2036
2037
2037
2038
2039
2039
2039
2040
2040
2039
2039
2040
2041
2041
2041
2041
2041
2042
2044
2046
2047
2046
2045
2044
2044
2044
2045
2045
2045
2045
2046
2047
2048
2049
2049
2050
2049
2050
2051
2052
2054
2054
2053
2054
2054
2053
2051
2048
2048
2048
2051
2055
2056
2054
2051
2047
2044
2044
2045
2049
2053
2054
2053
2049
2048
2046
2048
2048
2049
2049
2049
2049
2049
2049
2049
2051
2050
2049
2046
2045
2046
2050
2055
2057
2055
2051
2047
2045
2045
2047
2046
2046
2046
2046
2046
2046
2045
2046
2046
2046
2046
2046
2047
2046
2046
2046
2045
2044
2041
2039
2037
2036
2040
2043
2045
2045
2043
2041
2038
2038
2038
2038
2037
2037
2038
2038
2040
2044
2049
2057
2065
2067
2062
2051
2038
2028
2023
2027
2030
2032
2031
2029
2029
2031
2036
2039
2039
2037
2033
2030
2028
2032
2032
2034
2034
2035
2035
2036
2036
2036
2036
2037
2039
2040
2041
2041
2041
2041
2042
2042
2043
2042
2041
2041
2042
2045
2048
2050
2049
2047
2044
2042
2042
2043
2045
2045
2045
2046
2045
2044
2043
2042
2041
2040
2041
2042
2043
2042
2040
2038
2037
2038
2039
2039
2039
2039
2040
2043
2045
2045
2042
2039
2038
2039
2042
2045
2044
2044
2044
2043
2043
2044
2044
2044
2044
2045
2045
2045
2044
2044
2043
2043
2043
2043
2041
2041
2042
2044
2046
2048
2048
2047
2044
2043
2043
2044
2044
2044
2042
2041
2040
2041
2043
2045
2046
2046
2046
2045
2044
2044
2043
2043
2044
2043
2042
2044
2049
2061
2072
2080
2078
2068
2055
2044
2037
2036
2041
2043
2044
2045
2044
2043
2042
2041
2040
2040
2042
2042
2042
2043
2043
2042
2040
2041
2040
2039
2038
2036
2036
2038
2041
2044
2046
2044
2042
2040
2039
2040
2040
2042
2041
2041
2042
2043
2044
2044
2044
2044
2044
2043
2043
2043
2043
2043
2043
2043
2041
2039
2036
2034
2034
2036
2039
2040
2039
2036
2033
2031
2030
2030
2030
2031
2031
2031
2030
2030
2030
2029
2028
2028
2028
2028
2029
2029
2029
2029
2029
2028
2027
2025
2024
2025
2027
2030
2032
2032
2031
2029
2029
2028
2027
2026
2026
2025
2027
2029
2030
2030
2029
2029
2029
2029
2029
2029
2029
2028
2027
2028
2027
2026
2023
2021
2021
2025
2030
2034
2035
2031
2027
2023
2021
2024
2025
2025
2024
2025
2029
2038
2048
2053
2053
2045
2033
2022
2016
2015
2018
2021
2024
2024
2023
2021
2020
2020
2022
2025
2028
2028
2026
2024
2022
2021
2022
2022
2023
2023
2023
2023
2023
2023
2024
2024
2024
2025
2025
2025
2026
2026
2026
2027
2028
2027
2026
2025
2025
2029
2033
2037
2037
2034
2030
2027
2025
2026
2028
2027
2027
2027
2026
2025
2024
2023
2023
2022
2022
2021
2021
2021
2020
2020
2020
2020
2021
2020
2019
2019
2020
2022
2023
2024
2023
2021
2020
2019
2020
2021
2021
2021
2020
2020
2020
2021
2021
2021
2022
2022
2022
2022
2022
2021
2022
2021
2022
2022
2021
2021
2021
2021
2023
2024
2026
2026
2025
2024
2023
2022
2024
2024
2024
2023
2023
2023
2023
2023
2023
2023
2023
2023
2023
2022
2023
2023
2023
2024
2024
2023
2022
2021
2024
2031
2042
2052
2058
2056
2046
2032
2020
2015
2014
2018
2022
2023
2024
2024
2024
2024
2024
2024
2024
2025
2025
2025
2026
2026
2027
2027
2027
2026
2025
2025
2025
2028
2030
2031
2030
2028
2027
2026
2027
2028
2029
2029
2029
2030
2031
2031
2032
2032
2033
2032
2032
2032
2032
2032
2033
2033
2033
2033
2032
2029
2028
2028
2031
2034
2035
2034
2031
2027
2025
2024
2026
2027
2027
2027
2027
2027
2026
2028
2027
2027
2027
2026
2027
2027
2027
2028
2027
2028
2028
2027
2027
2027
2027
2029
2031
2033
2033
2031
2030
2029
2028
2030
2030
2031
2030
2030
2030
2030
2031
2031
2031
2031
2031
2031
2031
2032
2031
2031
2033
2031
2032
2031
2031
2032
2034
2038
2040
2041
2038
2035
2032
2032
2032
2033
2034
2034
2034
2035
2035
2035
2034
2034
2035
2036
2036
2035
2033
2033
2037
2047
2058
2066
2068
2061
2049
2036
2029
2026
2028
2031
2033
2034
2035
2035
2036
2036
2037
2037
2038
2038
2038
2038
2038
2038
2038
2039
2040
2040
2040
2040
2040
2040
2041
2041
2041
2042
2042
2042
2043
2044
2045
2045
2044
2043
2044
2044
2046
2047
2047
2047
2047
2047
2047
2048
2048
2048
2048
2047
2047
2046
2046
2046
2046
2044
2043
2041
2040
2041
2042
2044
2045
2044
2043
2041
2040
2040
2041
2041
2041
2042
2042
2042
2041
2041
2041
2041
2042
2042
2042
2042
2042
2042
2042
2044
2044
2043
2042
2040
2041
2043
2046
2048
2048
2047
2045
2044
2043
2045
2044
2044
2043
2043
2043
2044
2045
2045
2045
2045
2044
2044
2044
2045
2046
2046
2047
2048
2046
2044
2041
2040
2041
2045
2048
2049
2048
2046
2043
2042
2042
2044
2043
2043
2042
2042
2042
2044
2048
2054
2064
2071
2073
2068
2057
2045
2035
2032
2033
2038
2041
2041
2041
2042
2045
2047
2048
2047
2045
2043
2042
2043
2045
2046
2045
2045
2045
2045
2046
2046
2045
2044
2044
2043
2044
2044
2045
2044
2045
2047
2046
2045
2043
2042
2043
2046
2049
2052
2053
2051
2048
2048
2047
2050
2050
2051
2050
2050
2049
2049
2048
2048
2048
2047
2047
2046
2046
2046
2046
2045
2045
2044
2044
2043
2042
2042
2043
2045
2047
2047
2046
2045
2043
2042
2042
2043
2044
2045
2045
2045
2045
2044
2044
2044
2044
2045
2045
2045
2045
2045
2045
2045
2044
2044
2042
2041
2041
2043
2045
2047
2048
2046
2044
2043
2042
2043
2043
2043
2044
2044
2045
2045
2046
2046
2047
2047
2047
2047
2047
2046
2046
2045
2045
2045
2046
2046
2046
2046
2046
2047
2048
2048
2048
2048
2046
2045
2044
2044
2045
2047
2051
2059
2068
2074
2073
2066
2054
2044
2037
2035
2038
2042
2044
2044
2045
2044
2043
2043
2043
2044
2046
2047
2048
2048
2046
2045
2045
2044
2046
2047
2047
2047
2047
2047
2047
2047
2048
2048
2049
2049
2049
2048
2048
2048
2048
2050
2050
2051
2051
2050
2050
2051
2052
2053
2054
2053
2052
2050
2049
2049
2048
2048
2048
2048
2047
2047
2046
2045
2044
2044
2043
2043
2043
2043
2043
2043
2044
2045
2044
2044
2043
2043
2044
2046
2048
2048
2048
2047
2045
2045
2044
2045
2045
2045
2046
2046
2047
2048
2048
2048
2048
2048
2048
2048
2048
2048
2048
2048
2048
2048
2047
2046
2045
2045
2048
2049
2050
2049
2047
2044
2043
2044
2045
2048
2048
2047
2046
2046
2046
2047
2047
2048
2048
2048
2049
2050
2050
2050
2048
2050
2048
2048
2047
2046
2047
2048
2051
2053
2053
2051
2049
2048
2046
2048
2048
2048
2048
2048
2050
2056
2064
2072
2077
2075
2066
2054
2045
2040
2039
2043
2047
2048
2048
2047
2046
2046
2048
2050
2052
2051
2049
2048
2046
2046
2047
2047
2048
2048
2049
2049
2048
2048
2048
2048
2049
2050
2050
2051
2051
2051
2051
2051
2053
2052
2051
2050
2051
2053
2057
2060
2062
2060
2057
2055
2054
2054
2055
2055
2055
2055
2054
2054
2053
2052
2052
2051
2051
2050
2049
2049
2048
2048
2049
2049
2050
2048
2048
2047
2048
2048
2050
2051
2050
2049
2048
2047
2048
2048
2048
2048
2048
2048
2048
2049
2048
2049
2049
2049
2050
2050
2050
2050
2049
2050
2051
2050
2049
2048
2048
2049
2051
2053
2053
2052
2050
2048
2048
2048
2049
2048
2048
2048
2048
2048
2049
2049
2050
2050
2050
2050
2050
2050
2051
2051
2051
2053
2053
2052
2051
2050
2050
2051
2053
2055
2056
2055
2054
2052
2052
2052
2051
2051
2051
2051
2051
2051
2051
2051
2051
2054
2059
2068
2077
2082
2081
2072
2060
2048
2042
2040
2042
2046
2049
2051
2055
2056
2054
2050
2048
2046
2048
2051
2053
2055
2053
2051
2050
2049
2051
2052
2052
2051
2051
2052
2052
2053
2054
2054
2056
2056
2055
2053
2052
2052
2055
2059
2061
2063
2061
2058
2057
2056
2058
2060
2061
2062
2062
2061
2059
2058
2057
2057
2057
2056
2056
2055
2054
2053
2052
2053
2051
2051
2050
2050
2050
2051
2053
2053
2053
2051
2049
2048
2048
2049
2049
2050
2049
2049
2049
2049
2048
2048
2049
2049
2049
2050
2051
2051
2051
2051
2052
2051
2052
2050
2049
2049
2049
2052
2054
2055
2054
2051
2049
2048
2048
2049
2050
2049
2048
2048
2048
2047
2047
2047
2048
2048
2048
2048
2048
2049
2049
2049
2049
2048
2048
2047
2047
2047
2048
2049
2048
2048
2046
2046
2045
2045
2046
2046
2046
2045
2045
2045
2045
2046
2049
2057
2066
2074
2076
2070
2058
2046
2036
2032
2034
2038
2041
2042
2042
2043
2043
2044
2044
2043
2042
2041
2041
2042
2043
2043
2042
2042
2041
2041
2041
2041
2041
2041
2041
2041
2041
2040
2040
2039
2040
2041
2042
2042
2042
2043
2044
2045
2046
2046
2045
2045
2044
2044
2045
2045
2044
2044
2043
2043
2042
2041
2041
2040
2039
2038
2037
2036
2035
2034
2033
2035
2034
2033
2031
2029
2028
2029
2031
2033
2034
2033
2031
2029
2028
2029
2028
2028
2028
2027
2028
2028
2028
2029
2029
2029
2028
2028
2028
2028
2028
2029
2030
2031
2029
2028
2025
2023
2024
2028
2032
2033
2031
2028
2025
2023
2023
2026
2025
2025
2025
2025
2025
2024
2024
2024
2024
2024
2024
2024
2025
2025
2025
2026
2026
2025
2024
2022
2020
2021
2023
2025
2027
2026
2024
2022
2019
2018
2018
2019
2020
2022
2023
2023
2023
2021
2023
2028
2037
2047
2051
2050
2042
2028
2017
2013
2010
2012
2014
2015
2017
2020
2023
2025
2024
2022
2020
2018
2018
2021
2021
2022
2022
2022
2022
2021
2021
2021
2021
2022
2023
2023
2024
2024
2024
2024
2024
2025
2025
2025
2025
2025
2026
2028
2030
2030
2030
2029
2029
2028
2029
2029
2031
2031
2031
2031
2030
2030
2029
2028
2028
2028
2028
2027
2026
2025
2025
2025
2025
2025
2024
2024
2024
2024
2026
2027
2027
2026
2025
2024
2023
2023
2024
2024
2025
2025
2025
2025
2025
2025
2025
2025
2026
2027
2028
2028
2028
2027
2027
2027
2028
2028
2027
2026
2026
2027
2029
2031
2030
2029
2027
2027
2027
2028
2029
2029
2028
2028
2028
2028
2029
2029
2029
2029
2030
2029
2030
2029
2029
2029
2030
2030
2031
2030
2030
2031
2032
2034
2035
2036
2035
2033
2033
2032
2033
2033
2033
2032
2032
2031
2031
2032
2032
2033
2033
2033
2034
2034
2034
2033
2033
2034
2035
2039
2045
2052
2060
2065
2064
2057
2047
2036
2029
2028
2031
2035
2036
2037
2036
2036
2037
2038
2038
2039
2039
2039
2038
2038
2038
2039
2039
2039
2039
2042
2041
2041
2039
2038
2039
2042
2047
2048
2048
2046
2043
2042
2041
2044
2043
2044
2044
2044
2046
2047
2048
2048
2048
2048
2048
2048
2048
2049
2050
2050
2051
2049
2048
2046
2044
2044
2047
2049
2051
2050
2048
2044
2044
2043
2044
2044
2043
2043
2045
2046
2047
2046
2045
2045
2045
2045
2046
2046
2046
2048
2048
2049
2048
2048
2048
2048
2048
2050
2052
2054
2054
2053
2052
2051
2049
2051
2051
2052
2052
2052
2052
2052
2053
2053
2053
2053
2053
2053
2053
2054
2054
2054
2054
2054
2053
2052
2051
2052
2055
2058
2061
2061
2059
2057
2055
2056
2057
2057
2058
2057
2056
2056
2056
2056
2056
2056
2057
2057
2057
2058
2058
2059
2058
2058
2058
2057
2057
2060
2067
2077
2088
2093
2090
2078
2064
2052
2046
2048
2052
2056
2059
2059
2060
2060
2060
2060
2061
2061
2061
2059
2058
2059
2060
2063
2067
2067
2066
2062
2059
2057
2059
2063
2066
2067
2066
2064
2063
2062
2063
2064
2065
2065
2065
2065
2065
2065
2066
2067
2068
2068
2069
2069
2069
2068
2068
2068
2070
2069
2068
2066
2066
2066
2067
2068
2067
2065
2062
2061
2061
2061
2063
2061
2061
2060
2059
2059
2060
2060
2061
2061
2061
2061
2061
2060
2060
2060
2060
2062
2062
2062
2062
2060
2060
2060
2062
2065
2066
2066
2065
2064
2062
2062
2062
2062
2063
2063
2063
2063
2063
2063
2063
2063
2062
2063
2063
2063
2063
2063
2063
2065
2064
2063
2061
2061
2062
2065
2069
2071
2071
2068
2065
2064
2063
2065
2065
2065
2065
2065
2066
2066
2066
2066
2066
2066
2066
2066
2066
2066
2066
2065
2067
2070
2076
2083
2090
2094
2093
2085
2074
2063
2055
2053
2056
2060
2064
2065
2064
2064
2064
2065
2065
2066
2067
2067
2066
2065
2065
2065
2066
2066
2066
2067
2066
2066
2065
2065
2065
2067
2068
2069
2070
2069
2068
2067
2066
2068
2068
2069
2070
2070
2071
2071
2072
2072
2072
2071
2071
2072
2071
2072
2072
2070
2070
2069
2068
2067
2066
2066
2066
2067
2067
2067
2065
2063
2061
2061
2062
2061
2062
2062
2061
2062
2061
2061
2060
2060
2060
2060
2061
2061
2061
2061
2061
2061
2061
2061
2061
2060
2061
2061
2063
2064
2064
2063
2062
2061
2061
2061
2061
2061
2061
2061
2062
2062
2061
2061
2061
2061
2061
2061
2061
2060
2060
2059
2059
2059
2060
2060
2059
2058
2058
2058
2060
2061
2061
2061
2061
2061
2061
2062
2063
2062
2062
2061
2061
2060
2060
2060
2060
2060
2059
2059
2059
2059
2059
2058
2059
2059
2059
2058
2058
2057
2058
2060
2061
2065
2070
2078
2086
2089
2086
2076
2063
2052
2048
2048
2053
2057
2059
2060
2060
2059
2059
2059
2059
2059
2059
2060
2059
2058
2057
2056
2057
2058
2060
2061
2060
2058
2057
2057
2057
2059
2059
2059
2059
2059
2059
2060
2060
2060
2061
2061
2061
2061
2062
2062
2063
2063
2065
2065
2064
2062
2060
2060
2061
2064
2066
2066
2064
2061
2059
2056
2057
2057
2056
2056
2056
2056
2056
2056
2055
2055
2054
2054
2054
2053
2054
2054
2053
2054
2054
2053
2052
2050
2050
2051
2054
2057
2058
2056
2054
2052
2051
2052
2053
2054
2054
2053
2053
2052
2052
2053
2053
2054
2053
2052
2052
2052
2052
2052
2052
2053
2051
2051
2049
2049
2051
2053
2055
2055
2054
2051
2050
2049
2048
2050
2050
2050
2051
2051
2051
2051
2051
2051
2051
2050
2050
2050
2051
2052
2051
2051
2051
2052
2052
2052
2052
2052
2053
2056
2058
2058
2056
2054
2052
2051
2051
2053
2052
2052
2052
2052
2052
2052
2051
2052
2052
2052
2052
2051
2051
2051
2051
2053
2057
2064
2074
2081
2082
2076
2065
2053
2046
2044
2046
2050
2052
2052
2051
2049
2051
2052
2053
2054
2054
2053
2053
2053
2053
2053
2053
2053
2053
2053
2051
2053
2054
2054
2052
2050
2049
2052
2056
2059
2060
2059
2055
2054
2052
2055
2056
2058
2057
2057
2057
2058
2058
2059
2059
2059
2059
2059
2058
2058
2057
2056
2057
2058
2058
2056
2055
2053
2054
2057
2059
2059
2056
2052
2049
2048
2051
2052
2053
2051
2052
2051
2051
2051
2050
2050
2050
2050
2051
2052
2052
2051
2051
2051
2050
2050
2049
2050
2049
2051
2053
2054
2056
2055
2054
2052
2051
2052
2052
2052
2050
2050
2050
2050
2052
2052
2052
2052
2051
2051
2050
2050
2050
2050
2050
2051
2052
2050
2048
2048
2048
2051
2055
2057
2056
2054
2050
2048
2048
2049
2049
2050
2051
2051
2052
2052
2052
2052
2051
2051
2051
2051
2052
2052
2053
2053
2054
2054
2054
2051
2049
2049
2052
2055
2058
2055
2051
2048
2048
2049
2055
2056
2055
2052
2049
2048
2049
2049
2050
2050
2052
2055
2060
2068
2076
2081
2079
2073
2060
2048
2039
2037
2040
2046
2051
2055
2054
2052
2049
2048
2048
2050
2050
2051
2050
2049
2050
2050
2050
2050
2049
2049
2051
2052
2053
2052
2050
2049
2049
2051
2052
2051
2049
2048
2049
2053
2057
2060
2059
2057
2054
2053
2053
2055
2055
2056
2056
2056
2056
2056
2056
2056
2055
2055
2054
2054
2054
2053
2053
2053
2051
2050
2048
2047
2047
2048
2052
2053
2054
2052
2049
2048
2047
2048
2047
2046
2047
2046
2048
2048
2048
2047
2048
2047
2048
2048
2048
2048
2048
2047
2047
2048
2048
2048
2047
2045
2045
2047
2049
2052
2053
2051
2048
2047
2044
2046
2047
2047
2047
2047
2047
2047
2047
2047
2047
2046
2046
2047
2046
2046
2046
2045
2046
2046
2047
2046
2044
2043
2043
2046
2048
2048
2048
2047
2045
2045
2047
2048
2048
2047
2046
2046
2046
2046
2048
2047
2046
2046
2046
2046
2046
2046
2045
2045
2045
2045
2044
2043
2043
2043
2045
2048
2049
2050
2053
2059
2067
2074
2075
2068
2055
2043
2035
2033
2036
2041
2044
2045
2045
2045
2045
2045
2045
2044
2044
2044
2043
2043
2042
2043
2043
2045
2047
2048
2048
2046
2045
2044
2044
2045
2045
2046
2046
2047
2047
2047
2047
2048
2048
2048
2048
2048
2048
2048
2049
2050
2050
2051
2051
2050
2049
2049
2050
2052
2052
2051
2049
2047
2045
2044
2044
2044
2043
2042
2042
2043
2042
2041
2040
2039
2039
2040
2041
2040
2039
2038
2036
2037
2036
2036
2035
2033
2034
2035
2038
2040
2040
2038
2036
2034
2033
2035
2035
2035
2034
2034
2034
2034
2035
2034
2034
2034
2033
2033
2033
2033
2033
2033
2034
2034
2034
2033
2032
2032
2032
2034
2035
2036
2034
2031
2029
2027
2028
2028
2029
2028
2028
2027
2026
2026
2025
2025
2025
2025
2025
2025
2025
2024
2024
2022
2024
2022
2021
2020
2019
2020
2022
2025
2027
2026
2024
2022
2021
2020
2023
2022
2022
2022
2021
2020
2020
2019
2020
2020
2020
2020
2020
2020
2020
2020
2019
2019
2019
2018
2018
2019
2024
2034
2045
2052
2053
2046
2032
2020
2012
2010
2013
2016
2019
2020
2019
2019
2019
2018
2019
2019
2020
2020
2020
2020
2020
2020
2021
2021
2022
2022
2022
2023
2024
2025
2026
2027
2026
2025
2026
2025
2027
2028
2029
2029
2029
2029
2030
2031
2032
2033
2034
2034
2034
2034
2035
2035
2035
2037
2037
2037
2036
2034
2033
2032
2032
2034
2036
2036
2035
2032
2030
2030
2030
2030
2030
2030
2031
2032
2032
2033
2033
2032
2031
2031
2031
2032
2033
2034
2035
2035
2034
2034
2033
2032
2032
2034
2036
2038
2039
2039
2037
2036
2036
2036
2036
2037
2038
2038
2038
2039
2039
2039
2039
2039
2039
2039
2039
2040
2040
2039
2040
2040
2039
2037
2036
2036
2038
2042
2045
2046
2044
2041
2039
2037
2039
2040
2040
2041
2041
2042
2042
2042
2042
2042
2043
2043
2044
2045
2046
2046
2044
2045
2044
2043
2042
2041
2042
2044
2046
2047
2046
2045
2043
2043
2042
2044
2044
2044
2044
2044
2044
2047
2052
2061
2070
2076
2075
2066
2053
2043
2036
2034
2037
2041
2042
2041
2040
2040
2041
2044
2047
2047
2045
2043
2041
2040
2040
2042
2042
2042
2041
2041
2041
2041
2042
2043
2043
2044
2043
2043
2043
2042
2042
2042
2043
2043
2043
2042
2042
2043
2046
2047
2047
2046
2043
2041
2039
2040
2040
2040
2040
2040
2040
2040
2039
2039
2038
2037
2037
2037
2037
2036
2035
2034
2034
2033
2034
2035
2034
2034
2033
2034
2035
2037
2037
2037
2036
2035
2035
2035
2036
2035
2035
2034
2033
2033
2034
2035
2036
2035
2034
2033
2035
2038
2041
2042
2041
2039
2036
2035
2036
2037
2039
2040
2040
2039
2039
2038
2038
2038
2040
2040
2040
2040
2039
2039
2039
2040
2040
2040
2040
2039
2039
2039
2039
2040
2041
2042
2042
2042
2042
2041
2041
2041
2041
2041
2040
2040
2040
2040
2041
2042
2042
2041
2041
2042
2041
2040
2039
2039
2041
2044
2048
2056
2066
2077
2084
2084
2076
2062
2048
2039
2035
2037
2041
2046
2048
2048
2048
2047
2045
2044
2044
2043
2041
2041
2041
2041
2042
2042
2042
2042
2043
2044
2047
2049
2053
2057
2060
2061
2061
2059
2055
2051
2048
2047
2046
2047
2046
2044
2041
2037
2035
2033
2034
2034
2034
2034
2034
2034
2032
2031
2031
2030
2031
2031
2031
2031
2030
2028
2023
2023
2023
2029
2038
2046
2055
2058
2058
2055
2050
2048
2046
2046
2045
2048
2047
2047
2045
2043
2040
2036
2033
2030
2028
2028
2028
2028
2027
2026
2023
2020
2018
2017
2017
2017
2018
2020
2024
2030
2035
2039
2041
2042
2043
2045
2048
2052
2055
2058
2060
2064
2066
2069
2071
2073
2075
2076
2078
2079
2080
2081
2082
2085
2087
2089
2090
2092
2095
2100
2106
2110
2112
2111
2108
2105
2103
2103
2102
2100
2100
2099
2099
2099
2098
2097
2097
2096
2097
2100
2108
2120
2132
2139
2138
2128
2114
2101
2092
2089
2091
2093
2095
2094
2092
2090
2086
2083
2082
2082
2083
2084
2084
2084
2083
2083
2082
2080
2078
2076
2074
2072
2071
2069
2068
2065
2066
2064
2062
2061
2059
2057
2057
2058
2059
2059
2058
2055
2053
2050
2050
2048
2047
2046
2044
2042
2039
2036
2032
2028
2025
2021
2017
2014
2010
2005
2001
1996
1991
1985
1978
1972
1965
1959
1955
1951
1945
1934
1920
1905
1894
1891
1893
1900
1906
1910
1911
1909
1907
1905
1905
1907
1909
1913
1918
1922
1925
1926
1928
1929
1929
1930
1930
1931
1933
1936
1939
1941
1942
1942
1941
1941
1942
1943
1943
1944
1945
1946
1948
1949
1950
1951
1952
1954
1955
1956
1958
1959
1961
1962
1964
1965
1965
1966
1966
1968
1970
1974
1976
1977
1977
1976
1975
1975
1976
1978
1979
1981
1984
1986
1987
1986
1986
1985
1985
1985
1986
1987
1988
1989
1988
1990
1989
1989
1990
1995
2005
2016
2025
2026
2017
2001
1985
1975
1972
1977
1982
1984
1985
1984
1984
1984
1985
1986
1988
1989
1991
1992
1993
1993
1994
1993
1994
1993
1992
1991
1991
1992
1994
1998
2001
2002
2001
1999
1997
1997
1999
2002
2005
2008
2010
2011
2012
2012
2012
2012
2013
2015
2017
2018
2020
2021
2021
2021
2022
2021
2021
2020
2019
2020
2022
2024
2025
2025
2023
2022
2021
2020
2022
2023
2026
2027
2027
2026
2025
2023
2022
2022
2022
2022
2022
2022
2022
2023
2024
2025
2027
2027
2026
2025
2024
2025
2026
2029
2029
2030
2029
2029
2029
2029
2029
2029
2029
2029
2029
2030
2030
2030
2030
2031
2031
2031
2030
2030
2030
2029
2030
2030
2030
2030
2029
2029
2031
2032
2033
2032
2031
2030
2030
2030
2031
2031
2031
2031
2030
2030
2030
2030
2030
2030
2031
2031
2031
2031
2031
2030
2031
2032
2032
2033
2033
2032
2032
2032
2033
2035
2036
2036
2035
2033
2032
2032
2032
2033
2032
2033
2033
2034
2034
2034
2033
2032
2031
2031
2032
2037
2046
2056
2066
2070
2063
2050
2035
2023
2019
2023
2030
2035
2037
2037
2036
2035
2035
2035
2035
2035
2035
2035
2035
2034
2034
2033
2032
2032
2032
2032
2032
2032
2033
2032
2034
2035
2034
2032
2030
2030
2032
2035
2038
2038
2037
2034
2032
2031
2033
2034
2034
2036
2037
2037
2038
2038
2038
2037
2038
2037
2037
2036
2035
2035
2034
2035
2034
2032
2029
2026
2027
2028
2030
2030
2028
2026
2025
2027
2029
2032
2030
2028
2024
2021
2019
2016
2014
2011
2012
2014
2016
2019
2021
2023
2023
2024
2025
2026
2026
2025
2024
2024
2026
2031
2034
2037
2036
2034
2033
2034
2036
2040
2041
2042
2043
2043
2043
2042
2041
2041
2040
2039
2039
2038
2037
2037
2036
2035
2034
2033
2032
2031
2031
2031
2032
2033
2032
2031
2028
2026
2025
2024
2024
2024
2024
2024
2024
2025
2027
2028
2028
2029
2029
2030
2030
2030
2030
2030
2031
2031
2032
2032
2032
2032
2032
2033
2034
2035
2037
2037
2038
2038
2039
2039
2039
2039
2038
2038
2037
2038
2039
2042
2047
2055
2066
2077
2082
2078
2066
2051
2041
2034
2035
2039
2043
2046
2048
2048
2049
2049
2048
2048
2049
2049
2051
2052
2053
2053
2054
2055
2056
2057
2059
2060
2060
2060
2060
2060
2060
2060
2060
2062
2062
2062
2062
2061
2061
2062
2064
2065
2066
2065
2065
2066
2067
2068
2068
2067
2066
2066
2065
2066
2066
2065
2064
2063
2061
2059
2057
2056
2055
2053
2052
2051
2048
2047
2044
2039
2034
2027
2020
2011
2004
2001
2002
2007
2013
2018
2019
2019
2016
2014
2012
2012
2014
2017
2019
2019
2016
2011
2007
2003
2001
2001
2001
2001
2000
2000
2000
2001
2003
2006
2008
2008
2008
2006
2005
2005
2006
2007
2007
2008
2008
2009
2010
2010
2009
2009
2010
2012
2013
2013
2013
2014
2013
2016
2017
2017
2016
2014
2014
2016
2020
2023
2024
2022
2020
2018
2017
2020
2021
2022
2022
2023
2024
2024
2025
2026
2027
2028
2029
2030
2031
2031
2031
2030
2031
2031
2031
2031
2030
2030
2031
2033
2035
2037
2037
2036
2034
2033
2032
2033
2033
2035
2038
2045
2055
2065
2072
2071
2061
2048
2036
2029
2028
2032
2037
2039
2041
2039
2039
2037
2035
2037
2040
2044
2046
2046
2044
2042
2040
2039
2042
2041
2043
2043
2043
2043
2042
2043
2043
2044
2045
2046
2046
2046
2046
2046
2046
2047
2048
2050
2050
2050
2050
2051
2053
2055
2057
2057
2056
2054
2053
2053
2053
2053
2052
2052
2051
2051
2051
2050
2050
2049
2048
2048
2047
2047
2047
2047
2048
2048
2048
2047
2047
2047
2048
2048
2049
2049
2049
2049
2048
2048
2048
2049
2049
2049
2049
2049
2049
2049
2049
2050
2051
2051
2051
2051
2051
2050
2051
2052
2051
2052
2051
2050
2049
2049
2051
2052
2053
2052
2051
2050
2049
2050
2049
2050
2049
2049
2049
2050
2050
2050
2050
2049
2049
2048
2048
2049
2049
2050
2051
2052
2051
2050
2049
2048
2048
2050
2052
2053
2053
2052
2051
2050
2050
2051
2051
2051
2052
2053
2053
2054
2054
2053
2053
2053
2052
2052
2052
2052
2052
2052
2052
2053
2053
2052
2052
2053
2054
2056
2057
2056
2055
2054
2055
2059
2068
2079
2088
2090
2085
2073
2060
2050
2048
2048
2052
2056
2058
2058
2058
2058
2056
2059
2059
2060
2058
2057
2056
2057
2060
2062
2064
2062
2060
2058
2056
2059
2060
2060
2061
2061
2061
2061
2062
2062
2062
2063
2063
2064
2064
2065
2065
2065
2066
2066
2066
2066
2066
2067
2068
2070
2072
2072
2070
2068
2065
2064
2065
2065
2065
2064
2063
2062
2061
2060
2060
2059
2059
2060
2060
2060
2060
2059
2059
2058
2060
2058
2058
2056
2055
2057
2059
2062
2063
2062
2060
2058
2058
2057
2059
2059
2060
2060
2060
2060
2060
2060
2061
2061
2062
2063
2063
2062
2062
2062
2062
2062
2063
2063
2062
2061
2061
2062
2063
2064
2064
2063
2063
2062
2062
2062
2063
2063
2062
2061
2061
2061
2061
2061
2062
2061
2061
2061
2061
2061
2061
2061
2062
2062
2061
2060
2060
2060
2061
2062
2063
2063
2061
2060
2060
2059
2061
2061
2061
2061
2061
2060
2061
2061
2062
2061
2060
2060
2061
2063
2065
2065
2064
2062
2061
2060
2060
2060
2059
2059
2059
2061
2063
2063
2063
2061
2060
2060
2059
2059
2058
2058
2059
2063
2069
2079
2088
2094
2093
2083
2070
2057
2050
2049
2052
2058
2060
2059
2058
2057
2058
2060
2062
2063
2062
2060
2059
2059
2059
2061
2060
2060
2060
2061
2061
2061
2061
2061
2061
2061
2061
2061
2062
2062
2062
2063
2063
2063
2063
2062
2062
2062
2064
2067
2069
2070
2070
2069
2067
2066
2066
2067
2067
2067
2068
2068
2067
2066
2065
2064
2064
2063
2063
2063
2062
2062
2060
2062
2062
2061
2060
2059
2058
2059
2061
2062
2062
2062
2060
2059
2057
2059
2060
2060
2060
2060
2060
2060
2060
2060
2060
2060
2060
2061
2061
2061
2061
2061
2061
2061
2062
2061
2059
2058
2059
2062
2065
2067
2066
2063
2060
2059
2059
2061
2063
2062
2062
2062
2062
2061
2061
2061
2061
2061
2062
2062
2062
2062
2061
2060
2062
2060
2060
2059
2058
2059
2061
2064
2065
2064
2062
2060
2059
2058
2061
2061
2062
2062
2061
2061
2061
2061
2062
2062
2063
2063
2063
2062
2062
2062
2061
2061
2061
2060
2059
2059
2058
2059
2060
2061
2061
2060
2059
2059
2060
2060
2060
2059
2058
2058
2060
2065
2073
2083
2091
2093
2087
2075
2060
2049
2046
2047
2052
2056
2058
2059
2058
2058
2059
2060
2060
2060
2059
2058
2058
2057
2059
2059
2059
2059
2058
2058
2059
2059
2060
2061
2061
2061
2060
2060
2060
2060
2060
2062
2062
2063
2063
2062
2061
2061
2063
2065
2067
2068
2067
2066
2065
2066
2066
2067
2066
2065
2064
2063
2063
2063
2062
2061
2059
2058
2057
2056
2056
2056
2057
2056
2055
2054
2053
2053
2054
2055
2056
2056
2055
2053
2053
2053
2053
2053
2053
2052
2052
2053
2053
2054
2055
2055
2054
2054
2054
2054
2054
2054
2055
2055
2055
2055
2054
2053
2053
2053
2055
2057
2058
2058
2056
2055
2054
2053
2054
2055
2055
2054
2053
2052
2052
2053
2054
2055
2056
2055
2055
2054
2055
2055
2054
2055
2055
2054
2051
2050
2049
2051
2055
2059
2060
2058
2054
2050
2048
2050
2053
2054
2054
2054
2053
2053
2052
2052
2051
2051
2050
2050
2049
2049
2048
2048
2048
2049
2048
2047
2044
2044
2046
2050
2053
2053
2050
2047
2044
2046
2052
2064
2073
2079
2077
2067
2052
2041
2033
2032
2036
2041
2043
2044
2043
2043
2042
2042
2041
2041
2040
2039
2039
2040
2043
2045
2046
2044
2042
2039
2038
2038
2039
2039
2039
2039
2039
2040
2041
2041
2041
2041
2041
2041
2041
2041
2041
2040
2042
2042
2043
2042
2042
2041
2042
2045
2047
2048
2047
2044
2041
2038
2038
2038
2037
2038
2036
2034
2033
2031
2031
2031
2033
2033
2032
2030
2029
2028
2028
2029
2029
2028
2027
2025
2024
2025
2028
2029
2032
2031
2029
2027
2025
2024
2025
2025
2026
2026
2026
2027
2026
2024
2024
2024
2025
2025
2026
2025
2025
2024
2024
2026
2026
2024
2022
2022
2021
2023
2024
2025
2025
2023
2022
2022
2021
2022
2022
2022
2022
2022
2022
2022
2022
2022
2022
2022
2021
2021
2020
2020
2021
2021
2022
2022
2022
2021
2019
2017
2017
2019
2023
2025
2026
2024
2021
2020
2021
2022
2023
2023
2023
2023
2023
2023
2023
2023
2023
2022
2021
2021
2021
2021
2021
2021
2022
2021
2021
2019
2017
2017
2019
2022
2024
2024
2023
2021
2021
2026
2036
2047
2054
2053
2047
2034
2021
2013
2010
2013
2017
2020
2021
2021
2021
2022
2021
2022
2022
2022
2020
2019
2020
2022
2027
2030
2030
2028
2024
2022
2020
2021
2023
2025
2025
2026
2026
2026
2026
2026
2027
2027
2028
2029
2030
2030
2030
2030
2032
2033
2034
2033
2033
2033
2034
2034
2036
2037
2038
2039
2040
2039
2038
2034
2032
2030
2030
2030
2030
2030
2030
2032
2032
2032
2032
2032
2033
2033
2033
2032
2033
2032
2033
2032
2032
2032
2035
2038
2041
2041
2039
2036
2034
2034
2037
2037
2039
2039
2039
2039
2039
2039
2040
2040
2041
2042
2042
2042
2042
2041
2042
2042
2043
2043
2042
2042
2041
2043
2045
2047
2048
2047
2046
2044
2043
2042
2042
2043
2043
2044
2044
2044
2044
2045
2045
2046
2046
2046
2047
2047
2047
2047
2048
2048
2048
2048
2048
2048
2048
2050
2050
2050
2050
2049
2049
2049
2051
2052
2052
2052
2053
2053
2053
2053
2053
2054
2054
2053
2053
2052
2052
2051
2051
2052
2051
2051
2050
2049
2050
2051
2053
2054
2054
2053
2051
2050
2050
2052
2056
2064
2074
2082
2085
2081
2070
2056
2047
2042
2043
2047
2050
2052
2053
2053
2054
2054
2054
2053
2052
2052
2054
2055
2057
2056
2055
2054
2053
2053
