1970
1970
1972
1975
1978
1980
1979
1979
1978
1978
1979
1979
1979
1979
1978
1978
1978
1979
1980
1981
1981
1980
1979
1978
1977
1978
1980
1981
1982
1982
1982
1981
1980
1979
1979
1980
1981
1983
1984
1985
1986
1986
1986
1985
1984
1983
1982
1982
1983
1984
1986
1987
1986
1986
1985
1985
1986
1987
1987
1986
1985
1984
1983
1982
1982
1982
1982
1983
1984
1984
1984
1983
1982
1980
1979
1978
1978
1979
1981
1981
1981
1980
1979
1980
1986
1994
2004
2011
2012
2005
1990
1970
1947
1929
1919
1920
1932
1949
1967
1979
1986
1988
1988
1987
1986
1985
1984
1983
1983
1984
1985
1986
1987
1987
1986
1985
1985
1985
1986
1988
1989
1989
1988
1986
1985
1984
1985
1987
1988
1988
1989
1989
1990
1990
1990
1990
1988
1987
1986
1986
1986
1986
1984
1983
1982
1983
1984
1986
1987
1988
1989
1989
1990
1989
1989
1988
1987
1987
1987
1988
1989
1989
1989
1988
1987
1986
1985
1985
1985
1985
1985
1985
1985
1985
1985
1985
1986
1987
1987
1987
1987
1987
1987
1987
1986
1986
1985
1985
1986
1986
1987
1987
1987
1986
1986
1986
1986
1985
1985
1985
1985
1985
1986
1986
1986
1987
1988
1990
1991
1991
1990
1989
1987
1985
1984
1984
1985
1987
1989
1990
1990
1988
1986
1984
1983
1983
1984
1985
1986
1986
1985
1983
1982
1983
1988
1997
2007
2014
2015
2009
1996
1977
1955
1934
1921
1920
1930
1948
1969
1984
1992
1993
1990
1987
1985
1985
1986
1988
1989
1990
1991
1992
1991
1990
1990
1990
1990
1990
1990
1990
1990
1990
1989
1989
1988
1988
1988
1989
1990
1991
1992
1994
1995
1995
1993
1992
1990
1990
1991
1991
1991
1992
1992
1993
1993
1991
1988
1985
1984
1985
1989
1993
1997
1999
2000
1999
1999
1999
1999
1998
1998
1997
1996
1997
1998
2000
2001
2001
2001
2001
2002
2002
2001
1999
1997
1998
2000
2003
2007
2008
2008
2007
2004
2003
2004
2007
2010
2012
2012
2010
2009
2009
2009
2009
2008
2007
2007
2009
2012
2015
2015
2013
2010
2007
2006
2007
2010
2011
2010
2008
2006
2007
2010
2014
2016
2016
2015
2012
2011
2011
2010
2009
2006
2004
2004
2005
2006
2007
2007
2006
2006
2006
2007
2007
2006
2003
1999
1996
1995
1998
2006
2018
2029
2037
2037
2029
2013
1994
1973
1956
1947
1947
1956
1971
1986
1999
2008
2012
2012
2010
2007
2005
2003
2002
2002
2004
2006
2007
2007
2006
2005
2005
2006
2008
2009
2010
2009
2007
2006
2006
2005
2003
2001
2000
2001
2003
2005
2006
2005
2004
2003
2005
2007
2009
2008
2006
2004
2001
1999
1997
1995
1994
1995
1997
1999
2000
2001
2001
2002
2003
2004
2004
2002
2001
2000
2000
2001
2002
2001
2000
2000
2001
2003
2003
2002
2000
1998
1997
1998
2000
2002
2002
2002
2001
2001
2001
2001
2000
1999
1999
2000
2001
2002
2003
2002
2002
2001
2001
2001
2001
2000
1999
1999
1999
1999
2000
2002
2003
2004
2003
2002
2002
2002
2002
2002
2002
2001
2000
2001
2003
2005
2006
2005
2004
2003
2002
2001
2001
2001
2001
2002
2004
2005
2005
2003
2001
2000
2001
2002
2004
2006
2006
2005
2003
2002
2001
2001
2001
2003
2009
2017
2027
2035
2039
2037
2029
2014
1996
1978
1963
1958
1962
1975
1991
2004
2012
2015
2016
2015
2015
2015
2016
2017
2018
2020
2021
2022
2021
2019
2017
2016
2016
2018
2020
2021
2022
2022
2021
2020
2019
2018
2019
2019
2019
2019
2018
2017
2017
2019
2022
2025
2026
2024
2021
2017
2016
2016
2017
2017
2017
2016
2015
2014
2014
2015
2017
2019
2020
2022
2022
2021
2020
2021
2022
2023
2022
2021
2018
2017
2017
2018
2020
2021
2022
2023
2022
2021
2018
2016
2014
2014
2016
2017
2018
2018
2018
2017
2016
2016
2016
2018
2021
2022
2022
2021
2019
2017
2015
2014
2013
2013
2014
2014
2014
2014
2013
2011
2011
2013
2016
2019
2020
2018
2015
2012
2011
2013
2015
2017
2017
2016
2014
2013
2011
2010
2010
2010
2011
2010
2009
2007
2005
2005
2006
2008
2008
2008
2007
2007
2006
2005
2003
2001
2002
2007
2016
2025
2031
2032
2027
2015
1998
1978
1959
1947
1945
1953
1968
1984
1997
2005
2008
2008
2007
2005
2003
2001
2000
2000
2001
2002
2003
2004
2003
2003
2003
2004
2006
2007
2007
2006
2004
2002
2002
2004
2005
2005
2004
2002
2001
2002
2004
2006
2007
2007
2005
2004
2002
2000
1999
1998
1997
1996
1995
1995
1996
1997
1996
1996
1995
1996
1996
1997
1998
1999
2000
2001
2002
2002
2000
1999
1997
1996
1994
1993
1992
1992
1994
1996
1998
1998
1996
1994
1992
1992
1993
1996
1999
2001
2001
1999
1996
1995
1994
1994
1995
1995
1996
1997
1998
1998
1998
1996
1995
1994
1994
1993
1994
1994
1995
1996
1996
1995
1993
1992
1992
1991
1991
1990
1990
1990
1993
1995
1997
1996
1994
1992
1991
1992
1994
1995
1996
1994
1991
1989
1989
1989
1990
1990
1990
1989
1989
1990
1991
1992
1992
1992
1992
1991
1990
1989
1990
1994
2000
2008
2015
2018
2014
2003
1985
1965
1946
1933
1930
1937
1952
1969
1983
1991
1994
1994
1993
1992
1992
1991
1990
1990
1992
1994
1997
1997
1996
1993
1990
1989
1990
1993
1996
1998
1999
1999
1997
1996
1995
1994
1994
1995
1996
1996
1996
1995
1994
1992
1990
1990
1990
1992
1993
1995
1995
1995
1993
1991
1990
1990
1990
1991
1992
1993
1993
1993
1994
1994
1995
1994
1992
1991
1990
1990
1991
1993
1994
1994
1994
1992
1991
1991
1992
1993
1993
1992
1992
1992
1993
1994
1994
1994
1994
1994
1995
1994
1992
1990
1988
1988
1991
1994
1997
1999
1999
1998
1996
1995
1994
1994
1994
1994
1993
1993
1993
1993
1993
1993
1992
1991
1992
1992
1993
1993
1993
1993
1994
1995
1996
1995
1993
1991
1990
1991
1993
1997
1999
2001
2001
1999
1997
1996
1995
1994
1992
1990
1987
1987
1989
1994
1999
2003
2003
2001
1998
1996
1996
1996
1995
1995
1993
1992
1995
2000
2008
2017
2025
2028
2023
2009
1988
1966
1946
1936
1936
1945
1961
1978
1993
2002
2006
2007
2005
2004
2003
2003
2003
2003
2003
2003
2003
2004
2005
2004
2002
1999
1997
1996
1997
2000
2004
2006
2005
2004
2002
2002
2004
2006
2006
2006
2004
2004
2004
2006
2007
2007
2005
2003
2001
1999
1999
2000
2000
2000
1999
1999
1999
2000
2001
2001
2001
2000
2000
2000
2000
2001
2002
2002
2001
2000
1999
1999
1999
2000
2001
2001
2000
1999
1998
1997
1997
1998
1998
1999
1999
1998
1998
1998
1999
2000
1999
1999
1998
1997
1996
1995
1995
1995
1997
1999
2002
2004
2004
2004
2002
2001
2000
1999
1999
1999
1999
1998
1995
1993
1992
1994
1998
2003
2007
2008
2006
2004
2002
1999
1997
1997
1998
2001
2004
2006
2007
2006
2004
2003
2002
2001
2001
2003
2004
2005
2004
2002
2000
2000
2000
2002
2005
2007
2007
2005
2003
2000
1998
1997
1998
2000
2003
2007
2010
2012
2012
2010
2007
2005
2008
2014
2024
2032
2035
2032
2020
2003
1982
1963
1951
1948
1954
1967
1982
1996
2005
2008
2007
2005
2003
2002
2004
2006
2008
2010
2010
2010
2009
2007
2005
2003
2003
2003
2005
2006
2007
2008
2008
2009
2010
2011
2010
2009
2007
2005
2005
2006
2008
2010
2010
2009
2007
2005
2004
2003
2003
2002
2001
2000
1999
2000
2001
2001
2001
2001
2001
2002
2003
2004
2004
2004
2003
2002
2001
2001
2002
2002
2003
2002
2002
2001
2001
2001
2002
2003
2003
2003
2001
2000
2000
2000
2001
2001
2000
2000
2000
2001
2002
2002
2001
2000
1999
1998
1998
1999
2001
2003
2004
2004
2002
2001
2001
2001
2001
2001
1999
1998
1997
1997
1998
1998
1999
1999
1998
1997
1995
1994
1994
1995
1996
1997
1998
1998
1999
1998
1998
1997
1997
1998
1999
1999
1998
1997
1995
1994
1994
1993
1993
1992
1992
1991
1992
1995
1997
1999
1998
1995
1992
1989
1987
1986
1986
1985
1986
1991
2000
2010
2018
2021
2016
2004
1986
1965
1946
1934
1930
1937
1951
1968
1982
1990
1994
1995
1993
1992
1990
1989
1990
1991
1992
1994
1995
1995
1995
1994
1993
1993
1993
1993
1993
1993
1993
1992
1992
1991
1991
1991
1990
1989
1989
1989
1991
1993
1995
1995
1994
1992
1992
1991
1991
1990
1989
1988
1987
1986
1984
1983
1983
1983
1984
1985
1986
1986
1985
1985
1985
1985
1985
1986
1986
1986
1984
1983
1981
1981
1981
1981
1981
1980
1980
1980
1982
1983
1984
1984
1983
1982
1982
1982
1983
1984
1984
1983
1982
1981
1979
1979
1979
1980
1982
1983
1982
1981
1979
1978
1979
1981
1983
1984
1984
1984
1983
1981
1978
1974
1971
1970
1972
1975
1979
1982
1983
1982
1980
1979
1979
1978
1977
1977
1976
1976
1976
1977
1976
1975
1975
1975
1975
1976
1976
1976
1976
1976
1976
1977
1976
1976
1975
1975
1974
1975
1975
1976
1977
1976
1975
1973
1973
1974
1975
1976
1978
1982
1988
1996
2002
2003
1997
1985
1966
1947
1930
1920
1921
1930
1945
1961
1973
1979
1981
1980
1979
1978
1978
1978
1979
1981
1983
1986
1988
1987
1985
1983
1982
1982
1984
1984
1984
1983
1983
1985
1987
1989
1989
1987
1985
1984
1986
1988
1990
1990
1989
1988
1988
1989
1990
1990
1988
1986
1984
1984
1986
1987
1988
1987
1985
1984
1983
1983
1984
1986
1988
1989
1989
1988
1986
1985
1986
1987
1989
1991
1991
1990
1988
1987
1986
1986
1986
1986
1986
1985
1983
1982
1982
1985
1987
1989
1990
1989
1988
1988
1988
1987
1987
1987
1988
1989
1990
1990
1989
1988
1988
1989
1990
1990
1989
1988
1986
1985
1985
1986
1988
1990
1990
1990
1989
1988
1987
1986
1987
1987
1987
1988
1987
1987
1986
1986
1986
1987
1989
1989
1990
1990
1989
1988
1986
1985
1984
1985
1987
1990
1991
1991
1990
1989
1988
1989
1989
1988
1987
1986
1985
1984
1984
1985
1986
1987
1987
1986
1984
1985
1989
1997
2006
2014
2016
2011
2000
1984
1966
1947
1933
1928
1932
1946
1963
1979
1989
1994
1995
1993
1992
1991
1990
1990
1990
1990
1990
1989
1989
1989
1990
1990
1991
1991
1992
1992
1993
1993
1993
1991
1990
1989
1989
1989
1988
1987
1987
1988
1989
1991
1992
1992
1991
1990
1989
1989
1989
1990
1991
1992
1991
1990
1987
1985
1984
1983
1984
1986
1989
1991
1992
1993
1992
1990
1987
1985
1983
1983
1984
1985
1986
1987
1988
1987
1986
1984
1983
1983
1983
1984
1985
1986
1986
1985
1985
1985
1986
1988
1990
1990
1989
1988
1987
1987
1988
1989
1990
1992
1994
1995
1996
1994
1991
1987
1985
1985
1988
1991
1993
1993
1992
1989
1988
1987
1989
1990
1992
1992
1992
1992
1992
1992
1992
1992
1993
1993
1994
1994
1994
1994
1994
1996
1997
1998
1998
1997
1996
1995
1996
1996
1996
1997
1997
1997
1996
1996
1996
1997
1997
1997
1996
1995
1995
1995
1996
1996
1996
1996
1995
1994
1992
1992
1996
2004
2015
2025
2030
2029
2020
2004
1983
1962
1946
1939
1946
1962
1982
1999
2009
2011
2008
2004
2002
2002
2003
2004
2005
2006
2007
2008
2009
2011
2013
2016
2018
2018
2017
2016
2014
2013
2013
2013
2012
2011
2009
2009
2009
2011
2013
2014
2016
2016
2015
2013
2012
2013
2014
2016
2018
2019
2019
2018
2016
2014
2011
2009
2009
2010
2013
2015
2017
2017
2017
2016
2015
2016
2018
2020
2021
2021
2020
2017
2015
2013
2012
2013
2014
2015
2016
2016
2016
2015
2014
2014
2014
2015
2016
2017
2019
2019
2019
2018
2017
2015
2014
2014
2014
2015
2016
2016
2016
2016
2016
2016
2016
2016
2015
2016
2017
2018
2020
2020
2018
2015
2011
2009
2008
2009
2010
2010
2011
2010
2010
2009
2009
2010
2011
2012
2013
2014
2013
2012
2010
2008
2007
2006
2008
2010
2012
2014
2014
2013
2012
2010
2009
2010
2011
2012
2012
2011
2009
2007
2005
2004
2004
2007
2014
2022
2032
2038
2039
2033
2019
2000
1980
1964
1954
1953
1961
1973
1987
1998
2006
2009
2011
2011
2010
2010
2010
2010
2010
2010
2009
2009
2009
2010
2010
2010
2009
2009
2008
2008
2009
2009
2010
2011
2012
2012
2011
2011
2010
2011
2011
2013
2014
2015
2015
2015
2015
2015
2014
2012
2011
2010
2009
2009
2010
2011
2012
2012
2012
2011
2010
2009
2010
2010
2011
2012
2012
2011
2010
2009
2008
2007
2006
2005
2005
2005
2007
2009
2010
2011
2010
2009
2008
2007
2007
2007
2007
2007
2007
2007
2006
2006
2006
2006
2006
2007
2007
2007
2007
2006
2006
2006
2006
2006
2007
2008
2008
2008
2007
2006
2005
2003
2002
2001
2000
2000
2001
2002
2003
2004
2004
2003
2002
2001
2001
2001
2002
2003
2004
2005
2005
2003
2002
2000
1999
1999
1998
1998
1998
1999
1999
2000
2000
1999
1998
1996
1995
1995
1994
1994
1993
1993
1994
1995
1995
1994
1993
1995
2002
2012
2023
2029
2027
2016
1999
1979
1959
1943
1933
1933
1942
1958
1976
1989
1996
1997
1995
1993
1993
1994
1994
1993
1993
1993
1994
1996
1998
2000
2000
1999
1997
1996
1996
1996
1996
1994
1993
1992
1992
1995
1997
1999
2000
1999
1998
1998
1998
1999
1999
1998
1997
1996
1995
1995
1995
1995
1997
1998
1999
1999
1998
1996
1995
1995
1996
1997
1997
1996
1994
1992
1990
1988
1988
1990
1994
1997
1999
1999
1998
1995
1993
1992
1991
1990
1989
1989
1990
1992
1993
1993
1993
1992
1993
1994
1996
1998
1999
1999
1999
1998
1998
1997
1996
1996
1996
1998
2000
2001
2002
2003
2003
2003
2003
2003
2002
2002
2002
2003
2003
2004
2004
2004
2004
2003
2002
2002
2001
2002
2004
2008
2012
2014
2015
2014
2012
2010
2010
2009
2009
2009
2009
2008
2006
2004
2004
2005
2008
2011
2013
2013
2011
2008
2005
2004
2005
2006
2008
2008
2007
2005
2004
2007
2013
2023
2032
2038
2038
2030
2016
1998
1977
1959
1949
1950
1961
1979
1996
2008
2014
2014
2013
2011
2010
2010
2010
2010
2010
2011
2012
2014
2016
2017
2016
2015
2013
2013
2014
2015
2016
2015
2013
2011
2012
2014
2017
2019
2019
2017
2014
2012
2012
2014
2017
2019
2019
2019
2018
2017
2016
2014
2013
2011
2010
2009
2009
2009
2009
2008
2008
2009
2011
2013
2015
2015
2015
2014
2013
2012
2011
2009
2006
2004
2003
2004
2006
2009
2011
2012
2012
2011
2010
2008
2007
2007
2007
2008
2010
2011
2012
2012
2010
2009
2008
2007
2007
2008
2009
2009
2007
2005
2004
2003
2003
2004
2006
2008
2009
2010
2010
2010
2010
2010
2010
2009
2009
2009
2009
2007
2004
2000
1997
1996
1998
2002
2006
2010
2014
2016
2018
2017
2015
2011
2007
2004
2003
2003
2003
2002
2000
1999
2000
2003
2007
2010
2012
2011
2010
2008
2006
2005
2004
2004
2004
2005
2005
2005
2004
2005
2009
2017
2026
2034
2036
2031
2018
1999
1978
1959
1947
1946
1955
1971
1988
2000
2006
2007
2006
2006
2008
2009
2009
2008
2007
2007
2008
2008
2007
2005
2004
2005
2008
2011
2013
2011
2007
2002
2000
1999
2000
2002
2004
2004
2002
2001
2001
2002
2005
2009
2012
2014
2015
2015
2013
2010
2006
2001
1998
1999
2002
2007
2011
2013
2012
2009
2008
2010
2013
2015
2014
2011
2007
2004
2004
2006
2008
2009
2009
2006
2003
2000
2000
2004
2010
2015
2017
2016
2013
2010
2009
2011
2015
2019
2023
2023
2020
2015
2011
2011
2015
2021
2026
2026
2023
2020
2018
2019
2021
2023
2024
2024
2025
2026
2027
2026
2024
2022
2020
2020
2022
2023
2023
2022
2022
2023
2026
2031
2034
2035
2034
2032
2031
2029
2027
2025
2025
2027
2030
2034
2037
2038
2037
2035
2033
2033
2035
2038
2040
2040
2039
2036
2034
2033
2032
2030
2028
2026
2026
2030
2036
2043
2048
2050
2048
2041
2033
2026
2023
2025
2033
2045
2056
2064
2067
2062
2049
2034
2017
2005
2000
2002
2011
2023
2036
2048
2054
2059
2061
2061
2060
2060
2062
2063
2062
2062
2063
2071
2083
2097
2106
2107
2101
2095
2093
2096
2100
2103
2103
2105
2112
2122
2132
2139
2143
2143
2141
2140
2141
2146
2154
2167
2180
2188
2189
2181
2169
2158
2154
2159
2173
2188
2200
2205
2204
2201
2201
2209
2222
2236
2244
2242
2232
2219
2213
2217
2229
2242
2248
2246
2240
2236
2237
2242
2247
2249
2248
2247
2246
2246
2248
2252
2259
2266
2268
2264
2256
2248
2243
2245
2250
2254
2257
2259
2263
2267
2271
2272
2270
2268
2272
2281
2289
2291
2282
2266
2249
2240
2242
2251
2257
2253
2242
2229
2224
2230
2243
2256
2261
2258
2250
2242
2235
2229
2226
2226
2232
2242
2251
2253
2248
2239
2232
2229
2228
2226
2222
2222
2227
2238
2250
2255
2252
2243
2235
2233
2239
2247
2253
2253
2249
2242
2236
2234
2235
2238
2243
2251
2260
2265
2263
2253
2238
2221
2207
2195
2184
2175
2169
2171
2179
2190
2200
2203
2201
2197
2195
2195
2195
2194
2190
2184
2177
2172
2169
2168
2168
2166
2160
2150
2139
2128
2120
2115
2113
2111
2107
2103
2098
2094
2091
2087
2083
2078
2074
2072
2070
2068
2065
2059
2052
2048
2046
2044
2041
2036
2029
2022
2018
2016
2017
2018
2018
2015
2010
2003
1997
1991
1988
1988
1990
1990
1990
1988
1986
1986
1988
1990
1993
1995
1997
2000
2002
2003
2003
2002
2000
1999
1998
1997
1997
1997
1998
1999
2000
2000
1999
1998
1998
1999
1999
1998
1994
1987
1980
1976
1973
1972
1970
1967
1963
1956
1950
1944
1937
1930
1923
1916
1913
1912
1912
1911
1907
1901
1894
1888
1885
1883
1881
1880
1878
1878
1878
1878
1879
1879
1879
1878
1876
1874
1871
1869
1867
1866
1867
1867
1867
1865
1863
1860
1857
1855
1853
1851
1849
1848
1846
1844
1842
1840
1839
1841
1846
1853
1858
1860
1855
1846
1831
1811
1791
1774
1766
1770
1784
1803
1820
1831
1835
1836
1835
1834
1833
1832
1832
1831
1832
1832
1833
1835
1837
1838
1838
1836
1833
1829
1827
1829
1831
1834
1836
1836
1837
1837
1839
1840
1841
1841
1840
1841
1842
1844
1846
1847
1847
1847
1847
1848
1849
1850
1851
1852
1852
1851
1850
1849
1848
1849
1852
1855
1858
1859
1859
1859
1858
1858
1858
1859
1859
1860
1861
1863
1864
1865
1865
1864
1864
1865
1866
1866
1866
1865
1865
1865
1866
1868
1871
1873
1873
1874
1874
1877
1880
1884
1887
1888
1887
1885
1884
1885
1885
1884
1882
1881
1881
1884
1889
1893
1896
1897
1898
1898
1899
1900
1901
1902
1901
1900
1899
1899
1901
1903
1905
1905
1904
1903
1905
1909
1914
1918
1920
1920
1917
1914
1912
1913
1916
1922
1927
1929
1928
1924
1920
1917
1918
1920
1922
1923
1923
1921
1921
1922
1923
1926
1928
1931
1932
1933
1932
1933
1936
1942
1948
1953
1952
1943
1928
1908
1888
1873
1869
1877
1895
1915
1932
1941
1943
1942
1941
1940
1940
1941
1942
1943
1944
1945
1947
1948
1950
1951
1952
1953
1953
1953
1954
1954
1954
1955
1956
1958
1960
1962
1964
1965
1966
1967
1967
1966
1966
1965
1965
1966
1967
1968
1969
1969
1968
1967
1966
1966
1966
1967
1967
1967
1968
1968
1969
1970
1971
1971
1972
1972
1972
1972
1971
1970
1969
1969
1969
1969
1970
1970
1971
1971
1972
1972
1973
1974
1975
1977
1977
1977
1976
1975
1974
1974
1975
1976
1977
1977
1978
1978
1978
1978
1977
1978
1979
1982
1985
1986
1984
1979
1974
1972
1972
1975
1978
1981
1982
1983
1983
1983
1982
1979
1976
1974
1975
1978
1981
1983
1982
1979
1975
1972
1972
1975
1978
1981
1983
1984
1985
1986
1986
1987
1987
1988
1990
1992
1993
1993
1993
1992
1992
1992
1993
1994
1995
1996
1997
1997
1997
1997
1996
1995
1994
1993
1993
1994
1995
1996
1996
1996
1995
1994
1993
1992
1992
1996
2002
2011
2019
2023
2020
2010
1993
1973
1954
1941
1936
1940
1952
1968
1982
1991
1996
1997
1996
1995
1994
1994
1994
1995
1996
1997
1997
1998
1998
1998
1999
1999
1999
1999
1999
1999
1999
1999
1999
1999
1999
1999
1998
1998
1998
1998
1999
1999
1999
1998
1999
1999
2000
2000
2000
1999
1998
1998
1998
1998
1997
1997
1996
1995
1995
1995
1995
1996
1997
1998
1999
1999
1999
1998
1998
1997
1997
1997
1998
1999
2000
2000
2000
1999
1999
1999
1998
1997
1997
1997
1997
1998
1999
2000
2000
1999
1999
2000
2000
2000
1999
1998
1998
1999
2000
2001
2001
2000
1999
1998
1998
1998
1998
1998
1998
1998
1998
1998
1998
1997
1997
1996
1996
1996
1996
1995
1995
1995
1996
1998
2001
2003
2003
2001
1996
1991
1988
1987
1988
1990
1992
1992
1992
1990
1990
1990
1991
1992
1993
1994
1994
1994
1993
1992
1991
1990
1989
1989
1990
1991
1992
1992
1993
1993
1991
1987
1983
1980
1978
1979
1981
1982
1982
1980
1977
1975
1975
1981
1990
2000
2009
2012
2007
1995
1977
1956
1936
1923
1920
1927
1942
1959
1972
1979
1980
1979
1978
1979
1981
1983
1984
1984
1984
1983
1983
1984
1986
1988
1988
1987
1985
1983
1983
1984
1986
1988
1989
1989
1989
1989
1987
1986
1984
1984
1984
1985
1985
1986
1987
1988
1989
1988
1985
1981
1977
1975
1974
1975
1975
1976
1976
1976
1977
1977
1977
1977
1977
1978
1979
1980
1981
1981
1979
1977
1974
1973
1973
1974
1976
1977
1978
1978
1976
1974
1972
1971
1971
1972
1973
1974
1974
1975
1975
1975
1974
1973
1972
1971
1972
1973
1975
1976
1975
1972
1970
1970
1970
1972
1973
1973
1972
1971
1969
1969
1968
1968
1969
1970
1971
1972
1973
1974
1975
1976
1975
1974
1972
1971
1971
1973
1977
1980
1983
1984
1983
1980
1977
1976
1977
1979
1981
1983
1983
1982
1981
1981
1982
1984
1987
1991
1994
1997
2000
2003
2005
2007
2007
2005
2003
2001
2000
2000
2001
2001
2000
2000
2001
2002
2003
2003
2002
2001
2001
2002
2003
2003
2002
2001
1999
1999
1999
2000
2001
2004
2008
2015
2021
2026
2027
2023
2013
1996
1976
1955
1941
1937
1944
1960
1978
1992
2000
2002
2000
1998
1997
1998
1999
2001
2002
2002
2003
2003
2003
2002
2001
1999
1998
1999
2000
2002
2004
2004
2004
2003
2002
2000
1999
1999
1999
2000
2001
2003
2003
2002
2000
1998
1996
1995
1995
1995
1995
1995
1995
1994
1993
1992
1990
1988
1988
1988
1989
1990
1990
1990
1989
1989
1988
1988
1987
1986
1986
1987
1988
1990
1990
1989
1986
1984
1982
1982
1983
1984
1984
1984
1983
1982
1982
1982
1983
1985
1987
1988
1988
1987
1986
1985
1984
1984
1983
1983
1983
1983
1984
1984
1985
1985
1984
1983
1983
1983
1984
1985
1984
1983
1982
1981
1981
1980
1981
1981
1982
1983
1984
1984
1984
1983
1982
1982
1982
1982
1982
1982
1982
1981
1981
1980
1980
1981
1981
1983
1984
1984
1984
1983
1982
1982
1982
1982
1983
1983
1983
1982
1982
1982
1982
1982
1983
1984
1984
1985
1985
1986
1986
1986
1986
1986
1985
1985
1985
1986
1987
1988
1989
1988
1987
1986
1985
1984
1983
1983
1983
1983
1983
1983
1982
1981
1980
1979
1981
1986
1994
2004
2011
2015
2012
2001
1984
1964
1944
1929
1924
1930
1944
1962
1977
1986
1989
1990
1990
1990
1991
1992
1992
1992
1991
1991
1990
1991
1992
1993
1995
1995
1995
1994
1992
1990
1990
1990
1991
1992
1993
1993
1993
1993
1992
1992
1991
1992
1992
1993
1995
1996
1996
1995
1993
1992
1991
1991
1991
1992
1992
1991
1990
1989
1988
1987
1988
1989
1990
1991
1992
1992
1991
1989
1988
1987
1987
1987
1987
1987
1987
1986
1985
1985
1985
1985
1986
1986
1986
1986
1986
1987
1987
1987
1986
1986
1985
1985
1985
1985
1986
1987
1987
1988
1988
1988
1987
1986
1985
1985
1986
1987
1988
1987
1986
1985
1984
1984
1984
1985
1985
1985
1985
1985
1986
1987
1988
1988
1988
1987
1986
1986
1985
1986
1986
1985
1985
1984
1984
1984
1984
1984
1984
1984
1985
1985
1986
1987
1988
1988
1988
1987
1986
1986
1986
1986
1985
1985
1985
1985
1986
1988
1989
1989
1988
1987
1985
1983
1982
1982
1982
1982
1983
1983
1983
1983
1983
1982
1981
1982
1985
1991
2000
2008
2013
2012
2004
1991
1974
1956
1941
1933
1934
1943
1957
1970
1980
1985
1987
1987
1987
1988
1989
1990
1989
1988
1987
1986
1986
1987
1988
1989
1990
1990
1989
1989
1988
1989
1990
1992
1993
1993
1993
1992
1991
1990
1990
1990
1991
1991
1992
1992
1992
1992
1992
1991
1990
1990
1990
1990
1990
1990
1990
1989
1989
1988
1987
1987
1988
1988
1989
1989
1989
1988
1987
1987
1986
1986
1987
1987
1988
1988
1988
1987
1986
1986
1986
1986
1986
1986
1987
1987
1987
1987
1987
1986
1986
1985
1986
1987
1988
1988
1989
1988
1988
1987
1987
1987
1988
1988
1989
1989
1989
1989
1988
1987
1987
1987
1987
1988
1989
1989
1989
1988
1988
1987
1987
1987
1987
1987
1987
1987
1987
1987
1986
1986
1986
1987
1987
1988
1988
1988
1987
1987
1987
1987
1987
1987
1987
1987
1988
1988
1988
1987
1986
1985
1985
1985
1985
1986
1987
1987
1987
1987
1986
1984
1984
1983
1983
1983
1984
1984
1984
1983
1982
1981
1980
1980
1984
1991
2000
2008
2013
2012
2002
1987
1967
1947
1931
1925
1929
1942
1959
1974
1984
1987
1988
1987
1986
1986
1987
1988
1989
1989
1988
1988
1988
1988
1989
1989
1990
1990
1990
1990
1990
1989
1989
1989
1989
1991
1991
1992
1992
1991
1991
1991
1991
1991
1991
1992
1992
1992
1992
1992
1991
1990
1990
1990
1990
1990
1990
1989
1989
1988
1988
1987
1987
1987
1987
1987
1988
1988
1987
1987
1986
1985
1985
1984
1984
1984
1984
1984
1984
1983
1983
1983
1983
1983
1984
1985
1985
1986
1986
1985
1984
1983
1982
1982
1983
1984
1985
1985
1986
1986
1986
1986
1985
1985
1985
1986
1986
1986
1986
1986
1985
1985
1984
1984
1985
1986
1986
1986
1986
1985
1984
1984
1984
1984
1985
1985
1986
1986
1985
1985
1984
1983
1983
1983
1984
1985
1985
1986
1985
1985
1984
1984
1983
1983
1984
1984
1985
1985
1985
1985
1985
1984
1984
1984
1984
1985
1986
1987
1987
1987
1987
1987
1987
1987
1987
1987
1987
1987
1987
1987
1987
1987
1987
1987
1986
1985
1985
1984
1984
1984
1983
1983
1983
1983
1984
1984
1984
1984
1983
1986
1993
2002
2011
2015
2013
2004
1987
1966
1946
1931
1925
1930
1944
1962
1978
1987
1991
1991
1989
1987
1987
1987
1988
1988
1989
1990
1991
1991
1991
1990
1990
1989
1989
1989
1989
1990
1991
1992
1992
1992
1991
1991
1991
1991
1991
1992
1993
1993
1993
1993
1993
1993
1993
1993
1994
1994
1994
1994
1993
1992
1991
1990
1989
1988
1988
1989
1991
1992
1992
1991
1990
1988
1987
1986
1986
1986
1987
1987
1987
1987
1986
1985
1985
1984
1985
1985
1986
1986
1986
1985
1985
1984
1984
1984
1985
1986
1987
1987
1987
1987
1986
1985
1984
1984
1985
1986
1987
1987
1987
1986
1985
1985
1985
1985
1985
1986
1986
1987
1986
1986
1986
1985
1985
1985
1985
1985
1985
1985
1985
1985
1985
1985
1985
1985
1986
1986
1986
1985
1985
1984
1984
1984
1984
1984
1984
1984
1985
1985
1985
1985
1985
1984
1984
1984
1985
1985
1985
1985
1985
1985
1985
1984
1984
1984
1984
1985
1986
1987
1987
1986
1985
1984
1983
1984
1984
1985
1986
1987
1987
1987
1987
1987
1987
1988
1988
1988
1988
1988
1988
1987
1987
1986
1986
1986
1986
1987
1987
1987
1986
1985
1984
1984
1984
1985
1985
1985
1984
1984
1986
1991
1998
2007
2014
2016
2011
1999
1982
1963
1946
1934
1931
1937
1950
1966
1979
1987
1991
1992
1992
1991
1990
1989
1988
1989
1989
1990
1991
1991
1991
1991
1990
1990
1990
1990
1990
1991
1993
1993
1994
1993
1993
1993
1992
1993
1993
1994
1994
1994
1994
1993
1993
1993
1993
1994
1993
1993
1994
1994
1994
1993
1992
1992
1991
1990
1991
1991
1991
1991
1990
1990
1991
1991
1991
1991
1990
1990
1990
1990
1990
1989
1988
1986
1985
1986
1987
1988
1989
1989
1988
1988
1987
1986
1987
1987
1988
1989
1989
1989
1989
1989
1989
1988
1988
1989
1989
1990
1990
1990
1990
1989
1988
1988
1988
1988
1988
1989
1989
1989
1989
1989
1988
1988
1988
1989
1989
1989
1989
1989
1988
1987
1986
1986
1986
1987
1988
1988
1989
1989
1988
1988
1988
1987
1987
1987
1987
1988
1988
1988
1988
1987
1986
1986
1986
1986
1987
1988
1989
1990
1990
1989
1988
1987
1987
1986
1986
1987
1987
1987
1988
1988
1988
1988
1987
1987
1987
1987
1986
1985
1984
1983
1983
1983
1984
1984
1983
1983
1983
1986
1992
2001
2009
2015
2015
2009
1996
1980
1962
1946
1937
1936
1943
1956
1969
1980
1986
1989
1990
1990
1989
1989
1989
1989
1989
1989
1989
1990
1990
1991
1991
1991
1991
1990
1990
1990
1990
1991
1992
1992
1992
1991
1991
1991
1991
1991
1992
1993
1993
1994
1993
1993
1992
1992
1991
1991
1991
1991
1991
1991
1991
1990
1990
1989
1988
1988
1988
1989
1989
1989
1989
1989
1988
1987
1986
1985
1985
1985
1986
1986
1986
1986
1985
1985
1985
1985
1986
1986
1987
1986
1986
1985
1984
1984
1984
1984
1985
1985
1986
1986
1987
1987
1986
1986
1985
1985
1985
1985
1986
1986
1986
1986
1985
1984
1984
1984
1984
1985
1986
1986
1986
1985
1984
1984
1983
1984
1984
1984
1984
1984
1984
1984
1983
1983
1983
1982
1982
1983
1984
1984
1985
1984
1983
1982
1982
1982
1982
1983
1984
1984
1984
1984
1983
1983
1982
1982
1983
1983
1984
1984
1984
1983
1983
1983
1983
1984
1984
1985
1985
1986
1985
1984
1984
1983
1983
1983
1984
1984
1985
1985
1985
1985
1984
1983
1982
1981
1981
1981
1982
1982
1983
1982
1981
1980
1979
1981
1987
1997
2007
2014
2014
2007
1993
1974
1954
1936
1925
1924
1932
1947
1964
1977
1984
1987
1987
1986
1985
1986
1986
1987
1987
1986
1986
1986
1986
1986
1986
1986
1987
1987
1987
1987
1986
1986
1986
1986
1987
1987
1987
1988
1988
1988
1988
1987
1987
1988
1988
1989
1990
1990
1990
1990
1990
1989
1988
1988
1988
1988
1988
1988
1987
1987
1986
1985
1985
1985
1985
1985
1985
1985
1984
1983
1983
1982
1981
1981
1981
1981
1981
1982
1982
1982
1981
1981
1980
1980
1980
1981
1981
1982
1981
1981
1980
1980
1980
1980
1981
1981
1981
1982
1982
1981
1981
1981
1981
1981
1981
1981
1982
1982
1982
1982
1981
1980
1980
1980
1980
1980
1981
1981
1982
1981
1981
1980
1979
1979
1979
1980
1981
1981
1980
1979
1978
1978
1978
1978
1979
1979
1979
1979
1979
1979
1979
1979
1979
1979
1979
1980
1980
1981
1980
1980
1980
1980
1980
1981
1981
1981
1981
1980
1980
1980
1979
1979
1979
1979
1979
1980
1981
1981
1981
1981
1981
1980
1980
1980
1981
1982
1982
1982
1982
1981
1981
1980
1981
1981
1982
1982
1982
1982
1982
1982
1982
1982
1982
1982
1983
1984
1984
1985
1984
1983
1983
1982
1982
1982
1982
1983
1984
1984
1984
1983
1983
1982
1981
1981
1980
1981
1981
1982
1982
1981
1980
1980
1982
1988
1998
2007
2012
2011
2002
1987
1967
1947
1930
1922
1925
1937
1954
1971
1983
1988
1989
1988
1987
1987
1987
1988
1988
1989
1989
1989
1989
1989
1989
1989
1989
1990
1990
1991
1991
1991
1990
1990
1990
1990
1991
1991
1992
1993
1993
1993
1993
1992
1992
1992
1993
1993
1994
1994
1994
1994
1993
1993
1993
1992
1992
1991
1990
1990
1990
1989
1990
1990
1990
1990
1989
1989
1989
1988
1987
1986
1986
1985
1985
1985
1985
1985
1985
1985
1986
1986
1985
1985
1984
1984
1984
1985
1985
1986
1986
1986
1986
1985
1984
1984
1984
1985
1986
1986
1987
1986
1986
1986
1986
1986
1987
1987
1987
1987
1987
1987
1987
1986
1986
1986
1986
1986
1986
1986
1986
1985
1985
1985
1985
1986
1986
1987
1987
1987
1987
1987
1986
1986
1985
1984
1983
1983
1983
1984
1985
1985
1985
1985
1984
1984
1984
1984
1985
1985
1985
1985
1985
1985
1985
1985
1985
1986
1986
1987
1986
1986
1985
1985
1985
1985
1986
1987
1987
1988
1988
1988
1988
1987
1986
1986
1987
1988
1989
1989
1989
1989
1988
1987
1987
1988
1988
1988
1988
1989
1989
1989
1989
1989
1988
1986
1986
1985
1985
1986
1986
1986
1986
1986
1986
1986
1986
1987
1990
1997
2007
2015
2020
2019
2012
1998
1980
1962
1946
1938
1938
1947
1961
1975
1985
1991
1993
1993
1993
1993
1993
1994
1994
1994
1994
1995
1995
1996
1996
1995
1995
1995
1995
1995
1995
1996
1996
1997
1997
1998
1999
1999
1999
1998
1998
1998
1998
1999
2000
2001
2001
2000
2000
1999
1998
1998
1998
1999
1999
1999
1999
1998
1997
1997
1997
1996
1996
1996
1995
1995
1995
1995
1995
1994
1994
1993
1993
1993
1993
1993
1993
1992
1991
1991
1990
1990
1990
1991
1992
1992
1992
1991
1991
1990
1989
1990
1990
1991
1991
1992
1992
1992
1991
1991
1990
1990
1990
1990
1991
1992
1992
1991
1990
1990
1989
1989
1990
1990
1991
1991
1991
1990
1989
1989
1988
1989
1989
1989
1990
1990
1990
1990
1989
1988
1987
1987
1987
1988
1988
1988
1988
1988
1988
1988
1988
1987
1987
1987
1988
1988
1988
1988
1988
1987
1987
1987
1987
1988
1989
1988
1988
1987
1986
1985
1985
1986
1987
1988
1988
1988
1988
1988
1988
1987
1987
1987
1987
1987
1987
1987
1987
1987
1987
1987
1987
1988
1988
1989
1988
1988
1986
1985
1984
1983
1983
1983
1984
1985
1985
1985
1984
1983
1984
1990
1999
2008
2015
2016
2011
1998
1979
1959
1941
1929
1927
1935
1950
1967
1980
1988
1990
1990
1989
1988
1989
1989
1990
1990
1990
1990
1990
1990
1990
1990
1990
1990
1990
1991
1991
1992
1992
1992
1992
1991
1991
1991
1991
1992
1993
1994
1994
1994
1993
1992
1992
1991
1992
1994
1995
1995
1995
1994
1993
1991
1990
1990
1990
1990
1990
1991
1991
1991
1990
1989
1988
1987
1987
1988
1989
1989
1988
1987
1985
1985
1984
1984
1985
1985
1985
1985
1985
1985
1984
1984
1984
1984
1985
1985
1985
1986
1986
1986
1985
1985
1984
1984
1985
1986
1986
1986
1986
1986
1986
1986
1986
1986
1986
1985
1985
1986
1986
1986
1986
1986
1986
1986
1987
1987
1987
1987
1986
1986
1985
1986
1986
1987
1987
1987
1987
1987
1987
1987
1986
1985
1985
1985
1986
1986
1987
1987
1987
1986
1986
1985
1985
1985
1985
1986
1986
1986
1987
1987
1986
1985
1985
1985
1986
1986
1987
1987
1987
1987
1986
1985
1985
1986
1986
1986
1987
1987
1987
1987
1986
1986
1986
1987
1987
1988
1988
1987
1987
1987
1987
1987
1987
1986
1986
1987
1987
1988
1988
1988
1988
1989
1989
1989
1989
1989
1988
1988
1987
1987
1987
1988
1989
1989
1990
1989
1988
1988
1987
1986
1986
1985
1985
1985
1986
1986
1986
1986
1987
1991
1998
2008
2016
2019
2016
2005
1988
1969
1950
1936
1931
1935
1947
1963
1978
1988
1992
1993
1992
1992
1992
1992
1993
1993
1993
1994
1994
1994
1994
1994
1993
1993
1993
1994
1995
1996
1996
1996
1995
1995
1995
1996
1997
1997
1997
1997
1997
1998
1998
1998
1999
1999
1998
1998
1998
1999
1999
2000
2000
1999
1998
1997
1996
1996
1996
1996
1996
1996
1996
1996
1995
1994
1993
1992
1992
1992
1992
1992
1992
1991
1991
1991
1991
1991
1991
1992
1992
1992
1991
1991
1990
1989
1990
1990
1990
1991
1991
1991
1991
1991
1991
1991
1990
1990
1990
1990
1991
1992
1992
1993
1993
1993
1994
1994
1994
1994
1994
1994
1994
1994
1994
1993
1993
1993
1993
1994
1994
1994
1995
1995
1995
1994
1994
1993
1993
1993
1993
1993
1994
1993
1993
1993
1993
1993
1994
1994
1994
1994
1995
1995
1994
1994
1994
1994
1995
1996
1996
1995
1994
1993
1993
1993
1993
1993
1994
1994
1994
1994
1994
1993
1993
1993
1993
1992
1992
1993
1993
1993
1993
1993
1993
1993
1993
1993
1993
1993
1994
1994
1994
1994
1993
1993
1993
1994
1995
1995
1996
1996
1995
1995
1995
1995
1995
1995
1995
1995
1995
1995
1995
1994
1993
1992
1991
1991
1991
1991
1992
1992
1992
1991
1990
1991
1996
2004
2013
2021
2025
2021
2010
1994
1974
1955
1941
1936
1941
1954
1969
1983
1992
1996
1997
1996
1995
1995
1995
1996
1997
1997
1997
1997
1997
1997
1997
1997
1997
1998
1998
1999
1999
1998
1997
1997
1997
1998
1999
2000
2000
2000
2000
2000
1999
1999
1999
2000
2000
2001
2001
2001
2001
2001
2000
1999
1999
1999
1999
1999
1999
1998
1998
1997
1996
1996
1995
1995
1995
1994
1994
1994
1993
1993
1992
1990
1990
1990
1990
1991
1991
1991
1991
1991
1990
1989
1989
1989
1990
1990
1990
1990
1990
1990
1990
1990
1990
1990
1990
1991
1991
1991
1991
1991
1991
1990
1990
1990
1991
1991
1992
1992
1992
1992
1991
1991
1990
1990
1991
1992
1992
1992
1992
1991
1991
1990
1990
1990
1990
1991
1991
1991
1991
1991
1991
1990
1990
1990
1990
1990
1990
1991
1991
1991
1991
1991
1990
1991
1991
1991
1992
1991
1991
1990
1990
1989
1989
1989
1990
1990
1990
1990
1990
1990
1989
1989
1989
1989
1990
1990
1990
1990
1990
1990
1990
1990
1990
1990
1990
1990
1991
1991
1991
1991
1991
1990
1990
1990
1990
1991
1991
1991
1991
1990
1990
1990
1990
1991
1991
1992
1992
1992
1992
1992
1991
1990
1990
1990
1991
1992
1993
1993
1993
1993
1993
1993
1993
1993
1993
1993
1993
1993
1993
1993
1993
1993
1992
1992
1993
1993
1993
1993
1992
1991
1990
1990
1990
1991
1991
1991
1990
1990
1991
1996
2004
2013
2020
2022
2016
2004
1986
1965
1946
1933
1930
1937
1952
1970
1985
1995
1998
1999
1998
1997
1996
1996
1996
1996
1997
1997
1998
1998
1998
1998
1998
1997
1997
1997
1997
1998
1999
1999
2000
2000
1999
1999
1999
2000
2000
2001
2001
2001
2001
2001
2001
2001
2002
2002
2002
2003
2003
2003
2003
2002
2002
2001
2000
2000
1999
1999
1999
1999
1999
1998
1997
1996
1995
1995
1994
1994
1994
1994
1994
1993
1992
1991
1991
1991
1992
1992
1992
1992
1992
1991
1991
1990
1990
1990
1990
1991
1991
1991
1992
1991
1991
1990
1990
1990
1991
1992
1992
1993
1993
1993
1992
1992
1992
1992
1992
1992
1992
1993
1992
1992
1992
1991
1991
1991
1991
1992
1992
1992
1991
1991
1991
1991
1991
1990
1990
1991
1991
1991
1992
1991
1991
1990
1990
1990
1990
1991
1991
1991
1991
1990
1990
1990
1990
1990
1990
1991
1991
1991
1991
1990
1990
1989
1989
1989
1989
1989
1990
1990
1990
1990
1989
1989
1989
1989
1989
1990
1990
1991
1991
1990
1990
1989
1989
1989
1989
1990
1990
1990
1990
1990
1989
1989
1989
1989
1989
1990
1990
1990
1990
1990
1989
1989
1989
1989
1989
1989
1990
1990
1991
1990
1990
1989
1989
1989
1990
1990
1991
1992
1992
1992
1992
1991
1991
1991
1992
1992
1992
1992
1991
1991
1991
1991
1991
1991
1991
1991
1991
1991
1990
1990
1989
1988
1988
1988
1988
1987
1987
1989
1993
2001
2010
2018
2020
2015
2004
1987
1967
1948
1934
1929
1934
1948
1966
1981
1991
1996
1996
1996
1995
1995
1994
1994
1994
1994
1995
1995
1996
1997
1997
1997
1997
1996
1996
1996
1997
1997
1997
1998
1998
1998
1998
1998
1998
1998
1998
1999
1999
2000
2000
2000
2000
2000
2001
2001
2001
2001
2002
2002
2002
2001
2000
1999
1998
1998
1998
1998
1998
1998
1998
1997
1995
1994
1993
1993
1992
1992
1992
1992
1991
1991
1990
1990
1990
1991
1991
1991
1990
1990
1990
1989
1989
1989
1989
1989
1990
1990
1990
1990
1990
1990
1990
1990
1989
1990
1990
1990
1991
1991
1992
1992
1991
1991
1990
1990
1990
1991
1991
1991
1991
1991
1990
1990
1989
1989
1989
1989
1990
1990
1990
1990
1990
1990
1989
1989
1989
1989
1990
1990
1990
1990
1989
1988
1988
1988
1989
1989
1989
1989
1989
1989
1989
1989
1988
1988
1988
1989
1989
1990
1990
1989
1989
1988
1988
1988
1989
1989
1989
1990
1989
1989
1989
1988
1988
1989
1989
1990
1990
1990
1990
1990
1989
1989
1989
1989
1989
1990
1990
1990
1990
1990
1989
1989
1989
1989
1989
1989
1989
1989
1989
1989
1989
1989
1989
1989
1989
1989
1990
1990
1990
1990
1989
1989
1988
1989
1990
1990
1991
1992
1993
1992
1992
1991
1990
1990
1990
1991
1991
1991
1991
1990
1990
1990
1990
1989
1989
1989
1989
1989
1989
1989
1988
1988
1987
1986
1986
1988
1995
2004
2013
2019
2019
2012
1997
1978
1959
1941
1931
1930
1939
1954
1971
1984
1992
1994
1994
1993
1993
1994
1995
1995
1995
1994
1994
1994
1994
1995
1995
1996
1996
1996
1996
1995
1995
1995
1996
1996
1997
1998
1998
1997
1996
1996
1996
1997
1998
1999
1999
2000
2000
1999
1999
1999
1999
1999
2000
2000
2000
1999
1999
1999
1998
1998
1997
1997
1996
1996
1996
1996
1995
1994
1993
1992
1991
1991
1990
1990
1990
1990
1990
1989
1989
1989
1988
1988
1988
1989
1989
1989
1989
1989
1988
1988
1987
1987
1987
1988
1989
1989
1989
1989
1988
1988
1988
1988
1988
1989
1989
1989
1989
1989
1988
1988
1987
1987
1988
1989
1990
1990
1990
1989
1988
1988
1988
1988
1988
1989
1990
1990
1989
1989
1988
1988
1987
1987
1987
1987
1987
1988
1988
1988
1988
1988
1987
1987
1988
1988
1988
1988
1988
1988
1987
1987
1987
1987
1987
1987
1988
1988
1988
1988
1988
1987
1987
1987
1987
1988
1989
1989
1989
1988
1988
1988
1988
1988
1988
1988
1988
1988
1988
1988
1988
1987
1987
1987
1987
1988
1988
1989
1989
1989
1989
1988
1987
1987
1987
1987
1987
1987
1987
1987
1987
1987
1987
1987
1988
1988
1988
1989
1989
1989
1989
1990
1990
1990
1990
1990
1990
1990
1990
1990
1990
1990
1989
1989
1989
1989
1989
1989
1988
1987
1986
1986
1986
1986
1986
1986
1986
1986
1988
1995
2004
2013
2018
2017
2009
1993
1974
1954
1938
1929
1930
1941
1957
1973
1986
1992
1994
1994
1993
1992
1992
1992
1992
1993
1993
1994
1994
1994
1994
1994
1994
1994
1994
1994
1994
1995
1995
1995
1995
1995
1995
1995
1995
1996
1996
1997
1997
1997
1997
1997
1997
1997
1997
1998
1998
1998
1999
1999
1999
1999
1998
1997
1996
1995
1995
1995
1995
1995
1995
1994
1994
1993
1992
1991
1991
1991
1990
1990
1990
1989
1989
1988
1987
1987
1988
1988
1989
1989
1989
1988
1988
1988
1988
1987
1987
1988
1988
1989
1989
1989
1988
1988
1988
1988
1988
1989
1990
1990
1990
1989
1989
1989
1989
1989
1989
1990
1990
1990
1990
1990
1990
1990
1990
1989
1989
1989
1990
1990
1990
1990
1990
1989
1989
1988
1989
1989
1990
1990
1990
1989
1989
1989
1988
1988
1988
1989
1989
1989
1990
1989
1989
1988
1988
1988
1988
1989
1989
1990
1990
1990
1990
1989
1989
1988
1989
1989
1989
1990
1990
1990
1990
1989
1989
1989
1989
1990
1990
1990
1990
1989
1989
1988
1988
1988
1988
1989
1989
1990
1990
1989
1988
1988
1987
1988
1989
1989
1990
1990
1990
1990
1989
1989
1989
1990
1990
1991
1991
1991
1990
1990
1991
1991
1991
1990
1990
1990
1990
1991
1991
1990
1988
1987
1986
1987
1987
1989
1989
1989
1989
1987
1988
1992
1999
2009
2017
2021
2018
2007
1990
1971
1951
1937
1932
1936
1949
1966
1981
1991
1995
1996
1995
1994
1994
1994
1994
1995
1996
1997
1997
1997
1996
1995
1995
1995
1995
1997
1998
1998
1998
1998
1997
1997
1997
1997
1998
1999
1999
2000
2000
2000
1999
1999
1999
1999
2000
2001
2001
2001
2001
2001
2001
2000
2000
2000
1999
1999
1999
1999
1999
1999
1998
1998
1997
1996
1995
1995
1995
1995
1995
1994
1993
1993
1992
1992
1992
1992
1992
1992
1992
1992
1992
1991
1991
1991
1991
1991
1992
1992
1992
1992
1991
1991
1991
1991
1992
1993
1993
1993
1992
1992
1992
1992
1992
1992
1992
1993
1994
1994
1995
1994
1994
1993
1993
1993
1993
1993
1994
1994
1994
1993
1993
1993
1993
1993
1993
1993
1993
1993
1993
1993
1993
1993
1993
1993
1993
1994
1995
1995
1995
1994
1993
1992
1992
1992
1993
1994
1995
1995
1995
1994
1993
1992
1992
1992
1993
1993
1993
1994
1994
1994
1993
1993
1993
1993
1993
1994
1995
1996
1996
1996
1996
1996
1995
1995
1995
1994
1994
1994
1995
1996
1996
1996
1996
1995
1995
1995
1994
1994
1994
1993
1993
1992
1992
1992
1992
1993
1993
1992
1991
1992
1997
2005
2014
2022
2025
2021
2012
1997
1979
1962
1950
1945
1949
1959
1972
1984
1993
1997
1998
1998
1997
1997
1997
1998
1999
1999
1999
1999
1999
1999
1999
1999
2000
2000
2000
2001
2001
2002
2002
2002
2001
2000
2000
2000
2000
2002
2003
2004
2004
2003
2003
2002
2002
2003
2004
2004
2005
2005
2004
2003
2002
2002
2001
2001
2001
2001
2001
2002
2002
2001
2001
2000
2000
2000
2000
2000
1999
1998
1998
1998
1998
1998
1997
1997
1997
1997
1997
1997
1997
1997
1997
1997
1996
1996
1996
1997
1998
1998
1997
1997
1996
1996
1996
1997
1997
1997
1997
1998
1998
1999
1999
1998
1998
1998
1999
2000
2000
2001
2001
2001
2000
1999
1999
1998
1999
1999
1999
1999
1999
1999
1999
1998
1998
1998
1998
1999
1999
1999
1999
1999
1998
1998
1997
1997
1997
1997
1997
1997
1997
1997
1997
1997
1997
1996
1996
1997
1998
1999
2000
2000
2000
1999
1998
1997
1997
1997
1998
1999
1999
2000
1999
1999
1998
1997
1996
1996
1995
1995
1995
1994
1994
1994
1994
1994
1993
1993
1993
1994
2000
2008
2017
2024
2026
2022
2011
1996
1977
1961
1949
1945
1950
1961
1974
1986
1994
1998
2000
2000
2000
1999
1999
1998
1998
1998
1999
2000
2001
2001
2001
2000
2000
1999
1998
1998
1999
2000
2001
2001
2001
2000
2000
2000
2000
2001
2001
2002
2002
2002
2002
2002
2002
2002
2002
2002
2002
2001
2001
2001
2000
2000
1999
1998
1997
1997
1997
1997
1997
1997
1997
1997
1997
1996
1995
1994
1994
1994
1994
1993
1993
1993
1992
1992
1991
1991
1992
1992
1992
1992
1992
1991
1991
1991
1991
1991
1991
1992
1992
1992
1992
1992
1991
1991
1991
1991
1992
1992
1993
1993
1993
1993
1993
1992
1992
1992
1993
1993
1994
1994
1993
1993
1992
1992
1992
1992
1993
1993
1993
1993
1993
1993
1992
1992
1992
1992
1992
1992
1992
1992
1992
1992
1992
1991
1991
1991
1991
1992
1992
1992
1992
1991
1991
1991
1990
1990
1990
1991
1992
1992
1992
1992
1991
1991
1991
1991
1992
1992
1993
1993
1993
1993
1993
1993
1993
1994
1994
1994
1994
1994
1994
1994
1994
1994
1993
1993
1993
1993
1992
1992
1991
1991
1990
1990
1990
1990
1990
1990
1990
1989
1990
1995
2003
2012
2019
2022
2017
2005
1988
1968
1948
1935
1931
1937
1952
1969
1984
1994
1997
1997
1996
1995
1995
1995
1995
1995
1995
1996
1997
1997
1997
1997
1997
1997
1996
1996
1997
1997
1998
1998
1998
1998
1998
1998
1998
1998
1998
1999
1999
2000
2000
2000
2000
2000
2000
2000
2000
2000
2000
2000
2000
2000
1999
1999
1998
1998
1997
1997
1997
1997
1996
1995
1995
1994
1994
1993
1993
1992
1992
1992
1992
1991
1991
1990
1990
1989
1989
1990
1991
1991
1991
1990
1990
1989
1988
1989
1989
1989
1990
1990
1990
1989
1989
1989
1989
1989
1990
1990
1991
1991
1991
1991
1990
1990
1990
1990
1990
1991
1991
1991
1991
1990
1990
1990
1990
1991
1991
1991
1991
1991
1990
1989
1989
1989
1989
1989
1989
1990
1991
1991
1990
1990
1989
1988
1988
1988
1989
1989
1990
1990
1990
1990
1989
1989
1989
1989
1989
1989
1990
1990
1990
1989
1989
1989
1988
1989
1989
1989
1990
1990
1990
1989
1989
1989
1988
1989
1989
1989
1990
1990
1990
1990
1989
1989
1988
1988
1989
1990
1991
1991
1992
1992
1991
1990
1990
1990
1990
1990
1991
1991
1991
1991
1991
1991
1990
1990
1989
1989
1988
1988
1988
1988
1987
1987
1987
1987
1987
1986
1986
1989
1996
2005
2014
2019
2018
2009
1994
1974
1954
1937
1928
1929
1940
1956
1973
1986
1993
1995
1994
1993
1993
1993
1993
1993
1994
1994
1994
1995
1995
1996
1996
1995
1995
1994
1994
1994
1995
1995
1996
1996
1996
1997
1996
1996
1996
1997
1997
1998
1999
1999
1999
2000
1999
1999
1999
1999
1999
1999
2000
2000
2000
1999
1998
1997
1996
1996
1996
1996
1996
1996
1995
1994
1993
1992
1991
1991
1990
1990
1990
1990
1990
1989
1989
1989
1988
1988
1989
1989
1989
1989
1989
1989
1988
1987
1987
1987
1988
1988
1989
1989
1989
1988
1988
1988
1988
1988
1988
1989
1989
1990
1990
1989
1989
1988
1988
1988
1989
1989
1990
1990
1990
1989
1989
1988
1988
1988
1988
1988
1989
1989
1989
1989
1988
1988
1988
1988
1988
1988
1989
1989
1989
1989
1988
1988
1987
1987
1987
1988
1988
1989
1989
1989
1989
1988
1988
1988
1987
1988
1988
1989
1989
1989
1988
1988
1988
1988
1988
1988
1988
1989
1989
1989
1988
1988
1988
1988
1989
1989
1990
1990
1990
1989
1989
1988
1988
1988
1988
1989
1989
1989
1989
1989
1989
1989
1989
1989
1990
1991
1992
1992
1992
1991
1990
1989
1989
1989
1990
1991
1992
1992
1992
1991
1990
1989
1988
1988
1988
1988
1988
1989
1989
1989
1988
1986
1985
1987
1993
2002
2012
2020
2022
2016
2002
1983
1963
1945
1933
1930
1938
1952
1969
1983
1992
1995
1995
1994
1994
1994
1995
1996
1996
1996
1996
1995
1995
1996
1996
1997
1997
1997
1997
1997
1997
1997
1997
1997
1997
1997
1998
1998
1998
1999
1998
1999
1999
2000
2000
2001
2001
2001
2001
2001
2001
2001
2001
2001
2001
2001
2000
2000
2000
1999
1998
1997
1997
1997
1997
1997
1997
1996
1996
1995
1994
1994
1993
1992
1992
1992
1993
1994
1994
1994
1993
1992
1991
1991
1991
1992
1992
1993
1992
1992
1991
1990
1990
1990
1990
1991
1992
1992
1992
1992
1991
1991
1991
1992
1992
1993
1994
1994
1994
1994
1993
1992
1992
1992
1992
1992
1993
1993
1993
1992
1992
1992
1992
1992
1992
1992
1993
1993
1993
1992
1992
1991
1991
1991
1992
1992
1992
1992
1992
1992
1991
1990
1990
1990
1991
1991
1991
1991
1991
1991
1991
1991
1991
1991
1991
1990
1991
1991
1991
1991
1991
1991
1990
1990
1990
1990
1991
1991
1991
1991
1990
1990
1990
1990
1991
1991
1992
1992
1992
1992
1992
1992
1992
1992
1992
1993
1993
1993
1993
1993
1993
1992
1991
1991
1990
1990
1989
1990
1990
1990
1990
1989
1988
1987
1987
1990
1997
2007
2016
2022
2022
2014
2001
1983
1963
1947
1937
1936
1944
1959
1974
1985
1992
1995
1995
1994
1994
1994
1995
1995
1995
1995
1994
1994
1994
1995
1995
1996
1996
1996
1995
1995
1994
1995
1995
1995
1996
1997
1997
1997
1997
1997
1997
1997
1997
1998
1999
1999
1999
1998
1998
1998
1998
1997
1997
1998
1998
1998
1998
1997
1996
1995
1994
1994
1995
1995
1995
1995
1994
1993
1992
1991
1991
1990
1990
1990
1990
1990
1990
1989
1989
1988
1988
1988
1988
1989
1989
1989
1989
1989
1989
1988
1988
1988
1988
1988
1989
1989
1989
1989
1989
1988
1988
1988
1988
1989
1989
1989
1989
1989
1989
1988
1988
1989
1989
1989
1990
1990
1989
1989
1988
1988
1988
1988
1988
1988
1988
1988
1988
1988
1988
1987
1987
1987
1987
1988
1988
1988
1988
1987
1987
1987
1987
1987
1987
1988
1988
1988
1988
1987
1987
1987
1987
1987
1987
1987
1987
1988
1988
1988
1988
1988
1988
1988
1988
1988
1988
1989
1989
1989
1989
1989
1988
1988
1987
1988
1988
1988
1988
1989
1988
1988
1987
1986
1986
1986
1985
1985
1985
1984
1984
1984
1984
1984
1984
1983
1984
1987
1995
2005
2013
2017
2013
2002
1985
1965
1945
1930
1924
1928
1940
1957
1972
1981
1984
1985
1984
1984
1985
1985
1986
1988
1990
1993
1996
1998
1998
1998
1997
1997
1998
1998
1999
2000
2000
2000
2002
2006
2011
2016
2021
2024
2026
2027
2027
2026
2026
2025
2026
2028
2030
2032
2034
2034
2033
2031
2030
2029
2027
2026
2025
2024
2025
2027
2030
2032
2032
2030
2027
2023
2021
2020
2019
2018
2018
2018
2017
2017
2016
2015
2013
2011
2010
2009
2008
2008
2007
2006
2004
2002
2001
2001
2002
2003
2003
2003
2002
2001
2000
1999
1997
1995
1994
1994
1995
1998
2001
2002
2002
2001
1998
1997
1995
1994
1993
1992
1992
1992
1993
1993
1992
1992
1991
1992
1993
1995
1996
1996
1995
1994
1992
1990
1989
1989
1990
1991
1991
1991
1991
1990
1990
1989
1988
1987
1986
1986
1986
1985
1985
1986
1987
1989
1990
1992
1992
1992
1992
1992
1992
1991
1990
1989
1987
1986
1985
1986
1987
1989
1989
1989
1988
1987
1987
1987
1987
1987
1987
1986
1985
1985
1984
1983
1982
1983
1983
1983
1983
1982
1981
1983
1988
1996
2005
2010
2009
2000
1984
1964
1944
1927
1919
1921
1933
1951
1969
1982
1989
1991
1990
1988
1987
1986
1987
1987
1987
1987
1988
1988
1988
1989
1989
1989
1990
1990
1991
1991
1992
1993
1993
1994
1995
1995
1995
1995
1994
1993
1992
1991
1991
1990
1990
1989
1988
1988
1988
1990
1992
1993
1993
1992
1991
1990
1990
1991
1991
1991
1991
1991
1991
1991
1990
1989
1989
1989
1990
1991
1992
1992
1991
1990
1989
1989
1989
1989
1990
1990
1990
1990
1990
1989
1988
1988
1988
1988
1989
1990
1990
1991
1991
1992
1992
1992
1992
1992
1992
1993
1994
1994
1995
1995
1994
1994
1994
1994
1995
1996
1996
1996
1996
1995
1994
1994
1994
1995
1996
1996
1997
1997
1997
1997
1997
1997
1997
1997
1998
1998
1998
1998
1998
1998
1998
1998
1998
1999
1999
2000
2000
2000
1999
1999
1998
1998
1998
1997
1997
1997
1998
1999
1999
1999
1998
1997
1996
1996
1996
1996
1997
1997
1997
1996
1994
1994
1997
2004
2014
2023
2029
2029
2022
2008
1991
1972
1956
1947
1948
1956
1970
1983
1993
1998
2000
2000
2000
1999
2000
2000
2000
2000
2000
1999
1999
1998
1998
1999
1999
2000
2001
2001
2001
2000
2000
1999
1999
1999
2000
2000
2001
2001
2001
2001
2000
1999
1999
1999
2000
2000
2000
2000
1999
1999
1999
1998
1998
1997
1997
1997
1996
1996
1995
1995
1995
1995
1995
1996
1996
1996
1996
1996
1996
1995
1994
1993
1993
1992
1993
1993
1994
1994
1994
1993
1993
1992
1992
1992
1993
1993
1994
1994
1994
1994
1994
1993
1993
1993
1993
1993
1994
1995
1995
1995
1994
1994
1994
1994
1994
1995
1995
1995
1995
1994
1993
1993
1993
1993
1993
1993
1993
1993
1993
1992
1991
1991
1991
1991
1991
1992
1992
1992
1992
1991
1991
1991
1991
1991
1992
1993
1994
1994
1994
1993
1992
1991
1991
1991
1991
1992
1992
1992
1991
1990
1989
1988
1988
1987
1988
1988
1989
1989
1989
1989
1987
1986
1985
1987
1993
2003
2013
2019
2020
2012
1997
1977
1956
1937
1926
1926
1936
1953
1971
1984
1991
1993
1992
1991
1991
1991
1992
1993
1993
1992
1992
1992
1992
1992
1992
1992
1992
1993
1993
1994
1994
1994
1993
1993
1993
1994
1994
1995
1995
1995
1994
1994
1993
1993
1994
1994
1995
1996
1996
1996
1995
1995
1995
1994
1994
1994
1994
1994
1993
1993
1992
1991
1991
1991
1991
1991
1991
1991
1991
1990
1989
1989
1988
1987
1987
1987
1987
1988
1988
1987
1987
1986
1986
1986
1986
1986
1987
1987
1987
1987
1986
1985
1985
1985
1986
1987
1987
1988
1987
1987
1987
1986
1986
1986
1987
1987
1988
1988
1987
1987
1987
1986
1986
1986
1986
1986
1987
1987
1987
1986
1986
1985
1985
1985
1985
1986
1986
1986
1986
1986
1986
1986
1985
1985
1985
1985
1986
1986
1987
1987
1986
1985
1985
1985
1986
1987
1987
1987
1987
1986
1986
1986
1986
1986
1986
1986
1986
1986
1985
1984
1983
1982
1982
1982
1983
1983
1983
1983
1983
1981
1981
1983
1989
1999
2008
2014
2013
2003
1987
1966
1944
1926
1917
1920
1933
1952
1970
1983
1989
1990
1989
1987
1987
1987
1988
1989
1990
1990
1990
1989
1989
1989
1989
1989
1989
1990
1990
1990
1991
1991
1991
1991
1990
1990
1991
1992
1992
1993
1993
1992
1992
1992
1992
1992
1992
1993
1993
1994
1993
1993
1992
1992
1991
1991
1991
1991
1991
1991
1991
1991
1991
1990
1989
1988
1988
1988
1988
1988
1988
1988
1987
1986
1985
1985
1985
1985
1986
1986
1986
1985
1984
1984
1984
1984
1985
1985
1985
1985
1985
1985
1985
1985
1985
1985
1985
1986
1986
1986
1986
1985
1985
1985
1984
1985
1985
1986
1986
1986
1986
1986
1985
1985
1985
1984
1984
1985
1985
1986
1986
1986
1986
1985
1984
1984
1984
1984
1985
1985
1985
1985
1985
1984
1984
1984
1985
1985
1985
1986
1986
1985
1984
1984
1983
1983
1984
1985
1985
1986
1986
1985
1985
1985
1984
1984
1985
1985
1985
1985
1985
1985
1985
1986
1986
1987
1987
1988
1988
1988
1988
1987
1986
1986
1986
1986
1987
1987
1988
1988
1987
1986
1985
1985
1984
1984
1984
1985
1985
1986
1985
1985
1984
1983
1983
1985
1992
2002
2012
2018
2017
2008
1991
1970
1949
1931
1921
1923
1935
1954
1973
1986
1993
1993
1992
1990
1990
1991
1993
1993
1993
1993
1993
1993
1993
1993
1994
1994
1995
1995
1995
1995
1995
1994
1994
1994
1994
1995
1996
1997
1997
1997
1997
1996
1995
1995
1996
1997
1998
1998
1998
1998
1997
1996
1995
1995
1995
1995
1994
1994
1994
1994
1993
1993
1992
1993
1993
1993
1993
1993
1992
1991
1990
1989
1989
1989
1989
1989
1989
1989
1989
1989
1989
1988
1987
1987
1987
1987
1987
1988
1989
1989
1989
1988
1988
1987
1987
1988
1988
1988
1988
1987
1987
1987
1986
1987
1988
1989
1990
1990
1990
1989
1988
1987
1986
1986
1985
1986
1987
1988
1989
1989
1988
1987
1987
1986
1986
1987
1987
1987
1987
1987
1986
1985
1985
1985
1985
1986
1987
1987
1987
1987
1986
1985
1985
1984
1984
1985
1986
1986
1986
1985
1985
1984
1984
1984
1985
1985
1986
1985
1985
1984
1983
1983
1983
1984
1985
1986
1986
1986
1986
1985
1985
1984
1984
1984
1985
1986
1986
1986
1986
1985
1985
1985
1985
1985
1985
1985
1986
1986
1986
1985
1984
1983
1982
1981
1981
1982
1983
1984
1985
1985
1984
1982
1981
1984
1990
1999
2009
2014
2014
2006
1990
1970
1948
1930
1921
1924
1936
1954
1971
1984
1989
1990
1989
1988
1988
1989
1990
1990
1991
1991
1990
1990
1990
1990
1991
1991
1992
1992
1993
1992
1992
1991
1990
1990
1991
1993
1994
1995
1994
1994
1993
1993
1993
1993
1993
1994
1994
1994
1995
1995
1994
1994
1993
1993
1993
1993
1992
1992
1992
1992
1991
1991
1991
1990
1991
1992
1992
1992
1991
1990
1990
1989
1989
1989
1989
1989
1989
1990
1990
1989
1988
1986
1986
1988
1991
1997
2002
2003
2001
1996
1990
1986
1984
1983
1984
1984
1984
1985
1985
1985
1985
1985
1988
1994
2000
2006
2009
2007
2000
1991
1983
1979
1977
1979
1982
1985
1986
1987
1987
1987
1989
1991
1993
1994
1996
1997
1998
1997
1994
1990
1986
1985
1986
1987
1988
1988
1988
1988
1990
1993
1994
1994
1992
1992
1993
1996
1998
1997
1995
1992
1989
1988
1988
1988
1987
1985
1984
1985
1987
1989
1989
1990
1991
1994
1998
2002
2003
1999
1992
1986
1983
1986
1990
1993
1993
1991
1988
1986
1987
1988
1990
1992
1994
1995
1995
1992
1988
1985
1983
1982
1982
1981
1983
1989
1999
2010
2018
2020
2016
2006
1991
1971
1950
1933
1927
1933
1948
1965
1978
1985
1990
1993
1995
1995
1993
1991
1989
1990
1991
1992
1990
1988
1987
1989
1993
1998
2000
2001
2001
1999
1996
1992
1987
1983
1983
1988
1997
2005
2006
2001
1994
1990
1991
1997
2005
2009
2006
1999
1991
1985
1981
1980
1981
1985
1992
1999
2004
2006
2004
1998
1993
1989
1987
1987
1988
1990
1993
1995
1994
1990
1988
1988
1992
1997
2000
1997
1990
1983
1979
1980
1985
1992
1996
1997
1995
1990
1984
1981
1981
1984
1987
1989
1990
1990
1990
1990
1990
1990
1989
1988
1987
1986
1984
1981
1980
1981
1985
1991
1997
1998
1995
1989
1983
1979
1979
1983
1988
1992
1992
1991
1986
1982
1980
1981
1986
1989
1990
1989
1987
1986
1989
1992
1994
1993
1990
1985
1984
1986
1990
1992
1991
1987
1984
1984
1987
1991
1993
1993
1991
1989
1986
1984
1983
1984
1987
1989
1992
1993
1993
1993
1993
1993
1993
1990
1988
1987
1987
1988
1989
1991
1993
1995
1997
1998
1996
1992
1987
1983
1983
1985
1988
1988
1986
1984
1985
1988
1992
1997
2002
2009
2017
2023
2025
2019
2004
1983
1960
1942
1932
1934
1944
1960
1976
1989
1995
1996
1995
1994
1994
1994
1994
1992
1991
1991
1993
1996
1997
1997
1994
1991
1990
1990
1991
1991
1991
1991
1992
1994
1996
1997
1998
1998
1998
1996
1994
1991
1989
1990
1992
1997
2000
2000
1996
1992
1989
1989
1991
1993
1994
1993
1991
1988
1986
1987
1991
1997
2002
2004
2001
1994
1987
1982
1981
1983
1987
1990
1992
1993
1993
1992
1990
1988
1989
1993
1999
2004
2007
2005
1999
1991
1983
1979
1979
1981
1984
1988
1990
1991
1991
1990
1988
1987
1989
1993
1998
2002
2002
1998
1992
1987
1983
1981
1982
1984
1985
1987
1988
1989
1988
1987
1986
1986
1987
1990
1994
1996
1997
1995
1991
1987
1984
1983
1983
1985
1986
1986
1986
1986
1987
1987
1988
1989
1991
1994
1996
1997
1996
1992
1987
1983
1982
1983
1984
1986
1988
1990
1991
1990
1987
1985
1985
1989
1993
1997
1996
1992
1985
1979
1977
1977
1979
1984
1990
2000
2009
2016
2019
2015
2005
1990
1973
1955
1942
1935
1938
1949
1964
1978
1988
1994
1997
1997
1994
1990
1987
1985
1986
1989
1992
1994
1993
1992
1991
1990
1991
1991
1992
1992
1992
1993
1993
1992
1992
1992
1994
1995
1997
1997
1996
1993
1991
1991
1992
1994
1996
1997
1997
1995
1994
1993
1993
1993
1993
1994
1994
1993
1993
1993
1992
1992
1991
1992
1993
1994
1994
1993
1992
1991
1990
1989
1988
1988
1987
1987
1988
1988
1989
1989
1989
1989
1988
1987
1988
1989
1990
1991
1990
1989
1987
1985
1985
1986
1987
1988
1988
1988
1988
1988
1988
1988
1988
1988
1988
1988
1989
1989
1990
1990
1989
1987
1985
1984
1984
1985
1986
1987
1989
1990
1990
1990
1988
1985
1983
1983
1983
1985
1986
1986
1986
1985
1985
1984
1984
1984
1985
1986
1987
1988
1989
1990
1990
1989
1987
1986
1984
1984
1984
1985
1985
1985
1985
1984
1984
1983
1983
1983
1983
1983
1984
1984
1984
1983
1982
1981
1981
1980
1982
1986
1993
2002
2009
2012
2008
1996
1979
1959
1939
1925
1921
1928
1942
1960
1975
1985
1988
1988
1986
1985
1986
1987
1987
1987
1986
1985
1985
1986
1988
1989
1988
1987
1986
1985
1986
1987
1988
1988
1988
1988
1988
1988
1988
1988
1988
1988
1988
1988
1989
1989
1990
1990
1990
1990
1989
1989
1989
1991
1992
1992
1991
1989
1987
1985
1985
1986
1988
1989
1989
1989
1988
1986
1985
1984
1983
1983
1984
1984
1985
1984
1984
1983
1983
1982
1982
1983
1983
1984
1984
1984
1984
1983
1982
1982
1981
1981
1981
1982
1983
1983
1983
1982
1981
1981
1982
1983
1984
1985
1985
1984
1984
1983
1983
1983
1983
1983
1983
1984
1984
1985
1985
1985
1985
1985
1985
1986
1987
1987
1988
1987
1987
1987
1987
1987
1987
1987
1987
1987
1987
1988
1988
1987
1987
1986
1986
1987
1988
1988
1989
1989
1988
1988
1987
1987
1987
1987
1987
1988
1988
1987
1986
1985
1984
1983
1983
1984
1985
1987
1988
1988
1987
1986
1983
1982
1983
1989
1998
2009
2016
2016
2008
1993
1972
1950
1932
1923
1924
1935
1952
1969
1982
1988
1990
1990
1989
1989
1989
1989
1989
1989
1989
1989
1988
1988
1988
1989
1990
1990
1990
1990
1989
1989
1989
1989
1990
1990
1990
1990
1990
1991
1992
1992
1993
1993
1993
1993
1993
1992
1992
1992
1992
1991
1990
1990
1989
1989
1990
1990
1990
1989
1989
1988
1988
1987
1987
1987
1987
1987
1987
1987
1987
1986
1986
1985
1984
1984
1984
1985
1985
1986
1986
1986
1985
1984
1984
1983
1984
1984
1985
1986
1986
1986
1985
1984
1984
1984
1984
1985
1986
1987
1988
1988
1987
1986
1985
1985
1986
1987
1988
1988
1987
1986
1985
1985
1985
1985
1985
1984
1984
1984
1984
1984
1984
1984
1983
1982
1982
1982
1982
1983
1983
1982
1982
1981
1981
1981
1981
1981
1981
1981
1981
1981
1980
1980
1980
1980
1981
1981
1982
1981
1980
1979
1979
1979
1980
1981
1982
1982
1982
1981
1981
1981
1981
1981
1981
1981
1981
1981
1981
1981
1981
1980
1979
1978
1977
1977
1977
1978
1979
1980
1980
1979
1978
1978
1982
1990
2000
2007
2009
2002
1988
1969
1947
1928
1917
1916
1925
1942
1960
1975
1983
1985
1984
1982
1981
1982
1983
1985
1985
1986
1985
1985
1984
1984
1985
1985
1985
1985
1985
1985
1985
1985
1986
1986
1987
1987
1988
1988
1988
1988
1988
1988
1988
1988
1988
1988
1988
1988
1988
1988
1988
1988
1987
1986
1986
1986
1986
1986
1986
1986
1985
1984
1984
1984
1984
1984
1984
1984
1984
1984
1983
1983
1982
1981
1980
1979
1979
1980
1981
1981
1981
1980
1979
1979
1978
1978
1979
1979
1980
1980
1980
1979
1978
1978
1978
1978
1978
1979
1979
1980
1980
1980
1980
1979
1979
1978
1978
1979
1980
1980
1980
1980
1979
1978
1978
1978
1979
1979
1980
1980
1980
1979
1978
1978
1978
1978
1979
1979
1979
1979
1979
1978
1978
1978
1978
1978
1978
1978
1979
1980
1980
1980
1980
1979
1978
1977
1977
1978
1978
1978
1979
1979
1978
1978
1979
1979
1979
1979
1979
1979
1978
1979
1979
1980
1980
1980
1981
1981
1982
1983
1982
1982
1981
1980
1980
1980
1980
1980
1980
1980
1980
1980
1979
1978
1977
1977
1977
1978
1978
1979
1979
1978
1977
1975
1976
1980
1988
1998
2006
2009
2006
1995
1978
1957
1937
1923
1919
1925
1939
1957
1971
1980
1984
1984
1984
1983
1983
1984
1984
1984
1984
1984
1984
1984
1985
1985
1985
1985
1984
1985
1985
1985
1986
1986
1986
1986
1986
1986
1986
1986
1986
1986
1986
1986
1987
1988
1988
1988
1989
1989
1988
1987
1986
1985
1985
1985
1985
1986
1987
1987
1987
1986
1985
1984
1983
1983
1984
1984
1985
1985
1984
1984
1983
1982
1982
1983
1983
1983
1983
1983
1982
1982
1982
1982
1982
1981
1981
1982
1982
1982
1983
1982
1982
1981
1980
1980
1981
1982
1984
1984
1985
1984
1983
1983
1983
1983
1984
1984
1984
1984
1983
1983
1983
1983
1983
1983
1983
1984
1984
1985
1985
1984
1983
1983
1982
1982
1983
1984
1985
1985
1985
1984
1983
1982
1982
1982
1983
1984
1985
1985
1985
1984
1984
1983
1983
1983
1984
1984
1985
1985
1985
1984
1984
1983
1983
1983
1984
1984
1984
1985
1985
1986
1986
1986
1986
1985
1985
1986
1986
1988
1989
1989
1989
1988
1988
1987
1988
1988
1989
1989
1989
1988
1988
1987
1988
1988
1988
1987
1986
1985
1984
1984
1985
1986
1986
1987
1986
1985
1985
1988
1995
2003
2012
2017
2017
2010
1996
1979
1960
1944
1936
1937
1946
1960
1975
1987
1994
1996
1995
1992
1989
1987
1988
1991
1994
1997
1997
1997
1996
1995
1996
1998
2000
2001
2001
2000
1999
2000
2001
2002
2003
2004
2004
2004
2004
2005
2006
2008
2009
2010
2010
2010
2010
2012
2014
2015
2015
2014
2014
2014
2015
2015
2014
2013
2013
2013
2013
2014
2013
2013
2013
2013
2012
2012
2011
2011
2011
2012
2013
2013
2012
2011
2010
2009
2008
2008
2010
2012
2013
2014
2014
2012
2011
2010
2009
2010
2011
2012
2012
2012
2012
2011
2010
2009
2009
2009
2010
2010
2010
2010
2010
2010
2010
2010
2008
2007
2007
2007
2007
2008
2009
2010
2009
2008
2008
2007
2007
2006
2006
2006
2005
2005
2005
2005
2004
2003
2003
2002
2002
2001
2001
2001
2001
2001
2002
2002
2002
2002
2002
2001
2000
1999
1998
1997
1998
1998
1999
2000
2000
2000
1999
1999
1999
1998
1998
1999
1999
1999
2000
2000
2000
1999
1998
1997
1996
1995
1995
1995
1995
1994
1993
1992
1992
1991
1990
1988
1988
1988
1988
1989
1990
1989
1988
1986
1986
1989
1996
2004
2013
2018
2016
2007
1991
1970
1948
1931
1924
1928
1942
1960
1975
1985
1989
1989
1988
1988
1989
1991
1992
1992
1992
1991
1990
1990
1989
1989
1989
1990
1990
1991
1992
1991
1991
1991
1990
1990
1990
1990
1991
1991
1992
1992
1991
1990
1990
1990
1990
1991
1992
1992
1993
1993
1992
1991
1991
1990
1989
1989
1988
1988
1988
1987
1986
1986
1985
1985
1986
1986
1986
1985
1984
1984
1983
1982
1982
1982
1982
1982
1982
1982
1981
1980
1979
1979
1979
1979
1979
1979
1979
1979
1979
1979
1979
1978
1978
1977
1977
1978
1979
1979
1980
1980
1980
1980
1980
1979
1979
1979
1978
1978
1978
1978
1978
1978
1978
1978
1978
1978
1979
1979
1979
1979
1978
1977
1976
1975
1975
1975
1977
1979
1979
1979
1977
1976
1975
1976
1976
1977
1978
1978
1977
1977
1977
1976
1976
1976
1976
1977
1978
1978
1978
1978
1977
1977
1977
1976
1977
1978
1980
1981
1981
1981
1980
1979
1978
1979
1979
1980
1980
1979
1979
1979
1978
1978
1978
1977
1977
1977
1978
1978
1978
1978
1977
1976
1976
1976
1978
1984
1992
2001
2007
2008
2002
1989
1972
1952
1934
1924
1924
1933
1949
1964
1976
1981
1983
1983
1982
1982
1983
1984
1985
1985
1985
1984
1983
1983
1983
1984
1984
1985
1986
1986
1986
1986
1985
1985
1985
1985
1986
1987
1987
1987
1987
1986
1986
1985
1986
1987
1988
1988
1988
1987
1987
1986
1986
1986
1986
1986
1986
1985
1984
1983
1983
1983
1984
1985
1985
1985
1985
1985
1985
1985
1985
1985
1985
1984
1984
1984
1984
1983
1983
1983
1983
1982
1982
1982
1983
1983
1984
1984
1984
1984
1983
1982
1981
1981
1982
1983
1983
1984
1984
1984
1984
1984
1984
1984
1984
1985
1985
1985
1984
1983
1983
1982
1983
1983
1984
1985
1986
1985
1985
1984
1983
1983
1983
1983
1983
1983
1982
1982
1983
1984
1984
1984
1983
1982
1982
1982
1983
1984
1983
1983
1982
1982
1982
1983
1983
1983
1982
1982
1982
1983
1983
1983
1983
1983
1983
1983
1984
1984
1984
1984
1983
1983
1983
1984
1985
1986
1987
1986
1985
1984
1984
1984
1983
1983
1983
1982
1983
1983
1983
1983
1982
1982
1981
1981
1981
1981
1981
1981
1980
1981
1984
1991
2000
2008
2013
2010
1999
1982
1961
1940
1925
1920
1926
1941
1959
1975
1985
1990
1990
1988
1987
1986
1986
1986
1987
1988
1989
1989
1989
1989
1988
1988
1988
1989
1990
1990
1991
1991
1991
1991
1991
1990
1990
1990
1990
1990
1990
1991
1991
1991
1991
1991
1991
1991
1991
1991
1992
1992
1992
1991
1991
1990
1990
1989
1989
1989
1989
1989
1989
1989
1988
1988
1987
1987
1988
1988
1989
1989
1989
1988
1987
1986
1985
1985
1986
1987
1987
1988
1988
1987
1987
1986
1985
1985
1985
1985
1985
1985
1985
1986
1986
1986
1985
1985
1986
1986
1987
1987
1987
1987
1986
1985
1984
1984
1985
1986
1987
1988
1988
1988
1987
1987
1986
1986
1986
1986
1986
1986
1986
1986
1986
1985
1985
1985
1985
1986
1986
1986
1986
1986
1986
1985
1984
1983
1983
1984
1985
1986
1986
1986
1985
1984
1984
1984
1984
1985
1986
1985
1985
1984
1983
1983
1984
1985
1985
1986
1985
1985
1985
1986
1986
1985
1985
1984
1984
1984
1985
1986
1986
1986
1986
1986
1986
1986
1987
1987
1987
1986
1986
1985
1985
1985
1985
1986
1986
1986
1987
1986
1985
1984
1983
1982
1981
1981
1981
1982
1982
1981
1980
1981
1984
1992
2001
2009
2014
2013
2004
1988
1968
1947
1930
1923
1926
1939
1957
1973
1985
1990
1991
1990
1988
1987
1986
1987
1987
1988
1989
1990
1990
1990
1990
1989
1989
1989
1990
1990
1990
1990
1990
1989
1989
1989
1990
1990
1991
1992
1993
1994
1993
1993
1992
1991
1991
1991
1992
1993
1993
1993
1992
1991
1990
1990
1990
1990
1990
1991
1991
1990
1990
1990
1990
1989
1989
1988
1989
1990
1991
1991
1991
1990
1988
1987
1987
1987
1987
1987
1988
1989
1989
1989
1988
1988
1987
1987
1988
1989
1989
1989
1989
1988
1987
1987
1988
1988
1989
1989
1989
1990
1990
1990
1990
1991
1991
1991
1990
1990
1990
1990
1990
1990
1991
1992
1992
1992
1991
1991
1992
1992
1993
1993
1993
1992
1992
1992
1992
1992
1992
1992
1992
1992
1992
1993
1994
1994
1994
1994
1993
1993
1992
1991
1991
1992
1992
1993
1994
1994
1995
1995
1995
1995
1994
1993
1993
1993
1994
1995
1997
1997
1997
1996
1995
1994
1994
1995
1996
1997
1997
1997
1996
1995
1995
1996
1996
1998
1999
1999
1999
1999
1998
1998
1998
1998
1998
1998
1998
1999
1999
1999
1999
1998
1999
2003
2010
2019
2028
2034
2035
2028
2016
1999
1981
1966
1958
1958
1967
1981
1995
2006
2012
2015
2016
2015
2014
2014
2016
2017
2019
2020
2020
2020
2020
2019
2019
2019
2020
2021
2022
2024
2024
2025
2024
2024
2023
2023
2024
2025
2027
2028
2028
2028
2027
2026
2026
2026
2026
2026
2026
2026
2026
2025
2025
2025
2025
2025
2025
2025
2025
2023
2022
2021
2021
2022
2023
2024
2025
2025
2025
2025
2025
2025
2023
2022
2021
2021
2021
2022
2024
2024
2024
2023
2022
2021
2021
2020
2020
2020
2021
2021
2021
2021
2021
2020
2020
2019
2019
2020
2020
2020
2020
2020
2020
2019
2019
2018
2018
2018
2018
2019
2019
2019
2018
2017
2016
2016
2016
2016
2016
2017
2017
2016
2016
2014
2013
2013
2012
2013
2013
2013
2012
2011
2010
2009
2008
2007
2008
2008
2007
2006
2005
2003
2002
2001
2000
2000
1999
1999
1999
1999
1999
1999
1998
1997
1997
1996
1995
1995
1995
1994
1993
1992
1991
1990
1989
1989
1989
1989
1988
1987
1986
1985
1984
1984
1984
1984
1983
1982
1981
1980
1981
1985
1992
2001
2008
2011
2008
1997
1980
1960
1940
1925
1920
1924
1937
1954
1969
1978
1982
1983
1981
1980
1980
1980
1980
1980
1980
1979
1979
1979
1979
1980
1980
1979
1979
1979
1979
1979
1980
1980
1980
1979
1978
1978
1978
1979
1980
1981
1981
1981
1981
1980
1979
1979
1979
1979
1980
1981
1981
1981
1980
1980
1979
1979
1978
1978
1978
1978
1978
1978
1978
1978
1977
1977
1976
1976
1976
1977
1978
1978
1977
1977
1976
1975
1975
1975
1976
1976
1976
1976
1975
1975
1974
1974
1975
1975
1976
1977
1977
1978
1978
1978
1977
1976
1975
1975
1976
1977
1978
1979
1979
1978
1977
1976
1976
1976
1976
1977
1978
1980
1980
1980
1979
1978
1977
1976
1977
1978
1978
1978
1978
1978
1977
1977
1977
1977
1977
1977
1977
1977
1977
1977
1976
1976
1976
1976
1977
1978
1978
1978
1978
1977
1976
1976
1976
1976
1977
1977
1978
1979
1979
1979
1978
1978
1978
1978
1979
1980
1980
1980
1980
1980
1980
1980
1981
1981
1980
1980
1980
1980
1981
1982
1982
1982
1981
1980
1980
1980
1981
1981
1980
1980
1979
1979
1979
1980
1981
1980
1980
1979
1978
1981
1988
1998
2007
2013
2013
2005
1990
1971
1951
1934
1924
1923
1933
1948
1965
1979
1986
1989
1988
1986
1986
1986
1987
1987
1987
1986
1986
1986
1986
1987
1987
1987
1987
1987
1987
1987
1988
1988
1988
1988
1988
1989
1989
1989
1989
1989
1989
1990
1990
1990
1989
1989
1989
1989
1990
1990
1990
1990
1989
1988
1988
1988
1988
1988
1989
1989
1989
1990
1990
1990
1990
1990
1990
1991
1991
1992
1992
1992
1991
1991
1991
1991
1992
1992
1992
1993
1993
1994
1994
1994
1993
1993
1993
1994
1995
1996
1997
1997
1997
1997
1996
1996
1996
1996
1996
1997
1998
1998
1998
1998
1998
1997
1997
1998
1998
1999
1999
1999
1999
1999
1998
1997
1997
1997
1997
1998
1999
1999
1998
1998
1998
1997
1997
1996
1996
1996
1996
1996
1997
1998
1999
1998
1998
1997
1996
1996
1996
1997
1997
1997
1997
1996
1995
1995
1995
1996
1997
1998
1998
1998
1997
1997
1996
1996
1996
1996
1996
1996
1996
1996
1996
1996
1995
1995
1994
1994
1994
1994
1993
1993
1993
1993
1993
1993
1992
1991
1991
1993
2000
2010
2020
2026
2026
2018
2004
1985
1965
1949
1939
1938
1946
1960
1975
1987
1995
1998
1998
1997
1996
1996
1996
1996
1997
1998
1998
1998
1998
1998
1998
1997
1997
1998
1998
1999
1999
2000
2000
1999
1998
1998
1997
1997
1998
1998
1999
1999
2000
2000
2001
2001
2000
1999
1999
1998
1998
1999
1999
1999
1998
1997
1996
1996
1995
1995
1995
1995
1995
1995
1995
1995
1994
1994
1993
1992
1992
1993
1994
1995
1996
1995
1994
1993
1991
1991
1991
1991
1992
1992
1992
1992
1992
1993
1994
1995
1997
1998
2000
2001
2003
2004
2004
2005
2005
2005
2006
2006
2007
2007
2008
2008
2007
2007
2007
2007
2007
2008
2008
2008
2009
2009
2008
2007
2006
2006
2006
2006
2006
2005
2005
2004
2003
2002
2002
2002
2002
2002
2001
2000
2000
2000
2000
2000
2000
2000
1999
1999
1998
1998
1998
1996
1995
1994
1993
1994
1994
1995
1996
1996
1996
1997
1996
1996
1995
1994
1994
1994
1994
1994
1994
1993
1993
1993
1993
1993
1994
1994
1995
1995
1995
1994
1992
1991
1990
1990
1990
1991
1992
1992
1992
1991
1990
1989
1988
1987
1986
1986
1987
1988
1989
1990
1990
1989
1988
1986
1986
1988
1995
2004
2014
2019
2017
2007
1991
1969
1948
1930
1921
1922
1934
1953
1971
1984
1991
1993
1992
1991
1991
1991
1991
1991
1991
1990
1991
1990
1990
1990
1990
1991
1991
1991
1991
1991
1990
1989
1990
1990
1991
1992
1992
1992
1991
1990
1990
1990
1990
1991
1991
1991
1991
1991
1991
1991
1991
1990
1991
1991
1991
1991
1990
1989
1988
1986
1984
1984
1984
1985
1986
1987
1987
1986
1985
1983
1982
1981
1981
1982
1982
1983
1982
1981
1979
1979
1979
1980
1981
1982
1982
1982
1981
1981
1980
1980
1980
1980
1980
1981
1981
1981
1980
1981
1981
1981
1982
1982
1982
1982
1981
1981
1982
1982
1982
1982
1982
1981
1981
1982
1982
1982
1982
1981
1981
1981
1981
1982
1983
1983
1983
1983
1982
1981
1981
1980
1980
1980
1981
1981
1982
1982
1981
1981
1981
1980
1980
1981
1981
1981
1981
1981
1981
1981
1980
1980
1980
1979
1980
1980
1981
1981
1981
1981
1981
1981
1980
1980
1980
1980
1980
1980
1981
1980
1980
1980
1980
1981
1982
1983
1983
1983
1983
1983
1982
1982
1982
1982
1983
1983
1983
1983
1982
1981
1980
1979
1980
1980
1981
1981
1981
1981
1980
1980
1979
1979
1978
1978
1978
1979
1984
1992
2001
2010
2013
2009
1997
1979
1958
1938
1924
1920
1926
1939
1956
1971
1981
1985
1987
1987
1987
1987
1987
1987
1987
1986
1986
1986
1986
1987
1988
1989
1990
1990
1989
1989
1988
1988
1989
1989
1990
1990
1990
1990
1990
1990
1990
1990
1991
1991
1992
1993
1993
1993
1992
1991
1991
1991
1991
1992
1992
1992
1992
1990
1989
1988
1987
1987
1988
1990
1991
1992
1992
1991
1989
1988
1987
1987
1987
1988
1988
1989
1988
1988
1987
1986
1986
1986
1987
1987
1987
1987
1987
1987
1986
1986
1986
1986
1987
1988
1989
1989
1988
1988
1987
1987
1987
1987
1987
1988
1988
1989
1990
1989
1989
1988
1988
1988
1988
1989
1990
1990
1990
1990
1989
1988
1988
1988
1989
1990
1990
1990
1990
1990
1989
1989
1990
1990
1991
1990
1990
1990
1990
1990
1990
1990
1989
1989
1989
1990
1991
1992
1992
1992
1992
1992
1991
1992
1992
1993
1994
1995
1995
1994
1994
1993
1993
1994
1994
1995
1995
1996
1996
1996
1996
1996
1996
1997
1997
1998
1998
1998
1998
1998
1998
1998
1999
1999
1999
1999
1999
1999
1999
1998
1998
1997
1997
1998
1999
1999
1999
1998
1998
2000
2007
2016
2025
2032
2033
2026
2013
1995
1976
1959
1950
1949
1957
1971
1985
1997
2004
2007
2006
2005
2003
2003
2003
2004
2005
2007
2008
2008
2007
2006
2005
2004
2004
2004
2005
2005
2006
2007
2007
2007
2006
2006
2006
2006
2006
2007
2008
2008
2008
2007
2006
2006
2006
2006
2007
2008
2008
2008
2007
2005
2004
2003
2003
2002
2002
2003
2003
2003
2002
2002
2001
2002
2002
2003
2003
2002
2001
2000
2000
2000
2000
2000
1999
1999
1999
1999
1999
1999
1998
1997
1997
1996
1996
1996
1996
1996
1997
1997
1998
1998
1998
1998
1997
1997
1997
1997
1997
1997
1997
1997
1997
1997
1997
1996
1996
1997
1997
1998
1998
1997
1996
1995
1994
1993
1993
1993
1994
1994
1994
1994
1994
1993
1993
1992
1992
1992
1993
1993
1993
1993
1992
1991
1990
1990
1991
1992
1993
1992
1992
1990
1990
1989
1989
1990
1991
1992
1993
1993
1993
1993
1992
1991
1991
1990
1990
1990
1990
1990
1990
1990
1990
1989
1989
1988
1988
1987
1987
1987
1987
1987
1986
1986
1986
1985
1984
1984
1988
1996
2005
2014
2018
2015
2005
1988
1969
1949
1934
1927
1930
1941
1957
1972
1982
1988
1989
1990
1989
1989
1989
1989
1988
1987
1988
1988
1989
1990
1991
1990
1990
1989
1989
1989
1989
1989
1989
1990
1990
1989
1989
1989
1989
1989
1990
1991
1991
1991
1991
1991
1991
1991
1990
1990
1989
1989
1989
1989
1990
1990
1990
1989
1988
1987
1987
1987
1987
1986
1986
1986
1986
1986
1986
1985
1985
1984
1984
1984
1984
1984
1984
1983
1983
1982
1982
1982
1981
1981
1982
1983
1983
1983
1982
1980
1979
1979
1980
1982
1983
1983
1982
1982
1981
1981
1981
1982
1982
1983
1983
1983
1983
1983
1983
1982
1982
1982
1983
1983
1983
1983
1983
1982
1981
1980
1980
1980
1981
1982
1983
1984
1983
1982
1981
1980
1980
1980
1980
1980
1980
1981
1981
1980
1980
1979
1979
1980
1980
1980
1980
1980
1980
1980
1980
1980
1980
1979
1979
1979
1980
1980
1980
1980
1979
1979
1979
1979
1979
1979
1979
1980
1980
1980
1980
1979
1979
1978
1979
1979
1980
1981
1982
1982
1982
1981
1980
1979
1979
1980
1980
1981
1981
1980
1980
1979
1979
1979
1979
1979
1978
1978
1977
1977
1977
1977
1977
1977
1977
1976
1976
1979
1985
1993
2002
2007
2006
1998
1983
1964
1944
1927
1917
1917
1927
1944
1961
1974
1981
1984
1984
1983
1982
1982
1982
1982
1983
1984
1985
1985
1985
1985
1985
1985
1985
1985
1985
1985
1985
1986
1986
1986
1986
1986
1986
1986
1986
1985
1986
1987
1988
1988
1989
1989
1988
1988
1988
1988
1989
1989
1989
1989
1988
1988
1987
1986
1986
1985
1985
1985
1985
1985
1985
1984
1984
1983
1983
1983
1983
1983
1982
1982
1982
1982
1982
1982
1982
1981
1980
1980
1981
1982
1982
1981
1980
1979
1978
1979
1979
1981
1981
1981
1981
1980
1980
1979
1979
1980
1980
1980
1980
1981
1982
1982
1982
1981
1981
1980
1980
1981
1981
1981
1981
1981
1980
1979
1978
1978
1979
1980
1981
1981
1981
1981
1980
1980
1980
1981
1981
1981
1981
1980
1979
1979
1978
1978
1979
1979
1980
1981
1981
1981
1980
1980
1979
1978
1978
1978
1979
1980
1980
1981
1981
1980
1979
1979
1978
1978
1978
1979
1980
1981
1981
1981
1981
1980
1980
1980
1981
1981
1982
1982
1981
1981
1980
1980
1980
1980
1981
1982
1983
1983
1983
1982
1982
1982
1982
1983
1985
1986
1986
1986
1986
1985
1984
1983
1983
1983
1984
1984
1985
1985
1985
1984
1983
1983
1983
1982
1982
1982
1983
1983
1983
1983
1983
1982
1982
1984
1990
1999
2009
2015
2016
2009
1995
1977
1957
1940
1929
1928
1936
1952
1969
1982
1989
1992
1992
1991
1992
1992
1993
1993
1993
1993
1993
1994
1995
1995
1996
1996
1996
1997
1997
1996
1996
1996
1996
1997
1997
1997
1997
1998
1998
1999
1999
1999
1998
1998
1998
1999
1999
1999
1999
1999
1999
1999
1999
1999
1999
1999
2000
2000
1999
1998
1997
1996
1996
1996
1997
1998
1998
1998
1998
1997
1997
1996
1996
1996
1996
1995
1995
1995
1994
1994
1994
1994
1994
1994
1994
1995
1996
1996
1997
1996
1995
1994
1993
1993
1994
1995
1996
1997
1997
1996
1996
1995
1995
1995
1995
1996
1997
1998
1999
1998
1997
1996
1996
1996
1997
1998
1998
1998
1998
1998
1997
1996
1996
1996
1997
1997
1997
1997
1997
1996
1996
1996
1996
1996
1996
1996
1997
1997
1997
1996
1996
1996
1996
1995
1996
1996
1996
1996
1997
1997
1997
1996
1995
1995
1995
1996
1997
1997
1998
1997
1997
1996
1996
1995
1995
1996
1997
1998
1998
1998
1997
1996
1995
1995
1996
1997
1997
1998
1998
1997
1996
1995
1994
1994
1994
1995
1995
1994
1994
1994
1994
1994
1994
1993
1995
1999
2008
2017
2025
2028
2024
2014
1998
1979
1961
1947
1941
1945
1955
1970
1983
1991
1996
1996
1996
1994
1993
1992
1992
1994
1997
2001
2005
2006
2005
2003
2001
2001
2003
2004
2005
2005
2006
2008
2010
2013
2015
2016
2016
2015
2015
2015
2015
2014
2012
2010
2010
2011
2013
2014
2013
2011
2009
2009
2010
2011
2010
2008
2006
2006
2007
2009
2011
2011
2011
2011
2011
2011
2010
2009
2008
2006
2004
2002
2003
2005
2007
2008
2005
2000
1995
1993
1996
2002
2007
2010
2010
2007
2004
2002
2001
2001
2001
2001
2000
2000
2000
2000
1998
1997
1996
1997
1999
2000
2001
2000
2000
2000
2001
2001
2001
2000
1997
1995
1994
1994
1995
1996
1997
1998
1996
1994
1991
1989
1991
1995
2000
2004
2004
2002
1997
1993
1991
1991
1992
1993
1995
1996
1997
1996
1994
1991
1990
1989
1989
1991
1992
1993
1993
1992
1991
1990
1990
1990
1990
1990
1991
1992
1992
1993
1994
1994
1992
1990
1989
1988
1987
1986
1985
1986
1987
1989
1992
1992
1991
1987
1985
1984
1985
1987
1987
1988
1987
1985
1984
1983
1984
1989
1996
2005
2012
2015
2012
2001
1985
1964
1945
1931
1928
1935
1949
1966
1979
1986
1989
1989
1988
1988
1988
1987
1987
1986
1986
1986
1986
1987
1987
1987
1987
1987
1986
1985
1984
1984
1984
1985
1986
1988
1988
1989
1988
1988
1988
1988
1989
1990
1990
1991
1991
1991
1991
1991
1990
1991
1991
1991
1991
1991
1991
1990
1990
1990
1990
1991
1992
1993
1993
1993
1992
1992
1991
1990
1990
1990
1991
1993
1994
1995
1995
1994
1993
1992
1992
1992
1993
1992
1992
1991
1991
1991
1992
1992
1992
1991
1991
1992
1993
1993
1993
1992
1991
1990
1990
1991
1992
1993
1993
1993
1993
1992
1991
1990
1990
1990
1990
1991
1992
1993
1993
1992
1992
1991
1991
1990
1991
1991
1992
1993
1993
1993
1992
1992
1993
1994
1995
1995
1995
1995
1995
1995
1995
1995
1995
1994
1993
1992
1991
1991
1991
1991
1991
1990
1990
1989
1989
1989
1988
1988
1987
1987
1986
1986
1986
1986
1986
1986
1986
1986
1987
1991
1998
2007
2015
2018
2015
2005
1988
1969
1951
1938
1933
1938
1950
1964
1978
1986
1990
1992
1991
1990
1990
1990
1990
1990
1990
1990
1991
1991
1991
1991
1991
1990
1990
1989
1990
1991
1991
1992
1992
1991
1990
1990
1990
1990
1991
1992
1993
1993
1992
1991
1991
1990
1990
1990
1990
1991
1991
1991
1991
1990
1990
1989
1988
1987
1987
1986
1986
1987
1987
1987
1987
1986
1986
1986
1986
1987
1987
1987
1986
1985
1984
1984
1983
1983
1983
1983
1983
1983
1984
1984
1984
1984
1984
1983
1983
1983
1983
1984
1984
1983
1983
1983
1983
1984
1984
1984
1984
1984
1984
1984
1984
1984
1984
1984
1984
1984
1985
1984
1984
1983
1983
1983
1983
1983
1983
1984
1984
1984
1984
1984
1984
1983
1983
1982
1983
1983
1983
1983
1983
1982
1982
1981
1980
1981
1981
1983
1985
1986
1986
1985
1984
1982
1982
1981
1982
1983
1983
1983
1983
1982
1982
1981
1981
1980
1979
1979
1980
1980
1981
1980
1979
1978
1977
1976
1977
1981
1988
1999
2008
2012
2010
1999
1982
1961
1940
1925
1919
1923
1937
1954
1969
1979
1984
1985
1984
1984
1984
1985
1985
1985
1985
1985
1984
1984
1984
1985
1986
1986
1986
1986
1986
1985
1986
1986
1986
1987
1987
1987
1986
1986
1986
1986
1987
1987
1987
1987
1988
1988
1988
1988
1987
1986
1985
1984
1985
1986
1987
1987
1987
1985
1984
1983
1983
1983
1983
1984
1985
1985
1984
1983
1983
1982
1982
1983
1984
1984
1984
1984
1983
1982
1982
1981
1981
1981
1981
1981
1981
1982
1982
1982
1982
1982
1982
1982
1983
1983
1984
1984
1984
1984
1984
1983
1983
1983
1983
1984
1985
1986
1986
1986
1985
1984
1984
1984
1985
1986
1986
1987
1987
1987
1987
1986
1986
1986
1986
1986
1987
1987
1988
1988
1987
1987
1986
1986
1986
1987
1987
1987
1987
1987
1986
1986
1986
1987
1987
1988
1988
1988
1988
1987
1987
1987
1987
1987
1987
1988
1988
1989
1990
1990
1991
1990
1990
1989
1989
1989
1989
1990
1990
1990
1990
1990
1989
1989
1988
1988
1988
1988
1989
1989
1988
1988
1988
1987
1987
1987
1987
1989
1995
2004
2013
2019
2020
2014
2002
1985
1966
1948
1938
1935
1942
1956
1970
1982
1990
1993
1994
1993
1992
1992
1992
1991
1992
1992
1992
1993
1993
1994
1994
1993
1993
1993
1993
1993
1993
1993
1993
1993
1993
1993
1993
1993
1993
1993
1993
1994
1995
1995
1995
1994
1993
1993
1992
1991
1991
1991
1992
1993
1993
1993
1992
1991
1989
1989
1989
1989
1990
1990
1990
1989
1989
1988
1987
1987
1988
1988
1989
1989
1989
1988
1988
1988
1987
1986
1986
1985
1985
1985
1986
1986
1987
1987
1986
1986
1986
1986
1986
1987
1987
1987
1986
1986
1985
1985
1985
1985
1986
1986
1986
1986
1986
1986
1986
1986
1986
1986
1986
1986
1986
1985
1985
1984
1984
1984
1985
1985
1986
1987
1987
1986
1985
1984
1984
1984
1984
1984
1985
1985
1985
1985
1985
1985
1984
1984
1984
1984
1985
1985
1985
1985
1984
1983
1983
1983
1983
1984
1985
1986
1986
1985
1984
1983
1982
1982
1983
1984
1985
1985
1985
1984
1984
1983
1983
1982
1982
1982
1983
1984
1984
1984
1983
1982
1982
1982
1983
1983
1984
1984
1984
1984
1985
1985
1985
1985
1985
1985
1985
1984
1984
1983
1983
1983
1984
1985
1985
1985
1984
1983
1982
1981
1981
1981
1981
1982
1982
1982
1981
1980
1981
1985
1993
2002
2010
2013
2008
1996
1978
1957
1937
1923
1919
1925
1940
1958
1973
1983
1987
1988
1987
1986
1986
1986
1987
1987
1987
1988
1988
1989
1989
1989
1989
1988
1988
1988
1988
1989
1990
1990
1990
1990
1990
1989
1989
1990
1990
1991
1992
1992
1992
1992
1991
1990
1990
1990
1991
1992
1993
1992
1991
1990
1989
1989
1988
1988
1989
1989
1989
1989
1989
1988
1988
1987
1986
1986
1987
1987
1987
1986
1985
1984
1983
1983
1983
1983
1983
1984
1985
1985
1985
1984
1984
1983
1983
1982
1982
1981
1981
1982
1982
1983
1983
1983
1983
1983
1983
1983
1983
1983
1983
1982
1982
1982
1982
1982
1982
1983
1983
1983
1983
1983
1982
1982
1981
1981
1981
1981
1982
1982
1982
1982
1982
1981
1981
1981
1981
1982
1982
1982
1982
1982
1981
1980
1980
1980
1980
1980
1980
1980
1981
1981
1981
1980
1980
1981
1981
1981
1981
1981
1981
1980
1980
1980
1980
1980
1980
1981
1982
1982
1982
1981
1980
1980
1979
1980
1980
1981
1981
1981
1981
1980
1980
1979
1979
1979
1979
1979
1980
1980
1980
1980
1981
1980
1980
1980
1980
1981
1981
1981
1981
1980
1980
1980
1979
1979
1980
1981
1981
1982
1982
1981
1981
1980
1980
1980
1981
1982
1983
1983
1983
1983
1982
1982
1981
1981
1981
1982
1983
1984
1984
1984
1983
1983
1982
1981
1980
1980
1980
1980
1981
1981
1981
1980
1980
1979
1979
1982
1989
1999
2008
2013
2011
2003
1988
1970
1951
1935
1927
1927
1937
1952
1968
1979
1986
1988
1989
1988
1988
1988
1988
1988
1987
1987
1988
1988
1989
1990
1990
1990
1990
1990
1989
1989
1989
1989
1990
1990
1991
1991
1991
1991
1991
1991
1991
1991
1992
1993
1993
1993
1993
1993
1993
1992
1992
1992
1992
1992
1993
1992
1992
1991
1990
1990
1989
1988
1988
1989
1990
1990
1991
1990
1990
1989
1988
1988
1988
1988
1988
1988
1988
1987
1987
1986
1986
1985
1985
1986
1986
1987
1987
1987
1986
1985
1984
1984
1985
1986
1986
1987
1987
1986
1986
1986
1985
1986
1986
1986
1987
1987
1987
1987
1987
1986
1986
1986
1986
1986
1987
1987
1987
1987
1986
1985
1985
1985
1986
1986
1987
1987
1987
1986
1985
1984
1984
1984
1984
1984
1985
1986
1986
1985
1985
1984
1984
1984
1984
1984
1985
1985
1985
1985
1984
1984
1983
1983
1983
1984
1985
1986
1986
1985
1985
1984
1983
1983
1984
1984
1985
1985
1985
1984
1983
1983
1983
1983
1984
1985
1985
1985
1985
1984
1983
1983
1983
1983
1984
1985
1985
1985
1985
1984
1984
1984
1984
1984
1984
1984
1984
1984
1984
1984
1984
1984
1984
1984
1985
1986
1986
1987
1986
1986
1986
1985
1985
1985
1985
1986
1986
1986
1986
1985
1984
1983
1983
1983
1983
1984
1984
1985
1984
1983
1982
1980
1979
1981
1987
1996
2005
2013
2014
2008
1995
1976
1956
1937
1925
1923
1931
1946
1963
1977
1985
1987
1987
1986
1986
1986
1987
1988
1988
1988
1988
1987
1987
1986
1987
1988
1989
1989
1989
1988
1988
1987
1987
1988
1989
1989
1989
1989
1990
1990
1990
1990
1990
1989
1989
1990
1991
1991
1991
1991
1991
1991
1990
1990
1990
1991
1991
1990
1990
1989
1988
1987
1986
1986
1986
1986
1986
1987
1987
1987
1986
1985
1984
1983
1983
1984
1984
1984
1984
1984
1983
1982
1982
1982
1983
1983
1983
1984
1983
1983
1982
1982
1982
1982
1982
1982
1982
1982
1982
1982
1982
1982
1982
1982
1982
1982
1982
1983
1983
1983
1982
1982
1981
1982
1982
1983
1984
1984
1984
1983
1982
1982
1982
1982
1982
1982
1982
1982
1982
1982
1982
1981
1981
1981
1981
1981
1982
1982
1983
1982
1981
1980
1980
1980
1981
1982
1982
1983
1983
1982
1982
1981
1981
1981
1981
1982
1982
1982
1982
1982
1981
1981
1981
1981
1981
1981
1982
1983
1983
1983
1982
1982
1981
1981
1981
1982
1982
1983
1983
1983
1982
1981
1981
1981
1981
1982
1982
1983
1983
1982
1982
1981
1981
1981
1981
1981
1981
1981
1981
1981
1982
1982
1982
1983
1983
1983
1984
1984
1984
1984
1983
1983
1983
1983
1983
1983
1984
1984
1984
1984
1983
1983
1983
1982
1982
1982
1981
1980
1980
1980
1980
1980
1980
1980
1979
1981
1987
1995
2005
2011
2012
2005
1991
1972
1951
1933
1923
1922
1931
1947
1964
1977
1984
1986
1986
1986
1986
1986
1987
1987
1986
1986
1986
1987
1987
1988
1988
1988
1988
1987
1987
1987
1986
1986
1987
1988
1989
1990
1990
1989
1989
1988
1988
1988
1989
1989
1990
1991
1991
1990
1990
1989
1989
1988
1989
1989
1990
1990
1989
1989
1989
1988
1988
1987
1987
1987
1987
1987
1987
1987
1986
1985
1985
1984
1984
1984
1984
1984
1983
1983
1982
1982
1981
1981
1982
1982
1983
1983
1983
1983
1982
1981
1981
1981
1982
1982
1982
1982
1982
1982
1983
1983
1982
1982
1982
1982
1982
1982
1982
1982
1982
1982
1982
1982
1982
1983
1983
1983
1983
1983
1982
1982
1982
1982
1982
1982
1982
1983
1983
1983
1982
1982
1981
1981
1981
1982
1982
1982
1982
1982
1981
1981
1981
1981
1981
1981
1982
1982
1982
1981
1981
1981
1981
1981
1981
1982
1982
1982
1982
1982
1982
1981
1981
1981
1981
1981
1981
1982
1982
1982
1982
1982
1981
1981
1981
1982
1982
1982
1982
1982
1982
1982
1982
1982
1982
1982
1982
1982
1982
1982
1982
1982
1981
1981
1981
1982
1982
1983
1983
1983
1982
1982
1981
1981
1981
1982
1983
1983
1983
1982
1983
1983
1983
1983
1984
1984
1985
1985
1985
1985
1984
1983
1983
1983
1983
1983
1983
1983
1983
1982
1981
1981
1980
1980
1981
1981
1982
1981
1980
1978
1978
1981
1988
1998
2007
2012
2011
2002
1986
1965
1944
1928
1921
1924
1936
1954
1970
1981
1986
1987
1987
1986
1985
1986
1986
1987
1988
1988
1988
1987
1987
1986
1986
1986
1987
1988
1989
1989
1989
1989
1988
1988
1988
1988
1988
1989
1990
1990
1990
1989
1989
1989
1989
1989
1990
1990
1990
1990
1990
1990
1989
1989
1989
1988
1988
1989
1989
1989
1988
1988
1987
1986
1985
1986
1986
1986
1986
1986
1986
1985
1984
1983
1983
1983
1983
1983
1983
1983
1983
1983
1983
1983
1982
1982
1981
1981
1981
1981
1982
1982
1982
1981
1981
1981
1981
1982
1982
1983
1983
1984
1984
1984
1983
1983
1983
1983
1983
1984
1984
1983
1983
1983
1983
1983
1983
1983
1983
1983
1983
1983
1983
1983
1983
1983
1983
1984
1984
1984
1984
1983
1983
1983
1983
1983
1983
1984
1984
1984
1984
1983
1983
1982
1982
1983
1983
1984
1984
1984
1984
1984
1983
1983
1983
1983
1983
1984
1985
1985
1985
1984
1984
1983
1983
1983
1983
1984
1984
1984
1984
1984
1984
1984
1984
1984
1983
1983
1984
1984
1984
1984
1984
1984
1983
1983
1984
1984
1985
1986
1986
1986
1985
1984
1984
1984
1985
1985
1986
1986
1986
1986
1984
1983
1982
1982
1982
1983
1984
1984
1983
1982
1981
1980
1979
1981
1986
1995
2004
2012
2015
2011
1999
1981
1960
1941
1928
1925
1932
1946
1962
1976
1984
1987
1988
1987
1987
1988
1988
1989
1988
1988
1987
1986
1986
1986
1987
1988
1989
1990
1990
1989
1989
1988
1988
1989
1989
1990
1990
1990
1989
1989
1989
1989
1990
1990
1991
1992
1992
1992
1992
1992
1991
1990
1990
1990
1990
1991
1991
1991
1990
1990
1989
1988
1988
1988
1988
1988
1989
1989
1988
1987
1986
1986
1986
1986
1986
1987
1987
1986
1985
1984
1984
1983
1983
1983
1983
1984
1984
1984
1984
1984
1984
1983
1982
1982
1983
1984
1985
1986
1986
1985
1984
1983
1983
1984
1984
1985
1986
1986
1986
1985
1985
1985
1985
1985
1985
1986
1986
1986
1985
1985
1985
1984
1985
1985
1985
1986
1986
1986
1986
1986
1985
1985
1985
1985
1985
1986
1986
1986
1986
1985
1984
1983
1983
1983
1984
1984
1985
1986
1986
1987
1986
1986
1986
1985
1985
1985
1985
1986
1986
1986
1986
1986
1986
1986
1987
1988
1989
1990
1990
1990
1989
1989
1988
1988
1988
1989
1989
1989
1989
1989
1989
1989
1988
1988
1987
1987
1988
1988
1989
1988
1988
1987
1987
1987
1986
1987
1990
1996
2006
2015
2021
2021
2015
2002
1984
1965
1949
1939
1938
1946
1959
1974
1985
1991
1994
1995
1995
1995
1995
1995
1995
1995
1995
1995
1996
1996
1997
1996
1996
1995
1995
1995
1995
1996
1997
1997
1998
1998
1998
1998
1997
1996
1995
1995
1996
1997
1999
1999
2000
1999
1998
1996
1996
1996
1996
1996
1997
1996
1996
1995
1994
1993
1993
1993
1994
1994
1995
1995
1994
1993
1993
1992
1992
1993
1993
1993
1993
1993
1992
1992
1991
1991
1990
1990
1990
1990
1990
1990
1990
1990
1990
1989
1989
1989
1990
1990
1991
1991
1990
1990
1989
1989
1989
1989
1989
1989
1989
1990
1989
1989
1988
1988
1988
1989
1989
1990
1990
1991
1991
1991
1991
1989
1989
1989
1989
1990
1990
1990
1990
1990
1989
1989
1989
1989
1990
1991
1992
1992
1992
1992
1992
1993
1993
1993
1993
1994
1994
1994
1995
1995
1994
1994
1994
1995
1995
1996
1997
1996
1996
1995
1994
1994
1994
1994
1994
1994
1994
1995
1995
1994
1993
1991
1990
1989
1989
1990
1992
1993
1993
1992
1990
1989
1992
1999
2010
2021
2027
2025
2015
1998
1976
1955
1937
1927
1929
1941
1959
1978
1992
1998
1999
1998
1996
1995
1995
1996
1997
1997
1998
1997
1996
1995
1995
1995
1996
1997
1998
1998
1998
1998
1997
1996
1996
1997
1997
1998
1998
1998
1998
1998
1998
1998
1998
1997
1998
1998
1998
1998
1998
1998
1998
1997
1997
1998
1998
1998
1998
1997
1996
1995
1994
1994
1993
1993
1993
1993
1992
1992
1991
1991
1990
1990
1990
1989
1990
1990
1990
1989
1989
1988
1988
1987
1986
1986
1986
1986
1986
1987
1987
1987
1986
1986
1986
1986
1986
1987
1987
1987
1986
1986
1986
1986
1986
1986
1985
1985
1986
1986
1987
1987
1987
1986
1986
1986
1986
1986
1987
1987
1986
1986
1986
1985
1986
1986
1987
1988
1988
1987
1986
1986
1985
1985
1984
1984
1984
1984
1985
1986
1987
1987
1987
1986
1985
1985
1985
1985
1985
1984
1984
1984
1984
1984
1984
1984
1984
1984
1985
1986
1986
1985
1984
1984
1984
1985
1986
1987
1987
1987
1986
1986
1986
1985
1985
1985
1985
1985
1986
1985
1984
1982
1981
1980
1980
1981
1981
1982
1983
1982
1981
1980
1981
1986
1995
2005
2012
2013
2006
1990
1969
1946
1926
1915
1915
1927
1946
1965
1980
1988
1990
1989
1987
1986
1986
1986
1987
1987
1988
1989
1990
1989
1989
1988
1988
1988
1988
1989
1989
1990
1990
1990
1990
1990
1991
1991
1991
1992
1991
1991
1991
1991
1991
1991
1991
1991
1992
1992
1992
1992
1991
1990
1989
1989
1989
1989
1989
1989
1989
1989
1989
1989
1989
1988
1987
1986
1986
1987
1987
1987
1987
1986
1985
1984
1984
1983
1983
1983
1983
1983
1983
1984
1983
1983
1983
1983
1983
1983
1983
1983
1983
1982
1982
1982
1982
1982
1982
1983
1983
1983
1983
1983
1983
1983
1983
1983
1984
1984
1984
1983
1983
1982
1982
1983
1983
1983
1983
1983
1983
1983
1984
1983
1983
1982
1981
1981
1981
1981
1981
1981
1982
1982
1982
1982
1981
1981
1981
1981
1981
1982
1982
1981
1981
1980
1980
1981
1981
1982
1982
1982
1982
1982
1982
1981
1981
1980
1981
1981
1982
1983
1983
1982
1981
1981
1982
1983
1983
1984
1984
1984
1983
1983
1982
1982
1982
1982
1983
1984
1984
1984
1984
1983
1982
1981
1980
1980
1981
1982
1982
1982
1982
1981
1981
1980
1979
1978
1977
1978
1982
1990
2000
2008
2013
2009
1999
1982
1961
1941
1925
1919
1924
1937
1955
1970
1980
1984
1985
1985
1985
1986
1987
1988
1988
1987
1986
1986
1986
1987
1988
1989
1989
1989
1989
1988
1988
1988
1988
1988
1989
1989
1990
1991
1991
1990
1990
1990
1991
1992
1992
1992
1992
1991
1991
1990
1989
1990
1990
1991
1992
1992
1992
1991
1990
1989
1988
1988
1989
1989
1990
1990
1990
1989
1988
1987
1986
1986
1985
1985
1986
1986
1987
1987
1986
1985
1985
1985
1985
1985
1986
1986
1986
1985
1984
1983
1983
1984
1985
1986
1987
1986
1986
1985
1985
1984
1985
1985
1985
1986
1986
1986
1986
1986
1986
1985
1985
1985
1985
1986
1987
1988
1988
1987
1986
1986
1985
1986
1986
1987
1986
1986
1985
1985
1984
1984
1985
1985
1986
1986
1986
1985
1985
1985
1985
1985
1985
1985
1985
1985
1985
1984
1984
1985
1985
1985
1985
1985
1986
1986
1986
1986
1986
1985
1984
1984
1984
1984
1985
1985
1986
1986
1985
1985
1985
1985
1985
1985
1985
1985
1985
1985
1986
1986
1986
1985
1985
1985
1986
1987
1988
1988
1988
1986
1985
1985
1985
1986
1987
1987
1987
1987
1987
1986
1985
1984
1982
1981
1982
1983
1984
1985
1985
1985
1983
1981
1982
1987
1995
2005
2013
2016
2010
1996
1976
1953
1932
1919
1918
1928
1946
1965
1980
1989
1991
1990
1988
1988
1989
1990
1990
1991
1991
1990
1990
1990
1990
1990
1990
1990
1991
1991
1992
1993
1993
1992
1991
1991
1991
1991
1992
1993
1993
1994
1994
1993
1993
1993
1993
1993
1994
1994
1994
1993
1993
1992
1992
1992
1992
1992
1992
1992
1992
1991
1990
1989
1988
1988
1989
1990
1990
1990
1989
1987
1985
1984
1984
1985
1986
1987
1987
1987
1986
1986
1986
1985
1984
1983
1983
1983
1984
1984
1985
1985
1984
1984
1983
1983
1983
1983
1984
1984
1985
1985
1984
1983
1982
1982
1982
1983
1984
1985
1985
1985
1984
1983
1983
1983
1983
1984
1984
1984
1984
1984
1983
1983
1983
1983
1983
1983
1983
1984
1983
1983
1982
1981
1980
1981
1981
1982
1982
1983
1983
1982
1981
1981
1980
1981
1981
1982
1983
1983
1982
1982
1981
1980
1980
1980
1980
1981
1981
1982
1982
1981
1980
1980
1979
1979
1980
1981
1982
1982
1982
1981
1981
1981
1981
1981
1981
1982
1982
1982
1981
1981
1981
1981
1982
1983
1984
1984
1984
1983
1983
1982
1982
1982
1982
1982
1982
1982
1982
1982
1981
1980
1980
1980
1980
1980
1980
1980
1980
1980
1979
1979
1979
1983
1990
2000
2008
2012
2008
1996
1977
1955
1935
1921
1918
1927
1943
1961
1975
1984
1986
1986
1985
1983
1983
1983
1984
1985
1986
1986
1986
1986
1986
1986
1986
1986
1986
1987
1988
1988
1988
1988
1988
1987
1987
1987
1987
1987
1988
1989
1989
1989
1988
1988
1987
1988
1989
1990
1990
1990
1989
1988
1987
1987
1987
1987
1988
1988
1989
1988
1987
1986
1986
1985
1986
1986
1987
1988
1988
1987
1987
1986
1985
1984
1984
1984
1984
1984
1984
1984
1984
1984
1983
1983
1982
1982
1983
1984
1985
1985
1985
1984
1983
1983
1983
1983
1984
1984
1984
1984
1984
1984
1984
1984
1984
1983
1984
1985
1985
1986
1986
1986
1986
1986
1985
1985
1985
1985
1985
1985
1986
1986
1985
1985
1985
1985
1986
1987
1987
1987
1986
1985
1985
1984
1984
1985
1985
1986
1986
1986
1986
1985
1985
1984
1984
1984
1985
1985
1986
1986
1986
1986
1985
1985
1985
1985
1985
1986
1986
1986
1986
1986
1985
1985
1985
1985
1985
1986
1986
1987
1987
1986
1986
1985
1986
1987
1988
1989
1989
1989
1989
1988
1988
1988
1987
1987
1987
1988
1989
1989
1989
1989
1988
1986
1986
1985
1986
1987
1987
1988
1988
1986
1985
1985
1989
1996
2005
2015
2021
2020
2013
1998
1979
1959
1943
1937
1940
1952
1967
1980
1988
1991
1992
1991
1991
1992
1993
1994
1994
1994
1994
1993
1993
1993
1993
1993
1993
1993
1994
1994
1994
1994
1994
1993
1993
1994
1994
1995
1996
1996
1996
1995
1994
1994
1994
1994
1996
1997
1997
1997
1996
1995
1994
1994
1994
1995
1995
1994
1993
1993
1993
1993
1993
1993
1993
1992
1992
1993
1993
1993
1994
1993
1993
1992
1992
1991
1991
1992
1993
1993
1993
1992
1990
1989
1990
1991
1993
1994
1994
1994
1994
1994
1993
1993
1992
1992
1992
1993
1994
1994
1993
1993
1992
1992
1993
1994
1996
1997
1998
1998
1997
1996
1995
1995
1995
1995
1995
1996
1996
1996
1997
1997
1997
1997
1997
1996
1996
1996
1996
1996
1996
1995
1995
1995
1995
1996
1996
1997
1997
1997
1997
1996
1995
1994
1994
1995
1996
1997
1998
1998
1997
1997
1996
1995
1995
1995
1995
1995
1996
1996
1996
1996
1995
1993
1992
1991
1991
1992
1992
1992
1993
1993
1992
1991
1990
1989
1992
1999
2008
2017
2024
2025
2018
2005
1988
1969
1953
1943
1942
1950
1963
1976
1986
1992
1995
1994
1994
1993
1994
1994
1995
1995
1995
1995
1995
1995
1995
1995
1995
1995
1995
1995
1994
1994
1994
1993
1994
1995
1996
1997
1997
1996
1995
1994
1993
1994
1995
1996
1996
1996
1996
1995
1995
1995
1995
1995
1995
1995
1995
1994
1993
1992
1992
1992
1992
1992
1992
1992
1992
1992
1992
1992
1991
1991
1990
1991
1991
1991
1990
1990
1990
1990
1989
1989
1989
1988
1988
1989
1989
1989
1989
1989
1988
1987
1987
1987
1988
1988
1989
1989
1989
1988
1987
1986
1986
1987
1988
1988
1989
1989
1990
1990
1989
1989
1988
1987
1988
1988
1989
1990
1990
1989
1988
1987
1986
1986
1987
1988
1988
1988
1988
1987
1986
1986
1986
1986
1986
1986
1986
1986
1986
1986
1985
1985
1985
1985
1986
1987
1987
1986
1986
1985
1984
1984
1984
1985
1986
1987
1988
1989
1989
1988
1987
1986
1986
1986
1986
1986
1986
1986
1986
1986
1985
1984
1983
1982
1982
1983
1984
1985
1985
1984
1982
1980
1979
1980
1985
1995
2006
2013
2015
2009
1994
1975
1952
1932
1919
1917
1925
1942
1962
1977
1986
1988
1987
1986
1985
1986
1987
1988
1988
1988
1987
1987
1986
1987
1988
1989
1990
1989
1989
1988
1988
1988
1989
1990
1990
1990
1990
1991
1991
1991
1990
1990
1990
1990
1990
1991
1992
1993
1993
1993
1992
1992
1991
1990
1990
1990
1990
1990
1989
1989
1988
1987
1986
1986
1986
1987
1987
1988
1987
1987
1986
1985
1985
1984
1984
1984
1983
1983
1983
1983
1983
1982
1982
1982
1982
1982
1982
1982
1982
1981
1980
1980
1980
1981
1982
1983
1983
1983
1983
1982
1982
1981
1981
1981
1982
1982
1982
1982
1982
1982
1982
1982
1982
1982
1982
1982
1982
1983
1982
1982
1981
1981
1981
1981
1981
1982
1982
1983
1983
1982
1982
1981
1980
1980
1979
1979
1979
1980
1980
1979
1979
1978
1978
1979
1979
1980
1981
1981
1981
1980
1980
1979
1978
1978
1979
1979
1980
1981
1981
1980
1980
1980
1980
1980
1981
1982
1982
1983
1982
1982
1981
1980
1979
1979
1980
1981
1982
1982
1982
1981
1980
1979
1978
1978
1978
1978
1978
1979
1979
1978
1977
1976
1977
1981
1990
2001
2009
2011
2006
1992
1973
1951
1932
1919
1918
1926
1941
1959
1973
1981
1984
1984
1983
1982
1982
1983
1984
1984
1985
1985
1985
1985
1985
1984
1984
1985
1986
1987
1987
1986
1985
1984
1984
1985
1986
1986
1987
1987
1987
1987
1986
1986
1986
1987
1987
1988
1989
1989
1988
1988
1987
1987
1986
1985
1985
1986
1986
1987
1987
1986
1985
1984
1984
1984
1984
1984
1985
1985
1985
1984
1983
1982
1982
1981
1982
1982
1983
1983
1983
1982
1982
1981
1981
1981
1981
1981
1981
1982
1982
1982
1982
1981
1980
1980
1980
1981
1982
1983
1983
1984
1983
1982
1982
1981
1982
1982
1983
1984
1984
1984
1983
1983
1982
1982
1981
1982
1982
1983
1984
1984
1983
1982
1982
1981
1982
1982
1982
1982
1983
1983
1983
1983
1982
1982
1982
1982
1982
1982
1982
1982
1982
1982
1981
1981
1981
1981
1983
1984
1984
1984
1983
1982
1982
1982
1982
1982
1983
1984
1984
1984
1983
1983
1982
1982
1982
1982
1982
1983
1983
1983
1983
1984
1984
1984
1984
1984
1985
1985
1985
1985
1985
1985
1984
1984
1984
1984
1985
1985
1986
1985
1985
1984
1984
1983
1983
1982
1982
1982
1982
1982
1983
1982
1982
1981
1980
1981
1985
1992
2001
2009
2013
2011
2002
1987
1967
1947
1932
1925
1927
1939
1955
1971
1982
1987
1989
1989
1988
1988
1988
1987
1987
1987
1987
1988
1989
1989
1989
1989
1990
1990
1990
1990
1989
1989
1989
1990
1991
1991
1991
1991
1991
1990
1990
1990
1990
1991
1992
1993
1993
1993
1992
1991
1991
1991
1992
1993
1993
1993
1992
1992
1991
1990
1989
1989
1988
1989
1989
1990
1990
1991
1991
1990
1989
1988
1988
1988
1989
1989
1989
1988
1987
1986
1986
1986
1986
1987
1988
1988
1987
1987
1987
1986
1986
1986
1987
1987
1987
1987
1987
1987
1987
1987
1987
1987
1987
1988
1989
1989
1989
1989
1988
1987
1986
1986
1986
1987
1987
1988
1988
1989
1989
1988
1988
1988
1988
1988
1989
1990
1990
1989
1988
1986
1986
1986
1987
1989
1991
1991
1990
1990
1989
1988
1987
1986
1987
1988
1989
1990
1991
1991
1990
1989
1989
1989
1990
1990
1991
1991
1992
1992
1992
1992
1992
1993
1994
1996
1997
1997
1995
1992
1989
1987
1987
1989
1992
1994
1996
1997
1996
1994
1994
1996
1999
2002
2003
2001
1998
1997
1999
2003
2007
2011
2014
2019
2025
2033
2037
2035
2024
2008
1988
1971
1961
1957
1960
1967
1977
1988
1998
2006
2010
2010
2006
2000
1995
1994
1997
2002
2005
2004
2001
1997
1996
1998
2002
2004
2006
2006
2006
2007
2007
2006
2002
1999
1998
1999
2002
2005
2007
2007
2006
2004
2002
2002
2004
2006
2008
2009
2007
2003
1998
1993
1991
1992
1995
2000
2003
2003
1999
1996
1996
1998
2002
2005
2005
2003
2000
1998
1997
1997
1996
1995
1993
1992
1992
1993
1993
1993
1991
1989
1987
1987
1987
1986
1985
1984
1985
1988
1992
1994
1992
1989
1986
1985
1986
1988
1988
1987
1985
1983
1982
1981
1980
1979
1977
1976
1975
1976
1978
1980
1982
1982
1982
1980
1979
1978
1978
1979
1979
1979
1977
1976
1975
1976
1977
1978
1978
1978
1977
1977
1976
1976
1977
1976
1976
1975
1974
1974
1973
1973
1973
1974
1975
1976
1977
1978
1979
1979
1980
1980
1979
1978
1978
1977
1978
1980
1982
1984
1985
1983
1981
1979
1977
1977
1978
1979
1979
1979
1978
1978
1978
1979
1980
1980
1980
1979
1979
1981
1985
1993
2001
2008
2012
2010
2002
1988
1971
1952
1937
1930
1933
1944
1960
1973
1983
1987
1987
1986
1986
1985
1986
1986
1987
1987
1988
1989
1990
1990
1990
1989
1988
1987
1986
1986
1987
1989
1990
1991
1991
1991
1991
1990
1989
1988
1987
1988
1989
1990
1991
1991
1990
1989
1989
1988
1988
1989
1989
1988
1988
1987
1986
1986
1986
1986
1986
1986
1985
1985
1985
1985
1986
1986
1986
1986
1986
1986
1987
1987
1986
1985
1984
1983
1983
1983
1984
1985
1986
1986
1985
1984
1984
1983
1984
1984
1985
1985
1986
1986
1985
1985
1984
1984
1985
1986
1986
1987
1986
1985
1984
1984
1984
1984
1984
1984
1985
1985
1987
1988
1988
1986
1984
1982
1981
1981
1981
1982
1983
1984
1984
1984
1984
1983
1983
1984
1984
1985
1985
1984
1984
1983
1983
1983
1983
1984
1984
1984
1985
1986
1986
1987
1987
1987
1986
1985
1984
1985
1986
1986
1987
1986
1986
1985
1985
1985
1985
1985
1985
1984
1984
1983
1982
1982
1981
1980
1981
1984
1992
2002
2011
2017
2016
2007
1992
1972
1951
1933
1922
1922
1932
1949
1967
1981
1988
1991
1991
1990
1989
1989
1989
1990
1990
1990
1990
1990
1990
1990
1990
1990
1990
1990
1991
1991
1991
1991
1992
1993
1993
1993
1992
1992
1991
1991
1991
1991
1991
1992
1992
1993
1993
1993
1993
1992
1992
1992
1992
1993
1993
1993
1992
1991
1989
1987
1987
1987
1988
1989
1990
1991
1991
1990
1990
1989
1988
1988
1987
1987
1987
1987
1987
1986
1985
1984
1983
1982
1983
1985
1986
1987
1988
1987
1986
1985
1985
1985
1984
1984
1984
1984
1985
1985
1986
1986
1985
1985
1984
1984
1984
1984
1985
1985
1985
1985
1985
1984
1984
1985
1985
1986
1986
1985
1985
1985
1985
1985
1985
1985
1984
1984
1984
1985
1985
1985
1984
1984
1984
1984
1984
1985
1985
1985
1984
1983
1982
1982
1982
1982
1983
1984
1984
1984
1984
1984
1984
1985
1985
1986
1987
1987
1987
1987
1986
1985
1985
1985
1984
1984
1983
1983
1984
1985
1986
1985
1983
1982
1981
1982
1983
1984
1983
1983
1981
1980
1979
1979
1983
1991
2001
2010
2014
2011
1998
1979
1956
1934
1918
1913
1920
1936
1956
1973
1984
1988
1988
1987
1986
1986
1986
1987
1987
1988
1988
1987
1987
1987
1988
1989
1990
1990
1990
1989
1988
1987
1987
1988
1989
1990
1991
1991
1991
1990
1990
1990
1991
1991
1991
1991
1991
1991
1991
1991
1990
1990
1990
1990
1990
1990
1991
1991
1991
1990
1988
1987
1987
1987
1988
1989
1989
1988
1988
1987
1987
1986
1986
1985
1985
1985
1985
1985
1985
1984
1984
1984
1984
1984
1984
1984
1984
1984
1983
1982
1982
1982
1982
1983
1984
1985
1985
1985
1985
1984
1983
1983
1983
1983
1983
1983
1984
1985
1985
1985
1985
1984
1983
1983
1983
1984
1984
1984
1984
1985
1984
1984
1983
1982
1981
1982
1983
1984
1985
1985
1985
1984
1983
1983
1982
1983
1983
1984
1984
1984
1984
1983
1982
1982
1983
1983
1984
1984
1984
1983
1983
1982
1982
1983
1983
1982
1982
1983
1983
1983
1983
1983
1983
1983
1984
1984
1984
1984
1984
1984
1984
1983
1982
1982
1982
1983
1985
1986
1986
1986
1986
1985
1985
1985
1985
1986
1986
1986
1985
1984
1984
1984
1984
1984
1983
1983
1983
1983
1983
1983
1982
1981
1981
1981
1984
1990
1999
2008
2014
2014
2006
1992
1972
1951
1933
1923
1924
1935
1953
1971
1983
1989
1990
1988
1987
1986
1987
1989
1989
1989
1989
1988
1988
1989
1989
1990
1991
1991
1991
1991
1990
1989
1989
1989
1990
1991
1991
1992
1993
1993
1992
1992
1991
1991
1992
1993
1994
1994
1993
1993
1992
1992
1992
1991
1991
1991
1991
1991
1992
1992
1991
1989
1988
1987
1987
1988
1989
1990
1991
1991
1990
1989
1988
1988
1988
1988
1989
1990
1989
1989
1987
1986
1986
1986
1987
1987
1988
1988
1988
1987
1987
1987
1987
1987
1987
1987
1987
1987
1988
1989
1990
1990
1990
1990
1989
1989
1989
1988
1988
1989
1989
1988
1988
1988
1989
1989
1990
1991
1991
1990
1989
1988
1987
1987
1988
1989
1990
1990
1989
1989
1989
1989
1989
1989
1989
1989
1988
1988
1988
1988
1988
1987
1987
1987
1988
1989
1990
