1965
1976
1982
1984
1983
1982
1982
1982
1983
1983
1983
1983
1983
1983
1984
1985
1986
1987
1988
1989
1990
1990
1990
1991
1991
1992
1993
1994
1995
1997
1998
1999
1999
2000
2001
2002
2004
2006
2009
2011
2012
2013
2013
2014
2015
2016
2018
2019
2021
2022
2021
2019
2016
2012
2007
2002
1997
1992
1987
1983
1979
1975
1972
1970
1968
1967
1967
1967
1966
1966
1965
1965
1964
1964
1963
1964
1964
1965
1966
1966
1967
1966
1965
1965
1965
1965
1966
1967
1967
1967
1967
1967
1967
1967
1967
1967
1967
1967
1968
1968
1968
1968
1968
1967
1967
1967
1967
1967
1967
1967
1967
1966
1966
1966
1965
1965
1966
1966
1966
1966
1966
1966
1966
1966
1966
1966
1966
1967
1967
1967
1968
1968
1967
1966
1966
1965
1965
1966
1967
1968
1968
1968
1968
1967
1967
1966
1966
1966
1967
1967
1967
1968
1968
1968
1968
1968
1968
1969
1969
1969
1970
1969
1969
1969
1969
1969
1969
1970
1970
1970
1970
1970
1970
1970
1971
1973
1976
1978
1978
1978
1978
1976
1975
1973
1972
1971
1971
1971
1971
1972
1971
1971
1970
1970
1970
1970
1970
1970
1970
1971
1971
1971
1972
1972
1970
1968
1964
1959
1956
1961
1978
2012
2056
2097
2119
2111
2073
2021
1971
1936
1924
1928
1942
1958
1970
1977
1981
1981
1980
1979
1980
1980
1980
1980
1980
1981
1982
1983
1984
1985
1986
1986
1986
1986
1987
1987
1989
1990
1991
1992
1993
1993
1993
1994
1995
1997
1998
2000
2002
2003
2005
2006
2007
2008
2009
2010
2011
2013
2015
2017
2018
2019
2020
2019
2018
2017
2014
2011
2007
2003
1998
1994
1989
1985
1981
1977
1974
1972
1971
1970
1969
1968
1967
1967
1966
1967
1967
1968
1969
1970
1970
1969
1969
1968
1968
1968
1969
1969
1970
1971
1972
1972
1972
1972
1972
1972
1971
1971
1972
1972
1972
1972
1972
1972
1972
1971
1972
1972
1972
1972
1972
1972
1971
1971
1970
1970
1971
1971
1972
1972
1972
1971
1971
1970
1970
1970
1971
1972
1973
1973
1973
1972
1971
1971
1971
1972
1972
1973
1974
1974
1974
1974
1974
1973
1973
1972
1972
1973
1973
1973
1973
1973
1973
1973
1973
1973
1973
1974
1975
1975
1975
1975
1974
1974
1974
1974
1975
1975
1975
1976
1976
1976
1975
1975
1975
1974
1974
1975
1976
1977
1979
1981
1983
1984
1984
1983
1982
1982
1982
1981
1980
1979
1977
1976
1975
1975
1975
1975
1975
1975
1975
1975
1974
1974
1974
1974
1974
1975
1976
1977
1977
1975
1971
1966
1961
1960
1971
1997
2038
2083
2117
2124
2100
2052
1998
1954
1930
1925
1934
1949
1963
1974
1980
1983
1982
1981
1980
1980
1981
1982
1983
1984
1984
1984
1984
1985
1986
1987
1989
1990
1990
1990
1990
1990
1990
1991
1993
1994
1996
1997
1997
1998
1999
1999
2000
2001
2002
2004
2006
2009
2010
2011
2012
2012
2012
2013
2014
2016
2018
2020
2020
2020
2017
2014
2010
2005
2001
1996
1992
1987
1983
1979
1975
1972
1969
1968
1967
1966
1966
1966
1966
1965
1964
1963
1962
1962
1963
1964
1966
1966
1966
1966
1965
1964
1964
1965
1966
1967
1968
1968
1967
1967
1967
1967
1967
1968
1969
1969
1968
1968
1967
1966
1966
1966
1967
1967
1966
1966
1966
1966
1966
1967
1966
1966
1966
1966
1966
1967
1967
1968
1967
1967
1966
1965
1965
1965
1965
1966
1967
1967
1968
1967
1967
1966
1966
1966
1967
1967
1968
1968
1967
1967
1967
1967
1967
1967
1967
1967
1968
1969
1969
1969
1969
1968
1967
1967
1967
1968
1970
1972
1975
1977
1977
1977
1976
1976
1975
1975
1975
1974
1973
1972
1971
1970
1969
1969
1968
1969
1969
1970
1970
1970
1969
1968
1968
1969
1970
1971
1972
1972
1969
1965
1958
1953
1955
1972
2007
2054
2102
2130
2125
2087
2030
1974
1934
1916
1916
1927
1941
1956
1968
1976
1980
1980
1979
1979
1979
1981
1982
1983
1984
1985
1985
1985
1985
1986
1987
1988
1990
1992
1993
1993
1993
1993
1993
1995
1996
1998
2000
2001
2002
2003
2004
2005
2006
2008
2010
2012
2014
2017
2018
2020
2021
2021
2022
2023
2024
2026
2027
2027
2026
2023
2018
2012
2006
2000
1995
1991
1987
1983
1980
1977
1974
1971
1970
1969
1969
1969
1969
1969
1969
1969
1968
1967
1967
1968
1968
1969
1970
1971
1971
1971
1971
1971
1971
1972
1973
1974
1974
1974
1974
1973
1973
1972
1973
1973
1973
1974
1974
1975
1975
1975
1974
1974
1973
1973
1973
1973
1974
1974
1974
1974
1973
1972
1971
1971
1971
1972
1973
1973
1974
1974
1974
1973
1973
1973
1973
1973
1974
1974
1974
1974
1974
1974
1974
1974
1975
1975
1975
1975
1975
1975
1975
1975
1975
1975
1976
1976
1976
1976
1976
1976
1975
1974
1974
1975
1976
1979
1982
1984
1985
1985
1984
1983
1981
1979
1979
1978
1978
1978
1978
1977
1976
1975
1975
1975
1975
1976
1976
1976
1976
1976
1975
1975
1976
1976
1977
1977
1974
1970
1964
1960
1965
1985
2022
2069
2113
2133
2120
2078
2023
1971
1937
1925
1931
1945
1961
1974
1982
1985
1985
1983
1982
1982
1982
1983
1984
1985
1986
1987
1987
1988
1988
1988
1988
1989
1990
1991
1992
1993
1994
1995
1995
1995
1996
1997
1999
2000
2002
2004
2005
2006
2007
2008
2010
2012
2013
2015
2016
2018
2019
2020
2020
2021
2022
2023
2023
2022
2021
2017
2013
2008
2002
1995
1990
1985
1981
1978
1976
1974
1971
1969
1967
1966
1966
1966
1966
1967
1967
1967
1967
1966
1966
1966
1967
1967
1967
1968
1969
1970
1970
1970
1970
1969
1969
1969
1969
1970
1971
1971
1971
1971
1971
1970
1970
1970
1970
1971
1971
1972
1971
1971
1970
1970
1969
1969
1970
1970
1971
1971
1970
1969
1969
1968
1968
1968
1968
1969
1970
1970
1970
1970
1970
1970
1970
1970
1970
1971
1972
1972
1971
1971
1970
1970
1969
1970
1970
1971
1971
1972
1972
1972
1971
1971
1971
1971
1972
1972
1973
1973
1973
1973
1973
1972
1971
1971
1971
1971
1972
1972
1972
1972
1972
1972
1974
1976
1979
1981
1981
1981
1980
1978
1977
1976
1974
1973
1973
1973
1973
1973
1972
1971
1971
1971
1971
1971
1971
1971
1972
1972
1973
1973
1973
1972
1972
1970
1966
1962
1959
1962
1979
2012
2055
2098
2121
2114
2078
2026
1974
1939
1926
1930
1944
1959
1972
1979
1982
1982
1980
1979
1979
1979
1979
1979
1980
1980
1981
1983
1984
1985
1985
1985
1985
1985
1985
1986
1987
1989
1990
1992
1993
1993
1993
1993
1994
1995
1997
1999
2000
2002
2003
2004
2006
2007
2008
2009
2011
2013
2014
2016
2017
2018
2018
2018
2017
2016
2013
2010
2006
2001
1996
1990
1985
1980
1976
1973
1971
1970
1969
1969
1968
1967
1966
1964
1963
1963
1963
1964
1965
1965
1966
1966
1966
1965
1965
1966
1966
1967
1968
1968
1968
1967
1966
1966
1966
1966
1967
1968
1969
1970
1970
1969
1968
1967
1967
1967
1968
1969
1969
1969
1969
1968
1967
1967
1967
1967
1967
1968
1968
1968
1968
1968
1968
1968
1967
1967
1968
1968
1969
1969
1970
1969
1969
1969
1968
1968
1968
1969
1969
1970
1970
1970
1969
1969
1968
1969
1969
1970
1970
1970
1970
1970
1970
1970
1969
1969
1970
1970
1971
1971
1971
1971
1971
1970
1970
1970
1970
1971
1972
1972
1972
1972
1971
1971
1970
1971
1971
1971
1972
1972
1972
1972
1974
1976
1978
1979
1980
1980
1979
1979
1978
1978
1976
1975
1973
1973
1972
1972
1972
1972
1972
1972
1971
1971
1970
1970
1971
1971
1972
1972
1973
1973
1972
1970
1966
1960
1956
1959
1974
2006
2049
2093
2119
2116
2082
2030
1977
1939
1922
1923
1935
1950
1964
1973
1978
1980
1979
1978
1978
1978
1978
1978
1978
1978
1978
1979
1980
1981
1983
1984
1985
1985
1985
1985
1986
1987
1988
1989
1990
1991
1992
1992
1992
1992
1993
1994
1996
1998
2001
2002
2004
2005
2006
2007
2008
2009
2011
2012
2014
2015
2016
2017
2017
2015
2013
2009
2005
2001
1996
1990
1985
1980
1976
1972
1970
1968
1966
1965
1964
1963
1962
1961
1960
1959
1959
1959
1959
1960
1961
1962
1962
1962
1962
1962
1962
1962
1963
1964
1964
1964
1964
1964
1963
1963
1963
1964
1964
1964
1964
1964
1964
1964
1964
1963
1963
1963
1964
1964
1964
1964
1964
1963
1963
1963
1963
1963
1963
1963
1964
1964
1964
1964
1964
1963
1962
1962
1962
1963
1964
1965
1966
1966
1965
1964
1964
1964
1964
1965
1966
1966
1966
1965
1965
1965
1965
1965
1966
1966
1967
1968
1968
1967
1966
1966
1965
1965
1965
1966
1966
1968
1970
1973
1976
1980
1984
1988
1991
1994
1997
1999
2000
2002
2004
2006
2007
2008
2009
2012
2016
2023
2032
2044
2057
2075
2094
2108
2111
2098
2068
2033
2001
1983
1980
1985
1989
1986
1977
1966
1957
1954
1953
1953
1953
1953
1953
1953
1953
1953
1953
1953
1953
1953
1953
1953
1953
1954
1955
1955
1956
1956
1955
1954
1953
1953
1952
1952
1952
1953
1953
1953
1954
1954
1953
1953
1953
1954
1955
1956
1958
1959
1960
1961
1962
1963
1964
1965
1966
1968
1969
1970
1971
1971
1971
1971
1971
1972
1973
1973
1974
1974
1973
1973
1972
1971
1971
1971
1972
1973
1974
1975
1975
1975
1974
1973
1973
1973
1974
1974
1975
1976
1976
1976
1975
1975
1975
1975
1975
1975
1976
1977
1977
1976
1976
1975
1975
1975
1975
1975
1975
1976
1976
1975
1975
1974
1974
1974
1974
1974
1975
1975
1975
1975
1974
1974
1974
1974
1975
1976
1977
1978
1978
1977
1977
1976
1976
1976
1976
1977
1977
1978
1978
1977
1977
1976
1976
1976
1977
1978
1978
1979
1980
1980
1979
1979
1978
1978
1979
1979
1979
1979
1979
1979
1979
1979
1978
1978
1978
1979
1979
1980
1980
1980
1980
1980
1980
1979
1979
1979
1980
1980
1980
1980
1980
1981
1982
1983
1986
1988
1988
1988
1987
1986
1985
1984
1983
1982
1981
1981
1981
1981
1981
1981
1980
1979
1978
1978
1979
1979
1980
1981
1981
1982
1981
1980
1978
1975
1970
1966
1966
1977
2005
2048
2095
2132
2140
2115
2065
2008
1961
1935
1930
1939
1954
1968
1979
1986
1990
1990
1989
1989
1988
1988
1988
1988
1989
1990
1991
1992
1993
1994
1995
1995
1996
1996
1996
1997
1998
1999
2000
2001
2002
2003
2003
2004
2005
2006
2007
2008
2010
2012
2014
2015
2016
2017
2018
2019
2021
2022
2024
2026
2027
2029
2029
2029
2029
2027
2024
2021
2017
2012
2007
2002
1996
1991
1987
1984
1981
1980
1979
1978
1976
1975
1973
1972
1972
1972
1972
1972
1972
1973
1973
1973
1973
1972
1972
1972
1972
1973
1974
1975
1975
1975
1975
1974
1974
1973
1974
1975
1976
1977
1977
1976
1975
1975
1974
1974
1975
1975
1976
1976
1976
1976
1975
1975
1974
1973
1973
1973
1974
1975
1975
1975
1974
1974
1974
1974
1974
1974
1974
1974
1974
1974
1974
1974
1974
1974
1974
1974
1974
1974
1974
1973
1973
1973
1973
1974
1975
1975
1976
1976
1976
1976
1975
1975
1975
1975
1975
1975
1975
1975
1975
1975
1974
1973
1974
1975
1977
1980
1983
1984
1984
1983
1981
1980
1979
1979
1978
1978
1978
1978
1978
1977
1976
1974
1974
1974
1974
1975
1975
1975
1975
1975
1975
1975
1975
1975
1975
1972
1968
1963
1962
1971
1995
2035
2080
2116
2126
2104
2056
2002
1956
1931
1927
1937
1953
1967
1978
1983
1985
1985
1983
1982
1982
1982
1982
1982
1983
1984
1985
1986
1987
1988
1988
1988
1989
1989
1990
1991
1992
1993
1994
1994
1995
1995
1996
1997
1998
2000
2001
2003
2004
2005
2006
2007
2008
2010
2012
2014
2015
2017
2018
2019
2020
2020
2021
2021
2020
2018
2015
2010
2005
1999
1994
1989
1984
1980
1977
1974
1972
1971
1970
1969
1967
1966
1966
1965
1965
1965
1965
1966
1966
1966
1966
1966
1965
1965
1965
1965
1966
1967
1967
1967
1967
1966
1966
1965
1966
1967
1968
1968
1968
1968
1967
1967
1966
1966
1966
1966
1966
1966
1966
1966
1965
1965
1964
1964
1965
1965
1965
1966
1966
1966
1965
1964
1964
1963
1964
1965
1965
1965
1965
1965
1964
1964
1964
1964
1964
1965
1965
1965
1965
1965
1964
1964
1963
1964
1964
1965
1965
1966
1966
1966
1966
1965
1964
1964
1964
1964
1965
1965
1965
1965
1964
1964
1963
1964
1964
1964
1965
1965
1964
1964
1964
1964
1965
1967
1969
1971
1972
1972
1971
1969
1968
1967
1965
1965
1964
1964
1965
1965
1964
1964
1963
1963
1963
1963
1963
1964
1965
1966
1966
1967
1966
1965
1963
1959
1955
1952
1955
1970
2001
2044
2087
2114
2111
2077
2026
1974
1936
1920
1922
1935
1950
1963
1971
1975
1976
1976
1975
1975
1975
1976
1976
1976
1977
1977
1978
1979
1980
1980
1981
1982
1982
1983
1983
1984
1985
1986
1988
1989
1991
1991
1992
1992
1993
1994
1996
1997
1999
2001
2002
2003
2004
2005
2006
2008
2009
2011
2013
2015
2017
2018
2019
2019
2017
2015
2012
2008
2004
1999
1994
1989
1984
1980
1977
1974
1972
1971
1970
1970
1969
1968
1967
1966
1966
1966
1967
1968
1968
1969
1969
1970
1970
1969
1969
1969
1970
1971
1972
1973
1973
1973
1973
1972
1972
1972
1973
1973
1974
1974
1974
1974
1974
1974
1974
1973
1973
1973
1973
1973
1973
1973
1973
1974
1974
1974
1973
1973
1973
1974
1974
1974
1974
1973
1973
1974
1975
1976
1977
1977
1977
1976
1976
1976
1975
1975
1975
1976
1976
1977
1977
1978
1977
1977
1976
1976
1976
1977
1978
1979
1979
1980
1980
1980
1979
1979
1979
1980
1980
1982
1984
1986
1987
1988
1987
1987
1986
1986
1986
1986
1985
1984
1983
1982
1982
1981
1981
1981
1982
1982
1982
1982
1982
1981
1981
1981
1982
1982
1983
1982
1980
1976
1970
1967
1973
1995
2035
2083
2125
2142
2125
2079
2021
1970
1937
1926
1931
1945
1960
1974
1984
1990
1991
1991
1990
1990
1990
1991
1992
1993
1993
1994
1994
1994
1994
1995
1997
1998
1999
1999
1999
1999
2000
2000
2001
2002
2003
2004
2005
2006
2007
2009
2010
2010
2011
2013
2014
2017
2019
2021
2022
2023
2023
2024
2025
2026
2028
2029
2030
2030
2028
2024
2019
2013
2007
2001
1996
1991
1987
1983
1979
1976
1974
1972
1970
1969
1969
1969
1968
1968
1968
1968
1968
1967
1967
1967
1968
1968
1969
1970
1971
1971
1970
1969
1969
1969
1970
1972
1973
1974
1974
1973
1973
1972
1971
1970
1970
1971
1971
1972
1972
1972
1971
1970
1970
1970
1971
1971
1971
1971
1971
1970
1970
1969
1969
1969
1969
1970
1970
1971
1971
1971
1971
1970
1970
1969
1969
1969
1970
1970
1970
1970
1970
1970
1970
1970
1971
1971
1972
1972
1972
1971
1970
1970
1970
1971
1973
1975
1977
1978
1979
1979
1979
1978
1976
1975
1974
1974
1974
1974
1974
1974
1973
1973
1972
1972
1972
1973
1973
1974
1974
1974
1974
1974
1975
1975
1973
1970
1964
1959
1961
1975
2007
2052
2100
2130
2128
2093
2039
1983
1942
1923
1922
1933
1948
1963
1975
1983
1986
1986
1984
1983
1983
1983
1984
1985
1986
1987
1988
1989
1990
1991
1991
1991
1991
1992
1993
1995
1996
1997
1998
1998
1999
2000
2001
2003
2004
2006
2007
2009
2010
2011
2012
2014
2015
2017
2019
2021
2023
2024
2025
2027
2028
2028
2028
2027
2025
2022
2017
2011
2005
1999
1993
1988
1983
1980
1977
1976
1974
1973
1972
1971
1971
1970
1969
1968
1968
1968
1968
1969
1969
1970
1970
1970
1970
1970
1971
1972
1973
1973
1973
1973
1973
1973
1973
1973
1974
1975
1975
1976
1975
1975
1974
1974
1973
1974
1974
1975
1976
1976
1976
1975
1974
1974
1973
1973
1974
1975
1975
1976
1976
1975
1975
1974
1974
1974
1975
1975
1976
1976
1976
1976
1975
1975
1975
1975
1975
1976
1977
1978
1978
1978
1977
1976
1976
1976
1976
1977
1978
1978
1978
1978
1977
1977
1977
1977
1978
1979
1979
1980
1980
1980
1979
1978
1978
1977
1977
1977
1978
1978
1980
1982
1983
1985
1986
1986
1986
1986
1985
1985
1984
1983
1981
1980
1979
1979
1979
1979
1979
1979
1979
1979
1979
1979
1979
1979
1979
1980
1981
1981
1981
1979
1975
1969
1964
1966
1982
2014
2059
2106
2134
2131
2096
2042
1987
1947
1930
1933
1946
1963
1976
1985
1988
1988
1986
1985
1985
1986
1988
1989
1989
1989
1989
1990
1990
1991
1992
1993
1993
1994
1994
1995
1996
1996
1997
1998
1999
2001
2002
2003
2005
2005
2006
2007
2008
2009
2011
2013
2015
2016
2018
2019
2019
2020
2021
2023
2025
2027
2028
2029
2028
2027
2023
2019
2014
2008
2003
1998
1993
1989
1985
1982
1979
1976
1974
1972
1971
1971
1970
1970
1970
1970
1970
1970
1970
1970
1970
1971
1971
1971
1971
1971
1971
1971
1971
1971
1972
1972
1973
1973
1973
1973
1973
1973
1973
1973
1973
1973
1973
1974
1974
1974
1973
1972
1972
1972
1972
1973
1973
1973
1973
1973
1973
1972
1972
1971
1971
1972
1972
1973
1973
1973
1972
1971
1971
1971
1971
1972
1972
1973
1973
1973
1973
1972
1972
1972
1972
1973
1973
1973
1973
1972
1972
1971
1971
1971
1972
1972
1973
1973
1973
1973
1973
1972
1972
1972
1972
1973
1974
1974
1975
1975
1975
1974
1974
1974
1975
1975
1975
1975
1975
1974
1974
1974
1973
1973
1973
1974
1977
1979
1981
1982
1982
1981
1980
1980
1979
1979
1978
1977
1976
1975
1974
1974
1973
1973
1973
1973
1973
1973
1974
1974
1973
1973
1973
1973
1973
1974
1974
1972
1968
1963
1959
1963
1982
2016
2061
2104
2126
2116
2077
2023
1971
1937
1924
1930
1945
1961
1974
1982
1984
1983
1981
1979
1979
1979
1980
1982
1983
1984
1985
1986
1986
1986
1987
1987
1989
1990
1991
1992
1992
1992
1992
1993
1993
1994
1995
1997
1999
2000
2001
2002
2002
2003
2004
2005
2007
2009
2011
2012
2014
2015
2016
2017
2018
2019
2021
2022
2022
2021
2019
2015
2010
2005
1999
1994
1990
1986
1983
1979
1976
1974
1971
1969
1968
1967
1967
1967
1967
1967
1967
1967
1967
1967
1967
1967
1967
1968
1969
1970
1970
1970
1970
1969
1968
1968
1969
1970
1971
1971
1971
1970
1970
1970
1969
1969
1970
1971
1971
1972
1972
1971
1970
1968
1968
1968
1968
1969
1969
1969
1969
1969
1969
1969
1968
1968
1969
1969
1970
1970
1970
1970
1970
1969
1969
1969
1969
1970
1970
1971
1971
1971
1971
1970
1970
1969
1969
1970
1971
1971
1972
1972
1972
1971
1970
1970
1970
1970
1971
1971
1972
1972
1972
1971
1971
1971
1971
1972
1972
1972
1972
1972
1972
1972
1972
1972
1972
1972
1972
1973
1974
1976
1978
1980
1980
1980
1979
1979
1978
1978
1977
1976
1975
1973
1972
1972
1972
1972
1971
1971
1971
1971
1971
1971
1971
1971
1971
1972
1973
1973
1973
1971
1968
1964
1959
1959
1967
1992
2031
2076
2112
2121
2099
2052
1998
1952
1927
1923
1934
1949
1964
1974
1979
1980
1979
1978
1978
1978
1979
1980
1980
1980
1980
1979
1980
1980
1981
1983
1984
1985
1986
1986
1986
1987
1987
1988
1988
1989
1990
1991
1993
1994
1995
1995
1996
1997
1998
2000
2002
2004
2005
2006
2006
2006
2007
2008
2010
2012
2014
2015
2015
2014
2011
2008
2004
2000
1995
1990
1986
1981
1976
1972
1968
1965
1963
1961
1960
1960
1960
1960
1960
1960
1959
1958
1957
1956
1957
1958
1959
1960
1961
1960
1960
1960
1959
1959
1960
1960
1961
1961
1961
1961
1961
1961
1961
1961
1961
1961
1960
1960
1960
1961
1960
1960
1959
1959
1959
1960
1961
1962
1962
1961
1960
1959
1959
1959
1960
1961
1961
1962
1961
1961
1960
1960
1959
1959
1960
1961
1962
1963
1963
1963
1961
1960
1959
1960
1960
1962
1963
1964
1964
1964
1963
1963
1962
1963
1964
1964
1965
1965
1964
1963
1962
1962
1962
1963
1963
1964
1965
1966
1966
1965
1964
1964
1964
1965
1967
1969
1972
1974
1975
1975
1974
1973
1971
1971
1970
1970
1969
1969
1968
1968
1967
1967
1967
1967
1968
1969
1969
1969
1968
1968
1968
1968
1969
1970
1970
1968
1965
1960
1955
1956
1970
2001
2047
2093
2123
2123
2090
2038
1982
1941
1920
1918
1927
1941
1956
1969
1978
1983
1983
1982
1981
1981
1981
1981
1982
1984
1985
1986
1987
1988
1988
1988
1989
1990
1991
1993
1994
1995
1996
1997
1997
1998
1998
2000
2001
2003
2005
2006
2007
2008
2009
2010
2012
2013
2015
2017
2019
2021
2023
2025
2026
2027
2028
2029
2029
2029
2027
2024
2020
2015
2009
2002
1996
1991
1987
1984
1982
1981
1979
1978
1976
1975
1973
1972
1972
1972
1972
1973
1973
1974
1974
1974
1973
1973
1973
1974
1975
1976
1976
1976
1976
1976
1976
1976
1977
1977
1978
1978
1978
1978
1978
1977
1977
1977
1977
1977
1978
1978
1978
1978
1978
1977
1976
1976
1976
1977
1977
1978
1978
1978
1977
1977
1976
1977
1977
1978
1978
1978
1978
1978
1977
1977
1977
1977
1978
1979
1980
1981
1981
1980
1979
1979
1978
1979
1979
1980
1981
1981
1981
1981
1981
1981
1980
1979
1979
1979
1979
1980
1981
1982
1984
1986
1987
1987
1987
1987
1987
1986
1986
1985
1983
1982
1980
1979
1979
1979
1980
1980
1980
1980
1980
1979
1979
1978
1979
1980
1981
1982
1983
1982
1979
1974
1968
1963
1965
1980
2013
2058
2104
2132
2129
2094
2040
1985
1946
1930
1932
1946
1962
1976
1985
1989
1989
1987
1986
1986
1987
1988
1989
1989
1990
1989
1989
1989
1990
1991
1992
1993
1994
1994
1995
1996
1996
1997
1998
1999
2000
2001
2002
2003
2004
2004
2005
2006
2008
2010
2011
2013
2014
2015
2016
2017
2018
2019
2021
2023
2025
2026
2027
2026
2024
2020
2016
2011
2005
2000
1996
1991
1987
1982
1979
1976
1973
1972
1971
1970
1970
1970
1969
1969
1968
1968
1968
1968
1969
1969
1970
1970
1970
1969
1969
1968
1969
1969
1970
1971
1971
1972
1972
1972
1971
1971
1970
1971
1971
1972
1973
1973
1973
1972
1972
1971
1970
1970
1970
1970
1971
1971
1971
1971
1970
1970
1970
1970
1971
1971
1971
1972
1972
1971
1971
1971
1970
1970
1970
1971
1971
1971
1971
1971
1971
1971
1970
1970
1970
1971
1971
1972
1973
1973
1972
1972
1972
1971
1971
1971
1972
1972
1972
1972
1972
1972
1971
1972
1972
1973
1974
1974
1973
1972
1970
1970
1970
1972
1975
1979
1981
1982
1982
1980
1979
1977
1976
1975
1974
1974
1973
1973
1973
1972
1972
1971
1970
1970
1971
1971
1972
1972
1972
1972
1972
1972
1972
1971
1969
1966
1962
1959
1962
1978
2011
2054
2097
2122
2116
2081
2028
1976
1938
1923
1925
1938
1954
1967
1976
1981
1982
1981
1980
1980
1980
1979
1979
1979
1980
1982
1983
1985
1985
1985
1985
1985
1985
1986
1988
1989
1991
1992
1992
1993
1993
1994
1994
1995
1996
1997
1999
2001
2003
2004
2005
2006
2006
2007
2008
2010
2012
2014
2016
2017
2018
2018
2018
2018
2017
2015
2013
2009
2004
1999
1993
1988
1983
1978
1975
1972
1970
1968
1966
1965
1964
1963
1963
1962
1962
1962
1962
1963
1963
1963
1963
1962
1962
1962
1962
1963
1964
1965
1965
1965
1965
1965
1964
1964
1964
1965
1966
1967
1967
1967
1966
1965
1965
1964
1965
1965
1965
1966
1965
1965
1964
1964
1964
1964
1965
1965
1966
1966
1966
1966
1965
1965
1964
1965
1965
1966
1967
1967
1967
1967
1966
1965
1965
1965
1966
1966
1967
1967
1967
1967
1966
1966
1966
1966
1967
1967
1968
1968
1968
1967
1967
1966
1966
1966
1966
1968
1970
1972
1974
1975
1975
1974
1973
1973
1972
1972
1972
1971
1970
1969
1968
1966
1966
1966
1966
1967
1968
1968
1968
1968
1967
1967
1967
1968
1968
1969
1969
1968
1964
1958
1954
1956
1972
2006
2052
2098
2125
2119
2082
2028
1974
1935
1918
1918
1929
1944
1959
1971
1978
1981
1981
1979
1978
1978
1979
1980
1981
1982
1983
1983
1984
1984
1984
1985
1986
1987
1988
1990
1990
1991
1991
1992
1992
1993
1994
1995
1997
1998
2000
2001
2002
2003
2004
2005
2007
2009
2011
2013
2015
2016
2017
2017
2018
2019
2020
2021
2022
2021
2019
2015
2010
2004
1997
1991
1986
1982
1978
1976
1974
1972
1970
1968
1967
1966
1965
1965
1965
1965
1965
1965
1965
1965
1965
1966
1966
1967
1967
1968
1969
1969
1969
1969
1969
1968
1968
1969
1969
1970
1970
1970
1969
1968
1968
1968
1968
1969
1969
1969
1969
1969
1969
1968
1968
1967
1967
1968
1968
1968
1969
1969
1968
1968
1968
1968
1968
1969
1969
1969
1969
1969
1968
1968
1968
1968
1969
1969
1970
1970
1970
1970
1970
1970
1970
1970
1971
1971
1971
1972
1972
1971
1971
1971
1971
1971
1972
1972
1973
1973
1972
1972
1972
1971
1971
1971
1971
1971
1971
1971
1971
1971
1973
1975
1977
1979
1980
1980
1980
1979
1978
1977
1976
1975
1973
1972
1972
1972
1973
1973
1973
1972
1972
1972
1971
1971
1972
1973
1974
1975
1975
1975
1973
1969
1964
1959
1957
1963
1985
2023
2069
2109
2127
2111
2068
2013
1964
1933
1924
1931
1946
1960
1972
1978
1981
1981
1980
1980
1980
1981
1981
1982
1983
1983
1983
1983
1984
1984
1986
1987
1988
1988
1989
1989
1989
1989
1990
1991
1992
1994
1994
1995
1996
1997
1998
1999
2000
2002
2004
2006
2007
2009
2010
2011
2012
2013
2014
2016
2017
2019
2020
2020
2019
2018
2015
2011
2007
2003
1998
1993
1988
1983
1978
1974
1971
1969
1968
1968
1968
1968
1967
1967
1966
1965
1964
1964
1965
1965
1966
1967
1967
1967
1967
1967
1967
1967
1967
1968
1969
1969
1970
1969
1969
1968
1968
1969
1969
1970
1970
1970
1970
1969
1969
1968
1968
1968
1968
1969
1969
1969
1968
1968
1967
1967
1967
1967
1967
1967
1968
1969
1969
1968
1968
1967
1967
1967
1967
1967
1968
1968
1968
1968
1968
1968
1968
1968
1968
1968
1968
1969
1969
1969
1969
1969
1969
1969
1969
1969
1970
1970
1970
1970
1970
1970
1969
1970
1970
1971
1971
1972
1972
1972
1971
1971
1970
1970
1969
1969
1970
1971
1973
1975
1976
1977
1978
1978
1978
1977
1977
1976
1975
1974
1973
1972
1971
1971
1970
1970
1970
1971
1971
1972
1972
1971
1971
1970
1970
1971
1972
1973
1971
1968
1963
1958
1958
1968
1995
2037
2081
2114
2120
2095
2047
1992
1948
1925
1924
1935
1952
1967
1977
1981
1981
1979
1978
1977
1978
1979
1980
1981
1981
1982
1982
1982
1983
1983
1984
1985
1986
1987
1988
1988
1988
1989
1989
1989
1990
1992
1993
1995
1996
1998
1999
1999
1999
2000
2001
2003
2005
2007
2009
2010
2011
2012
2012
2014
2015
2017
2018
2018
2018
2016
2012
2008
2003
1998
1993
1989
1985
1981
1978
1975
1972
1969
1967
1966
1965
1965
1965
1965
1965
1965
1965
1965
1965
1965
1965
1966
1966
1967
1967
1967
1966
1966
1965
1966
1966
1967
1968
1969
1969
1969
1968
1967
1967
1967
1967
1967
1968
1969
1969
1968
1968
1967
1967
1967
1967
1968
1968
1968
1967
1967
1966
1965
1965
1966
1966
1967
1967
1968
1967
1967
1966
1966
1966
1966
1966
1967
1967
1968
1968
1968
1967
1967
1967
1967
1967
1967
1968
1968
1968
1968
1967
1967
1967
1967
1967
1968
1968
1969
1969
1968
1968
1967
1967
1967
1968
1968
1969
1970
1970
1969
1968
1968
1967
1967
1967
1969
1972
1974
1977
1977
1977
1975
1974
1972
1972
1972
1972
1971
1970
1969
1968
1967
1967
1967
1967
1968
1969
1968
1968
1968
1967
1967
1968
1969
1970
1969
1967
1962
1956
1954
1961
1985
2024
2069
2107
2119
2099
2054
2000
1953
1925
1916
1922
1936
1951
1965
1974
1978
1978
1976
1975
1974
1974
1975
1976
1977
1979
1980
1980
1981
1981
1981
1981
1982
1982
1984
1985
1986
1987
1988
1988
1988
1988
1989
1990
1991
1993
1994
1995
1996
1997
1998
1999
2001
2003
2004
2006
2007
2009
2010
2010
2011
2011
2012
2013
2014
2013
2011
2007
2002
1997
1991
1986
1981
1977
1973
1971
1968
1966
1964
1962
1960
1959
1958
1958
1958
1958
1958
1959
1958
1958
1957
1957
1958
1959
1960
1962
1962
1962
1961
1960
1960
1960
1960
1960
1961
1961
1961
1961
1961
1961
1961
1961
1961
1961
1962
1962
1962
1962
1962
1961
1960
1960
1960
1960
1961
1961
1962
1962
1962
1962
1961
1961
1961
1961
1961
1961
1962
1962
1962
1962
1962
1962
1962
1962
1962
1963
1963
1963
1963
1963
1963
1963
1963
1963
1964
1964
1965
1965
1964
1964
1964
1965
1967
1969
1972
1973
1974
1973
1972
1970
1968
1967
1966
1965
1965
1966
1966
1966
1966
1966
1965
1965
1964
1964
1965
1966
1967
1968
1969
1968
1968
1965
1962
1956
1952
1954
1968
1999
2045
2091
2122
2121
2088
2035
1979
1938
1918
1916
1925
1940
1955
1967
1975
1979
1980
1979
1978
1979
1979
1979
1979
1980
1981
1982
1983
1985
1985
1986
1986
1986
1986
1987
1989
1990
1992
1993
1994
1995
1996
1997
1997
1998
1999
2001
2003
2004
2006
2008
2009
2011
2012
2013
2015
2017
2018
2020
2021
2022
2023
2023
2022
2020
2017
2013
2008
2003
1998
1993
1988
1982
1978
1974
1971
1969
1969
1969
1968
1968
1966
1965
1964
1963
1963
1964
1965
1966
1966
1966
1966
1965
1965
1965
1965
1966
1967
1968
1969
1969
1969
1969
1969
1969
1969
1969
1970
1970
1970
1969
1969
1968
1967
1967
1967
1967
1968
1968
1968
1968
1968
1967
1966
1966
1966
1966
1967
1968
1968
1968
1968
1967
1967
1966
1966
1967
1968
1969
1969
1969
1969
1969
1968
1968
1968
1968
1969
1969
1969
1970
1970
1970
1969
1969
1968
1968
1969
1970
1970
1971
1971
1971
1970
1970
1969
1968
1969
1969
1970
1971
1972
1973
1974
1975
1976
1976
1977
1977
1976
1975
1973
1972
1970
1970
1969
1969
1970
1970
1970
1970
1970
1969
1969
1969
1969
1970
1970
1971
1971
1969
1965
1959
1955
1958
1974
2008
2053
2097
2123
2117
2080
2026
1972
1935
1920
1925
1940
1956
1970
1978
1981
1981
1979
1977
1977
1977
1978
1979
1980
1980
1981
1981
1981
1981
1982
1983
1984
1985
1986
1986
1987
1987
1988
1988
1989
1991
1992
1994
1995
1996
1996
1996
1997
1998
1999
2001
2004
2006
2008
2010
2011
2012
2012
2013
2015
2016
2018
2019
2019
2018
2014
2010
2005
1999
1994
1989
1985
1982
1978
1975
1972
1969
1966
1965
1964
1964
1964
1964
1964
1964
1964
1963
1963
1963
1963
1964
1965
1966
1967
1967
1967
1966
1965
1965
1965
1966
1967
1968
1969
1968
1968
1968
1968
1968
1968
1968
1968
1968
1969
1969
1968
1968
1967
1966
1966
1966
1967
1967
1968
1968
1968
1967
1967
1967
1966
1966
1967
1967
1968
1969
1969
1968
1968
1967
1967
1967
1968
1968
1969
1969
1968
1968
1968
1968
1968
1968
1968
1969
1969
1968
1968
1968
1967
1967
1968
1969
1969
1970
1970
1970
1970
1970
1969
1969
1968
1967
1968
1969
1971
1973
1974
1976
1977
1977
1978
1978
1978
1978
1977
1975
1973
1972
1971
1970
1970
1971
1971
1972
1972
1972
1971
1971
1970
1970
1970
1971
1972
1973
1971
1968
1963
1958
1958
1970
1997
2039
2083
2115
2119
2091
2042
1987
1945
1925
1925
1937
1955
1969
1978
1982
1982
1980
1979
1978
1979
1980
1981
1981
1982
1983
1983
1984
1984
1985
1985
1986
1987
1989
1990
1990
1991
1991
1991
1991
1992
1994
1995
1996
1997
1998
1999
1999
2000
2001
2002
2004
2007
2008
2010
2011
2012
2013
2014
2015
2016
2018
2019
2019
2018
2016
2013
2008
2004
1998
1994
1989
1985
1981
1977
1974
1972
1970
1969
1968
1967
1966
1966
1966
1966
1966
1966
1966
1966
1966
1967
1967
1968
1968
1969
1969
1968
1968
1967
1966
1966
1967
1968
1969
1970
1971
1971
1970
1970
1969
1968
1968
1969
1970
1971
1971
1971
1970
1969
1968
1968
1968
1968
1969
1970
1970
1970
1969
1969
1968
1968
1968
1968
1969
1970
1971
1970
1969
1968
1967
1967
1967
1968
1969
1970
1970
1970
1969
1968
1968
1968
1969
1970
1971
1972
1971
1971
1970
1969
1969
1969
1969
1970
1970
1970
1970
1970
1970
1969
1969
1969
1969
1970
1971
1971
1971
1971
1970
1971
1971
1973
1975
1976
1977
1978
1977
1976
1974
1972
1971
1971
1971
1971
1971
1971
1970
1970
1970
1969
1969
1970
1970
1971
1971
1972
1972
1971
1970
1966
1962
1957
1957
1967
1993
2035
2081
2115
2122
2096
2047
1991
1947
1922
1918
1926
1940
1955
1967
1975
1980
1980
1980
1979
1979
1980
1980
1980
1979
1979
1979
1980
1981
1983
1984
1985
1985
1986
1987
1987
1988
1989
1990
1991
1992
1994
1995
1996
1996
1996
1996
1997
1999
2001
2003
2005
2007
2008
2009
2010
2011
2012
2013
2015
2016
2018
2020
2020
2020
2018
2014
2010
2005
2000
1995
1990
1986
1981
1977
1974
1971
1969
1967
1965
1964
1963
1963
1962
1962
1962
1961
1962
1962
1963
1964
1964
1965
1965
1964
1964
1964
1965
1965
1966
1967
1968
1969
1969
1968
1968
1968
1968
1969
1969
1970
1969
1969
1969
1970
1969
1969
1968
1967
1967
1967
1967
1968
1968
1968
1967
1967
1967
1967
1968
1968
1969
1969
1969
1969
1968
1968
1968
1969
1970
1970
1971
1970
1970
1969
1968
1968
1968
1969
1970
1971
1972
1972
1971
1970
1969
1969
1969
1970
1971
1973
1975
1976
1977
1977
1977
1978
1978
1978
1978
1977
1976
1975
1974
1973
1973
1972
1972
1972
1973
1973
1973
1973
1973
1973
1973
1973
1974
1975
1975
1974
1971
1966
1960
1959
1969
1997
2041
2089
2124
2131
2104
2053
1996
1950
1925
1920
1929
1944
1959
1972
1981
1985
1985
1984
1983
1982
1983
1983
1985
1986
1987
1988
1989
1989
1989
1989
1990
1991
1992
1994
1995
1996
1997
1997
1997
1997
1998
2000
2002
2004
2005
2007
2008
2008
2009
2010
2011
2013
2015
2017
2019
2021
2022
2023
2024
2025
2026
2027
2027
2025
2022
2018
2012
2006
2000
1995
1990
1986
1982
1979
1976
1974
1973
1971
1969
1968
1968
1968
1968
1969
1969
1969
1968
1968
1967
1967
1968
1968
1969
1970
1970
1970
1971
1970
1970
1970
1970
1971
1971
1972
1972
1972
1972
1972
1972
1972
1971
1971
1971
1972
1972
1972
1972
1971
1970
1970
1970
1970
1971
1971
1971
1971
1971
1971
1971
1971
1971
1971
1971
1972
1973
1973
1972
1972
1971
1971
1972
1972
1972
1973
1973
1973
1972
1972
1972
1972
1972
1972
1973
1974
1974
1974
1974
1973
1973
1973
1973
1973
1973
1973
1973
1973
1973
1975
1976
1977
1978
1979
1980
1981
1981
1981
1980
1978
1976
1975
1974
1974
1974
1974
1974
1974
1973
1973
1973
1972
1973
1973
1974
1975
1976
1976
1974
1971
1966
1960
1958
1965
1987
2026
2071
2111
2127
2110
2066
2011
1962
1932
1925
1934
1950
1965
1977
1983
1984
1983
1982
1981
1982
1983
1984
1984
1984
1984
1984
1984
1984
1985
1987
1988
1989
1989
1990
1990
1990
1990
1991
1993
1994
1996
1997
1998
1998
1999
1999
2000
2001
2003
2005
2008
2009
2011
2012
2013
2014
2015
2016
2017
2019
2021
2022
2023
2022
2019
2016
2011
2007
2002
1997
1992
1988
1984
1980
1976
1973
1970
1968
1967
1967
1967
1967
1967
1967
1966
1966
1965
1965
1966
1966
1967
1968
1968
1968
1968
1967
1966
1966
1966
1967
1969
1970
1970
1970
1969
1968
1968
1968
1969
1970
1970
1970
1970
1969
1969
1969
1969
1969
1969
1969
1969
1970
1970
1970
1970
1969
1969
1969
1969
1969
1970
1970
1970
1970
1970
1969
1969
1969
1969
1969
1970
1970
1970
1970
1970
1969
1969
1968
1969
1969
1970
1971
1971
1970
1970
1970
1970
1970
1970
1969
1969
1969
1969
1969
1970
1971
1972
1974
1975
1977
1977
1978
1977
1976
1974
1972
1970
1969
1969
1970
1970
1970
1969
1969
1968
1968
1968
1968
1969
1969
1969
1970
1970
1969
1967
1963
1959
1954
1955
1967
1994
2036
2079
2110
2113
2085
2036
1982
1940
1921
1921
1934
1951
1964
1973
1977
1977
1975
1974
1974
1975
1975
1976
1976
1976
1976
1976
1976
1977
1978
1979
1980
1981
1982
1982
1982
1982
1983
1984
1985
1986
1987
1988
1988
1989
1989
1989
1990
1992
1994
1996
1998
2000
2001
2001
2001
2002
2003
2005
2007
2009
2010
2010
2010
2008
2006
2002
1998
1993
1988
1983
1978
1974
1970
1967
1963
1960
1958
1957
1957
1957
1957
1957
1956
1955
1955
1955
1956
1957
1958
1958
1958
1958
1958
1957
1957
1958
1958
1959
1959
1959
1960
1960
1959
1959
1958
1958
1958
1958
1959
1960
1960
1961
1961
1960
1959
1958
1958
1958
1959
1960
1961
1961
1960
1959
1958
1957
1958
1958
1960
1960
1961
1961
1960
1959
1959
1959
1959
1960
1960
1960
1961
1961
1962
1961
1961
1960
1960
1960
1961
1961
1962
1962
1961
1960
1960
1960
1960
1961
1963
1965
1967
1968
1969
1970
1970
1970
1970
1969
1967
1966
1965
1964
1963
1962
1962
1962
1963
1963
1964
1966
1967
1969
1972
1975
1979
1982
1985
1987
1986
1983
1981
1983
1995
2022
2062
2110
2146
2155
2130
2077
2013
1958
1924
1914
1919
1932
1945
1956
1964
1968
1969
1968
1967
1967
1966
1966
1967
1968
1969
1970
1971
1972
1972
1972
1972
1972
1973
1973
1975
1976
1977
1977
1976
1976
1975
1975
1976
1976
1977
1978
1979
1979
1980
1980
1981
1982
1984
1985
1986
1988
1989
1991
1994
1996
1999
2000
2002
2002
2002
2002
2000
1998
1994
1990
1986
1982
1979
1976
1974
1973
1972
1972
1971
1970
1970
1969
1969
1970
1970
1971
1971
1972
1972
1972
1971
1971
1972
1973
1974
1975
1975
1975
1975
1974
1973
1973
1973
1974
1975
1976
1977
1977
1977
1976
1975
1974
1975
1975
1976
1977
1977
1977
1977
1977
1977
1976
1976
1976
1977
1977
1978
1978
1977
1977
1977
1977
1978
1978
1979
1979
1979
1979
1978
1978
1978
1978
1978
1979
1979
1979
1979
1979
1980
1980
1980
1981
1982
1983
1984
1985
1987
1988
1988
1988
1986
1984
1983
1982
1981
1981
1982
1982
1981
1981
1981
1981
1981
1981
1981
1981
1982
1983
1984
1984
1983
1980
1975
1969
1966
1971
1991
2027
2075
2120
2144
2133
2092
2035
1981
1944
1930
1932
1944
1959
1973
1984
1991
1993
1993
1993
1993
1993
1994
1994
1995
1995
1995
1996
1997
1998
1999
2000
2000
2001
2001
2002
2003
2005
2006
2007
2008
2009
2009
2010
2011
2013
2014
2015
2016
2017
2019
2021
2023
2024
2025
2027
2028
2030
2032
2033
2034
2035
2035
2035
2034
2032
2029
2025
2020
2015
2009
2003
1998
1993
1989
1986
1984
1983
1982
1981
1981
1980
1979
1979
1977
1977
1976
1976
1977
1978
1979
1980
1980
1980
1979
1979
1979
1980
1981
1982
1982
1982
1982
1982
1981
1981
1981
1981
1982
1982
1982
1982
1982
1981
1981
1981
1981
1981
1981
1981
1981
1981
1981
1981
1981
1980
1980
1980
1981
1981
1981
1981
1981
1981
1980
1980
1980
1980
1981
1981
1982
1982
1981
1981
1980
1980
1980
1980
1981
1982
1982
1982
1981
1980
1979
1978
1979
1980
1981
1983
1984
1986
1986
1986
1986
1986
1986
1985
1985
1984
1984
1983
1982
1981
1979
1978
1978
1978
1979
1980
1980
1980
1980
1980
1980
1980
1980
1981
1980
1978
1975
1969
1966
1969
1987
2022
2067
2110
2133
2123
2084
2028
1975
1940
1928
1934
1949
1966
1979
1987
1991
1991
1989
1987
1987
1986
1987
1987
1988
1989
1990
1991
1991
1991
1991
1991
1992
1992
1994
1995
1996
1997
1997
1998
1998
1999
2000
2001
2003
2004
2005
2007
2008
2009
2010
2012
2013
2014
2016
2018
2019
2020
2021
2021
2021
2022
2023
2024
2024
2023
2021
2016
2011
2005
1999
1994
1989
1985
1982
1980
1978
1976
1974
1973
1971
1970
1969
1970
1970
1971
1971
1971
1972
1971
1971
1971
1971
1971
1971
1972
1973
1973
1973
1973
1973
1973
1973
1973
1974
1974
1974
1973
1973
1973
1974
1974
1974
1974
1975
1975
1975
1975
1974
1973
1972
1972
1972
1972
1973
1973
1974
1973
1973
1972
1972
1971
1972
1972
1973
1973
1973
1973
1973
1973
1973
1973
1973
1973
1973
1974
1974
1974
1974
1974
1973
1973
1972
1973
1973
1974
1974
1974
1974
1973
1972
1972
1973
1974
1976
1977
1979
1980
1980
1980
1980
1980
1979
1978
1977
1977
1976
1976
1975
1974
1973
1972
1972
1972
1973
1973
1974
1974
1974
1974
1973
1973
1972
1971
1969
1964
1960
1960
1971
1998
2039
2084
2115
2119
2092
2043
1989
1947
1926
1926
1938
1955
1969
1979
1983
1984
1983
1981
1980
1980
1979
1979
1980
1980
1981
1983
1984
1985
1985
1985
1985
1985
1985
1987
1988
1990
1991
1991
1992
1992
1992
1993
1994
1995
1996
1998
2000
2001
2002
2003
2004
2005
2006
2007
2009
2011
2013
2014
2015
2016
2016
2016
2016
2015
2014
2011
2008
2003
1998
1992
1987
1982
1978
1975
1973
1972
1971
1970
1968
1967
1966
1965
1965
1965
1965
1966
1966
1966
1967
1966
1966
1966
1965
1966
1967
1968
1969
1969
1969
1968
1967
1966
1966
1967
1968
1969
1969
1969
1969
1968
1967
1967
1967
1967
1967
1967
1968
1968
1967
1967
1966
1966
1965
1965
1965
1965
1966
1966
1966
1966
1966
1966
1966
1966
1966
1966
1966
1966
1966
1966
1965
1965
1965
1965
1966
1966
1967
1967
1967
1967
1966
1966
1966
1966
1966
1966
1967
1967
1966
1966
1965
1965
1965
1966
1967
1969
1971
1972
1972
1972
1972
1971
1971
1971
1971
1970
1969
1968
1967
1966
1965
1964
1964
1964
1965
1965
1966
1966
1966
1966
1965
1965
1965
1964
1963
1960
1956
1952
1954
1969
2001
2046
2090
2117
2113
2077
2024
1969
1930
1912
1913
1924
1939
1954
1965
1972
1975
1975
1973
1973
1972
1973
1973
1974
1975
1976
1977
1977
1978
1978
1978
1979
1979
1980
1981
1983
1984
1985
1985
1985
1985
1986
1987
1988
1990
1991
1992
1993
1994
1995
1995
1997
1998
2000
2002
2003
2005
2006
2006
2007
2008
2009
2010
2010
2009
2007
2004
2000
1994
1989
1983
1979
1974
1971
1968
1965
1963
1961
1959
1957
1955
1955
1955
1955
1956
1957
1957
1957
1957
1957
1957
1957
1957
1958
1959
1959
1960
1960
1960
1960
1959
1959
1959
1960
1961
1961
1962
1962
1962
1961
1961
1960
1960
1961
1961
1962
1962
1962
1961
1961
1960
1960
1960
1960
1960
1961
1961
1961
1962
1962
1961
1961
1961
1961
1961
1962
1963
1964
1963
1963
1962
1962
1962
1962
1963
1964
1964
1965
1965
1964
1964
1963
1963
1963
1964
1965
1965
1966
1967
1968
1969
1970
1971
1972
1972
1972
1972
1971
1969
1968
1967
1966
1965
1965
1965
1966
1966
1967
1966
1966
1965
1965
1966
1967
1968
1969
1969
1967
1962
1955
1950
1953
1971
2007
2054
2099
2123
2114
2074
2018
1964
1928
1913
1917
1929
1945
1960
1970
1977
1979
1978
1976
1976
1977
1978
1979
1980
1981
1981
1981
1981
1981
1982
1983
1985
1986
1987
1988
1988
1989
1989
1990
1990
1991
1992
1994
1995
1996
1998
1999
1999
2000
2002
2003
2005
2007
2009
2010
2011
2012
2013
2014
2015
2017
2018
2019
2018
2016
2013
2009
2004
1998
1992
1987
1983
1980
1976
1974
1971
1968
1966
1965
1964
1963
1964
1964
1964
1964
1963
1963
1963
1963
1963
1963
1964
1965
1966
1966
1966
1966
1966
1966
1965
1966
1967
1967
1968
1968
1967
1967
1967
1967
1967
1967
1967
1968
1968
1968
1967
1967
1967
1967
1967
1967
1967
1967
1967
1967
1967
1967
1966
1966
1966
1966
1967
1967
1968
1968
1967
1967
1966
1966
1967
1967
1968
1969
1969
1970
1969
1969
1968
1968
1968
1968
1969
1969
1970
1970
1969
1969
1969
1969
1969
1969
1969
1970
1970
1970
1970
1969
1968
1968
1968
1969
1971
1973
1974
1975
1976
1976
1976
1976
1976
1975
1974
1973
1972
1971
1971
1970
1969
1969
1969
1969
1970
1970
1971
1971
1971
1970
1970
1970
1970
1970
1968
1965
1959
1956
1961
1979
2013
2058
2100
2121
2110
2071
2017
1966
1933
1922
1928
1943
1959
1971
1979
1982
1982
1980
1979
1979
1979
1979
1980
1980
1981
1982
1983
1984
1985
1986
1986
1986
1986
1986
1987
1988
1989
1990
1991
1992
1992
1993
1994
1996
1997
1998
2000
2001
2001
2002
2003
2005
2006
2007
2009
2010
2012
2013
2014
2015
2015
2016
2016
2017
2016
2014
2012
2008
2003
1997
1992
1987
1982
1979
1976
1974
1973
1971
1969
1967
1966
1965
1965
1965
1966
1966
1967
1967
1967
1967
1967
1967
1967
1968
1968
1969
1969
1969
1969
1969
1969
1969
1969
1969
1969
1969
1969
1970
1969
1969
1969
1968
1968
1968
1969
1969
1969
1968
1968
1968
1967
1967
1967
1967
1968
1969
1969
1969
1968
1968
1967
1967
1967
1967
1967
1968
1968
1968
1968
1968
1968
1967
1968
1968
1969
1969
1969
1969
1969
1968
1968
1968
1968
1968
1969
1969
1969
1970
1970
1970
1970
1969
1969
1969
1970
1970
1971
1971
1971
1970
1969
1968
1968
1968
1969
1971
1973
1974
1975
1976
1976
1976
1977
1977
1977
1976
1975
1974
1972
1971
1970
1969
1969
1970
1970
1971
1971
1971
1971
1970
1970
1970
1970
1971
1971
1970
1967
1963
1958
1957
1966
1991
2032
2076
2110
2117
2093
2046
1991
1947
1924
1922
1933
1950
1965
1975
1980
1981
1979
1977
1976
1976
1976
1977
1978
1979
1980
1981
1981
1982
1982
1982
1982
1983
1983
1984
1985
1986
1986
1986
1987
1987
1988
1989
1991
1992
1994
1995
1996
1996
1997
1997
1999
2000
2002
2003
2004
2005
2005
2006
2006
2007
2008
2009
2009
2009
2008
2006
2003
1998
1993
1987
1982
1977
1974
1971
1969
1967
1965
1963
1961
1960
1959
1959
1959
1959
1959
1959
1959
1959
1959
1960
1960
1960
1960
1960
1960
1961
1961
1961
1961
1961
1961
1962
1962
1962
1962
1962
1962
1962
1961
1961
1961
1962
1962
1963
1963
1963
1962
1961
1961
1960
1961
1961
1961
1962
1962
1962
1961
1961
1960
1960
1959
1960
1960
1961
1962
1962
1962
1962
1961
1961
1961
1961
1962
1962
1963
1963
1963
1962
1962
1962
1962
1962
1963
1964
1964
1964
1964
1964
1964
1964
1964
1963
1963
1963
1963
1963
1963
1964
1965
1966
1968
1970
1971
1972
1972
1971
1970
1968
1967
1965
1965
1965
1965
1965
1965
1965
1964
1964
1963
1963
1963
1963
1964
1965
1966
1967
1966
1963
1958
1952
1949
1955
1976
2014
2061
2101
2119
2103
2060
2004
1954
1922
1911
1916
1929
1944
1958
1968
1974
1975
1974
1973
1973
1974
1975
1976
1976
1977
1977
1977
1978
1979
1980
1981
1982
1983
1984
1984
1984
1985
1985
1986
1987
1988
1990
1991
1992
1992
1992
1993
1994
1995
1997
1999
2000
2001
2002
2004
2005
2006
2007
2009
2010
2012
2014
2015
2014
2012
2009
2005
2000
1995
1990
1986
1981
1977
1973
1969
1966
1963
1962
1961
1960
1960
1959
1959
1959
1958
1958
1958
1958
1958
1959
1960
1960
1960
1960
1960
1960
1960
1960
1961
1962
1962
1963
1963
1963
1963
1962
1962
1962
1962
1963
1963
1964
1964
1963
1963
1962
1961
1961
1961
1962
1963
1964
1964
1964
1963
1962
1961
1961
1961
1962
1963
1963
1964
1964
1963
1963
1962
1962
1963
1963
1964
1964
1964
1964
1964
1964
1964
1964
1965
1965
1965
1965
1965
1965
1964
1965
1966
1967
1969
1971
1973
1974
1975
1975
1974
1973
1971
1969
1969
1969
1969
1969
1969
1968
1968
1967
1967
1968
1968
1969
1970
1971
1972
1972
1972
1970
1967
1963
1957
1955
1960
1981
2019
2067
2111
2130
2116
2072
2015
1963
1929
1918
1922
1934
1949
1963
1974
1980
1983
1983
1982
1982
1983
1983
1983
1983
1984
1985
1986
1987
1989
1990
1990
1991
1991
1991
1992
1992
1994
1995
1997
1998
1999
2000
2001
2001
2002
2004
2005
2007
2009
2010
2011
2012
2013
2014
2015
2017
2018
2020
2022
2023
2024
2024
2024
2023
2021
2017
2013
2009
2004
1999
1994
1989
1984
1980
1976
1974
1972
1972
1971
1971
1971
1970
1969
1968
1968
1968
1969
1969
1970
1971
1971
1971
1971
1971
1971
1972
1972
1973
1974
1974
1974
1974
1973
1973
1973
1973
1973
1973
1973
1974
1974
1973
1973
1973
1972
1972
1972
1972
1973
1973
1973
1973
1973
1973
1972
1972
1972
1972
1973
1973
1973
1973
1972
1972
1971
1972
1972
1973
1973
1974
1974
1973
1973
1973
1972
1972
1973
1973
1974
1975
1975
1974
1974
1973
1973
1973
1973
1974
1974
1975
1975
1975
1974
1974
1973
1973
1973
1973
1975
1977
1979
1980
1981
1981
1981
1981
1981
1981
1980
1979
1978
1976
1976
1975
1975
1975
1975
1975
1976
1976
1976
1976
1975
1975
1975
1976
1976
1977
1975
1972
1967
1961
1960
1970
1997
2039
2086
2122
2130
2105
2056
2000
1954
1930
1926
1937
1954
1969
1980
1985
1987
1985
1983
1982
1982
1982
1983
1984
1985
1986
1987
1987
1988
1988
1988
1989
1990
1990
1991
1992
1992
1993
1993
1994
1995
1996
1997
1998
2000
2001
2002
2003
2004
2005
2006
2008
2009
2011
2013
2014
2015
2016
2016
2017
2018
2019
2020
2021
2021
2019
2016
2012
2007
2001
1995
1990
1986
1983
1980
1978
1976
1974
1971
1970
1968
1967
1967
1967
1968
1968
1968
1968
1968
1968
1968
1968
1969
1970
1970
1971
1971
1971
1970
1970
1970
1970
1970
1971
1971
1971
1971
1970
1970
1969
1969
1969
1970
1970
1971
1971
1971
1971
1970
1969
1968
1968
1969
1969
1970
1970
1970
1969
1969
1968
1968
1968
1968
1969
1969
1970
1970
1969
1969
1969
1969
1969
1969
1970
1971
1971
1971
1971
1971
1970
1970
1969
1970
1970
1971
1972
1972
1972
1972
1971
1971
1971
1971
1971
1972
1973
1973
1973
1972
1971
1970
1970
1970
1972
1974
1976
1979
1980
1980
1980
1979
1979
1978
1977
1976
1976
1975
1974
1973
1973
1972
1971
1971
1972
1972
1973
1972
1972
1972
1972
1972
1973
1973
1973
1970
1965
1960
1959
1969
1993
2033
2077
2112
2122
2099
2053
1999
1953
1929
1925
1935
1952
1967
1977
1983
1984
1982
1981
1980
1979
1979
1980
1981
1982
1983
1984
1985
1985
1986
1986
1987
1987
1987
1988
1989
1990
1991
1992
1993
1993
1994
1994
1995
1996
1998
1999
2000
2001
2002
2003
2004
2005
2007
2009
2010
2011
2012
2013
2014
2015
2015
2016
2016
2016
2015
2012
2009
2005
2000
1994
1988
1983
1979
1976
1974
1972
1971
1969
1967
1966
1964
1964
1963
1963
1964
1965
1965
1965
1964
1964
1963
1963
1964
1964
1965
1965
1965
1964
1964
1964
1964
1964
1964
1964
1964
1965
1965
1965
1965
1964
1963
1963
1963
1964
1965
1965
1965
1964
1963
1962
1961
1961
1962
1962
1963
1963
1963
1962
1962
1961
1961
1961
1961
1962
1963
1963
1963
1963
1962
1961
1960
1961
1961
1962
1963
1963
1963
1962
1962
1961
1961
1961
1962
1962
1963
1963
1962
1962
1961
1960
1961
1961
1962
1962
1963
1963
1964
1964
1963
1963
1962
1962
1962
1962
1963
1963
1963
1963
1962
1962
1961
1962
1962
1964
1966
1968
1970
1971
1971
1970
1969
1968
1967
1967
1966
1965
1965
1964
1963
1962
1962
1961
1961
1961
1962
1963
1963
1962
1962
1961
1961
1962
1963
1963
1962
1959
1954
1949
1950
1962
1991
2034
2078
2108
2109
2080
2030
1976
1935
1915
1915
1926
1942
1957
1968
1974
1975
1973
1971
1970
1970
1970
1971
1973
1974
1975
1975
1976
1976
1976
1977
1978
1979
1979
1980
1981
1982
1983
1983
1983
1984
1984
1986
1987
1988
1990
1991
1992
1993
1994
1995
1995
1996
1998
1999
2001
2003
2003
2004
2004
2005
2006
2008
2009
2010
2009
2007
2004
1999
1993
1988
1983
1978
1975
1973
1970
1968
1965
1963
1961
1960
1960
1960
1960
1960
1961
1961
1961
1960
1960
1960
1960
1960
1961
1961
1962
1962
1963
1963
1963
1962
1962
1962
1962
1963
1963
1963
1963
1963
1963
1963
1963
1963
1964
1964
1965
1965
1964
1964
1963
1963
1963
1964
1964
1964
1964
1964
1964
1964
1964
1965
1965
1965
1966
1966
1966
1966
1966
1965
1965
1964
1965
1965
1966
1966
1967
1967
1967
1967
1967
1967
1967
1968
1968
1969
1969
1969
1969
1969
1968
1968
1968
1968
1969
1969
1969
1969
1970
1972
1973
1975
1977
1978
1978
1978
1977
1977
1975
1974
1972
1971
1970
1970
1971
1971
1971
1971
1970
1970
1969
1969
1969
1970
1971
1972
1973
1974
1974
1972
1969
1965
1959
1957
1963
1984
2022
2069
2111
2129
2115
2071
2016
1965
1933
1921
1925
1937
1951
1965
1975
1982
1985
1985
1985
1984
1985
1985
1986
1986
1987
1988
1988
1989
1990
1992
1993
1994
1995
1995
1995
1996
1997
1998
2000
2001
2003
2004
2005
2006
2006
2007
2008
2010
2011
2013
2015
2017
2018
2019
2019
2020
2022
2023
2025
2027
2029
2029
2029
2028
2026
2023
2019
2015
2010
2005
2000
1996
1991
1987
1984
1981
1979
1977
1976
1976
1976
1975
1975
1974
1974
1974
1975
1975
1976
1976
1977
1977
1977
1977
1976
1976
1977
1977
1978
1979
1979
1979
1979
1979
1979
1978
1978
1978
1978
1979
1980
1980
1980
1980
1979
1978
1978
1978
1979
1979
1979
1980
1979
1979
1978
1978
1977
1978
1979
1979
1980
1980
1980
1979
1979
1978
1978
1979
1979
1980
1980
1980
1980
1980
1980
1979
1980
1980
1981
1981
1982
1982
1982
1981
1980
1980
1979
1980
1980
1981
1982
1983
1982
1982
1981
1980
1979
1980
1983
1986
1988
1990
1991
1990
1989
1988
1987
1987
1986
1985
1985
1984
1983
1983
1982
1981
1981
1980
1981
1982
1982
1983
1983
1982
1982
1982
1982
1982
1982
1981
1977
1972
1967
1969
1984
2016
2061
2106
2134
2131
2096
2043
1989
1950
1934
1936
1950
1967
1981
1990
1994
1994
1993
1991
1990
1990
1991
1992
1993
1995
1996
1996
1996
1996
1996
1997
1998
1999
2000
2001
2002
2002
2003
2003
2004
2004
2005
2007
2008
2010
2012
2013
2014
2015
2015
2016
2017
2019
2021
2024
2025
2026
2026
2027
2027
2028
2029
2031
2031
2030
2028
2024
2019
2013
2007
2001
1997
1993
1990
1987
1985
1983
1981
1979
1978
1976
1976
1975
1976
1976
1976
1976
1976
1976
1975
1975
1975
1976
1976
1977
1977
1978
1978
1977
1977
1977
1977
1977
1978
1979
1979
1978
1978
1977
1977
1977
1977
1977
1977
1977
1977
1977
1976
1976
1975
1975
1975
1975
1976
1976
1976
1976
1976
1976
1975
1975
1975
1975
1975
1976
1976
1976
1976
1975
1975
1974
1974
1974
1975
1976
1976
1977
1976
1975
1974
1974
1974
1974
1975
1975
1976
1976
1976
1976
1975
1975
1975
1976
1976
1977
1977
1977
1977
1977
1976
1976
1976
1976
1977
1977
1978
1978
1978
1977
1976
1975
1975
1977
1979
1982
1985
1986
1986
1984
1983
1982
1981
1981
1980
1980
1979
1978
1977
1976
1976
1975
1975
1975
1976
1977
1977
1978
1977
1977
1977
1977
1977
1977
1976
1974
1970
1965
1962
1967
1986
2022
2066
2106
2124
2111
2071
2018
1969
1938
1928
1934
1950
1965
1978
1985
1987
1986
1985
1984
1983
1983
1983
1983
1984
1986
1987
1988
1989
1989
1989
1990
1991
1991
1992
1993
1994
1994
1995
1996
1996
1996
1997
1998
2000
2002
2003
2004
2005
2006
2006
2007
2008
2009
2011
2013
2014
2016
2016
2017
2018
2019
2020
2021
2021
2021
2019
2015
2011
2005
1999
1994
1990
1986
1983
1980
1978
1975
1973
1971
1969
1968
1967
1968
1968
1969
1969
1969
1969
1969
1969
1968
1968
1969
1969
1970
1971
1970
1970
1970
1969
1970
1970
1971
1971
1972
1972
1972
1971
1971
1971
1970
1970
1970
1971
1971
1972
1972
1972
1971
1970
1970
1970
1970
1970
1970
1970
1970
1969
1969
1968
1968
1968
1969
1969
1970
1971
1971
1970
1970
1969
1968
1968
1969
1969
1970
1970
1970
1970
1970
1970
1969
1969
1969
1970
1970
1970
1971
1971
1971
1971
1971
1970
1970
1971
1971
1972
1972
1972
1972
1971
1971
1971
1971
1971
1972
1972
1972
1971
1971
1970
1970
1971
1973
1976
1979
1980
1980
1979
1978
1976
1975
1974
1974
1974
1974
1973
1973
1971
1970
1969
1968
1968
1969
1970
1970
1971
1971
1971
1971
1971
1972
1971
1970
1968
1963
1958
1956
1963
1986
2025
2070
2109
2123
2105
2061
2007
1959
1929
1919
1923
1936
1951
1965
1975
1981
1982
1981
1979
1979
1978
1979
1979
1980
1981
1983
1984
1984
1985
1985
1985
1985
1986
1986
1988
1989
1991
1992
1992
1992
1993
1993
1994
1996
1998
1999
2000
2001
2002
2002
2003
2004
2005
2007
2009
2011
2013
2014
2014
2015
2015
2016
2017
2017
2017
2015
2012
2008
2002
1996
1990
1984
1979
1975
1972
1970
1968
1966
1964
1963
1962
1961
1960
1960
1960
1961
1961
1962
1962
1961
1961
1960
1961
1961
1962
1963
1963
1964
1963
1963
1963
1963
1964
1965
1965
1966
1966
1965
1964
1964
1963
1963
1963
1964
1964
1964
1964
1964
1963
1963
1962
1961
1961
1962
1963
1963
1964
1964
1964
1963
1963
1962
1962
1962
1963
1964
1964
1964
1964
1963
1963
1963
1964
1964
1964
1964
1964
1965
1965
1965
1965
1964
1963
1963
1964
1964
1965
1965
1966
1965
1965
1965
1966
1968
1970
1973
1975
1975
1975
1974
1972
1971
1970
1969
1969
1968
1968
1968
1968
1967
1966
1966
1966
1966
1966
1967
1968
1968
1968
1967
1967
1968
1968
1967
1965
1960
1955
1953
1960
1983
2023
2072
2113
2129
2111
2065
2008
1957
1925
1914
1918
1930
1946
1960
1971
1979
1981
1981
1980
1980
1980
1981
1981
1982
1984
1985
1986
1986
1986
1986
1987
1988
1989
1990
1992
1993
1994
1994
1995
1995
1995
1996
1997
1999
2001
2003
2004
2005
2006
2007
2007
2008
2010
2013
2015
2018
2019
2021
2022
2022
2023
2023
2023
2022
2021
2018
2014
2009
2003
1997
1991
1986
1981
1978
1975
1973
1971
1969
1967
1966
1965
1965
1964
1964
1964
1964
1965
1965
1966
1965
1965
1965
1965
1966
1967
1968
1968
1969
1969
1969
1969
1969
1969
1969
1970
1970
1971
1971
1971
1970
1969
1969
1968
1969
1969
1970
1970
1970
1969
1969
1968
1968
1968
1968
1968
1968
1968
1969
1969
1969
1968
1968
1968
1968
1969
1970
1970
1970
1970
1969
1969
1969
1969
1970
1971
1971
1972
1972
1971
1971
1970
1970
1970
1971
1972
1972
1972
1972
1972
1971
1971
1970
1970
1970
1970
1971
1972
1974
1977
1978
1979
1979
1979
1978
1977
1977
1977
1976
1975
1974
1973
1972
1972
1972
1972
1972
1972
1972
1972
1972
1972
1971
1971
1971
1972
1974
1974
1973
1971
1966
1960
1956
1959
1976
2011
2057
2102
2128
2122
2085
2030
1976
1938
1923
1927
1941
1957
1971
1979
1982
1982
1980
1980
1980
1980
1981
1982
1983
1983
1983
1983
1983
1984
1985
1986
1987
1988
1989
1989
1990
1990
1991
1992
1993
1995
1996
1997
1998
1999
1999
2000
2001
2002
2004
2006
2008
2010
2012
2013
2014
2015
2016
2017
2018
2020
2021
2022
2022
2020
2017
2013
2007
2001
1996
1991
1986
1982
1979
1975
1972
1970
1968
1967
1966
1966
1966
1966
1965
1965
1965
1964
1964
1964
1965
1966
1966
1967
1967
1967
1967
1967
1967
1967
1968
1968
1969
1970
1970
1970
1970
1969
1969
1969
1969
1969
1970
1970
1970
1970
1969
1969
1969
1968
1969
1969
1969
1970
1969
1969
1968
1968
1968
1969
1969
1970
1970
1970
1970
1969
1969
1968
1968
1968
1969
1970
1970
1970
1970
1970
1969
1969
1969
1969
1969
1969
1970
1970
1970
1970
1970
1969
1969
1969
1970
1970
1971
1972
1972
1971
1971
1971
1971
1971
1971
1972
1972
1972
1972
1971
1971
1970
1971
1973
1975
1978
1980
1981
1981
1979
1978
1977
1976
1975
1975
1974
1974
1973
1973
1972
1971
1971
1970
1970
1971
1972
1972
1973
1973
1973
1973
1973
1973
1972
1970
1967
1962
1959
1961
1976
2007
2049
2092
2119
2117
2084
2034
1981
1943
1927
1930
1943
1959
1972
1980
1984
1984
1982
1981
1980
1981
1981
1981
1982
1982
1983
1984
1985
1986
1986
1987
1987
1987
1988
1989
1990
1991
1992
1993
1993
1993
1994
1995
1996
1997
1999
2001
2002
2004
2005
2006
2007
2008
2009
2011
2013
2014
2016
2017
2019
2020
2020
2021
2020
2019
2018
2015
2011
2007
2001
1996
1990
1984
1980
1977
1975
1973
1972
1971
1969
1968
1967
1966
1965
1965
1965
1965
1966
1967
1967
1967
1967
1967
1968
1968
1968
1968
1968
1968
1968
1969
1969
1969
1968
1968
1968
1969
1969
1970
1970
1970
1969
1968
1968
1968
1968
1969
1970
1970
1970
1969
1968
1967
1967
1967
1968
1968
1969
1969
1969
1969
1969
1969
1969
1969
1969
1970
1969
1969
1968
1968
1968
1968
1968
1969
1969
1970
1970
1970
1970
1969
1969
1968
1968
1969
1970
1970
1970
1970
1970
1970
1970
1970
1970
1970
1970
1970
1971
1971
1970
1970
1969
1969
1969
1970
1970
1971
1970
1970
1969
1969
1970
1971
1973
1976
1978
1979
1979
1978
1977
1976
1974
1973
1972
1972
1971
1971
1971
1970
1970
1969
1968
1968
1968
1969
1969
1970
1970
1970
1971
1971
1971
1970
1968
1964
1959
1955
1958
1973
2005
2048
2092
2118
2115
2081
2029
1976
1938
1921
1922
1933
1948
1961
1971
1977
1979
1979
1979
1979
1979
1979
1979
1979
1980
1981
1982
1984
1985
1985
1985
1984
1984
1984
1985
1986
1988
1989
1991
1991
1992
1992
1993
1994
1995
1996
1998
1999
2000
2001
2002
2003
2005
2006
2008
2010
2012
2014
2016
2017
2018
2018
2019
2018
2017
2016
2013
2010
2006
2001
1995
1989
1983
1977
1973
1971
1969
1968
1966
1965
1964
1962
1961
1961
1961
1961
1962
1962
1962
1962
1962
1961
1961
1961
1961
1962
1963
1964
1965
1965
1964
1963
1963
1963
1964
1964
1965
1966
1966
1966
1965
1964
1964
1964
1964
1964
1965
1965
1965
1964
1964
1964
1964
1963
1963
1963
1964
1964
1964
1964
1964
1964
1964
1963
1963
1963
1964
1965
1965
1966
1965
1964
1963
1963
1963
1964
1965
1965
1966
1966
1965
1965
1964
1965
1965
1966
1966
1967
1967
1967
1967
1966
1966
1966
1968
1970
1973
1976
1977
1977
1976
1975
1973
1972
1972
1971
1971
1970
1970
1970
1970
1970
1969
1968
1968
1968
1969
1969
1969
1969
1969
1969
1970
1971
1971
1969
1966
1961
1956
1957
1969
1999
2044
2091
2124
2127
2097
2045
1988
1944
1922
1918
1926
1941
1956
1970
1979
1984
1984
1983
1982
1981
1981
1981
1982
1983
1985
1986
1987
1988
1989
1989
1989
1989
1989
1990
1992
1993
1995
1996
1996
1997
1998
1998
1999
2000
2002
2004
2006
2008
2009
2010
2010
2011
2012
2015
2017
2019
2021
2023
2024
2025
2025
2025
2025
2023
2021
2017
2013
2008
2002
1995
1989
1983
1978
1975
1973
1972
1971
1970
1970
1968
1967
1966
1965
1965
1965
1965
1965
1963
1961
1959
1956
1952
1948
1945
1941
1938
1936
1934
1931
1928
1925
1922
1920
1919
1919
1920
1921
1922
1921
1920
1919
1918
1919
1920
1921
1921
1922
1921
1921
1920
1919
1918
1918
1919
1921
1923
1923
1924
1924
1924
1924
1924
1925
1926
1927
1929
1932
1933
1934
1935
1934
1934
1935
1935
1937
1939
1941
1943
1944
1944
1944
1945
1947
1949
1952
1953
1954
1954
1954
1954
1954
1954
1954
1955
1955
1956
1958
1959
1960
1959
1957
1954
1951
1948
1945
1941
1938
1934
1931
1929
1927
1925
1924
1923
1923
1923
1923
1923
1922
1922
1923
1924
1927
1931
1934
1935
1934
1931
1928
1931
1946
1980
2028
2079
2115
2119
2088
2035
1976
1931
1911
1912
1927
1947
1965
1978
1986
1987
1985
1982
1981
1981
1984
1987
1990
1992
1993
1993
1993
1993
1993
1993
1994
1995
1997
1999
2001
2000
1999
1998
1997
1997
1998
2001
2005
2009
2012
2014
2016
2018
2020
2022
2024
2025
2025
2024
2023
2025
2028
2031
2033
2034
2034
2035
2036
2037
2036
2031
2024
2015
2008
2004
2001
1998
1993
1986
1979
1975
1974
1976
1979
1983
1985
1986
1985
1983
1982
1980
1978
1976
1973
1972
1972
1973
1974
1976
1976
1976
1977
1977
1976
1975
1973
1973
1974
1976
1977
1976
1974
1972
1970
1969
1970
1972
1975
1978
1979
1978
1976
1973
1971
1972
1974
1976
1978
1979
1977
1976
1974
1972
1972
1971
1971
1970
1970
1971
1972
1975
1976
1975
1973
1969
1967
1968
1971
1976
1978
1978
1976
1972
1970
1970
1973
1977
1980
1980
1979
1977
1978
1980
1983
1986
1987
1985
1982
1978
1976
1976
1977
1978
1978
1977
1978
1979
1982
1984
1984
1983
1981
1980
1981
1983
1985
1986
1983
1979
1973
1968
1966
1974
1996
2036
2083
2123
2139
2121
2075
2018
1969
1939
1931
1939
1956
1974
1988
1997
2000
1997
1992
1989
1990
1994
1999
2004
2006
2004
2001
1998
1996
1997
1998
1998
1996
1995
1996
2000
2004
2006
2006
2004
2003
2004
2007
2011
2014
2015
2014
2014
2014
2016
2019
2022
2024
2025
2024
2023
2023
2025
2028
2030
2033
2034
2034
2035
2035
2034
2032
2029
2024
2016
2007
1998
1991
1988
1989
1990
1989
1986
1982
1978
1975
1975
1975
1976
1979
1981
1984
1984
1982
1979
1976
1975
1976
1979
1981
1983
1982
1981
1980
1979
1978
1978
1977
1977
1978
1980
1983
1985
1986
1986
1984
1982
1980
1980
1982
1985
1987
1987
1985
1984
1982
1982
1982
1981
1981
1982
1983
1984
1985
1985
1984
1984
1983
1983
1983
1983
1983
1984
1984
1983
1982
1981
1981
1982
1984
1984
1985
1985
1986
1987
1988
1988
1989
1989
1990
1989
1988
1988
1987
1988
1988
1988
1988
1988
1988
1989
1989
1989
1988
1987
1987
1986
1986
1987
1988
1988
1987
1984
1979
1974
1973
1983
2008
2048
2093
2128
2138
2116
2070
2015
1968
1941
1935
1945
1962
1978
1990
1996
1997
1996
1993
1992
1992
1992
1993
1993
1994
1995
1995
1995
1994
1994
1995
1998
2000
2002
2003
2004
2005
2005
2005
2004
2004
2004
2006
2008
2010
2012
2014
2015
2015
2016
2017
2018
2019
2021
2022
2025
2027
2028
2028
2028
2028
2028
2028
2028
2028
2026
2023
2019
2014
2008
2001
1994
1989
1985
1982
1980
1979
1979
1979
1978
1976
1975
1974
1974
1975
1976
1977
1977
1977
1976
1975
1976
1977
1978
1978
1977
1976
1975
1975
1975
1976
1977
1978
1978
1978
1977
1976
1976
1976
1976
1976
1975
1975
1975
1976
1976
1977
1978
1977
1976
1975
1975
1975
1975
1976
1976
1977
1977
1977
1977
1977
1977
1977
1977
1977
1977
1977
1976
1976
1976
1976
1977
1979
1981
1983
1983
1983
1983
1982
1983
1984
1985
1984
1982
1980
1978
1977
1976
1976
1976
1976
1977
1977
1976
1976
1975
1975
1975
1975
1975
1976
1976
1975
1973
1969
1964
1962
1968
1988
2026
2072
2113
2130
2115
2070
2013
1961
1928
1919
1927
1945
1963
1978
1987
1991
1990
1988
1985
1984
1983
1984
1985
1987
1989
1991
1992
1992
1992
1992
1992
1992
1993
1993
1994
1996
1997
1999
2000
2000
2001
2001
2002
2002
2003
2005
2006
2008
2008
2009
2009
2010
2012
2015
2017
2020
2021
2021
2020
2020
2020
2021
2022
2022
2021
2017
2013
2008
2002
1997
1991
1986
1982
1978
1976
1974
1972
1970
1968
1966
1965
1964
1964
1964
1965
1965
1966
1965
1965
1965
1964
1964
1964
1964
1965
1966
1967
1967
1966
1965
1964
1964
1965
1966
1967
1966
1965
1964
1963
1963
1963
1963
1964
1963
1963
1964
1964
1965
1964
1963
1962
1961
1961
1962
1963
1964
1964
1963
1962
1961
1961
1961
1962
1964
1965
1966
1968
1969
1969
1969
1968
1967
1966
1965
1965
1965
1964
1963
1962
1962
1962
1962
1963
1964
1964
1964
1964
1963
1963
1964
1964
1965
1965
1962
1957
1952
1950
1959
1986
2031
2082
2121
2132
2106
2053
1992
1941
1911
1903
1911
1927
1945
1962
1973
1979
1980
1979
1978
1977
1978
1978
1978
1979
1981
1983
1985
1986
1987
1987
1987
1987
1988
1989
1991
1992
1992
1993
1994
1994
1995
1996
1997
1998
2000
2002
2004
2005
2006
2007
2008
2009
2011
2012
2014
2016
2017
2018
2019
2020
2020
2020
2019
2018
2015
2011
2005
1999
1993
1987
1981
1976
1971
1968
1966
1965
1965
1963
1962
1961
1960
1960
1961
1961
1962
1963
1963
1964
1964
1963
1963
1962
1962
1962
1963
1964
1964
1965
1964
1964
1964
1964
1964
1964
1965
1965
1965
1965
1965
1965
1965
1965
1965
1965
1965
1965
1966
1966
1967
1966
1966
1965
1965
1965
1965
1964
1964
1964
1963
1963
1962
1962
1963
1964
1965
1966
1967
1969
1970
1972
1972
1970
1969
1967
1965
1965
1965
1965
1965
1965
1966
1966
1967
1967
1967
1967
1967
1967
1967
1968
1968
1966
1961
1956
1950
1951
1963
1993
2039
2088
2123
2127
2096
2040
1979
1932
1908
1907
1920
1938
1956
1969
1976
1979
1979
1978
1977
1977
1976
1976
1976
1976
1977
1978
1979
1981
1982
1983
1983
1984
1984
1985
1985
1986
1987
1988
1990
1992
1993
1993
1993
1993
1995
1997
1999
2001
2003
2004
2005
2006
2007
2008
2009
2010
2012
2014
2016
2017
2018
2017
2016
2013
2009
2005
2000
1995
1990
1984
1979
1974
1969
1966
1965
1964
1964
1964
1963
1961
1960
1959
1959
1959
1960
1961
1962
1962
1962
1962
1963
1963
1963
1963
1963
1963
1964
1965
1965
1965
1965
1964
1964
1964
1964
1964
1964
1964
1963
1963
1962
1961
1961
1962
1963
1963
1964
1963
1962
1961
1960
1960
1959
1960
1961
1962
1963
1964
1964
1964
1962
1961
1960
1959
1959
1960
1961
1961
1962
1962
1963
1965
1967
1969
1969
1969
1969
1968
1967
1966
1965
1964
1963
1962
1962
1963
1964
1965
1965
1965
1965
1965
1965
1966
1966
1965
1964
1960
1954
1950
1953
1972
2009
2057
2104
2128
2118
2074
2013
1955
1917
1904
1912
1931
1951
1967
1976
1979
1978
1976
1974
1973
1974
1975
1977
1978
1979
1979
1979
1979
1980
1981
1982
1983
1984
1985
1986
1987
1988
1988
1989
1990
1991
1992
1994
1996
1997
1998
1999
2001
2003
2004
2006
2006
2007
2009
2011
2014
2016
2017
2019
2019
2020
2020
2020
2019
2018
2015
2011
2006
1999
1993
1987
1982
1979
1976
1975
1973
1972
1971
1970
1969
1968
1967
1966
1966
1966
1967
1969
1970
1971
1971
1971
1970
1970
1969
1969
1969
1970
1971
1971
1971
1970
1968
1968
1968
1970
1972
1973
1973
1972
1971
1970
1970
1970
1971
1972
1972
1972
1972
1971
1970
1969
1969
1969
1969
1969
1969
1969
1969
1969
1969
1968
1967
1966
1966
1967
1968
1969
1969
1969
1969
1970
1971
1974
1976
1977
1977
1976
1974
1972
1971
1969
1968
1967
1967
1968
1969
1970
1971
1971
1970
1969
1968
1967
1967
1968
1969
1967
1964
1957
1952
1954
1969
2003
2049
2096
2123
2118
2079
2022
1964
1924
1909
1916
1935
1955
1971
1979
1982
1980
1978
1976
1976
1977
1977
1978
1979
1980
1981
1981
1981
1981
1981
1982
1983
1985
1987
1987
1987
1987
1986
1987
1988
1990
1992
1994
1995
1996
1996
1997
1998
1999
1999
2000
2001
2003
2005
2006
2007
2008
2008
2008
2009
2009
2010
2011
2011
2010
2007
2003
1998
1993
1988
1983
1979
1975
1972
1969
1967
1966
1965
1964
1963
1962
1961
1962
1963
1964
1965
1965
1964
1963
1963
1963
1964
1965
1966
1966
1966
1965
1965
1965
1964
1964
1965
1966
1967
1967
1966
1965
1964
1964
1964
1964
1964
1964
1964
1964
1964
1964
1963
1963
1962
1962
1963
1963
1964
1964
1964
1964
1964
1963
1963
1963
1964
1965
1966
1965
1965
1964
1963
1963
1963
1963
1964
1966
1968
1969
1971
1972
1972
1972
1971
1970
1968
1967
1966
1966
1966
1966
1966
1966
1965
1964
1964
1963
1964
1966
1967
1969
1969
1968
1966
1962
1956
1952
1953
1967
1999
2047
2095
2126
2124
2088
2031
1971
1928
1910
1913
1930
1949
1965
1976
1981
1981
1980
1980
1980
1981
1982
1982
1982
1982
1983
1984
1985
1985
1986
1987
1987
1987
1987
1987
1987
1988
1990
1993
1995
1997
1999
1999
1998
1997
1997
1999
2002
2005
2006
2007
2007
2008
2008
2009
2010
2012
2014
2015
2016
2016
2017
2017
2017
2015
2013
2010
2005
2000
1995
1990
1985
1981
1978
1975
1972
1969
1968
1968
1968
1969
1969
1968
1966
1964
1963
1964
1965
1967
1969
1969
1968
1968
1967
1967
1968
1969
1970
1970
1970
1969
1968
1967
1967
1967
1968
1968
1968
1968
1968
1969
1969
1970
1970
1970
1969
1969
1969
1970
1970
1971
1971
1970
1969
1968
1968
1969
1970
1971
1971
1969
1968
1967
1967
1968
1970
1971
1973
1973
1974
1975
1977
1978
1979
1978
1975
1972
1971
1972
1974
1976
1976
1974
1971
1970
1970
1971
1973
1974
1976
1976
1976
1975
1972
1969
1964
1959
1960
1975
2009
2058
2110
2140
2134
2092
2030
1968
1927
1911
1915
1931
1949
1964
1975
1981
1982
1981
1980
1980
1982
1984
1985
1986
1988
1988
1989
1989
1990
1991
1993
1995
1996
1996
1995
1994
1994
1996
2000
2004
2007
2008
2007
2005
2005
2006
2009
2012
2013
2014
2014
2016
2019
2022
2025
2025
2025
2023
2022
2022
2022
2021
2021
2019
2016
2013
2010
2006
2001
1996
1989
1982
1975
1971
1969
1969
1969
1968
1965
1962
1961
1961
1962
1963
1963
1963
1962
1962
1962
1962
1962
1962
1963
1962
1962
1961
1961
1960
1960
1959
1959
1960
1960
1961
1960
1960
1960
1960
1961
1961
1961
1961
1961
1961
1960
1959
1957
1957
1958
1960
1963
1964
1963
1961
1959
1958
1958
1959
1961
1962
1962
1962
1962
1962
1961
1960
1958
1957
1958
1960
1965
1969
1970
1970
1966
1962
1959
1959
1960
1961
1961
1960
1959
1959
1959
1959
1958
1956
1955
1955
1956
1959
1961
1960
1956
1949
1943
1940
1945
1965
2002
2050
2095
2119
2109
2065
2003
1944
1907
1897
1908
1928
1947
1959
1965
1967
1967
1967
1968
1969
1970
1971
1970
1970
1969
1969
1970
1972
1974
1975
1976
1975
1974
1973
1973
1974
1977
1980
1981
1981
1980
1979
1979
1979
1979
1980
1981
1981
1981
1981
1982
1983
1985
1987
1987
1986
1985
1984
1985
1986
1986
1984
1980
1975
1971
1968
1964
1960
1953
1946
1939
1932
1927
1924
1923
1922
1921
1919
1918
1916
1914
1913
1912
1911
1910
1910
1910
1911
1912
1912
1911
1908
1907
1906
1906
1907
1907
1908
1908
1908
1909
1908
1907
1906
1904
1903
1902
1901
1901
1901
1901
1902
1904
1905
1904
1903
1901
1900
1900
1901
1902
1901
1900
1900
1901
1902
1902
1902
1900
1900
1900
1902
1903
1903
1901
1900
1900
1900
1901
1902
1904
1905
1907
1909
1910
1910
1911
1912
1912
1911
1909
1907
1906
1907
1909
1909
1908
1906
1906
1906
1908
1909
1908
1908
1908
1909
1911
1911
1908
1903
1897
1897
1908
1937
1981
2030
2063
2067
2037
1980
1918
1870
1848
1851
1869
1891
1909
1921
1926
1927
1925
1923
1922
1921
1920
1919
1920
1923
1926
1930
1932
1932
1931
1931
1930
1929
1930
1930
1932
1934
1936
1939
1940
1941
1941
1941
1941
1942
1945
1949
1953
1954
1952
1950
1950
1951
1955
1959
1961
1962
1962
1962
1962
1963
1963
1963
1963
1963
1962
1959
1954
1950
1945
1941
1937
1933
1929
1927
1927
1927
1928
1927
1926
1924
1923
1923
1924
1924
1925
1926
1927
1928
1928
1929
1929
1929
1929
1929
1931
1932
1934
1934
1933
1931
1930
1931
1933
1935
1936
1937
1937
1936
1935
1935
1934
1934
1935
1936
1937
1938
1938
1937
1938
1939
1941
1942
1942
1942
1943
1944
1946
1946
1945
1943
1942
1942
1944
1947
1949
1951
1951
1950
1949
1948
1947
1947
1948
1949
1951
1952
1952
1952
1952
1952
1954
1957
1961
1964
1965
1965
1963
1960
1958
1957
1957
1956
1956
1956
1957
1958
1960
1962
1962
1961
1959
1959
1960
1963
1965
1965
1962
1956
1950
1949
1959
1987
2032
2081
2118
2123
2091
2033
1969
1920
1898
1903
1923
1947
1967
1978
1982
1981
1979
1979
1979
1980
1979
1977
1976
1976
1979
1982
1986
1989
1990
1989
1988
1988
1988
1989
1989
1990
1991
1992
1992
1993
1995
1996
1997
1998
2000
2002
2004
2006
2008
2008
2007
2005
2004
2005
2007
2009
2010
2009
2008
2009
2011
2013
2015
2014
2011
2008
2004
1999
1993
1987
1983
1981
1979
1977
1975
1972
1969
1968
1967
1966
1966
1967
1967
1968
1968
1968
1967
1966
1965
1965
1966
1967
1968
1969
1969
1968
1968
1968
1967
1967
1966
1965
1965
1966
1967
1967
1967
1966
1965
1965
1965
1966
1965
1965
1965
1965
1966
1967
1967
1967
1965
1965
1966
1967
1969
1969
1968
1967
1967
1967
1969
1970
1971
1972
1972
1971
1970
1969
1970
1970
1971
1972
1972
1972
1972
1973
1975
1977
1978
1978
1978
1979
1979
1979
1978
1977
1976
1975
1974
1973
1972
1971
1970
1971
1972
1974
1975
1975
1974
1973
1972
1973
1975
1976
1975
1971
1965
1962
1967
1987
2026
2074
2115
2132
2114
2066
2007
1954
1922
1914
1926
1946
1966
1982
1991
1995
1994
1992
1991
1992
1993
1995
1996
1997
1997
1997
1997
1997
1998
1999
1999
2000
2001
2003
2004
2004
2005
2005
2006
2007
2007
2007
2008
2009
2011
2012
2013
2014
2013
2013
2014
2016
2020
2023
2026
2026
2024
2021
2019
2019
2020
2022
2023
2023
2022
2020
2017
2013
2008
2003
1998
1994
1990
1986
1984
1981
1980
1978
1976
1975
1975
1976
1978
1979
1979
1978
1976
1974
1974
1974
1976
1977
1978
1979
1978
1977
1976
1975
1975
1976
1978
1979
1979
1978
1977
1977
1976
1976
1975
1974
1975
1976
1977
1978
1978
1977
1976
1975
1975
1975
1975
1975
1975
1977
1979
1981
1981
1979
1975
1973
1974
1976
1979
1981
1982
1981
1980
1978
1978
1977
1977
1978
1978
1979
1980
1981
1983
1985
1987
1987
1986
1984
1982
1981
1982
1982
1982
1982
1981
1980
1979
1980
1980
1981
1982
1983
1983
1984
1984
1984
1982
1979
1974
1970
1972
1985
2014
2057
2104
2136
2137
2103
2047
1986
1940
1920
1924
1941
1963
1981
1993
1998
1999
1998
1996
1995
1994
1994
1995
1996
1997
1999
2001
2002
2003
2002
2002
2002
2003
2004
2004
2005
2005
2005
2006
2007
2009
2011
2012
2013
2013
2013
2014
2014
2015
2015
2016
2016
2017
2017
2018
2018
2019
2020
2021
2021
2021
2020
2020
2020
2019
2018
2016
2013
2008
2003
1997
1992
1988
1985
1982
1981
1980
1979
1978
1977
1976
1976
1975
1975
1976
1976
1977
1977
1977
1976
1976
1976
1976
1976
1976
1976
1976
1976
1976
1976
1976
1976
1975
1975
1975
1975
1976
1976
1977
1977
1976
1975
1973
1973
1973
1973
1974
1975
1975
1975
1974
1974
1973
1972
1972
1971
1972
1972
1972
1973
1973
1973
1973
1973
1972
1971
1971
1972
1973
1973
1973
1973
1974
1975
1977
1979
1980
1979
1978
1976
1974
1972
1971
1971
1971
1972
1974
1975
1975
1974
1973
1972
1972
1973
1974
1975
1975
1974
1971
1966
1961
1962
1977
2011
2059
2109
2139
2135
2095
2034
1972
1927
1906
1907
1922
1942
1962
1977
1986
1989
1987
1984
1983
1983
1983
1985
1987
1989
1990
1991
1992
1992
1993
1993
1993
1994
1995
1996
1998
1999
2000
2001
2000
2000
2001
2003
2006
2007
2008
2008
2008
2009
2009
2010
2011
2012
2014
2015
2016
2016
2015
2015
2015
2017
2018
2019
2018
2017
2014
2010
2005
2000
1993
1988
1983
1980
1978
1978
1977
1975
1972
1969
1967
1966
1967
1968
1969
1970
1970
1969
1969
1968
1968
1968
1969
1970
1971
1972
1972
1971
1971
1969
1969
1969
1970
1972
1973
1973
1972
1971
1971
1972
1973
1972
1970
1967
1966
1966
1967
1968
1969
1968
1968
1969
1969
1969
1968
1967
1966
1967
1970
1971
1971
1968
1965
1963
1964
1965
1967
1967
1967
1966
1967
1969
1971
1972
1972
1971
1970
1968
1966
1965
1963
1963
1963
1963
1963
1963
1963
1963
1962
1961
1960
1960
1960
1959
1958
1953
1947
1945
1955
1982
2027
2075
2111
2115
2083
2027
1964
1915
1892
1891
1905
1925
1943
1956
1964
1968
1968
1967
1966
1966
1966
1967
1969
1970
1971
1971
1971
1971
1971
1972
1972
1973
1974
1975
1976
1978
1980
1982
1983
1983
1983
1984
1985
1987
1989
1989
1989
1989
1990
1991
1993
1995
1996
1996
1996
1997
1997
1998
1998
1998
1997
1995
1994
1993
1991
1988
1984
1978
1973
1968
1963
1959
1957
1955
1955
1954
1953
1952
1951
1950
1949
1948
1949
1950
1951
1951
1952
1952
1952
1953
1954
1954
1953
1952
1952
1952
1953
1954
1954
1955
1954
1954
1954
1953
1953
1954
1955
1956
1957
1957
1955
1953
1952
1952
1953
1953
1954
1954
1953
1953
1953
1953
1954
1954
1955
1956
1957
1957
1956
1956
1954
1953
1953
1953
1954
1956
1957
1958
1958
1959
1960
1960
1961
1962
1962
1963
1963
1963
1962
1960
1958
1957
1957
1958
1960
1961
1961
1960
1959
1958
1959
1961
1963
1964
1961
1956
1950
1947
1952
1973
2012
2060
2104
2124
2109
2062
2000
1943
1907
1898
1909
1929
1951
1968
1977
1980
1979
1975
1973
1972
1973
1974
1976
1978
1980
1981
1982
1982
1982
1983
1983
1984
1985
1986
1987
1988
1988
1989
1990
1991
1992
1992
1993
1995
1997
1999
1999
1999
1999
1999
2001
2002
2004
2006
2006
2006
2006
2007
2008
2009
2009
2008
2007
2005
2004
2002
1999
1995
1989
1983
1977
1973
1970
1968
1967
1965
1964
1963
1961
1960
1959
1959
1959
1960
1961
1961
1962
1962
1962
1961
1960
1960
1960
1961
1962
1962
1962
1962
1960
1959
1958
1958
1960
1961
1961
1961
1960
1959
1959
1959
1960
1959
1959
1959
1960
1961
1962
1961
1960
1958
1957
1957
1957
1958
1959
1960
1960
1961
1961
1961
1960
1959
1959
1958
1958
1958
1959
1959
1960
1961
1961
1963
1965
1967
1969
1970
1968
1967
1965
1965
1965
1964
1963
1961
1961
1961
1963
1964
1964
1964
1963
1963
1963
1964
1965
1965
1964
1962
1957
1952
1951
1961
1988
2031
2080
2117
2123
2093
2037
1974
1925
1902
1903
1919
1941
1961
1974
1980
1981
1980
1978
1978
1978
1978
1979
1981
1982
1984
1985
1985
1984
1985
1986
1988
1990
1992
1993
1992
1993
1993
1994
1996
1997
1997
1998
2000
2002
2004
2005
2005
2006
2006
2007
2008
2009
2011
2012
2013
2014
2014
2015
2015
2015
2015
2016
2017
2016
2015
2012
2007
2001
1995
1990
1986
1983
1981
1979
1977
1975
1974
1974
1974
1975
1974
1973
1972
1972
1974
1976
1977
1977
1977
1976
1977
1978
1978
1978
1977
1977
1978
1979
1979
1979
1978
1978
1978
1978
1979
1979
1979
1979
1979
1979
1979
1979
1979
1980
1980
1981
1981
1980
1979
1979
1978
1978
1979
1979
1980
1980
1980
1979
1978
1978
1977
1978
1979
1981
1981
1980
1979
1977
1976
1976
1977
1978
1980
1981
1982
1982
1982
1983
1983
1983
1984
1984
1984
1983
1983
1982
1981
1979
1978
1976
1976
1977
1979
1981
1982
1981
1980
1980
1979
1980
1981
1981
1979
1975
1969
1966
1973
1997
2038
2086
2125
2138
2116
2066
2006
1954
1924
1919
1932
1954
1975
1990
1998
1999
1996
1993
1992
1992
1993
1994
1996
1998
1999
2000
2000
2000
2000
2000
2001
2001
2002
2003
2004
2006
2007
2008
2008
2009
2009
2010
2011
2013
2014
2015
2016
2016
2017
2018
2019
2020
2021
2022
2022
2022
2022
2023
2023
2025
2025
2025
2025
2024
2022
2020
2016
2011
2006
2001
1997
1993
1990
1989
1988
1987
1985
1983
1981
1979
1979
1979
1980
1980
1980
1981
1982
1983
1983
1983
1982
1981
1981
1982
1982
1983
1984
1984
1985
1985
1985
1985
1984
1984
1984
1985
1985
1986
1985
1984
1983
1982
1982
1983
1984
1985
1986
1986
1985
1984
1983
1982
1983
1984
1985
1986
1986
1986
1984
1983
1983
1983
1984
1986
1987
1987
1986
1985
1984
1983
1982
1982
1983
1984
1986
1987
1988
1989
1990
1991
1992
1992
1992
1990
1989
1988
1987
1986
1985
1983
1982
1982
1982
1983
1984
1985
1985
1985
1985
1985
1985
1986
1986
1984
1980
1975
1971
1973
1991
2026
2075
2123
2149
2139
2094
2031
1969
1927
1913
1921
1941
1964
1982
1993
1998
1998
1996
1994
1994
1994
1993
1993
1993
1995
1997
2000
2002
2003
2003
2002
2002
2002
2002
2004
2005
2007
2008
2008
2009
2009
2010
2011
2012
2014
2015
2017
2018
2018
2018
2019
2020
2022
2023
2025
2025
2025
2025
2026
2026
2027
2027
2028
2028
2027
2024
2019
2014
2008
2003
1999
1996
1993
1991
1988
1985
1983
1982
1982
1982
1983
1983
1982
1981
1980
1980
1981
1982
1984
1985
1985
1985
1984
1984
1984
1985
1985
1986
1986
1985
1985
1984
1984
1985
1987
1989
1990
1989
1987
1984
1982
1982
1983
1983
1984
1984
1984
1984
1984
1984
1983
1982
1982
1983
1983
1985
1985
1985
1985
1984
1983
1982
1982
1983
1983
1984
1985
1984
1984
1983
1983
1984
1985
1986
1988
1989
1990
1991
1991
1990
1988
1986
1985
1983
1983
1984
1985
1985
1985
1985
1983
1982
1981
1981
1981
1982
1983
1984
1984
1983
1979
1974
1968
1967
1976
2003
2048
2102
2145
2158
2131
2074
2007
1950
1918
1910
1921
1939
1959
1976
1989
1996
1998
1998
1998
1998
1998
1999
1999
2000
2001
2002
2003
2005
2006
2008
2010
2011
2011
2011
2012
2012
2013
2015
2017
2019
2020
2021
2022
2022
2024
2025
2027
2028
2030
2030
2031
2032
2033
2034
2036
2038
2040
2040
2040
2039
2038
2037
2035
2033
2029
2024
2018
2014
2009
2005
2001
1998
1994
1991
1988
1986
1985
1985
1985
1985
1985
1984
1983
1982
1981
1980
1981
1982
1985
1986
1987
1987
1987
1987
1987
1987
1987
1986
1985
1985
1986
1987
1988
1987
1986
1985
1984
1983
1984
1984
1985
1986
1986
1985
1985
1984
1983
1983
1983
1983
1983
1983
1982
1982
1981
1981
1981
1981
1982
1982
1982
1982
1982
1982
1982
1981
1981
1980
1980
1980
1980
1981
1981
1982
1982
1983
1984
1985
1986
1986
1985
1983
1981
1980
1978
1977
1976
1975
1975
1976
1977
1978
1979
1979
1979
1979
1979
1980
1981
1981
1980
1976
1971
1967
1973
1995
2037
2090
2136
2154
2133
2079
2012
1953
1919
1914
1930
1954
1977
1993
2001
2003
2001
1998
1996
1995
1995
1997
1999
2001
2003
2004
2005
2005
2004
2004
2004
2005
2007
2009
2010
2011
2011
2012
2013
2013
2014
2016
2018
2020
2022
2022
2021
2021
2021
2022
2024
2027
2028
2029
2030
2030
2031
2032
2034
2035
2035
2033
2031
2027
2024
2020
2016
2012
2007
2002
1998
1994
1991
1989
1987
1986
1986
1985
1984
1982
1980
1979
1979
1980
1982
1983
1983
1982
1981
1980
1980
1980
1981
1983
1985
1986
1986
1985
1983
1982
1982
1982
1982
1983
1984
1985
1985
1984
1983
1982
1981
1981
1981
1981
1982
1983
1983
1983
1981
1980
1979
1979
1980
1981
1982
1982
1981
1980
1980
1980
1980
1981
1981
1981
1981
1981
1981
1980
1980
1979
1979
1979
1980
1980
1980
1981
1981
1981
1980
1979
1980
1981
1983
1986
1988
1989
1988
1987
1985
1984
1983
1983
1983
1983
1982
1981
1981
1980
1979
1980
1980
1981
1981
1982
1982
1983
1983
1983
1981
1978
1973
1968
1968
1979
2007
2051
2100
2135
2140
2109
2052
1989
1940
1917
1919
1938
1961
1979
1989
1992
1991
1988
1987
1988
1989
1990
1991
1991
1991
1990
1990
1991
1993
1995
1996
1997
1997
1996
1996
1996
1997
1998
2000
2002
2005
2007
2008
2007
2006
2006
2006
2007
2009
2012
2013
2014
2015
2015
2015
2016
2017
2019
2020
2021
2022
2023
2023
2022
2019
2016
2011
2006
2002
1997
1994
1990
1987
1984
1980
1976
1973
1971
1972
1973
1974
1974
1974
1972
1971
1970
1970
1971
1972
1973
1974
1973
1973
1972
1971
1971
1971
1971
1971
1972
1973
1974
1974
1974
1973
1972
1971
1971
1971
1971
1972
1973
1973
1972
1971
1969
1969
1969
1969
1970
1971
1971
1970
1970
1970
1970
1969
1968
1968
1968
1968
1969
1969
1969
1968
1967
1966
1966
1966
1966
1966
1965
1965
1965
1965
1965
1965
1965
1965
1965
1965
1966
1967
1968
1969
1971
1972
1973
1972
1971
1969
1968
1967
1966
1965
1964
1963
1962
1963
1964
1964
1965
1964
1963
1962
1963
1964
1965
1964
1960
1953
1947
1947
1961
1994
2042
2092
2125
2125
2090
2031
1967
1919
1895
1894
1909
1930
1950
1965
1973
1975
1973
1971
1970
1970
1971
1972
1973
1974
1974
1974
1974
1975
1977
1978
1980
1980
1981
1981
1982
1983
1985
1986
1986
1987
1987
1987
1989
1990
1992
1993
1994
1995
1996
1998
1999
2000
2001
2002
2004
2005
2007
2008
2008
2008
2007
2006
2005
2003
2001
1998
1994
1989
1985
1980
1975
1971
1968
1966
1964
1963
1961
1958
1956
1954
1954
1955
1956
1957
1958
1959
1959
1958
1958
1958
1960
1961
1962
1962
1961
1961
1961
1961
1962
1963
1963
1962
1962
1961
1961
1962
1962
1961
1960
1959
1959
1960
1960
1961
1961
1961
1961
1961
1961
1960
1960
1960
1961
1961
1961
1960
1959
1959
1960
1960
1960
1959
1959
1960
1962
1963
1964
1964
1964
1965
1966
1967
1968
1969
1968
1967
1965
1965
1964
1964
1964
1964
1964
1965
1966
1968
1969
1970
1970
1970
1970
1969
1967
1963
1957
1952
1955
1971
2008
2060
2113
2144
2140
2098
2034
1970
1924
1903
1905
1919
1939
1958
1973
1984
1989
1990
1988
1986
1986
1986
1987
1989
1990
1990
1991
1992
1994
1996
1997
1998
1998
1999
2000
2002
2004
2006
2007
2007
2008
2008
2010
2012
2014
2015
2017
2018
2018
2019
2020
2022
2023
2025
2027
2029
2031
2031
2032
2032
2032
2031
2029
2025
2021
2016
2011
2007
2002
1997
1992
1987
1983
1981
1980
1979
1978
1977
1975
1974
1972
1971
1970
1970
1971
1972
1974
1975
1976
1975
1974
1973
1971
1970
1970
1972
1974
1976
1977
1976
1974
1972
1971
1971
1972
1973
1974
1973
1972
1971
1970
1969
1969
1969
1970
1971
1972
1972
1972
1971
1969
1967
1966
1966
1967
1968
1969
1969
1969
1969
1969
1968
1968
1968
1968
1968
1968
1968
1967
1967
1967
1966
1967
1968
1971
1974
1975
1975
1973
1971
1968
1967
1967
1967
1968
1968
1968
1967
1966
1965
1964
1964
1965
1966
1967
1968
1968
1967
1964
1960
1954
1951
1957
1979
2020
2071
2116
2135
2117
2067
2001
1942
1905
1896
1908
1931
1953
1970
1980
1982
1980
1977
1975
1976
1978
1980
1982
1983
1982
1982
1982
1982
1983
1985
1986
1988
1989
1990
1991
1991
1992
1992
1993
1993
1994
1995
1996
1998
2000
2002
2004
2004
2004
2003
2004
2005
2007
2008
2010
2010
2011
2012
2013
2016
2017
2016
2014
2010
2006
2001
1995
1989
1984
1980
1977
1975
1973
1970
1967
1965
1963
1963
1962
1961
1960
1958
1958
1959
1960
1962
1963
1963
1963
1963
1963
1963
1963
1963
1964
1965
1967
1967
1966
1965
1965
1966
1967
1968
1969
1968
1967
1966
1965
1965
1965
1966
1967
1967
1967
1966
1965
1965
1965
1966
1966
1967
1967
1967
1967
1967
1967
1966
1966
1965
1965
1966
1966
1967
1967
1967
1967
1966
1965
1964
1965
1966
1968
1969
1969
1969
1968
1969
1971
1974
1978
1980
1981
1979
1977
1974
1973
1972
1972
1973
1972
1972
1972
1973
1972
1972
1973
1974
1976
1978
1979
1979
1977
1974
1969
1964
1961
1966
1986
2025
2075
2120
2141
2126
2079
2016
1958
1922
1911
1921
1942
1964
1981
1990
1994
1993
1990
1989
1988
1988
1988
1989
1990
1992
1994
1994
1994
1994
1993
1994
1995
1996
1998
1998
1998
1998
2000
2002
2004
2006
2006
2006
2006
2006
2006
2007
2009
2011
2012
2014
2015
2015
2017
2019
2021
2022
2023
2023
2024
2025
2026
2026
2024
2021
2017
2012
2007
2001
1996
1992
1989
1986
1984
1982
1980
1978
1977
1976
1976
1976
1976
1977
1977
1977
1976
1975
1975
1976
1977
1978
1978
1978
1979
1980
1980
1981
1980
1979
1978
1977
1977
1978
1978
1978
1978
1978
1977
1977
1976
1976
1977
1978
1979
1979
1977
1976
1975
1976
1977
1979
1980
1979
1977
1977
1978
1980
1981
1981
1979
1978
1979
1980
1983
1984
1984
1982
1979
1977
1976
1977
1979
1980
1981
1981
1982
1982
1982
1982
1982
1983
1983
1983
1983
1982
1982
1981
1980
1980
1978
1977
1976
1976
1977
1978
1979
1978
1978
1979
1979
1980
1980
1978
1974
1967
1965
1972
1995
2037
2087
2131
2149
2131
2081
2018
1961
1925
1913
1919
1936
1955
1972
1985
1992
1994
1992
1990
1989
1989
1989
1989
1990
1991
1992
1993
1994
1995
1996
1997
1997
1997
1997
1999
2000
2002
2004
2004
2004
2003
2004
2006
2009
2012
2014
2015
2015
2015
2016
2017
2019
2021
2023
2023
2024
2026
2028
2031
2032
2032
2031
2029
2027
2024
2021
2017
2010
2004
1997
1991
1987
1985
1983
1982
1981
1979
1977
1975
1973
1972
1971
1970
1970
1970
1971
1972
1972
1972
1972
1972
1972
1973
1974
1975
1977
1978
1977
1976
1973
1971
1970
1970
1971
1972
1973
1974
1973
1972
1971
1970
1970
1971
1971
1971
1970
1969
1969
1969
1970
1971
1971
1969
1968
1967
1967
1969
1970
1971
1971
1969
1968
1967
1967
1968
1970
1970
1971
1972
1973
1975
1976
1977
1977
1976
1974
1972
1971
1969
1968
1968
1969
1970
1971
1971
1971
1971
1971
1971
1972
1972
1973
1974
1973
1969
1962
1959
1964
1986
2027
2079
2126
2146
2129
2079
2014
1955
1917
1904
1911
1928
1947
1964
1977
1985
1988
1987
1985
1984
1984
1985
1986
1988
1989
1989
1988
1989
1989
1990
1991
1991
1991
1992
1993
1996
1999
2000
2001
2001
2001
2002
2003
2004
2006
2009
2011
2012
2013
2013
2013
2014
2016
2018
2020
2020
2020
2021
2023
2025
2026
2024
2020
2015
2010
2006
2001
1997
1992
1987
1981
1975
1971
1970
1970
1970
1971
1970
1968
1966
1965
1964
1965
1966
1966
1967
1967
1967
1967
1968
1968
1969
1970
1970
1970
1970
1969
1969
1970
1970
1971
1970
1969
1968
1968
1969
1971
1972
1971
1970
1969
1967
1966
1966
1967
1967
1967
1968
1968
1967
1966
1966
1965
1965
1966
1966
1966
1966
1966
1966
1966
1967
1967
1966
1966
1966
1966
1966
1966
1966
1966
1966
1966
1966
1966
1966
1966
1965
1966
1966
1967
1969
1970
1972
1973
1973
1972
1970
1968
1966
1965
1964
1964
1964
1965
1966
1966
1966
1966
1966
1967
1968
1968
1969
1968
1965
1961
1955
1952
1957
1976
2015
2065
2113
2136
2123
2076
2011
1950
1911
1901
1912
1933
1954
1970
1979
1983
1983
1981
1979
1978
1978
1978
1979
1980
1981
1983
1984
1984
1984
1984
1983
1984
1986
1988
1990
1992
1994
1994
1994
1994
1994
1996
1998
2000
2002
2002
2003
2003
2005
2006
2008
2009
2011
2012
2013
2014
2015
2016
2017
2018
2019
2020
2019
2016
2012
2006
2000
1996
1992
1988
1984
1978
1973
1969
1966
1966
1967
1967
1966
1964
1962
1960
1959
1958
1959
1961
1963
1964
1964
1963
1962
1961
1961
1962
1964
1966
1967
1967
1966
1965
1964
1963
1963
1964
1965
1965
1966
1966
1966
1966
1966
1964
1964
1964
1965
1966
1967
1966
1965
1963
1962
1961
1963
1965
1967
1968
1967
1966
1964
1964
1964
1964
1964
1964
1964
1964
1965
1966
1967
1967
1966
1965
1964
1964
1965
1965
1966
1966
1966
1966
1965
1964
1964
1963
1964
1964
1965
1965
1964
1963
1962
1961
1961
1962
1964
1966
1967
1966
1966
1966
1967
1969
1971
1972
1972
1971
1969
1968
1966
1965
1963
1963
1963
1964
1966
1967
1968
1967
1966
1965
1966
1967
1968
1967
1964
1960
1954
1951
1956
1976
2013
2061
2107
2129
2116
2071
2009
1952
1915
1906
1917
1937
1957
1972
1979
1981
1980
1978
1976
1976
1976
1976
1976
1978
1979
1981
1982
1983
1983
1983
1983
1983
1984
1985
1987
1989
1990
1991
1991
1992
1992
1992
1992
1993
1994
1996
1998
2000
2001
2001
2002
2003
2004
2005
2006
2007
2008
2009
2010
2011
2012
2012
2011
2010
2007
2004
2000
1994
1989
1983
1978
1975
1972
1969
1967
1965
1963
1962
1961
1960
1960
1960
1960
1960
1960
1960
1960
1960
1961
1960
1960
1960
1960
1960
1962
1962
1963
1962
1961
1961
1960
1961
1962
1963
1963
1963
1962
1962
1961
1960
1959
1959
1959
1959
1959
1960
1961
1961
1961
1960
1959
1959
1959
1960
1961
1961
1960
1960
1959
1959
1959
1959
1959
1960
1960
1961
1962
1962
1962
1962
1961
1961
1961
1961
1962
1962
1963
1963
1964
1964
1965
1965
1965
1964
1965
1965
1965
1966
1965
1965
1965
1965
1965
1966
1966
1966
1965
1964
1964
1964
1965
1966
1966
1966
1967
1967
1969
1971
1972
1973
1972
1971
1969
1969
1969
1970
1970
1969
1966
1965
1964
1964
1965
1966
1967
1967
1969
1970
1970
1970
1967
1963
1956
1952
1954
1970
2004
2052
2101
2132
2128
2089
2029
1968
1924
1905
1907
1923
1943
1960
1972
1979
1980
1979
1977
1977
1978
1979
1980
1980
1981
1982
1983
1984
1985
1987
1988
1989
1988
1987
1987
1987
1988
1990
1993
1995
1996
1996
1996
1996
1997
1999
2000
2002
2003
2004
2005
2006
2008
2010
2011
2011
2011
2012
2013
2015
2017
2018
2019
2017
2015
2011
2007
2003
1998
1993
1989
1985
1980
1976
1972
1968
1965
1963
1963
1964
1965
1966
1965
1964
1963
1962
1961
1961
1962
1963
1965
1965
1965
1965
1964
1964
1964
1965
1966
1967
1968
1968
1967
1966
1965
1964
1964
1964
1966
1967
1967
1967
1967
1966
1965
1965
1964
1964
1964
1964
1965
1966
1966
1966
1966
1965
1964
1964
1965
1965
1965
1965
1965
1964
1964
1964
1964
1964
1965
1966
1966
1966
1966
1966
1966
1967
1968
1967
1967
1966
1966
1966
1966
1966
1966
1966
1967
1968
1969
1971
1973
1975
1975
1975
1974
1972
1970
1969
1968
1969
1969
1969
1969
1969
1968
1968
1969
1969
1970
1971
1971
1971
1971
1971
1968
1962
1956
1954
1962
1988
2033
2085
2129
2142
2118
2065
2001
1946
1914
1906
1915
1932
1951
1967
1979
1985
1986
1984
1983
1983
1983
1984
1984
1985
1986
1988
1990
1991
1991
1992
1992
1993
1993
1994
1995
1996
1997
1999
2000
2001
2002
2002
2003
2004
2005
2007
2009
2011
2013
2014
2015
2016
2017
2018
2018
2019
2020
2021
2023
2025
2026
2026
2025
2021
2016
2010
2005
1999
1995
1990
1985
1981
1977
1974
1972
1970
1969
1968
1968
1968
1968
1967
1967
1966
1965
1965
1964
1965
1966
1968
1970
1970
1970
1969
1969
1968
1968
1969
1970
1971
1972
1972
1971
1970
1969
1969
1969
1969
1969
1969
1969
1969
1969
1968
1968
1968
1969
1969
1970
1969
1968
1967
1967
1966
1966
1967
1968
1968
1968
1969
1968
1968
1968
1968
1968
1968
1968
1969
1969
1969
1969
1970
1970
1970
1969
1969
1968
1968
1968
1969
1970
1971
1972
1972
1971
1970
1969
1969
1970
1971
1972
1972
1972
1971
1969
1969
1968
1968
1969
1970
1971
1971
1971
1971
1971
1973
1975
1976
1977
1976
1974
1972
1971
1969
1969
1968
1968
1969
1971
1971
1971
1971
1970
1969
1969
1969
1971
1972
1971
1969
1963
1957
1954
1962
1987
2030
2082
2124
2139
2116
2063
1999
1944
1913
1908
1922
1943
1963
1976
1983
1984
1983
1981
1979
1978
1978
1978
1979
1981
1983
1984
1985
1985
1985
1986
1986
1987
1988
1988
1989
1990
1991
1992
1993
1994
1995
1996
1997
1998
2000
2002
2004
2005
2005
2004
2005
2007
2009
2011
2013
2014
2015
2016
2017
2017
2017
2016
2015
2014
2014
2012
2009
2003
1996
1988
1981
1976
1973
1972
1971
1970
1968
1966
1965
1964
1963
1962
1962
1963
1964
1965
1965
1966
1965
1964
1963
1963
1963
1964
1965
1966
1966
1966
1966
1966
1965
1965
1965
1966
1967
1967
1967
1966
1966
1966
1965
1964
1964
1964
1965
1967
1968
1967
1966
1964
1963
1963
1963
1963
1964
1965
1966
1965
1965
1964
1963
1963
1963
1965
1966
1967
1967
1967
1966
1966
1966
1966
1966
1966
1966
1966
1966
1966
1966
1967
1967
1967
1967
1967
1967
1967
1968
1968
1967
1967
1967
1967
1968
1969
1970
1970
1970
1969
1968
1967
1968
1969
1970
1971
1972
1972
1972
1971
1970
1968
1967
1967
1969
1972
1975
1977
1978
1978
1977
1977
1976
1976
1976
1974
1973
1971
1971
1971
1972
1973
1973
1973
1972
1971
1971
1972
1974
1974
1973
1968
1961
1956
1958
1975
2011
2061
2110
2140
2134
2093
2031
1969
1927
1913
1922
1942
1963
1978
1985
1987
1986
1985
1985
1986
1987
1988
1989
1990
1992
1992
1992
1992
1992
1994
1996
1998
1999
1999
1998
1998
1997
1998
1999
2001
2003
2005
2006
2007
2007
2008
2009
2010
2011
2012
2013
2014
2015
2017
2018
2018
2017
2017
2017
2019
2022
2024
2025
2023
2020
2016
2012
2007
2003
1998
1993
1988
1984
1981
1978
1974
1971
1969
1968
1968
1968
1968
1967
1966
1966
1965
1964
1964
1963
1964
1965
1966
1967
1967
1966
1964
1962
1961
1961
1962
1964
1964
1963
1962
1960
1959
1958
1957
1957
1956
1957
1957
1957
1956
1955
1954
1954
1954
1955
1955
1955
1955
1955
1955
1955
1954
1952
1950
1949
1949
1950
1951
1951
1951
1950
1949
1950
1952
1953
1954
1954
1953
1952
1951
1952
1952
1952
1951
1951
1952
1953
1955
1956
1955
1955
1954
1953
1952
1952
1952
1952
1954
1956
1956
1956
1956
1956
1957
1958
1959
1960
1962
1964
1966
1966
1964
1960
1957
1955
1956
1959
1961
1964
1965
1966
1965
1964
1963
1962
1964
1966
1967
1965
1960
1953
1947
1950
1967
2004
2054
2105
2135
2130
2090
2028
1965
1920
1904
1911
1932
1955
1972
1980
1981
1978
1975
1974
1976
1978
1978
1979
1979
1980
1980
1981
1981
1982
1983
1986
1988
1988
1988
1987
1987
1988
1989
1990
1991
1992
1994
1995
1997
1998
2000
2001
2002
2003
2004
2004
2006
2009
2012
2015
2016
2016
2016
2016
2017
2018
2020
2021
2020
2018
2015
2010
2004
1998
1992
1987
1982
1978
1974
1970
1968
1967
1966
1965
1964
1964
1964
1964
1965
1966
1967
1967
1966
1964
1961
1959
1960
1963
1967
1969
1969
1968
1967
1966
1966
1967
1968
1969
1970
1970
1970
1968
1966
1965
1965
1966
1967
1968
1969
1969
1968
1967
1966
1966
1965
1965
1965
1966
1967
1968
1969
1969
1968
1966
1966
1966
1968
1971
1972
1973
1973
1972
1971
1970
1969
1968
1968
1969
1971
1972
1972
1973
1973
1974
1974
1974
1974
1973
1974
1977
1979
1981
1981
1980
1979
1980
1982
1984
1984
1983
1980
1978
1977
1976
1976
1976
1976
1976
1975
1973
1972
1972
1972
1973
1974
1974
1975
1975
1973
1969
1963
1958
1962
1983
2023
2073
2117
2137
2121
2074
2013
1957
1923
1914
1924
1944
1963
1978
1986
1989
1988
1986
1984
1984
1984
1985
1986
1987
1988
1989
1990
1990
1989
1989
1990
1992
1994
1996
1997
1997
1998
1998
1999
1999
2000
2000
2001
2003
2006
2008
2009
2009
2009
2009
2011
2013
2015
2017
2017
2017
2017
2018
2021
2023
2024
2024
2022
2019
2016
2012
2007
2002
1997
1993
1989
1985
1981
1977
1974
1971
1970
1969
1969
1969
1969
1969
1970
1971
1971
1971
1971
1970
1970
1971
1973
1974
1976
1977
1977
1975
1974
1975
1976
1977
1978
1978
1977
1976
1975
1976
1976
1977
1977
1977
1976
1977
1977
1978
1978
1978
1977
1975
1974
1974
1974
1975
1977
1978
1978
1977
1976
1975
1975
1975
1977
1978
1978
1978
1976
1976
1975
1975
1976
1976
1978
1979
1981
1982
1982
1981
1980
1980
1980
1980
1980
1980
1980
1980
1980
1980
1980
1980
1980
1981
1981
1982
1983
1984
1986
1987
1988
1988
1986
1985
1984
1984
1984
1984
1984
1982
1981
1981
1981
1982
1983
1984
1983
1983
1982
1983
1984
1984
1982
1976
1970
1968
1977
2005
2048
2098
2136
2144
2117
2065
2006
1956
1929
1925
1938
1958
1976
1991
1998
2001
2000
1998
1997
1997
1998
2000
2000
2000
1999
1998
1999
2002
2007
2011
2013
2013
2011
2009
2009
2010
2012
2013
2014
2014
2014
2015
2015
2016
2017
2019
2021
2023
2025
2026
2026
2026
2027
2027
2027
2027
2028
2029
2032
2034
2036
2036
2035
2032
2027
2023
2018
2014
2010
2005
1999
1994
1990
1987
1986
1984
1983
1981
1979
1978
1979
1980
1981
1981
1980
1977
1975
1974
1975
1976
1977
1978
1979
1978
1977
1975
1973
1972
1973
1974
1974
1973
1970
1968
1967
1968
1970
1972
1974
1974
1973
1971
1968
1965
1963
1962
1963
1964
1965
1964
1962
1960
1959
1959
1959
1960
1960
1959
1960
1960
1959
1958
1957
1956
1955
1955
1956
1957
1957
1958
1958
1957
1956
1956
1955
1955
1956
1956
1956
1956
1957
1959
1960
1959
1957
1954
1953
1954
1957
1961
1964
1966
1966
1964
1963
1961
1959
1958
1958
1958
1958
1957
1955
1953
1952
1952
1955
1957
1959
1959
1959
1958
1956
1953
1948
1942
1940
1946
1966
2003
2050
2094
2116
2105
2062
2002
1943
1904
1890
1896
1914
1934
1949
1958
1961
1961
1961
1962
1964
1965
1965
1965
1966
1967
1968
1969
1968
1968
1967
1969
1971
1974
1977
1979
1978
1977
1977
1978
1980
1983
1985
1985
1983
1982
1982
1984
1989
1993
1996
1997
1997
1997
1997
1999
2000
2001
2002
2003
2005
2006
2006
2006
2003
2000
1996
1991
1985
1980
1976
1972
1969
1965
1961
1957
1954
1953
1952
1953
1953
1953
1952
1952
1951
1951
1951
1952
1953
1954
1954
1955
1956
1957
1957
1957
1956
1956
1956
1956
1957
1958
1958
1958
1958
1958
1958
1959
1959
1959
1958
1958
1958
1959
1959
1960
1960
1959
1958
1958
1959
1961
1962
1962
1961
1961
1961
1961
1962
1962
1963
1963
1964
1964
1964
1964
1964
1964
1964
1965
1967
1968
1968
1968
1968
1969
1969
1969
1968
1968
1968
1968
1969
1970
1969
1969
1968
1968
1969
1970
1971
1973
1975
1976
1976
1976
1974
1972
1970
1970
1970
1970
1971
1971
1971
1971
1970
1970
1970
1969
1970
1970
1972
1973
1974
1973
1969
1962
1956
1954
1961
1986
2029
2080
2123
2139
2119
2068
2005
1950
1918
1912
1924
1943
1962
1975
1982
1984
1984
1982
1982
1983
1984
1985
1985
1985
1986
1987
1987
1988
1989
1990
1991
1993
1994
1995
1996
1997
1997
1998
1999
2001
2002
2004
2005
2005
2006
2007
2009
2011
2013
2015
2017
2018
2019
2020
2021
2022
2023
2024
2026
2027
2028
2028
2027
2025
2020
2016
2011
2006
2001
1996
1991
1986
1982
1979
1977
1975
1974
1972
1972
1971
1971
1971
1971
1971
1970
1970
1970
1970
1971
1972
1973
1973
1973
1973
1973
1974
1974
1974
1974
1974
1974
1975
1975
1975
1974
1974
1973
1973
1973
1974
1974
1974
1974
1974
1973
1973
1973
1973
1974
1975
1975
1975
1975
1973
1972
1971
1971
1972
1973
1974
1974
1974
1973
1972
1971
1971
1972
1973
1974
1975
1975
1974
1973
1972
1972
1972
1973
1974
1976
1976
1976
1974
1973
1972
1972
1973
1974
1974
1975
1975
1976
1977
1977
1977
1976
1974
1974
1974
1974
1975
1976
1978
1980
1981
1983
1983
1982
1981
1981
1980
1980
1979
1978
1978
1977
1977
1977
1977
1976
1977
1977
1977
1977
1978
1978
1978
1977
1975
1971
1966
1965
1975
2002
2044
2092
2128
2136
2109
2057
1998
1950
1925
1923
1935
1954
1971
1983
1989
1991
1989
1988
1988
1988
1989
1989
1989
1990
1991
1992
1993
1994
1994
1994
1994
1994
1995
1996
1997
1998
1999
1999
2000
2000
2001
2001
2002
2003
2004
2006
2007
2009
2010
2011
2011
2012
2012
2013
2014
2016
2017
2018
2019
2020
2020
2020
2019
2017
2014
2010
2006
2002
1997
1991
1985
1980
1975
1972
1970
1968
1967
1966
1965
1963
1961
1960
1960
1960
1961
1962
1962
1962
1963
1963
1963
1963
1963
1963
1962
1963
1963
1964
1965
1965
1964
1964
1963
1964
1965
1965
1965
1965
1964
1963
1963
1963
1963
1963
1964
1964
1965
1964
1964
1963
1963
1962
1963
1963
1964
1964
1964
1964
1963
1963
1962
1962
1962
1962
1962
1962
1962
1962
1962
1962
1962
1961
1961
1962
1962
1962
1963
1963
1962
1962
1962
1962
1963
1964
1963
1963
1962
1962
1962
1963
1964
1964
1964
1964
1965
1966
1968
1970
1971
1970
1970
1968
1967
1966
1965
1964
1965
1965
1965
1965
1965
1965
1965
1964
1965
1965
1965
1965
1964
1962
1957
1950
1947
1954
1977
2021
2074
2120
2138
2118
2067
2003
1945
1909
1897
1902
1916
1933
1949
1963
1972
1975
1975
1974
1974
1975
1975
1976
1977
1977
1977
1977
1978
1979
1981
1982
1983
1984
1985
1985
1986
1987
1988
1989
1990
1992
1994
1996
1998
2000
2001
2001
2003
2004
2007
2009
2012
2014
2016
2017
2018
2019
2020
2022
2024
2025
2026
2025
2023
2020
2015
2009
2002
1996
1990
1986
1982
1978
1975
1972
1969
1967
1966
1965
1966
1966
1966
1966
1966
1965
1964
1964
1964
1964
1965
1966
1967
1968
1968
1967
1967
1967
1967
1967
1968
1969
1969
1970
1971
1971
1970
1969
1968
1968
1968
1968
1970
1971
1971
1971
1971
1970
1968
1968
1968
1968
1969
1971
1971
1971
1971
1970
1969
1969
1969
1970
1971
1971
1971
1971
1971
1970
1970
1970
1970
1971
1971
1972
1971
1971
1970
1970
1971
1972
1972
1973
1974
1975
1976
1977
1977
1976
1975
1974
1974
1974
1974
1974
1973
1973
1973
1973
1973
1973
1974
1974
1975
1975
1976
1976
1975
1972
1967
1960
1956
1960
1982
2023
2075
2124
2146
2131
2082
2018
1958
1921
1911
1921
1940
1959
1973
1982
1985
1985
1984
1984
1984
1986
1986
1987
1987
1987
1988
1989
1990
1991
1991
1992
1993
1994
1995
1997
1998
1999
2000
2001
2002
2003
2004
2004
2005
2006
2008
2010
2012
2014
2017
2019
2020
2021
2022
2023
2024
2026
2028
2029
2031
2031
2031
2028
2025
2019
2013
2007
2001
1995
1990
1985
1980
1976
1973
1971
1970
1969
1969
1968
1968
1968
1967
1966
1966
1965
1965
1966
1967
1968
1969
1970
1970
1969
1969
1969
1969
1968
1969
1969
1970
1971
1972
1971
1970
1970
1969
1969
1970
1971
1971
1971
1971
1971
1970
1969
1969
1969
1969
1970
1970
1971
1970
1970
1969
1968
1968
1968
1968
1969
1970
1970
1970
1970
1969
1968
1968
1968
1969
1970
1971
1972
1971
1971
1970
1969
1968
1968
1969
1970
1971
1971
1972
1972
1971
1970
1970
1969
1969
1970
1971
1971
1971
1972
1971
1971
1971
1971
1972
1973
1975
1977
1979
1979
1978
1977
1974
1973
1972
1972
1973
1974
1974
1974
1973
1972
1971
1972
1973
1974
1974
1975
1975
1973
1970
1965
1959
1955
1960
1981
2021
2072
2118
2140
2126
2080
2018
1960
1924
1914
1923
1943
1962
1975
1983
1985
1983
1981
1980
1981
1982
1983
1984
1984
1984
1984
1984
1986
1987
1989
1990
1991
1992
1992
1992
1992
1993
1994
1995
1997
1999
2000
2001
2001
2002
2003
2005
2007
2009
2011
2013
2015
2017
2019
2020
2020
2021
2022
2023
2025
2026
2027
2026
2024
2020
2015
2009
2004
1998
1993
1989
1984
1980
1976
1973
1971
1970
1969
1969
1968
1968
1968
1967
1967
1966
1966
1965
1965
1965
1966
1968
1968
1969
1969
1969
1968
1967
1967
1968
1969
1970
1970
1970
1969
1968
1968
1968
1968
1969
1969
1969
1970
1970
1970
1970
1970
1969
1969
1968
1968
1969
1969
1969
1968
1967
1967
1966
1966
1967
1968
1968
1969
1969
1968
1968
1968
1968
1968
1969
1970
1970
1971
1970
1970
1969
1969
1969
1969
1969
1969
1969
1969
1969
1969
1968
1968
1968
1968
1967
1968
1968
1968
1968
1968
1968
1968
1968
1968
1969
1971
1973
1975
1976
1976
1975
1973
1971
1970
1969
1969
1969
1969
1969
1969
1968
1968
1967
1967
1967
1968
1969
1970
1971
1971
1970
1967
1962
1956
1953
1959
1981
2021
2070
2113
2132
2115
2067
2006
1951
1919
1912
1923
1943
1961
1974
1980
1981
1980
1978
1978
1978
1979
1979
1979
1979
1979
1979
1980
1982
1984
1985
1985
1985
1985
1985
1985
1986
1987
1988
1989
1991
1992
1994
1994
1995
1995
1996
1997
1998
2001
2003
2005
2006
2007
2008
2009
2011
2012
2014
2015
2017
2018
2018
2017
2014
2010
2005
1999
1994
1988
1982
1978
1973
1969
1966
1963
1960
1958
1957
1956
1957
1957
1956
1956
1954
1953
1952
1952
1953
1954
1955
1956
1956
1956
1956
1956
1956
1957
1957
1957
1957
1957
1957
1956
1956
1955
1955
1955
1955
1956
1957
1957
1957
1957
1956
1955
1954
1954
1954
1955
1955
1955
1955
1954
1954
1954
1954
1954
1953
1953
1953
1953
1954
1954
1954
1954
1953
1952
1953
1953
1954
1955
1956
1956
1956
1955
1955
1955
1955
1955
1956
1956
1956
1955
1954
1953
1953
1953
1955
1956
1958
1959
1959
1959
1959
1960
1961
1962
1963
1963
1962
1961
1960
1959
1958
1957
1956
1956
1957
1957
1958
1959
1960
1960
1960
1960
1959
1959
1957
1955
1950
1945
1944
1954
1983
2030
2083
2124
2132
2102
2045
1980
1928
1899
1894
1904
1921
1938
1953
1965
1972
1974
1973
1972
1971
1971
1971
1972
1973
1974
1975
1976
1977
1978
1977
1977
1977
1978
1979
1981
1984
1986
1987
1988
1989
1990
1991
1992
1993
1995
1997
1998
2000
2001
2002
2004
2006
2007
2010
2012
2014
2017
2019
2020
2021
2020
2018
2016
2013
2008
2003
1997
1990
1984
1978
1973
1969
1965
1962
1960
1958
1957
1957
1956
1955
1954
1953
1953
1953
1954
1955
1956
1956
1956
1955
1955
1955
1956
1957
1959
1961
1962
1962
1961
1960
1959
1958
1958
1959
1960
1961
1962
1963
1962
1962
1961
1960
1959
1959
1960
1960
1961
1962
1961
1961
1960
1960
1961
1961
1962
1963
1963
1963
1963
1962
1962
1962
1962
1962
1962
1962
1962
1963
1963
1963
1962
1961
1962
1963
1965
1966
1967
1967
1966
1965
1965
1965
1966
1968
1971
1973
1973
1972
1969
1965
1962
1961
1962
1963
1964
1965
1964
1964
1964
1964
1964
1965
1966
1967
1967
1965
1959
1952
1948
1957
1986
2034
2088
2130
2140
2111
2052
1987
1934
1908
1906
1921
1941
1960
1974
1982
1985
1984
1982
1979
1978
1979
1980
1982
1983
1983
1984
1986
1988
1989
1990
1989
1989
1989
1991
1994
1996
1998
1998
1998
1999
2000
2002
2004
2006
2008
2010
2011
2013
2015
2017
2019
2021
2022
2024
2026
2029
2031
2033
2034
2033
2031
2029
2025
2021
2016
2011
2005
1998
1991
1985
1979
1975
1972
1970
1969
1967
1964
1962
1961
1960
1960
1960
1960
1960
1961
1961
1960
1960
1959
1958
1959
1960
1961
1961
1961
1960
1960
1960
1961
1961
1961
1961
1961
1963
1965
1967
1967
1966
1964
1962
1961
1961
1962
1963
1963
1964
1964
1963
1962
1961
1961
1961
1962
1962
1962
1962
1962
1962
1962
1963
1963
1963
1963
1963
1963
1962
1962
1962
1962
1962
1962
1963
1964
1965
1966
1966
1965
1964
1964
1963
1963
1963
1963
1963
1964
1964
1964
1964
1964
1964
1964
1966
1968
1971
1973
1974
1974
1972
1970
1967
1965
1964
1964
1965
1965
1966
1966
1965
1965
1965
1965
1966
1966
1968
1969
1969
1967
1962
1955
1950
1954
1974
2013
2064
2112
2136
2125
2078
2015
1956
1918
1909
1920
1942
1961
1975
1981
1982
1980
1977
1976
1976
1977
1979
1980
1982
1983
1985
1985
1986
1986
1986
1987
1989
1992
1993
1995
1995
1995
1995
1997
1999
2001
2003
2005
2006
2008
2010
2011
2012
2013
2014
2016
2018
2020
2023
2025
2027
2028
2029
2030
2030
2031
2031
2031
2028
2024
2019
2013
2006
2000
1994
1988
1984
1980
1977
1975
1973
1971
1969
1968
1967
1968
1968
1969
1969
1968
1968
1967
1967
1967
1967
1968
1969
1969
1970
1970
1971
1971
1971
1971
1970
1970
1971
1972
1973
1973
1973
1972
1972
1971
1971
1972
1972
1973
1973
1973
1972
1971
1971
1970
1971
1971
1972
1972
1973
1973
1972
1971
1971
1970
1970
1971
1972
1973
1973
1973
1973
1972
1972
1972
1972
1973
1974
1974
1975
1975
1974
1974
1973
1972
1972
1972
1972
1972
1973
1973
1973
1972
1972
1972
1972
1973
1974
1976
1978
1979
1981
1981
1981
1979
1977
1975
1975
1974
1974
1974
1973
1972
1971
1972
1972
1973
1973
1974
1974
1974
1975
1975
1975
1974
1970
1965
1959
1960
1973
2004
2049
2099
2133
2136
2103
2045
1983
1936
1916
1919
1936
1956
1971
1980
1984
1983
1981
1980
1979
1980
1981
1981
1982
1982
1982
1982
1983
1984
1985
1986
1986
1986
1986
1987
1987
1988
1990
1992
1993
1994
1994
1995
1995
1996
1997
1999
2001
2003
2005
2007
2008
2009
2010
2011
2012
2014
2016
2018
2020
2020
2020
2018
2016
2013
2008
2004
1999
1993
1988
1982
1977
1972
1969
1966
1964
1963
1963
1962
1962
1961
1960
1960
1959
1959
1959
1959
1960
1962
1962
1963
1962
1962
1961
1961
1961
1961
1961
1962
1962
1962
1962
1962
1961
1960
1960
1960
1960
1961
1961
1960
1959
1958
1958
1957
1958
1958
1958
1958
1958
1958
1957
1956
1956
1956
1956
1957
1958
1958
1958
1958
1958
1957
1957
1956
1956
1956
1957
1958
1959
1959
1958
1957
1956
1956
1957
1958
1960
1960
1961
1961
1961
1960
1960
1959
1959
1959
1960
1960
1960
1960
1960
1960
1960
1961
1962
1964
1966
1968
1968
1968
1967
1965
1963
1962
1961
1961
1961
1962
1962
