1973
1973
1972
1973
1973
1974
1974
1974
1974
1974
1973
1973
1972
1972
1972
1972
1972
1973
1974
1974
1974
1974
1973
1974
1974
1975
1975
1975
1975
1975
1975
1974
1974
1974
1974
1975
1975
1976
1976
1977
1976
1976
1976
1976
1976
1977
1977
1978
1978
1979
1978
1978
1977
1977
1977
1977
1978
1979
1979
1979
1979
1978
1978
1978
1978
1979
1979
1980
1980
1980
1979
1979
1979
1979
1980
1980
1980
1980
1980
1980
1979
1979
1978
1978
1979
1980
1982
1984
1986
1988
1988
1988
1988
1988
1987
1986
1984
1983
1982
1981
1980
1980
1980
1981
1983
1981
1974
1963
1951
1951
1969
2007
2054
2097
2121
2120
2100
2071
2043
2020
2003
1992
1985
1981
1979
1979
1978
1977
1976
1975
1975
1974
1974
1974
1974
1974
1975
1976
1977
1977
1977
1976
1975
1975
1976
1977
1978
1979
1980
1980
1981
1981
1982
1982
1983
1984
1985
1986
1987
1988
1988
1989
1989
1989
1990
1991
1993
1994
1995
1996
1996
1997
1998
1999
2001
2002
2004
2005
2006
2006
2007
2007
2008
2008
2008
2008
2007
2006
2004
2001
1998
1994
1990
1987
1984
1983
1982
1981
1980
1978
1976
1975
1974
1974
1974
1975
1975
1976
1976
1976
1976
1975
1975
1975
1975
1976
1977
1977
1977
1977
1977
1977
1977
1977
1977
1977
1978
1978
1978
1978
1978
1978
1978
1977
1977
1977
1977
1977
1977
1977
1977
1976
1975
1975
1975
1976
1977
1977
1977
1977
1976
1976
1975
1976
1976
1976
1977
1977
1977
1978
1977
1977
1977
1977
1977
1977
1977
1977
1977
1978
1977
1977
1976
1975
1976
1976
1977
1978
1978
1978
1978
1977
1977
1977
1977
1977
1978
1978
1978
1977
1977
1977
1976
1976
1976
1977
1977
1978
1979
1979
1978
1978
1978
1978
1979
1980
1980
1980
1980
1980
1979
1979
1978
1978
1978
1979
1980
1980
1981
1981
1980
1979
1979
1979
1979
1979
1980
1980
1980
1980
1980
1980
1979
1979
1979
1979
1980
1981
1983
1985
1986
1987
1987
1987
1987
1987
1986
1985
1983
1981
1980
1979
1978
1979
1980
1982
1981
1976
1966
1954
1949
1960
1990
2034
2079
2110
2118
2105
2078
2049
2025
2007
1994
1985
1980
1977
1976
1976
1976
1974
1973
1972
1971
1971
1972
1973
1973
1974
1974
1974
1974
1974
1974
1974
1975
1975
1976
1977
1978
1979
1979
1979
1979
1979
1979
1980
1981
1982
1982
1983
1983
1984
1984
1985
1987
1988
1989
1990
1990
1991
1991
1992
1993
1995
1996
1997
1999
2000
2001
2003
2003
2004
2004
2005
2006
2006
2006
2006
2004
2002
2000
1997
1993
1990
1987
1984
1982
1980
1978
1976
1974
1973
1973
1972
1971
1971
1971
1971
1971
1971
1971
1970
1970
1971
1972
1973
1974
1974
1975
1974
1974
1973
1973
1973
1973
1974
1974
1975
1975
1974
1974
1974
1973
1973
1973
1973
1973
1974
1974
1974
1974
1973
1972
1971
1971
1972
1973
1974
1974
1973
1973
1972
1971
1972
1972
1972
1972
1973
1973
1973
1973
1973
1973
1973
1973
1973
1974
1974
1974
1974
1973
1973
1973
1973
1973
1974
1974
1974
1974
1974
1974
1975
1975
1975
1975
1975
1975
1975
1975
1975
1975
1975
1975
1976
1976
1977
1977
1977
1977
1976
1976
1976
1976
1976
1976
1976
1977
1977
1978
1978
1977
1977
1977
1977
1977
1978
1978
1978
1978
1978
1978
1980
1981
1983
1985
1987
1988
1989
1989
1988
1985
1982
1980
1978
1977
1978
1979
1980
1982
1983
1980
1971
1958
1948
1949
1971
2010
2058
2098
2118
2114
2092
2062
2036
2015
2000
1991
1984
1981
1979
1978
1977
1976
1975
1974
1974
1974
1975
1975
1975
1974
1974
1975
1975
1976
1976
1977
1977
1977
1977
1977
1978
1978
1979
1980
1981
1982
1982
1983
1983
1983
1984
1984
1985
1986
1987
1988
1989
1989
1990
1990
1991
1992
1993
1994
1996
1998
1999
2001
2002
2002
2003
2004
2005
2006
2007
2009
2010
2010
2010
2009
2008
2006
2003
2000
1997
1994
1992
1989
1987
1984
1982
1980
1978
1977
1977
1977
1977
1976
1976
1976
1975
1975
1975
1975
1976
1977
1978
1978
1978
1977
1977
1976
1977
1978
1979
1979
1979
1979
1978
1978
1978
1978
1978
1978
1978
1979
1979
1979
1978
1978
1978
1977
1977
1977
1977
1978
1978
1978
1977
1976
1976
1976
1976
1976
1977
1977
1977
1977
1977
1976
1975
1974
1974
1974
1975
1976
1976
1977
1977
1976
1976
1975
1975
1975
1975
1976
1977
1978
1978
1977
1976
1976
1976
1976
1976
1977
1977
1977
1977
1977
1977
1976
1976
1976
1977
1978
1978
1978
1978
1977
1977
1977
1977
1977
1978
1978
1979
1979
1979
1978
1978
1977
1977
1977
1977
1977
1978
1978
1978
1978
1978
1978
1978
1977
1977
1977
1978
1978
1978
1978
1977
1977
1977
1978
1979
1979
1979
1979
1978
1978
1977
1977
1977
1977
1977
1977
1978
1979
1981
1983
1984
1985
1985
1986
1986
1986
1985
1984
1982
1980
1978
1977
1976
1977
1979
1981
1981
1975
1963
1951
1947
1961
1994
2040
2084
2113
2118
2103
2075
2047
2022
2003
1991
1983
1980
1978
1977
1977
1975
1974
1972
1971
1971
1971
1971
1972
1973
1974
1974
1974
1974
1973
1973
1973
1974
1975
1976
1977
1977
1977
1977
1977
1977
1978
1979
1980
1981
1981
1982
1982
1982
1983
1984
1985
1987
1988
1989
1990
1990
1990
1990
1990
1991
1993
1995
1997
1999
2000
2001
2001
2002
2002
2003
2004
2006
2007
2007
2006
2005
2002
1999
1996
1993
1991
1988
1986
1984
1982
1979
1977
1975
1974
1973
1973
1973
1973
1973
1973
1973
1972
1972
1972
1972
1973
1974
1974
1974
1974
1973
1973
1973
1974
1974
1974
1975
1975
1975
1975
1975
1975
1975
1975
1974
1974
1974
1973
1973
1973
1972
1972
1971
1971
1971
1971
1971
1971
1971
1972
1972
1972
1971
1971
1971
1970
1971
1971
1972
1972
1972
1972
1971
1971
1970
1970
1970
1971
1971
1971
1971
1971
1971
1970
1970
1970
1971
1972
1973
1973
1973
1973
1972
1972
1972
1972
1972
1972
1972
1972
1971
1971
1970
1970
1970
1970
1970
1970
1971
1972
1972
1972
1971
1970
1970
1970
1970
1971
1972
1971
1971
1970
1970
1969
1969
1970
1970
1971
1971
1972
1972
1971
1970
1969
1968
1969
1969
1970
1971
1971
1970
1969
1968
1968
1969
1970
1973
1976
1978
1980
1981
1980
1979
1977
1975
1973
1972
1971
1972
1972
1973
1973
1974
1974
1970
1961
1949
1940
1944
1967
2008
2055
2093
2109
2102
2078
2048
2022
2002
1989
1981
1975
1972
1970
1969
1968
1967
1966
1966
1966
1966
1966
1966
1966
1965
1966
1967
1968
1969
1969
1969
1969
1969
1969
1970
1971
1972
1974
1974
1975
1975
1975
1975
1975
1976
1976
1977
1979
1980
1981
1981
1982
1982
1983
1984
1986
1987
1989
1991
1992
1993
1994
1995
1996
1997
1998
2000
2002
2003
2005
2006
2006
2007
2006
2005
2004
2002
2000
1997
1994
1990
1986
1983
1979
1976
1974
1973
1972
1972
1973
1972
1972
1971
1970
1969
1969
1970
1971
1972
1973
1973
1973
1973
1972
1972
1972
1973
1973
1974
1975
1975
1975
1975
1974
1974
1974
1974
1975
1977
1977
1977
1976
1975
1974
1974
1974
1975
1975
1975
1975
1975
1975
1974
1975
1975
1976
1976
1977
1977
1976
1976
1976
1975
1975
1976
1976
1977
1977
1978
1978
1978
1977
1977
1977
1976
1976
1976
1976
1977
1978
1978
1978
1977
1977
1977
1977
1978
1979
1980
1980
1979
1979
1978
1977
1977
1977
1978
1979
1979
1979
1979
1979
1979
1979
1979
1979
1979
1980
1980
1981
1981
1980
1979
1978
1977
1977
1978
1979
1980
1980
1980
1979
1979
1979
1980
1983
1985
1988
1989
1990
1990
1989
1987
1986
1984
1982
1981
1980
1979
1979
1980
1981
1982
1981
1975
1964
1953
1949
1962
1995
2041
2085
2115
2122
2107
2080
2051
2028
2010
1997
1988
1983
1979
1977
1977
1977
1976
1976
1975
1975
1975
1975
1975
1975
1974
1975
1975
1976
1977
1977
1977
1977
1978
1978
1978
1978
1978
1979
1980
1981
1982
1982
1983
1983
1984
1984
1985
1986
1986
1988
1989
1989
1989
1989
1989
1990
1991
1993
1995
1996
1998
1999
2000
2001
2002
2003
2004
2005
2006
2007
2008
2009
2009
2008
2006
2005
2003
2000
1997
1993
1989
1986
1982
1980
1978
1976
1975
1975
1975
1975
1974
1973
1971
1971
1971
1971
1971
1971
1971
1972
1972
1973
1973
1972
1972
1972
1973
1974
1974
1974
1974
1973
1972
1971
1971
1970
1971
1971
1972
1972
1972
1972
1971
1971
1970
1970
1970
1971
1971
1971
1971
1970
1969
1969
1969
1969
1970
1970
1970
1971
1971
1970
1969
1969
1968
1968
1969
1970
1971
1971
1971
1971
1970
1970
1970
1970
1971
1971
1971
1971
1970
1970
1971
1971
1971
1971
1971
1971
1971
1971
1972
1972
1972
1971
1971
1971
1971
1971
1972
1973
1974
1974
1973
1973
1972
1972
1973
1974
1974
1975
1975
1974
1973
1973
1973
1973
1973
1974
1975
1975
1975
1975
1975
1974
1974
1974
1975
1975
1975
1975
1975
1975
1977
1979
1981
1982
1983
1984
1983
1982
1981
1978
1976
1975
1974
1975
1976
1977
1979
1980
1977
1969
1957
1945
1944
1963
2001
2051
2096
2121
2120
2098
2066
2036
2012
1996
1987
1981
1977
1975
1973
1972
1970
1969
1969
1969
1970
1971
1971
1971
1971
1971
1971
1971
1971
1972
1972
1973
1973
1974
1974
1974
1974
1974
1974
1974
1975
1976
1977
1978
1979
1979
1979
1979
1980
1981
1983
1985
1986
1987
1988
1988
1988
1989
1990
1991
1992
1994
1995
1997
1998
1999
2000
2001
2002
2003
2005
2006
2007
2008
2007
2005
2003
2000
1997
1993
1990
1987
1984
1982
1979
1977
1975
1974
1973
1972
1971
1970
1970
1970
1970
1970
1970
1969
1969
1969
1970
1971
1972
1973
1973
1972
1972
1972
1972
1973
1973
1974
1974
1975
1975
1975
1975
1974
1974
1974
1974
1975
1975
1975
1975
1975
1974
1974
1974
1974
1974
1975
1975
1975
1975
1975
1975
1974
1974
1974
1974
1975
1975
1976
1975
1975
1974
1973
1973
1973
1974
1975
1975
1975
1975
1974
1974
1974
1974
1974
1975
1975
1976
1976
1976
1975
1974
1974
1974
1975
1976
1977
1977
1977
1977
1976
1976
1976
1976
1977
1977
1978
1978
1978
1977
1977
1977
1977
1977
1976
1976
1976
1977
1977
1978
1977
1977
1977
1976
1976
1977
1977
1977
1978
1978
1978
1978
1977
1977
1977
1978
1978
1979
1979
1979
1979
1978
1978
1977
1977
1977
1978
1978
1979
1979
1979
1979
1978
1978
1978
1978
1979
1979
1980
1980
1980
1980
1981
1983
1985
1986
1988
1988
1988
1987
1984
1982
1980
1979
1979
1979
1979
1980
1980
1980
1978
1971
1960
1950
1950
1968
2004
2050
2091
2114
2114
2095
2067
2040
2018
2002
1992
1985
1982
1980
1978
1977
1975
1974
1974
1975
1975
1975
1975
1975
1975
1974
1974
1974
1974
1975
1976
1977
1977
1977
1977
1977
1977
1978
1979
1980
1981
1982
1982
1983
1983
1983
1983
1983
1984
1985
1986
1987
1988
1989
1989
1990
1990
1991
1993
1994
1996
1997
1998
2000
2000
2001
2002
2003
2004
2006
2007
2009
2010
2010
2010
2009
2007
2005
2003
2000
1997
1994
1991
1989
1986
1983
1981
1980
1978
1978
1977
1977
1976
1976
1975
1975
1975
1975
1975
1976
1976
1976
1976
1977
1977
1977
1977
1977
1977
1978
1979
1980
1981
1981
1980
1978
1977
1976
1976
1977
1979
1980
1980
1980
1979
1978
1977
1977
1977
1977
1977
1978
1977
1977
1977
1977
1977
1977
1977
1976
1976
1976
1976
1977
1977
1977
1977
1976
1975
1975
1975
1976
1977
1978
1978
1978
1977
1977
1977
1978
1978
1979
1980
1980
1979
1978
1977
1977
1977
1977
1978
1979
1979
1979
1978
1978
1977
1978
1979
1979
1980
1980
1979
1979
1978
1978
1978
1978
1979
1979
1979
1979
1979
1979
1978
1978
1978
1979
1979
1979
1980
1980
1981
1981
1980
1979
1979
1978
1978
1979
1980
1981
1982
1982
1982
1981
1980
1979
1979
1979
1980
1981
1981
1981
1981
1980
1979
1980
1981
1983
1985
1987
1988
1989
1988
1988
1987
1986
1985
1983
1982
1981
1980
1979
1980
1981
1982
1981
1975
1965
1954
1951
1963
1995
2039
2081
2109
2116
2102
2076
2049
2026
2008
1996
1987
1981
1978
1977
1976
1975
1974
1974
1973
1973
1972
1972
1972
1972
1972
1972
1973
1974
1975
1975
1974
1973
1973
1973
1974
1975
1976
1977
1978
1978
1979
1979
1978
1978
1978
1979
1980
1981
1983
1983
1984
1984
1984
1985
1986
1987
1988
1990
1991
1993
1993
1994
1994
1994
1994
1996
1997
1999
2001
2002
2002
2002
2002
2002
2001
2001
1999
1997
1994
1990
1986
1981
1977
1974
1972
1971
1970
1969
1967
1966
1965
1964
1964
1964
1964
1964
1964
1965
1965
1966
1965
1965
1964
1963
1964
1964
1965
1966
1966
1966
1965
1965
1964
1962
1962
1962
1963
1964
1965
1966
1965
1965
1963
1963
1962
1962
1962
1963
1963
1964
1963
1963
1962
1961
1962
1962
1962
1962
1962
1962
1962
1962
1961
1960
1960
1960
1961
1962
1963
1963
1963
1962
1961
1961
1961
1961
1962
1963
1964
1964
1964
1963
1962
1962
1962
1963
1964
1964
1964
1964
1964
1963
1963
1962
1963
1963
1965
1966
1967
1967
1966
1965
1965
1964
1965
1965
1966
1967
1967
1967
1966
1966
1966
1966
1966
1966
1966
1967
1968
1970
1972
1973
1975
1976
1976
1976
1976
1976
1974
1972
1970
1968
1967
1966
1967
1968
1970
1971
1967
1958
1946
1938
1945
1972
2014
2060
2094
2105
2094
2069
2040
2016
1998
1987
1979
1974
1972
1970
1969
1969
1968
1967
1967
1967
1967
1967
1967
1967
1968
1968
1969
1969
1970
1970
1971
1971
1971
1972
1974
1974
1975
1974
1974
1974
1975
1976
1978
1979
1980
1980
1980
1980
1980
1980
1981
1983
1985
1987
1988
1989
1990
1990
1991
1992
1994
1995
1997
1999
2000
2002
2004
2005
2006
2007
2008
2009
2009
2009
2008
2006
2003
2000
1996
1992
1989
1986
1983
1981
1979
1977
1975
1973
1972
1971
1971
1971
1971
1971
1972
1972
1972
1972
1972
1971
1971
1972
1972
1973
1974
1974
1974
1974
1973
1973
1973
1974
1975
1976
1976
1976
1976
1975
1975
1974
1975
1975
1975
1975
1975
1974
1973
1972
1971
1971
1972
1973
1973
1974
1973
1972
1971
1971
1971
1971
1972
1973
1974
1974
1973
1972
1972
1971
1970
1970
1971
1971
1972
1972
1972
1972
1971
1970
1970
1970
1970
1971
1971
1972
1972
1972
1971
1971
1970
1970
1970
1971
1972
1972
1973
1973
1972
1971
1970
1969
1969
1970
1970
1971
1971
1970
1970
1970
1970
1970
1970
1971
1972
1972
1972
1972
1972
1972
1971
1970
1970
1970
1972
1974
1977
1979
1980
1980
1979
1979
1978
1976
1975
1974
1973
1972
1971
1971
1971
1973
1973
1970
1962
1951
1944
1950
1976
2017
2062
2097
2111
2103
2080
2051
2026
2006
1991
1981
1974
1971
1970
1970
1971
1970
1969
1968
1967
1967
1966
1966
1967
1967
1968
1969
1969
1970
1969
1969
1969
1969
1970
1970
1971
1971
1971
1971
1972
1973
1974
1974
1975
1975
1976
1977
1977
1978
1978
1978
1979
1980
1981
1983
1984
1984
1985
1986
1987
1988
1989
1991
1992
1993
1995
1996
1997
1997
1998
1998
1999
1999
1999
1999
1997
1995
1993
1990
1987
1983
1980
1977
1974
1972
1970
1970
1970
1969
1969
1968
1967
1966
1966
1966
1967
1968
1968
1968
1967
1967
1966
1967
1967
1968
1969
1970
1971
1971
1970
1969
1968
1968
1968
1969
1970
1971
1972
1972
1972
1971
1971
1971
1971
1971
1971
1971
1971
1971
1971
1970
1970
1971
1971
1972
1972
1971
1971
1970
1969
1969
1969
1969
1970
1971
1971
1971
1971
1971
1971
1970
1970
1970
1971
1972
1972
1973
1973
1973
1972
1972
1971
1971
1971
1971
1971
1972
1973
1973
1973
1973
1973
1973
1973
1973
1973
1973
1973
1973
1974
1974
1974
1974
1974
1974
1974
1974
1975
1976
1976
1976
1975
1975
1975
1975
1976
1977
1977
1977
1977
1976
1975
1975
1976
1976
1977
1978
1978
1977
1977
1976
1976
1976
1977
1977
1978
1978
1979
1978
1977
1976
1976
1977
1979
1981
1984
1986
1987
1988
1987
1986
1985
1983
1982
1980
1980
1979
1978
1978
1979
1980
1980
1978
1970
1959
1950
1952
1972
2009
2054
2093
2114
2112
2092
2064
2038
2016
2000
1989
1982
1978
1977
1976
1976
1976
1976
1976
1975
1974
1973
1973
1973
1973
1974
1975
1975
1976
1976
1976
1977
1977
1976
1976
1977
1977
1978
1979
1979
1979
1980
1981
1981
1982
1982
1983
1984
1985
1986
1986
1987
1987
1988
1989
1990
1991
1992
1994
1995
1997
1998
1999
2000
2001
2002
2003
2005
2006
2007
2008
2009
2009
2009
2008
2007
2005
2003
2001
1999
1996
1993
1989
1986
1983
1981
1980
1979
1979
1978
1977
1977
1976
1975
1975
1976
1977
1977
1978
1978
1978
1977
1977
1977
1977
1978
1978
1979
1980
1980
1979
1979
1978
1978
1979
1979
1979
1979
1979
1979
1979
1979
1979
1978
1978
1978
1978
1979
1979
1979
1979
1978
1977
1977
1977
1977
1977
1977
1977
1977
1977
1976
1976
1975
1975
1975
1975
1976
1976
1976
1976
1976
1975
1975
1975
1975
1975
1976
1976
1977
1976
1976
1974
1973
1972
1972
1973
1974
1975
1975
1975
1975
1974
1974
1974
1975
1975
1975
1975
1975
1975
1974
1974
1974
1973
1974
1974
1975
1975
1975
1974
1974
1973
1973
1973
1973
1973
1974
1975
1975
1975
1975
1974
1974
1974
1974
1975
1975
1974
1973
1972
1971
1972
1973
1975
1978
1980
1982
1983
1983
1983
1982
1980
1977
1974
1973
1972
1972
1972
1972
1973
1974
1973
1967
1957
1945
1942
1955
1987
2032
2073
2099
2102
2085
2058
2032
2011
1995
1985
1978
1974
1970
1968
1967
1966
1966
1966
1966
1965
1964
1964
1964
1964
1964
1965
1965
1965
1966
1967
1968
1968
1968
1967
1967
1967
1968
1969
1971
1972
1973
1973
1972
1972
1972
1973
1974
1976
1977
1977
1977
1977
1978
1978
1979
1981
1982
1984
1985
1987
1988
1990
1992
1993
1994
1995
1995
1997
1998
2000
2002
2003
2003
2002
2000
1998
1995
1992
1988
1985
1981
1977
1974
1972
1970
1968
1966
1964
1963
1963
1963
1964
1964
1964
1963
1963
1962
1962
1962
1963
1964
1964
1965
1965
1964
1965
1965
1966
1967
1968
1968
1968
1968
1967
1967
1967
1968
1968
1969
1969
1969
1968
1968
1967
1967
1967
1967
1968
1968
1968
1968
1968
1968
1968
1968
1968
1968
1968
1968
1968
1968
1967
1967
1967
1967
1967
1968
1968
1969
1969
1969
1969
1968
1968
1968
1968
1969
1969
1970
1971
1971
1971
1971
1970
1970
1970
1970
1970
1971
1972
1973
1973
1973
1972
1972
1971
1972
1973
1974
1975
1975
1975
1974
1974
1974
1973
1974
1974
1974
1974
1974
1974
1974
1976
1978
1980
1982
1984
1984
1984
1984
1983
1981
1979
1977
1976
1975
1975
1976
1977
1978
1979
1978
1971
1959
1947
1945
1961
1996
2044
2088
2114
2116
2097
2068
2041
2018
2003
1992
1985
1981
1978
1977
1976
1974
1972
1971
1970
1971
1972
1973
1974
1973
1973
1972
1972
1973
1974
1975
1975
1975
1976
1976
1976
1976
1977
1977
1978
1979
1981
1982
1982
1982
1981
1981
1981
1982
1983
1985
1986
1987
1988
1989
1989
1991
1992
1993
1995
1996
1997
1998
1999
2000
2000
2001
2002
2003
2005
2006
2007
2007
2007
2006
2003
2001
1998
1995
1992
1988
1985
1982
1979
1977
1975
1973
1972
1971
1971
1971
1971
1971
1971
1970
1970
1970
1970
1970
1971
1972
1972
1972
1972
1971
1971
1971
1971
1971
1972
1973
1973
1973
1973
1972
1971
1971
1971
1972
1973
1974
1974
1974
1973
1972
1971
1970
1969
1969
1970
1971
1971
1971
1971
1970
1970
1970
1970
1971
1971
1971
1971
1971
1970
1970
1969
1969
1969
1969
1969
1970
1970
1970
1970
1970
1970
1969
1970
1970
1971
1972
1972
1972
1972
1971
1970
1969
1970
1970
1971
1972
1972
1972
1972
1971
1971
1970
1970
1970
1971
1972
1972
1972
1972
1972
1971
1971
1971
1971
1972
1973
1973
1973
1973
1972
1971
1971
1971
1972
1972
1973
1973
1973
1973
1973
1972
1972
1971
1972
1972
1973
1974
1974
1973
1973
1972
1972
1972
1973
1974
1974
1975
1974
1974
1973
1972
1971
1971
1972
1975
1978
1980
1982
1984
1984
1984
1983
1982
1980
1979
1978
1977
1977
1976
1976
1976
1977
1978
1978
1974
1964
1952
1945
1953
1980
2023
2069
2103
2115
2106
2081
2052
2027
2007
1993
1983
1977
1974
1972
1972
1972
1972
1971
1970
1970
1969
1968
1968
1968
1968
1969
1970
1970
1971
1971
1971
1971
1971
1971
1972
1973
1973
1974
1975
1975
1976
1976
1976
1977
1977
1977
1977
1978
1979
1980
1981
1982
1983
1984
1985
1986
1987
1988
1988
1989
1990
1991
1993
1994
1996
1998
1999
1999
2000
2000
2001
2001
2002
2002
2002
2002
2000
1998
1994
1990
1987
1984
1981
1979
1978
1976
1975
1974
1973
1972
1971
1970
1969
1970
1970
1971
1971
1972
1972
1971
1972
1972
1972
1972
1972
1972
1972
1972
1972
1972
1972
1972
1972
1972
1973
1973
1973
1973
1973
1972
1972
1972
1972
1972
1972
1973
1973
1973
1973
1973
1972
1971
1971
1971
1971
1972
1972
1972
1972
1972
1971
1971
1972
1972
1972
1972
1972
1971
1971
1971
1971
1972
1972
1972
1973
1973
1972
1972
1971
1971
1971
1971
1972
1973
1973
1973
1973
1973
1973
1973
1972
1971
1970
1971
1971
1973
1974
1974
1974
1974
1974
1973
1974
1974
1974
1975
1975
1975
1975
1974
1974
1973
1973
1973
1974
1974
1975
1975
1976
1976
1976
1976
1975
1975
1975
1975
1975
1976
1976
1975
1975
1975
1974
1975
1975
1975
1976
1976
1976
1976
1975
1974
1974
1974
1974
1975
1975
1975
1977
1978
1980
1982
1983
1983
1982
1982
1982
1981
1981
1979
1978
1976
1975
1975
1975
1977
1978
1978
1972
1962
1950
1945
1955
1985
2029
2073
2105
2114
2101
2075
2046
2021
2003
1991
1983
1978
1976
1974
1973
1972
1970
1969
1969
1969
1969
1968
1968
1968
1968
1968
1968
1968
1969
1970
1970
1971
1972
1972
1972
1972
1972
1972
1973
1974
1975
1976
1976
1976
1976
1976
1976
1977
1977
1978
1978
1980
1981
1982
1984
1985
1985
1986
1987
1988
1990
1992
1994
1995
1995
1995
1995
1996
1997
1999
2000
2001
2001
2001
2000
1999
1996
1994
1991
1988
1985
1983
1980
1978
1976
1974
1972
1971
1970
1969
1969
1968
1968
1967
1967
1967
1967
1967
1967
1967
1967
1968
1968
1968
1968
1967
1967
1966
1967
1968
1969
1969
1970
1970
1969
1969
1969
1969
1969
1969
1969
1969
1969
1969
1969
1969
1968
1968
1968
1968
1969
1969
1969
1969
1968
1966
1965
1965
1966
1966
1967
1968
1968
1967
1967
1967
1967
1967
1966
1966
1966
1966
1966
1967
1966
1966
1965
1965
1965
1965
1966
1966
1967
1967
1967
1966
1966
1965
1965
1965
1965
1966
1966
1966
1966
1966
1966
1965
1965
1965
1965
1966
1966
1966
1966
1966
1965
1964
1964
1965
1966
1966
1967
1966
1966
1965
1965
1965
1965
1965
1965
1965
1966
1966
1967
1967
1966
1966
1965
1965
1966
1966
1967
1967
1966
1965
1965
1965
1966
1968
1970
1972
1974
1974
1974
1974
1972
1971
1969
1967
1966
1965
1965
1965
1965
1966
1967
1964
1957
1945
1935
1936
1955
1992
2040
2080
2101
2099
2079
2050
2024
2003
1988
1978
1971
1967
1964
1962
1962
1961
1961
1962
1963
1963
1962
1961
1960
1960
1960
1961
1962
1964
1965
1966
1966
1966
1966
1966
1967
1967
1968
1969
1969
1969
1969
1969
1970
1971
1972
1972
1973
1974
1974
1975
1975
1976
1978
1979
1980
1981
1983
1985
1986
1988
1990
1991
1992
1993
1994
1995
1997
1999
2001
2002
2003
2002
2001
2000
1998
1997
1995
1993
1990
1987
1984
1981
1978
1975
1973
1972
1971
1970
1969
1969
1969
1968
1968
1967
1967
1968
1968
1969
1970
1970
1970
1969
1969
1968
1968
1969
1969
1970
1971
1971
1972
1972
1971
1971
1971
1972
1972
1973
1974
1974
1975
1975
1974
1974
1973
1972
1972
1972
1972
1972
1972
1971
1970
1969
1969
1969
1970
1971
1972
1972
1972
1971
1971
1970
1970
1971
1973
1974
1975
1976
1975
1974
1972
1972
1972
1973
1974
1975
1975
1975
1974
1974
1974
1974
1974
1974
1974
1974
1974
1974
1974
1974
1974
1973
1973
1972
1973
1973
1974
1974
1975
1975
1974
1974
1973
1973
1973
1973
1974
1974
1974
1974
1973
1972
1972
1972
1972
1973
1974
1974
1974
1974
1974
1974
1974
1974
1975
1975
1976
1976
1975
1975
1974
1974
1973
1972
1972
1972
1973
1975
1977
1979
1981
1981
1981
1981
1980
1980
1979
1978
1975
1973
1972
1971
1971
1972
1974
1975
1974
1968
1957
1945
1942
1956
1989
2036
2081
2110
2116
2101
2073
2043
2018
1999
1986
1978
1974
1972
1971
1971
1969
1967
1966
1965
1965
1965
1965
1966
1966
1966
1965
1965
1965
1965
1966
1967
1968
1968
1969
1969
1969
1969
1969
1969
1970
1971
1972
1973
1973
1974
1974
1974
1975
1975
1976
1977
1979
1980
1981
1981
1982
1982
1982
1983
1984
1986
1988
1990
1992
1993
1994
1994
1994
1994
1995
1996
1997
1999
1999
1999
1998
1995
1992
1989
1986
1983
1980
1977
1975
1972
1970
1969
1968
1967
1967
1967
1966
1966
1967
1967
1966
1966
1966
1966
1966
1966
1967
1967
1968
1969
1969
1968
1968
1968
1968
1969
1970
1970
1971
1970
1970
1969
1969
1968
1968
1969
1969
1969
1969
1969
1968
1967
1967
1966
1967
1967
1968
1969
1969
1969
1969
1968
1968
1968
1968
1968
1968
1969
1970
1970
1969
1968
1968
1968
1968
1968
1969
1969
1969
1969
1968
1968
1968
1967
1968
1968
1970
1971
1972
1973
1972
1971
1969
1967
1967
1967
1968
1969
1970
1971
1971
1970
1969
1968
1968
1969
1969
1970
1971
1972
1972
1972
1971
1970
1970
1970
1970
1971
1971
1972
1972
1972
1972
1971
1970
1969
1969
1970
1971
1971
1971
1971
1970
1969
1969
1968
1968
1968
1969
1971
1974
1976
1977
1978
1978
1978
1977
1976
1974
1972
1971
1970
1969
1968
1968
1969
1970
1970
1966
1956
1944
1937
1945
1972
2015
2059
2091
2102
2091
2067
2040
2015
1996
1983
1974
1968
1966
1965
1964
1964
1963
1962
1961
1960
1960
1959
1959
1959
1959
1959
1959
1959
1958
1957
1957
1957
1958
1959
1960
1961
1961
1961
1961
1961
1962
1963
1965
1966
1966
1967
1967
1967
1967
1968
1969
1970
1971
1972
1973
1974
1975
1976
1976
1977
1978
1978
1980
1981
1983
1985
1986
1988
1989
1990
1991
1992
1993
1993
1992
1991
1988
1984
1980
1976
1972
1970
1967
1966
1964
1963
1960
1958
1955
1953
1952
1952
1953
1954
1954
1954
1953
1953
1952
1952
1953
1953
1954
1954
1955
1955
1954
1954
1954
1954
1955
1956
1957
1958
1958
1958
1957
1956
1955
1955
1954
1954
1954
1954
1955
1955
1955
1955
1954
1954
1953
1953
1953
1954
1954
1954
1954
1954
1953
1953
1953
1954
1955
1955
1956
1956
1956
1956
1956
1955
1955
1955
1956
1957
1957
1957
1957
1957
1957
1957
1958
1959
1960
1960
1961
1961
1960
1959
1959
1958
1959
1959
1960
1961
1962
1962
1962
1961
1961
1960
1960
1960
1962
1966
1969
1972
1974
1975
1974
1974
1973
1972
1972
1972
1972
1971
1970
1969
1968
1968
1969
1971
1969
1963
1951
1940
1939
1957
1994
2042
2083
2106
2104
2084
2055
2029
2008
1994
1983
1976
1972
1970
1969
1970
1970
1969
1967
1966
1966
1966
1966
1967
1968
1969
1970
1971
1971
1971
1971
1970
1971
1972
1973
1975
1975
1976
1976
1976
1976
1976
1976
1977
1977
1979
1981
1983
1984
1985
1985
1984
1985
1986
1987
1989
1991
1993
1994
1995
1996
1997
1998
2000
2001
2003
2004
2006
2007
2008
2008
2009
2009
2010
2009
2008
2005
2002
1997
1993
1989
1985
1982
1980
1978
1976
1975
1974
1973
1972
1971
1970
1969
1969
1970
1971
1971
1972
1972
1972
1972
1972
1972
1972
1972
1972
1972
1972
1972
1973
1973
1973
1973
1973
1974
1974
1974
1975
1974
1974
1974
1974
1974
1974
1974
1974
1973
1973
1972
1972
1972
1972
1972
1972
1972
1972
1972
1972
1972
1971
1971
1971
1971
1971
1971
1972
1972
1972
1972
1971
1971
1970
1970
1970
1971
1972
1973
1973
1972
1972
1971
1971
1971
1972
1972
1972
1973
1973
1973
1972
1972
1971
1971
1971
1972
1973
1974
1974
1973
1973
1972
1971
1971
1971
1972
1973
1973
1973
1972
1972
1972
1974
1976
1978
1980
1980
1980
1979
1978
1977
1975
1973
1972
1971
1970
1971
1972
1973
1974
1974
1969
1959
1946
1939
1948
1976
2020
2066
2099
2110
2099
2073
2045
2020
2001
1988
1980
1975
1971
1970
1968
1967
1966
1966
1966
1966
1966
1966
1966
1965
1965
1965
1965
1965
1966
1967
1968
1968
1968
1968
1967
1967
1967
1968
1969
1970
1971
1972
1973
1974
1974
1974
1974
1975
1976
1978
1979
1980
1981
1981
1981
1982
1983
1985
1987
1989
1990
1991
1992
1993
1993
1994
1995
1996
1998
2000
2001
2002
2001
2000
1998
1996
1993
1990
1988
1985
1982
1980
1977
1975
1973
1972
1970
1969
1968
1967
1966
1966
1966
1966
1966
1966
1967
1968
1969
1969
1969
1969
1968
1968
1968
1968
1969
1969
1968
1969
1969
1970
1970
1970
1969
1969
1968
1968
1969
1969
1970
1970
1970
1969
1969
1968
1968
1967
1967
1967
1968
1968
1968
1968
1968
1968
1968
1968
1968
1967
1967
1967
1968
1968
1967
1967
1967
1967
1967
1967
1968
1968
1968
1967
1967
1966
1966
1967
1968
1969
1970
1970
1969
1968
1968
1968
1968
1968
1968
1968
1968
1968
1969
1969
1970
1970
1969
1969
1970
1971
1972
1972
1972
1971
1969
1969
1969
1969
1970
1971
1971
1971
1971
1971
1971
1971
1971
1971
1971
1972
1973
1973
1972
1970
1969
1969
1970
1973
1976
1978
1980
1981
1981
1980
1979
1977
1976
1975
1974
1974
1974
1974
1974
1975
1976
1975
1970
1959
1947
1943
1955
1986
2031
2075
2105
2110
2094
2067
2039
2016
2000
1990
1983
1979
1976
1975
1975
1974
1973
1972
1971
1971
1971
1971
1972
1972
1972
1972
1973
1974
1975
1975
1976
1976
1976
1977
1977
1978
1979
1980
1981
1982
1982
1982
1982
1983
1983
1984
1986
1987
1988
1989
1990
1990
1991
1992
1993
1994
1996
1998
1999
2000
2001
2002
2003
2004
2006
2008
2010
2013
2015
2016
2017
2017
2017
2017
2015
2014
2011
2008
2005
2001
1998
1995
1991
1989
1986
1984
1983
1982
1982
1981
1980
1979
1979
1979
1979
1980
1980
1981
1981
1982
1982
1982
1982
1982
1982
1983
1984
1985
1985
1985
1984
1983
1983
1983
1983
1984
1985
1986
1986
1986
1985
1985
1984
1984
1984
1984
1984
1984
1984
1984
1984
1983
1983
1983
1983
1983
1984
1984
1985
1985
1984
1984
1984
1984
1984
1984
1984
1985
1985
1985
1984
1984
1984
1984
1984
1984
1985
1985
1985
1985
1985
1985
1985
1985
1986
1986
1986
1986
1987
1987
1987
1987
1986
1986
1986
1987
1987
1988
1988
1988
1988
1987
1986
1986
1986
1987
1987
1988
1989
1989
1988
1987
1987
1988
1990
1993
1995
1997
1998
1998
1997
1995
1994
1991
1989
1988
1987
1987
1988
1990
1991
1992
1989
1980
1967
1956
1958
1979
2019
2066
2108
2128
2125
2103
2073
2046
2025
2010
2001
1994
1990
1988
1986
1985
1984
1983
1983
1984
1984
1984
1983
1983
1983
1982
1983
1983
1984
1985
1985
1986
1986
1985
1985
1985
1986
1987
1988
1989
1990
1991
1991
1991
1991
1992
1992
1992
1993
1994
1995
1996
1997
1998
1999
1999
2000
2001
2002
2003
2005
2006
2007
2008
2008
2009
2010
2012
2014
2016
2018
2018
2018
2016
2014
2011
2009
2006
2003
1999
1996
1994
1991
1988
1986
1984
1982
1980
1980
1980
1980
1980
1980
1979
1979
1978
1978
1978
1979
1979
1980
1980
1980
1980
1980
1980
1980
1981
1981
1982
1982
1982
1982
1981
1981
1980
1979
1979
1980
1981
1981
1982
1981
1981
1980
1979
1978
1978
1978
1979
1979
1979
1979
1978
1977
1977
1977
1977
1978
1979
1979
1979
1979
1978
1978
1978
1978
1979
1979
1979
1980
1981
1981
1981
1980
1979
1978
1978
1979
1979
1980
1980
1980
1979
1979
1978
1978
1978
1978
1979
1979
1980
1980
1979
1979
1978
1978
1979
1979
1979
1980
1980
1979
1979
1979
1979
1979
1978
1978
1978
1979
1979
1979
1979
1978
1977
1977
1977
1978
1979
1979
1979
1979
1978
1978
1978
1978
1979
1979
1979
1979
1979
1978
1978
1977
1977
1977
1976
1977
1977
1977
1978
1978
1977
1976
1976
1975
1975
1975
1977
1979
1982
1984
1986
1986
1985
1985
1984
1983
1982
1981
1980
1978
1977
1976
1976
1977
1978
1978
1974
1964
1952
1945
1954
1982
2027
2073
2107
2119
2109
2084
2053
2028
2007
1993
1984
1979
1977
1975
1975
1974
1973
1972
1971
1971
1970
1970
1970
1970
1971
1972
1972
1973
1972
1972
1972
1972
1973
1974
1975
1975
1976
1976
1976
1976
1976
1977
1977
1978
1979
1980
1981
1981
1981
1981
1981
1982
1983
1984
1986
1987
1988
1988
1988
1989
1990
1992
1994
1995
1997
1998
1999
1999
2000
2000
2001
2002
2003
2004
2004
2002
2000
1996
1993
1989
1986
1984
1981
1979
1978
1976
1975
1973
1972
1970
1969
1967
1967
1968
1969
1970
1970
1970
1970
1970
1970
1970
1971
1971
1971
1972
1972
1971
1971
1971
1970
1970
1971
1971
1971
1971
1971
1971
1970
1970
1969
1969
1970
1970
1971
1970
1970
1969
1968
1968
1967
1966
1966
1967
1967
1968
1969
1969
1968
1968
1967
1966
1966
1966
1966
1967
1967
1967
1967
1967
1966
1966
1966
1967
1967
1968
1968
1968
1968
1967
1967
1966
1966
1967
1967
1967
1967
1967
1967
1966
1965
1965
1965
1966
1966
1967
1967
1966
1966
1965
1965
1965
1965
1966
1966
1966
1966
1966
1966
1966
1965
1965
1965
1966
1966
1966
1966
1966
1965
1964
1964
1964
1964
1964
1964
1965
1965
1965
1965
1964
1963
1962
1963
1965
1967
1969
1971
1972
1973
1973
1973
1972
1971
1969
1967
1966
1964
1963
1963
1963
1965
1967
1965
1959
1947
1934
1932
1949
1985
2034
2077
2102
2103
2083
2053
2026
2003
1988
1977
1970
1966
1964
1963
1963
1963
1962
1961
1960
1959
1958
1958
1958
1959
1961
1962
1962
1963
1963
1963
1963
1964
1964
1964
1965
1965
1966
1967
1968
1968
1969
1970
1970
1970
1971
1972
1973
1974
1975
1975
1975
1976
1977
1979
1980
1982
1983
1984
1985
1986
1987
1988
1989
1991
1993
1995
1997
1999
1999
2000
2000
2000
2000
2000
1999
1998
1995
1992
1988
1984
1980
1977
1974
1971
1969
1968
1968
1967
1966
1965
1964
1963
1963
1963
1964
1965
1966
1967
1967
1966
1965
1963
1963
1963
1964
1965
1966
1967
1967
1967
1966
1966
1966
1966
1967
1967
1968
1968
1968
1968
1968
1968
1967
1967
1968
1968
1968
1968
1968
1967
1967
1967
1967
1968
1968
1969
1969
1968
1967
1967
1966
1967
1967
1967
1968
1969
1969
1969
1968
1968
1968
1967
1968
1968
1969
1969
1970
1971
1971
1970
1970
1969
1968
1969
1970
1971
1972
1972
1971
1971
1970
1970
1970
1970
1971
1972
1972
1972
1972
1972
1971
1970
1970
1970
1970
1971
1972
1972
1972
1972
1971
1970
1970
1970
1970
1971
1973
1974
1975
1977
1978
1979
1980
1981
1981
1981
1981
1979
1978
1975
1974
1972
1972
1972
1973
1976
1977
1976
1967
1953
1940
1939
1958
1998
2048
2093
2117
2115
2094
2063
2034
2011
1995
1985
1979
1976
1975
1974
1973
1971
1970
1969
1968
1968
1969
1970
1970
1971
1971
1970
1970
1970
1970
1971
1972
1973
1974
1975
1975
1975
1975
1975
1975
1975
1976
1977
1977
1978
1978
1979
1979
1980
1980
1981
1982
1984
1986
1987
1988
1989
1989
1989
1990
1992
1993
1995
1997
1998
2000
2001
2003
2004
2005
2006
2006
2007
2007
2006
2004
2002
1997
1993
1988
1984
1982
1980
1979
1977
1975
1973
1971
1970
1969
1968
1968
1968
1968
1968
1968
1968
1969
1969
1970
1970
1970
1970
1970
1971
1971
1971
1971
1970
1970
1970
1970
1971
1971
1972
1972
1972
1971
1971
1971
1972
1973
1973
1973
1973
1972
1970
1970
1970
1972
1973
1973
1974
1973
1972
1971
1971
1970
1970
1969
1970
1970
1971
1971
1971
1971
1971
1971
1971
1971
1971
1971
1971
1971
1971
1971
1971
1971
1971
1972
1972
1973
1973
1973
1973
1972
1972
1971
1971
1971
1972
1973
1973
1974
1974
1974
1974
1974
1973
1973
1972
1973
1973
1974
1974
1975
1974
1974
1973
1973
1973
1974
1974
1975
1976
1975
1974
1974
1973
1973
1974
1975
1975
1976
1976
1976
1975
1975
1974
1974
1974
1975
1976
1976
1976
1976
1975
1974
1973
1972
1973
1975
1978
1980
1982
1983
1983
1982
1982
1981
1981
1980
1978
1977
1976
1975
1974
1974
1975
1976
1974
1967
1956
1945
1946
1965
2002
2048
2089
2112
2111
2091
2063
2036
2014
1998
1988
1980
1976
1973
1971
1971
1970
1969
1969
1969
1968
1967
1967
1966
1967
1967
1968
1969
1969
1969
1970
1970
1969
1970
1970
1970
1971
1972
1973
1973
1974
1974
1973
1973
1973
1974
1975
1977
1978
1979
1979
1979
1979
1979
1980
1982
1983
1985
1986
1987
1988
1989
1989
1990
1991
1992
1994
1995
1997
1998
1998
1999
2000
2000
1999
1999
1997
1995
1992
1989
1985
1980
1976
1973
1971
1970
1969
1968
1967
1966
1965
1964
1963
1963
1963
1964
1965
1965
1965
1965
1965
1965
1965
1965
1965
1965
1965
1965
1965
1965
1965
1965
1966
1966
1966
1966
1967
1967
1967
1967
1966
1966
1966
1966
1966
1966
1966
1967
1967
1967
1966
1965
1965
1965
1965
1966
1967
1967
1967
1967
1967
1966
1966
1966
1966
1966
1967
1967
1968
1968
1967
1967
1966
1966
1967
1967
1968
1969
1969
1969
1969
1968
1968
1968
1969
1970
1970
1971
1971
1970
1969
1969
1969
1969
1969
1970
1971
1971
1972
1971
1971
1970
1970
1970
1971
1971
1972
1972
1972
1972
1972
1972
1972
1972
1972
1973
1974
1975
1975
1974
1973
1972
1971
1971
1972
1974
1976
1979
1981
1982
1983
1983
1982
1982
1981
1980
1979
1978
1977
1976
1976
1976
1976
1977
1977
1973
1964
1952
1945
1953
1980
2023
2069
2104
2116
2105
2080
2050
2026
2008
1995
1986
1981
1978
1976
1975
1975
1974
1973
1973
1972
1972
1971
1971
1971
1972
1973
1974
1976
1976
1976
1976
1975
1975
1975
1976
1977
1978
1979
1979
1979
1979
1979
1980
1981
1983
1984
1985
1985
1985
1985
1986
1986
1988
1989
1991
1992
1993
1994
1995
1996
1997
1998
1999
2000
2002
2003
2005
2006
2007
2008
2008
2009
2009
2008
2007
2006
2003
2000
1997
1993
1989
1986
1983
1980
1979
1978
1976
1975
1974
1974
1973
1972
1972
1972
1972
1973
1973
1974
1974
1974
1974
1973
1973
1974
1975
1976
1976
1977
1976
1976
1975
1975
1974
1975
1975
1976
1976
1976
1976
1975
1975
1974
1974
1974
1974
1975
1975
1975
1975
1975
1974
1974
1973
1973
1973
1973
1973
1974
1974
1974
1974
1973
1973
1973
1973
1974
1975
1975
1975
1975
1974
1973
1972
1973
1974
1975
1976
1976
1976
1975
1974
1974
1974
1974
1975
1975
1976
1976
1976
1976
1975
1975
1975
1975
1976
1977
1977
1978
1978
1977
1977
1977
1977
1978
1978
1979
1979
1979
1978
1978
1977
1977
1977
1978
1979
1979
1980
1980
1979
1978
1977
1977
1977
1977
1978
1979
1980
1980
1980
1979
1978
1977
1976
1977
1978
1979
1980
1980
1980
1979
1979
1978
1977
1977
1978
1978
1980
1982
1984
1985
1986
1986
1986
1986
1985
1984
1983
1981
1980
1978
1977
1977
1977
1978
1980
1979
1974
1964
1952
1947
1959
1989
2034
2078
2109
2118
2104
2078
2048
2024
2004
1991
1983
1979
1977
1976
1975
1975
1973
1972
1971
1970
1969
1969
1970
1971
1972
1972
1973
1973
1973
1973
1973
1973
1973
1974
1975
1976
1976
1976
1976
1976
1976
1977
1978
1979
1980
1981
1981
1981
1981
1981
1981
1982
1984
1985
1986
1987
1988
1989
1990
1991
1992
1993
1994
1996
1997
1999
2000
2000
2001
2001
2002
2003
2004
2004
2004
2003
2001
1998
1994
1991
1987
1984
1981
1979
1978
1976
1974
1973
1972
1972
1971
1971
1970
1970
1970
1970
1970
1970
1970
1970
1970
1970
1971
1971
1972
1972
1972
1972
1971
1971
1971
1971
1972
1972
1972
1972
1972
1971
1972
1972
1971
1971
1971
1971
1971
1971
1970
1969
1968
1968
1968
1968
1969
1970
1970
1970
1969
1968
1968
1968
1968
1969
1969
1969
1969
1969
1969
1969
1969
1968
1968
1968
1969
1969
1970
1970
1970
1970
1969
1969
1969
1969
1970
1970
1970
1970
1970
1970
1970
1970
1970
1970
1970
1971
1971
1971
1971
1970
1969
1969
1970
1970
1972
1972
1973
1972
1971
1971
1970
1970
1970
1970
1970
1971
1971
1971
1971
1970
1970
1970
1970
1970
1971
1971
1971
1971
1970
1969
1969
1968
1968
1968
1969
1969
1969
1970
1971
1973
1974
1975
1976
1977
1978
1978
1977
1976
1975
1973
1971
1969
1968
1968
1969
1971
1973
1972
1965
1954
1942
1939
1955
1989
2035
2078
2103
2104
2086
2056
2028
2006
1991
1982
1976
1972
1970
1969
1969
1968
1966
1965
1964
1964
1964
1964
1965
1965
1965
1965
1965
1965
1966
1966
1966
1967
1968
1969
1970
1971
1970
1970
1970
1971
1972
1973
1974
1975
1976
1976
1976
1976
1977
1978
1979
1981
1982
1984
1984
1985
1986
1987
1988
1989
1990
1992
1994
1996
1998
1999
2000
2001
2001
2002
2003
2005
2005
2005
2003
2001
1997
1994
1991
1988
1985
1982
1979
1977
1974
1972
1971
1969
1968
1968
1968
1968
1968
1968
1968
1969
1969
1968
1968
1968
1968
1969
1970
1971
1971
1971
1970
1970
1970
1970
1971
1971
1972
1972
1972
1972
1971
1971
1971
1971
1972
1972
1972
1972
1971
1971
1970
1970
1971
1972
1972
1973
1973
1972
1971
1971
1970
1970
1971
1971
1972
1972
1973
1973
1973
1973
1972
1971
1971
1971
1972
1972
1973
1973
1972
1972
1973
1973
1974
1974
1974
1974
1974
1974
1974
1974
1974
1973
1973
1973
1973
1974
1975
1976
1976
1975
1974
1973
1973
1973
1974
1975
1975
1976
1976
1976
1976
1976
1976
1977
1977
1977
1978
1978
1978
1978
1978
1978
1977
1977
1977
1976
1976
1977
1979
1981
1983
1985
1986
1986
1986
1986
1985
1984
1982
1980
1978
1977
1976
1976
1977
1979
1980
1979
1971
1959
1947
1947
1965
2003
2051
2093
2116
2115
2095
2065
2038
2015
1999
1989
1983
1980
1978
1977
1977
1976
1974
1973
1972
1972
1972
1972
1972
1973
1973
1973
1973
1973
1973
1974
1975
1976
1976
1977
1977
1977
1977
1977
1978
1978
1979
1980
1981
1982
1982
1983
1983
1983
1983
1984
1985
1987
1988
1989
1990
1991
1992
1992
1993
1995
1996
1998
2000
2002
2003
2004
2005
2005
2006
2007
2008
2010
2010
2009
2008
2006
2003
1999
1996
1993
1990
1988
1985
1983
1981
1979
1977
1976
1975
1975
1975
1975
1975
1975
1975
1974
1974
1973
1973
1973
1974
1975
1975
1976
1976
1976
1976
1976
1975
1975
1976
1976
1977
1977
1976
1976
1975
1975
1975
1976
1976
1976
1976
1976
1976
1975
1975
1974
1974
1974
1974
1974
1975
1975
1975
1975
1975
1974
1974
1974
1974
1975
1976
1976
1976
1975
1974
1973
1972
1972
1973
1975
1976
1976
1976
1975
1974
1974
1974
1974
1975
1976
1977
1977
1976
1975
1975
1974
1975
1975
1976
1976
1977
1977
1976
1976
1975
1974
1974
1974
1975
1976
1977
1977
1977
1977
1976
1976
1976
1976
1976
1977
1977
1978
1977
1977
1976
1975
1975
1976
1976
1977
1977
1977
1977
1977
1976
1976
1976
1976
1976
1977
1977
1977
1976
1976
1976
1977
1978
1981
1983
1985
1986
1986
1985
1984
1982
1980
1978
1977
1976
1976
1976
1978
1979
1979
1977
1971
1959
1949
1947
1962
1996
2042
2084
2111
2115
2098
2071
2043
2020
2003
1992
1984
1980
1977
1975
1974
1974
1973
1972
1972
1972
1972
1973
1972
1972
1973
1973
1973
1973
1973
1973
1973
1974
1974
1974
1975
1975
1975
1976
1977
1978
1979
1979
1979
1978
1979
1979
1980
1981
1983
1984
1984
1985
1985
1986
1986
1987
1988
1989
1990
1992
1993
1994
1995
1997
1998
1999
2000
2001
2002
2003
2004
2005
2005
2004
2003
2001
1999
1997
1994
1992
1989
1985
1982
1979
1977
1976
1975
1974
1974
1973
1972
1971
1970
1969
1970
1970
1971
1971
1972
1973
1973
1974
1973
1973
1972
1972
1972
1973
1974
1974
1975
1975
1974
1973
1973
1973
1973
1974
1974
1974
1974
1974
1973
1973
1972
1972
1972
1971
1972
1972
1972
1972
1972
1972
1972
1972
1972
1972
1973
1973
1973
1973
1972
1972
1971
1971
1972
1972
1973
1973
1973
1973
1972
1971
1970
1970
1971
1972
1973
1974
1974
1973
1973
1972
1972
1973
1973
1974
1975
1975
1974
1974
1973
1973
1973
1974
1975
1975
1975
1975
1975
1975
1975
1974
1974
1974
1974
1975
1975
1976
1976
1976
1975
1975
1975
1975
1976
1976
1976
1976
1976
1975
1975
1974
1974
1974
1975
1975
1976
1977
1977
1977
1977
1976
1975
1975
1975
1976
1977
1977
1976
1975
1975
1975
1976
1978
1981
1983
1984
1986
1986
1985
1983
1981
1978
1976
1975
1974
1975
1976
1977
1979
1978
1973
1963
1951
1946
1955
1984
2027
2071
2102
2112
2101
2075
2048
2024
2006
1994
1985
1980
1977
1975
1974
1973
1972
1972
1971
1971
1971
1971
1971
1971
1971
1971
1971
1971
1972
1973
1973
1973
1973
1974
1974
1974
1974
1975
1976
1977
1978
1979
1979
1979
1979
1979
1980
1981
1982
1983
1984
1984
1983
1983
1983
1984
1986
1987
1989
1991
1992
1993
1994
1995
1996
1997
1998
2000
2001
2003
2004
2005
2005
2005
2004
2002
2000
1997
1995
1992
1989
1986
1982
1979
1976
1973
1972
1971
1971
1970
1970
1969
1969
1968
1967
1966
1966
1967
1968
1968
1969
1969
1969
1968
1969
1969
1969
1970
1970
1970
1970
1970
1971
1970
1970
1969
1969
1968
1969
1969
1969
1969
1969
1968
1967
1967
1967
1967
1968
1968
1968
1968
1968
1968
1967
1967
1967
1967
1968
1968
1968
1968
1968
1967
1967
1966
1966
1966
1967
1968
1968
1968
1968
1968
1967
1967
1966
1966
1967
1967
1968
1968
1969
1968
1968
1968
1968
1968
1969
1970
1970
1971
1970
1970
1970
1969
1969
1969
1969
1970
1970
1971
1971
1971
1970
1969
1969
1969
1970
1971
1971
1972
1972
1971
1970
1969
1969
1971
1973
1976
1979
1980
1981
1981
1980
1979
1978
1977
1976
1975
1974
1973
1972
1972
1973
1974
1975
1971
1962
1950
1943
1950
1976
2017
2062
2095
2108
2098
2074
2047
2023
2005
1993
1984
1978
1975
1973
1972
1973
1972
1971
1971
1970
1969
1969
1969
1970
1970
1970
1971
1971
1972
1973
1973
1973
1973
1973
1973
1975
1976
1977
1978
1978
1978
1978
1978
1978
1979
1980
1982
1983
1985
1986
1986
1987
1987
1988
1989
1990
1991
1991
1992
1993
1995
1997
1999
2001
2002
2003
2004
2005
2006
2007
2008
2008
2008
2007
2007
2006
2004
2001
1997
1993
1989
1986
1982
1979
1977
1976
1975
1974
1974
1973
1973
1972
1971
1971
1971
1971
1971
1972
1972
1973
1973
1973
1973
1973
1973
1973
1974
1974
1975
1975
1974
1974
1973
1974
1974
1975
1975
1976
1976
1976
1975
1975
1975
1974
1974
1974
1974
1975
1975
1975
1974
1974
1973
1973
1973
1973
1974
1974
1974
1974
1974
1974
1974
1974
1974
1975
1975
1975
1975
1975
1975
1974
1974
1974
1974
1975
1976
1976
1977
1976
1975
1975
1974
1974
1975
1975
1976
1976
1977
1977
1977
1976
1976
1976
1977
1977
1978
1978
1978
1978
1978
1977
1977
1976
1977
1977
1978
1979
1980
1980
1979
1979
1978
1978
1979
1979
1980
1980
1980
1979
1979
1978
1978
1978
1978
1978
1979
1979
1980
1981
1982
1983
1984
1985
1986
1987
1987
1986
1985
1983
1981
1979
1978
1977
1978
1979
1981
1982
1979
1970
1957
1948
1953
1976
2018
2064
2102
2120
2114
2091
2061
2035
2014
1999
1990
1984
1982
1980
1979
1979
1977
1975
1974
1974
1974
1975
1976
1976
1977
1977
1976
1976
1975
1975
1976
1977
1978
1979
1979
1979
1979
1979
1979
1979
1980
1981
1983
1984
1985
1985
1985
1985
1985
1985
1986
1988
1990
1991
1992
1993
1993
1993
1994
1995
1996
1998
1999
2000
2002
2003
2004
2005
2006
2008
2009
2010
2010
2009
2008
2006
2004
2002
1999
1996
1992
1989
1987
1985
1984
1982
1981
1979
1977
1976
1975
1975
1975
1976
1976
1976
1976
1976
1975
1975
1975
1976
1976
1975
1975
1975
1975
1976
1976
1976
1977
1978
1978
1979
1978
1978
1977
1976
1976
1976
1976
1977
1977
1978
1978
1977
1976
1976
1975
1975
1975
1975
1976
1976
1976
1975
1975
1974
1974
1974
1975
1975
1976
1976
1976
1976
1975
1975
1974
1974
1975
1975
1976
1977
1977
1977
1976
1975
1975
1975
1976
1976
1977
1977
1977
1977
1977
1977
1976
1976
1976
1976
1977
1977
1977
1977
1977
1977
1977
1977
1976
1977
1977
1978
1978
1978
1977
1976
1976
1976
1976
1977
1977
1978
1978
1978
1978
1977
1977
1977
1978
1978
1978
1979
1978
1978
1978
1978
1978
1978
1978
1978
1979
1979
1979
1979
1978
1977
1976
1977
1979
1981
1984
1987
1988
1987
1986
1985
1984
1983
1982
1980
1980
1979
1979
1979
1979
1980
1981
1979
1972
1961
1951
1952
1970
2007
2052
2093
2115
2114
2095
2067
2041
2019
2003
1992
1985
1980
1978
1976
1976
1975
1975
1975
1976
1975
1975
1974
1973
1973
1973
1974
1974
1975
1975
1975
1976
1976
1976
1976
1977
1978
1979
1980
1980
1981
1981
1981
1982
1982
1983
1984
1985
1986
1986
1987
1987
1987
1988
1988
1989
1991
1992
1994
1995
1997
1998
1998
1999
2000
2001
2002
2004
2006
2007
2008
2009
2009
2009
2008
2007
2005
2003
2000
1997
1994
1991
1987
1984
1981
1979
1978
1977
1977
1976
1975
1975
1974
1973
1973
1974
1974
1975
1976
1976
1976
1975
1975
1975
1975
1976
1976
1977
1977
1977
1977
1976
1976
1976
1976
1977
1978
1978
1978
1978
1977
1977
1976
1976
1976
1976
1976
1976
1976
1976
1976
1976
1976
1976
1975
1975
1975
1975
1975
1975
1975
1974
1974
1974
1974
1974
1975
1975
1976
1976
1976
1976
1975
1975
1975
1975
1975
1976
1976
1976
1976
1975
1975
1975
1975
1975
1976
1976
1977
1977
1976
1975
1974
1974
1975
1976
1977
1977
1977
1976
1976
1976
1975
1975
1975
1975
1976
1977
1977
1978
1977
1976
1975
1975
1975
1975
1976
1976
1977
1977
1977
1976
1976
1975
1975
1976
1976
1977
1977
1977
1976
1975
1974
1974
1976
1978
1980
1983
1985
1985
1986
1985
1984
1982
1981
1979
1978
1977
1977
1977
1977
1978
1978
1978
1975
1967
1955
1947
1950
1972
2009
2054
2091
2108
2104
2083
2055
2031
2011
1997
1988
1981
1977
1975
1973
1973
1972
1971
1970
1970
1970
1970
1970
1970
1970
1970
1971
1971
1972
1972
1971
1971
1971
1971
1971
1972
1973
1974
1975
1976
1977
1978
1978
1977
1977
1978
1979
1980
1981
1982
1982
1983
1983
1983
1984
1985
1986
1987
1989
1990
1991
1992
1993
1994
1995
1996
1998
2000
2002
2004
2005
2006
2005
2005
2003
2002
2000
1997
1994
1991
1987
1983
1979
1976
1973
1972
1970
1969
1969
1968
1967
1966
1965
1965
1964
1965
1966
1967
1967
1967
1967
1967
1967
1967
1967
1967
1968
1968
1969
1969
1969
1969
1968
1968
1968
1968
1968
1968
1969
1969
1969
1968
1967
1967
1966
1967
1968
1969
1969
1969
1969
1968
1967
1966
1966
1966
1966
1967
1967
1968
1968
1968
1968
1967
1967
1967
1967
1968
1968
1968
1968
1967
1967
1967
1968
1968
1969
1969
1969
1969
1969
1969
1969
1969
1970
1970
1970
1971
1971
1971
1970
1970
1970
1970
1970
1971
1971
1972
1972
1972
1971
1971
1971
1971
1971
1972
1972
1973
1973
1973
1972
1972
1971
1971
1971
1973
1975
1978
1981
1983
1984
1983
1982
1981
1979
1978
1976
1975
1975
1974
1974
1974
1974
1974
1974
1971
1962
1950
1943
1950
1976
2019
2064
2099
2111
2101
2077
2049
2025
2007
1994
1985
1979
1976
1974
1973
1974
1973
1973
1972
1972
1971
1971
1970
1970
1970
1971
1972
1973
1974
1974
1974
1974
1974
1974
1975
1977
1978
1979
1980
1980
1980
1980
1980
1981
1982
1983
1983
1984
1985
1986
1986
1987
1987
1988
1989
1990
1992
1994
1996
1997
1998
1998
1999
2000
2001
2003
2004
2006
2008
2009
2010
2010
2009
2009
2008
2006
2004
2001
1998
1994
1990
1987
1984
1981
1979
1978
1977
1976
1976
1975
1974
1973
1972
1972
1972
1972
1973
1974
1974
1974
1974
1974
1974
1974
1974
1975
1976
1976
1976
1976
1975
1975
1974
1974
1975
1975
1975
1976
1976
1976
1976
1975
1975
1975
1975
1976
1976
1976
1976
1976
1975
1974
1974
1974
1974
1974
1975
1975
1975
1975
1975
1974
1974
1974
1975
1975
1975
1975
1975
1975
1975
1974
1974
1974
1974
1974
1975
1976
1976
1976
1975
1975
1974
1974
1975
1976
1976
1977
1977
1976
1976
1975
1975
1975
1975
1976
1977
1977
1977
1976
1975
1975
1975
1976
1976
1977
1977
1977
1977
1977
1977
1977
1976
1976
1976
1977
1978
1978
1978
1978
1978
1977
1976
1976
1976
1977
1978
1979
1979
1979
1979
1978
1977
1977
1977
1977
1977
1977
1978
1979
1981
1983
1984
1985
1986
1986
1986
1986
1985
1983
1981
1979
1978
1977
1978
1979
1981
1982
1980
1972
1960
1948
1947
1965
2003
2050
2093
2118
2119
2100
2071
2043
2019
2002
1991
1983
1980
1979
1978
1977
1976
1975
1974
1973
1973
1973
1973
1973
1974
1974
1975
1975
1974
1974
1975
1975
1976
1977
1978
1978
1978
1978
1978
1979
1980
1981
1982
1983
1983
1983
1983
1983
1983
1984
1985
1987
1988
1990
1991
1991
1992
1992
1993
1994
1996
1997
1999
2000
2002
2002
2003
2004
2005
2006
2007
2009
2009
2009
2009
2008
2006
2003
2000
1997
1993
1990
1988
1985
1983
1981
1979
1977
1976
1975
1975
1975
1975
1975
1975
1975
1975
1974
1974
1974
1975
1976
1976
1977
1977
1977
1976
1976
1976
1976
1976
1977
1978
1979
1979
1978
1978
1977
1976
1976
1977
1977
1977
1977
1978
1978
1978
1978
1977
1977
1976
1976
1977
1977
1977
1977
1976
1976
1975
1975
1975
1976
1976
1976
1977
1977
1977
1977
1976
1975
1975
1975
1976
1977
1978
1978
1977
1976
1975
1975
1975
1976
1977
1978
1978
1978
1977
1977
1976
1976
1976
1976
1977
1978
1979
1979
1978
1977
1977
1977
1977
1978
1979
1979
1978
1978
1977
1977
1977
1978
1978
1979
1979
1980
1980
1979
1979
1978
1978
1978
1978
1979
1980
1980
1980
1980
1979
1979
1978
1979
1979
1980
1981
1981
1980
1979
1979
1978
1978
1978
1979
1980
1980
1980
1981
1981
1981
1982
1983
1985
1986
1988
1989
1989
1988
1987
1985
1983
1981
1980
1980
1980
1981
1983
1983
1982
1975
1963
1950
1947
1961
1994
2040
2083
2110
2115
2099
2072
2044
2021
2004
1994
1987
1983
1981
1980
1979
1978
1976
1975
1975
1975
1975
1975
1975
1975
1975
1974
1974
1974
1974
1975
1976
1977
1978
1978
1978
1978
1978
1978
1978
1979
1980
1981
1982
1982
1982
1982
1982
1983
1984
1985
1986
1987
1989
1989
1990
1991
1991
1992
1993
1995
1997
1999
2001
2002
2004
2005
2005
2006
2007
2009
2010
2011
2011
2011
2009
2007
2004
2001
1998
1995
1992
1989
1986
1983
1979
1977
1975
1974
1974
1973
1973
1973
1973
1972
1971
1970
1970
1971
1971
1972
1973
1973
1973
1973
1973
1973
1972
1973
1973
1974
1974
1975
1975
1975
1975
1975
1974
1974
1974
1974
1974
1974
1975
1975
1975
1975
1975
1974
1973
1973
1973
1974
1974
1975
1974
1974
1974
1973
1974
1974
1974
1975
1975
1975
1975
1975
1974
1974
1974
1974
1974
1975
1975
1975
1975
1974
1974
1973
1973
1974
1974
1975
1976
1976
1976
1976
1975
1974
1974
1975
1976
1977
1977
1977
1977
1976
1976
1975
1975
1976
1977
1977
1977
1977
1977
1976
1976
1976
1976
1977
1977
1977
1978
1978
1978
1978
1978
1978
1977
1978
1978
1978
1978
1977
1976
1976
1977
1979
1981
1984
1986
1987
1988
1987
1986
1985
1983
1982
1980
1979
1979
1978
1979
1980
1981
1981
1978
1970
1957
1948
1951
1974
2014
2060
2099
2118
2113
2090
2061
2036
2016
2002
1992
1986
1981
1978
1977
1976
1976
1976
1976
1976
1976
1976
1975
1975
1975
1975
1976
1977
1978
1978
1978
1978
1978
1978
1978
1978
1979
1980
1982
1982
1983
1983
1983
1983
1983
1984
1985
1986
1987
1988
1989
1990
1991
1991
1991
1992
1993
1995
1996
1998
1999
2000
2001
2003
2004
2005
2006
2008
2009
2010
2011
2012
2012
2011
2010
2008
2006
2003
2000
1997
1993
1990
1986
1983
1980
1978
1977
1976
1976
1976
1976
1975
1975
1974
1974
1974
1974
1974
1975
1975
1976
1976
1976
1975
1975
1975
1975
1976
1977
1978
1978
1978
1978
1978
1977
1977
1978
1978
1979
1979
1979
1979
1978
1978
1977
1977
1977
1977
1977
1977
1977
1977
1977
1976
1976
1976
1976
1976
1977
1977
1977
1977
1977
1977
1976
1976
1976
1977
1977
1978
1978
1978
1978
1977
1976
1976
1976
1977
1978
1978
1978
1978
1977
1977
1977
1977
1977
1978
1978
1978
1977
1977
1977
1977
1977
1978
1979
1979
1979
1979
1979
1978
1978
1978
1978
1978
1979
1979
1979
1980
1980
1980
1980
1979
1979
1978
1978
1979
1979
1980
1980
1980
1979
1979
1979
1979
1979
1980
1980
1980
1980
1980
1980
1980
1980
1980
1980
1980
1981
1981
1982
1982
1981
1981
1980
1980
1979
1979
1980
1982
1983
1985
1986
1987
1987
1987
1987
1988
1987
1987
1985
1983
1981
1980
1979
1979
1980
1982
1983
1980
1972
1959
1949
1950
1971
2011
2059
2101
2124
2122
2101
2070
2041
2018
2001
1990
1983
1980
1979
1978
1977
1976
1974
1974
1974
1974
1974
1974
1974
1974
1975
1975
1974
1974
1974
1975
1975
1976
1977
1977
1977
1977
1977
1977
1978
1979
1980
1981
1982
1982
1982
1982
1982
1982
1983
1983
1984
1986
1987
1988
1989
1990
1991
1991
1992
1994
1995
1997
1999
2000
2001
2002
2003
2003
2004
2005
2007
2008
2009
2009
2008
2006
2002
1998
1994
1991
1987
1985
1983
1981
1979
1978
1976
1974
1972
1971
1970
1970
1970
1971
1971
1970
1970
1970
1970
1970
1970
1971
1972
1972
1973
1973
1972
1972
1971
1971
1971
1972
1973
1973
1973
1973
1972
1972
1971
1971
1972
1973
1973
1973
1972
1971
1971
1970
1970
1970
1970
1970
1970
1970
1970
1969
1969
1968
1968
1968
1969
1969
1969
1970
1970
1970
1970
1969
1969
1968
1968
1969
1969
1969
1970
1969
1969
1968
1968
1968
1968
1969
1969
1970
1969
1969
1968
1968
1967
1967
1968
1968
1968
1969
1969
1969
1968
1968
1968
1968
1969
1969
1969
1969
1968
1967
1966
1966
1966
1966
1967
1968
1968
1968
1968
1968
1967
1967
1966
1966
1966
1966
1967
1967
1967
1967
1966
1966
1965
1966
1968
1971
1974
1976
1977
1977
1976
1975
1973
1971
1970
1969
1968
1968
1968
1968
1969
1969
1968
1963
1952
1941
1937
1949
1982
2028
2072
2101
2105
2087
2058
2029
2007
1992
1982
1976
1971
1968
1967
1966
1966
1966
1966
1966
1965
1965
1964
1963
1963
1964
1965
1966
1967
1968
1968
1967
1967
1967
1967
1968
1969
1970
1971
1972
1973
1973
1973
1972
1973
1973
1974
1975
1977
1978
1979
1979
1980
1980
1980
1981
1982
1984
1986
1988
1990
1991
1993
1994
1995
1997
1998
2000
2002
2004
2005
2005
2006
2005
2005
2003
2002
2000
1997
1994
1990
1985
1981
1977
1974
1972
1971
1970
1969
1969
1968
1968
1968
1967
1967
1967
1967
1967
1968
1969
1970
1970
1970
1970
1969
1969
1970
1971
1971
1972
1972
1972
1972
1971
1971
1971
1971
1971
1972
1972
1973
1973
1974
1974
1973
1972
1972
1972
1972
1973
1974
1974
1974
1973
1972
1971
1971
1972
1973
1973
1974
1974
1973
1973
1972
1972
1972
1972
1973
1973
1973
1973
1973
1973
1973
1973
1974
1974
1975
1975
1975
1975
1974
1974
1974
1974
1975
1975
1976
1976
1976
1976
1975
1975
1975
1976
1976
1976
1976
1975
1974
1974
1974
1973
1973
1973
1973
1973
1973
1974
1976
1978
1980
1982
1983
1983
1983
1983
1983
1982
1980
1977
1975
1974
1973
1974
1975
1977
1978
1977
1970
1958
1946
1943
1959
1994
2042
2087
2115
2119
2101
2073
2044
2019
2001
1990
1982
1978
1976
1975
1975
1974
1973
1972
1971
1971
1971
1972
1973
1973
1973
1973
1973
1972
1972
1973
1974
1975
1976
1977
1978
1978
1978
1977
1978
1978
1979
1981
1982
1983
1983
1984
1984
1984
1985
1985
1986
1988
1989
1991
1992
1993
1994
1994
1995
1996
1998
2000
2001
2003
2005
2006
2007
2008
2009
2010
2010
2011
2011
2010
2009
2006
2002
1999
1995
1991
1988
1986
1984
1982
1980
1979
1977
1976
1974
1974
1973
1974
1974
1975
1975
1975
1974
1974
1974
1974
1975
1976
1977
1977
1977
1977
1977
1976
1976
1976
1977
1978
1979
1979
1978
1978
1977
1976
1976
1976
1977
1977
1978
1978
1979
1978
1978
1977
1976
1976
1976
1976
1977
1978
1978
1978
1978
1977
1976
1975
1975
1976
1977
1978
1979
1979
1978
1978
1977
1977
1977
1978
1979
1979
1979
1979
1978
1978
1978
1979
1979
1980
1981
1981
1980
1980
1979
1979
1979
1979
1979
1980
1980
1980
1980
1980
1979
1978
1978
1978
1978
1979
1980
1980
1980
1980
1980
1979
1978
1978
1978
1978
1979
1979
1979
1979
1979
1978
1978
1978
1978
1978
1978
1979
1979
1979
1980
1981
1983
1985
1987
1988
1988
1987
1986
1984
1982
1980
1978
1977
1977
1977
1979
1981
1982
1979
1970
1957
1946
1948
1970
2010
2057
2097
2116
2110
2087
2056
2029
2009
1995
1987
1982
1979
1977
1976
1975
1973
1972
1971
1971
1972
1973
1973
1973
1972
1971
1971
1971
1972
1973
1973
1974
1974
1975
1975
1974
1974
1974
1974
1975
1976
1977
1978
1978
1978
1978
1978
1979
1980
1981
1982
1983
1985
1985
1986
1986
1986
1987
1988
1989
1991
1994
1996
1998
2000
2001
2001
2002
2002
2003
2004
2006
2007
2007
2006
2004
2000
1997
1993
1990
1987
1984
1982
1979
1976
1974
1971
1969
1968
1967
1967
1967
1967
1967
1967
1967
1966
1966
1966
1966
1966
1967
1967
1968
1968
1968
1968
1967
1967
1967
1967
1968
1970
1970
1971
1970
1969
1969
1968
1969
1970
1971
1971
1971
1971
1970
1969
1968
1968
1968
1968
1969
1969
1969
1969
1969
1968
1968
1968
1967
1968
1968
1969
1969
1969
1969
1968
1968
1968
1969
1970
1970
1971
1971
1970
1970
1969
1969
1968
1969
1970
1970
1971
1971
1970
1970
1970
1969
1969
1969
1970
1970
1970
1970
1971
1970
1969
1969
1969
1971
1973
1976
1979
1980
1981
1980
1979
1978
1977
1975
1974
1972
1972
1971
1971
1972
1973
1975
1974
1969
1959
1947
1941
1952
1982
2027
2073
2105
2113
2099
2071
2043
2018
2001
1989
1981
1975
1972
1971
1970
1970
1970
1969
1969
1969
1968
1968
1968
1967
1967
1968
1969
1969
1970
1971
1971
1972
1972
1972
1973
1973
1974
1975
1975
1975
1975
1975
1975
1975
1976
1978
1979
1981
1982
1982
1983
1983
1984
1984
1986
1987
1989
1991
1993
1995
1996
1996
1997
1998
1999
2001
2004
2005
2007
2008
2008
2008
2007
2005
2003
2000
1997
1994
1990
1986
1982
1979
1976
1974
1972
1971
1970
1969
1969
1968
1967
1966
1966
1965
1966
1967
1968
1968
1969
1968
1968
1968
1968
1969
1969
1969
1970
1970
1970
1971
1970
1970
1970
1970
1970
1971
1971
1972
1972
1971
1971
1971
1971
1971
1972
1972
1973
1973
1973
1972
1972
1971
1971
1971
1971
1972
1972
1973
1973
1972
1972
1972
1972
1972
1972
1972
1973
1973
1973
1973
1973
1972
1971
1971
1971
1972
1973
1974
1975
1975
1975
1974
1974
1973
1973
1974
1974
1975
1975
1975
1975
1975
1974
1974
1975
1975
1976
1976
1976
1976
1976
1976
1976
1975
1975
1975
1976
1977
1977
1976
1975
1974
1975
1977
1979
1983
1985
1987
1988
1987
1986
1984
1982
1980
1978
1978
1978
1978
1978
1979
1980
1980
1978
1970
1958
1947
1947
1966
2003
2051
2094
2118
2117
2096
2066
2039
2016
2001
1991
1984
1981
1978
1976
1975
1974
1973
1973
1974
1974
1974
1973
1973
1972
1973
1973
1974
1974
1974
1974
1975
1974
1974
1974
1974
1975
1975
1976
1977
1977
1978
1978
1978
1978
1978
1979
1980
1982
1983
1984
1984
1984
1984
1984
1985
1986
1988
1990
1991
1992
1993
1994
1995
1996
1997
1998
2000
2002
2004
2006
2006
2006
2005
2004
2002
2000
1997
1995
1992
1989
1986
1983
1980
1977
1975
1973
1972
1971
1971
1970
1969
1969
1969
1968
1969
1969
1970
1971
1971
1972
1972
1972
1972
1971
1971
1972
1972
1973
1973
1973
1974
1973
1973
1972
1972
1972
1972
1973
1974
1974
1973
1972
1972
1971
1971
1971
1971
1972
1972
1972
1972
1971
1971
1971
1970
1970
1971
1971
1972
1972
1972
1972
1971
1970
1971
1971
1972
1972
1973
1973
1973
1972
1972
1971
1971
1972
1972
1973
1974
1974
1974
1974
1974
1974
1974
1974
1974
1975
1975
1975
1975
1975
1975
1975
1975
1975
1976
1976
1977
1977
1977
1976
1976
1976
1975
1976
1977
1978
1978
1978
1978
1977
1976
1975
1975
1976
1977
1978
1978
1977
1977
1976
1976
1976
1976
1976
1976
1976
1976
1978
1980
1982
1984
1985
1985
1985
1984
1984
1982
1981
1979
1977
1976
1976
1976
1977
1979
1980
1977
1969
1956
1946
1947
1967
2006
2054
2096
2119
2117
2097
2067
2039
2016
1999
1987
1980
1977
1975
1975
1974
1973
1971
1970
1970
1970
1971
1971
1972
1972
1972
1971
1971
1971
1971
1971
1972
1972
1973
1974
1974
1974
1974
1974
1974
1975
1976
1976
1977
1978
1979
1979
1980
1980
1981
1981
1982
1983
1985
1986
1986
1987
1988
1988
1989
1990
1991
1992
1994
1995
1997
1998
1998
1999
1999
2000
2001
2002
2003
2002
2001
1998
1995
1991
1988
1985
1983
1981
1980
1978
1976
1974
1972
1971
1970
1969
1969
1970
1970
1971
1971
1971
1970
1969
1968
1968
1969
1970
1971
1971
1971
1971
1970
1970
1970
1970
1970
1970
1971
1972
1972
1972
1972
1971
1971
1970
1970
1971
1971
1971
1971
1971
1970
1969
1968
1968
1968
1969
1969
1970
1970
1970
1969
1969
1969
1968
1969
1969
1970
1970
1970
1971
1970
1970
1970
1969
1969
1969
1970
1970
1970
1970
1970
1969
1969
1969
1970
1970
1970
1970
1970
1970
1969
1969
1969
1969
1969
1970
1970
1971
1971
1971
1970
1970
1970
1970
1971
1971
1971
1971
1971
1970
1970
1970
1970
1970
1970
1970
1970
1970
1969
1969
1969
1969
1968
1968
1968
1969
1969
1969
1970
1971
1972
1974
1975
1977
1978
1979
1979
1978
1976
1974
1971
1970
1968
1968
1968
1969
1971
1972
1971
1965
1954
1942
1939
1954
1987
2032
2074
2099
2101
2083
2055
2028
2006
1991
1981
1975
1971
1969
1967
1966
1965
1964
1963
1962
1962
1962
1962
1962
1963
1963
1963
1962
1962
1963
1964
1964
1965
1966
1966
1967
1967
1968
1968
1968
1969
1969
1970
1971
1971
1971
1971
1971
1972
1973
1974
1975
1976
1977
1977
1978
1979
1980
1981
1983
1984
1986
1988
1989
1991
1992
1993
1994
1994
1995
1996
1998
1999
1999
1999
1998
1996
1993
1989
1985
1982
1978
1975
1973
1970
1968
1967
1965
1964
1963
1962
1962
1963
1963
1962
1962
1961
1961
1961
1962
1962
1963
1963
1964
1964
1965
1965
1964
1963
1963
1964
1965
1966
1966
1966
1966
1966
1966
1965
1965
1965
1965
1966
1966
1966
1965
1965
1964
1964
1965
1965
1965
1966
1966
1966
1966
1965
1965
1965
1965
1965
1966
1966
1967
1967
1967
1967
1966
1966
1966
1966
1966
1967
1967
1967
1967
1967
1967
1967
1967
1967
1968
1968
1969
1969
1969
1968
1968
1968
1968
1969
1970
1970
1971
1971
1970
1969
1969
1968
1968
1968
1968
1969
1971
1974
1976
1977
1978
1977
1977
1977
1978
1978
1977
1975
1973
1971
1971
1970
1971
1973
1974
1975
1971
1961
1948
1941
1948
1975
2019
2065
2099
2110
2099
2074
2046
2021
2003
1990
1982
1976
1974
1973
1972
1972
1971
1970
1969
1969
1969
1969
1969
1970
1970
1971
1971
1971
1971
1971
1971
1972
1973
1974
1974
1975
1975
1976
1976
1976
1976
1976
1977
1978
1980
1981
1982
1982
1982
1982
1983
1984
1985
1987
1988
1989
1990
1991
1991
1992
1994
1995
1997
1999
2001
2002
2003
2004
2004
2005
2005
2005
2006
2006
2005
2003
2000
1996
1992
1988
1985
1982
1980
1978
1977
1975
1973
1972
1971
1971
1971
1971
1972
1972
1972
1972
1972
1971
1971
1971
1971
1972
1973
1974
1975
1975
1975
1974
1974
1974
1974
1974
1975
1975
1975
1975
1975
1975
1975
1975
1975
1975
1975
1975
1975
1975
1975
1974
1974
1974
1974
1974
1974
1975
1975
1975
1975
1974
1974
1973
1973
1974
1975
1975
1976
1976
1976
1975
1974
1974
1974
1975
1975
1976
1976
1976
1976
1976
1975
1975
1975
1975
1976
1976
1977
1976
1976
1975
1975
1975
1975
1976
1976
1977
1977
1978
1978
1978
1978
1977
1977
1976
1977
1977
1978
1978
1979
1978
1978
1977
1977
1978
1978
1979
1979
1979
1978
1978
1977
1978
1978
1978
1978
1978
1978
1979
1980
1982
1984
1986
1987
1987
1988
1987
1987
1985
1983
1981
1980
1979
1979
1979
1980
1982
1983
1981
1973
1960
1949
1950
1971
2010
2057
2098
2120
2117
2095
2066
2038
2016
2001
1991
1984
1981
1980
1979
1978
1977
1976
1975
1974
1974
1974
1975
1976
1976
1976
1976
1975
1975
1975
1975
1976
1977
1978
1979
1979
1979
1979
1979
1979
1980
1981
1982
1983
1984
1984
1984
1984
1984
1985
1985
1986
1987
1989
1990
1992
1993
1994
1994
1995
1996
1996
1998
1999
2000
2002
2003
2004
2005
2006
2006
2007
2008
2008
2008
2007
2005
2002
1999
1996
1993
1990
1988
1985
1983
1982
1980
1978
1977
1976
1975
1975
1975
1975
1976
1976
1975
1975
1975
1974
1975
1975
1976
1977
1978
1978
1978
1977
1977
1976
1977
1978
1978
1979
1979
1978
1978
1977
1977
1977
1978
1978
1978
1978
1978
1977
1976
1976
1976
1976
1976
1977
1977
1977
1977
1977
1976
1976
1975
1975
1975
1976
1977
1977
1977
1977
1977
1976
1976
1975
1975
1976
1976
1977
1977
1977
1977
1976
1976
1976
1976
1977
1977
1978
1978
1979
1979
1978
1977
1977
1977
1977
1977
1977
1977
1977
1978
1977
1977
1977
1977
1978
1979
1979
1978
1978
1977
1976
1975
1976
1976
1978
1979
1979
1979
1979
1978
1977
1977
1977
1978
1978
1979
1979
1978
1978
1978
1977
1977
1977
1976
1977
1978
1979
1981
1983
1985
1986
1986
1986
1986
1986
1984
1983
1981
1979
1978
1977
1976
1977
1978
1980
1979
1973
1962
1950
1948
1963
1996
2041
2082
2107
2110
2094
2067
2040
2017
2000
1989
1981
1977
1975
1974
1974
1973
1973
1972
1971
1970
1970
1969
1969
1970
1971
1972
1972
1972
1971
1970
1970
1971
1972
1973
1974
1974
1974
1974
1973
1973
1973
1974
1975
1977
1978
1979
1980
1979
1979
1979
1980
1981
1983
1984
1985
1986
1986
1987
1987
1988
1989
1990
1992
1995
1997
1998
1999
2000
2000
2000
2001
2002
2003
2003
2003
2001
1998
1995
1991
1987
1983
1980
1978
1976
1974
1973
1971
1970
1968
1967
1966
1967
1968
1969
1969
1969
1969
1968
1967
1967
1967
1968
1969
1970
1970
1971
1971
1971
1970
1970
1970
1970
1970
1971
1972
1972
1972
1971
1970
1970
1970
1970
1970
1971
1971
1972
1971
1971
1970
1970
1970
1970
1971
1971
1972
1972
1972
1972
1971
1971
1971
1971
1971
1972
1972
1973
1973
1972
1972
1972
1972
1973
1974
1974
1974
1974
1974
1973
1973
1973
1973
1974
1975
1976
1976
1976
1975
1974
1974
1974
1975
1976
1976
1977
1977
1977
1977
1976
1976
1975
1975
1975
1975
1976
1976
1976
1977
1979
1980
1981
1983
1984
1985
1985
1984
1983
1980
1978
1976
1975
1974
1975
1976
1979
1980
1979
1972
1960
1947
1944
1960
1996
2045
2090
2117
2118
2099
2068
2039
2015
1999
1988
1982
1978
1977
1976
1975
1974
1972
1971
1971
1970
1971
1971
1972
1972
1972
1972
1972
1973
1973
1974
1975
1975
1975
1975
1975
1975
1976
1977
1978
1979
1979
1980
1981
1982
1982
1982
1982
1983
1984
1986
1987
1989
1990
1991
1992
1993
1993
1994
1996
1997
1998
2000
2001
2002
2003
2004
2004
2005
2007
2008
2009
2010
2011
2010
2008
2006
2002
1998
1994
1992
1989
1987
1985
1983
1981
1979
1978
1977
1976
1975
1975
1975
1976
1976
1976
1976
1976
1976
1976
1976
1977
1978
1979
1979
1980
1979
1979
1978
1978
1978
1979
1980
1980
1980
1980
1979
1978
1978
1978
1978
1979
1980
1981
1981
1980
1979
1978
1978
1978
1978
1979
1979
1980
1980
1980
1979
1979
1978
1978
1978
1978
1978
1979
1979
1979
1979
1979
1978
1977
1977
1977
1978
1979
1980
1980
1981
1980
1980
1979
1979
1980
1980
1981
1981
1981
1981
1980
1980
1980
1979
1979
1980
1980
1981
1981
1981
1980
1980
1979
1979
1980
1980
1981
1981
1981
1981
1981
1981
1980
1979
1980
1981
1983
1986
1988
1989
1990
1989
1989
1989
1988
1987
1985
1983
1982
1981
1980
1980
1981
1982
1983
1981
1973
1961
1952
1954
1976
2015
2060
2098
2117
2113
2092
2065
2039
2018
2002
1992
1985
1982
1980
1980
1980
1978
1977
1976
1975
1974
1974
1975
1976
1977
1978
1978
1977
1977
1976
1976
1976
1977
1978
1978
1979
1979
1980
1981
1981
1981
1982
1982
1983
1983
1984
1984
1984
1984
1985
1985
1987
1988
1990
1991
1992
1992
1993
1993
1994
1995
1996
1998
1999
2000
2001
2003
2004
2004
2005
2006
2006
2007
2007
2007
2005
2003
2000
1996
1992
1988
1985
1982
1981
1980
1979
1977
1976
1975
1973
1972
1972
1972
1972
1973
1973
1974
1974
1973
1973
1973
1973
1973
1973
1974
1975
1975
1976
1975
1974
1973
1972
1972
1972
1973
1974
1974
1974
1974
1973
1973
1972
1972
1973
1973
1973
1973
1972
1971
1970
1969
1968
1968
1969
1970
1971
1971
1971
1970
1969
1969
1968
1968
1969
1969
1969
1969
1969
1969
1969
1969
1969
1969
1969
1970
1970
1970
1970
1969
1969
1968
1968
1969
1969
1970
1970
1970
1970
1970
1970
1970
1969
1968
1968
1968
1969
1969
1968
1968
1968
1969
1971
1974
1976
1978
1979
1979
1979
1978
1976
1974
1971
1969
1969
1969
1970
1971
1972
1972
1970
1963
1952
1941
1940
1956
1991
2037
2077
2100
2099
2079
2051
2025
2005
1992
1984
1978
1974
1971
1970
1969
1969
1968
1967
1967
1967
1967
1967
1967
1966
1966
1965
1966
1967
1968
1969
1970
1971
1971
1970
1970
1970
1971
1972
1973
1975
1976
1976
1976
1976
1976
1977
1978
1980
1981
1983
1983
1984
1985
1985
1986
1986
1987
1989
1991
1993
1994
1995
1995
1996
1997
1998
2000
2001
2003
2005
2006
2007
2006
2004
2002
1999
1996
1993
1990
1987
1984
1981
1978
1975
1972
1971
1970
1970
1971
1971
1971
1970
1970
1970
1969
1969
1970
1971
1972
1973
1973
1973
1973
1972
1972
1972
1973
1974
1974
1974
1974
1974
1974
1974
1974
1974
1974
1975
1975
1975
1975
1974
1973
1972
1972
1972
1973
1973
1974
1974
1974
1974
1974
1974
1974
1974
1974
1974
1974
1974
1974
1974
1974
1973
1973
1974
1974
1975
1975
1976
1976
1976
1976
1975
1974
1974
1975
1975
1976
1977
1977
1977
1976
1976
1976
1976
1976
1977
1978
1978
1978
1977
1976
1975
1976
1978
1980
1983
1985
1986
1987
1986
1985
1983
1981
1979
1978
1977
1977
1978
1979
1980
1981
1981
1976
1966
1953
1946
1954
1982
2025
2071
2104
2116
2105
2080
2051
2027
2009
1997
1988
1982
1979
1977
1976
1975
1975
1974
1975
1975
1974
1974
1974
1974
1974
1974
1974
1975
1976
1977
1977
1977
1977
1977
1977
1977
1978
1978
1980
1981
1982
1982
1982
1983
1983
1983
1983
1984
1986
1987
1988
1988
1989
1989
1990
1991
1992
1994
1995
1997
1998
1998
1999
2001
2002
2003
2003
2004
2005
2006
2006
2007
2006
2005
2004
2002
1999
1996
1994
1991
1987
1984
1981
1979
1978
1978
1978
1978
1978
1977
1977
1976
1975
1975
1975
1975
1975
1976
1977
1977
1978
1978
1977
1977
1977
1976
1976
1977
1977
1977
1977
1977
1977
1976
1976
1977
1977
1978
1978
1978
1977
1976
1975
1975
1975
1975
1976
1976
1976
1976
1975
1974
1974
1974
1974
1974
1975
1975
1975
1976
1976
1975
1975
1974
1974
1974
1974
1975
1975
1976
1977
1977
1976
1976
1975
1975
1975
1975
1975
1976
1976
1977
1976
1976
1975
1975
1975
1976
1977
1978
1979
1978
1977
1976
1975
1975
1975
1977
1978
1978
1978
1978
1978
1977
1976
1976
1976
1976
1977
1977
1978
1978
1977
1977
1976
1976
1977
1979
1981
1984
1986
1987
1987
1986
1984
1982
1981
1979
1978
1978
1977
1977
1977
1978
1979
1979
1977
1969
1958
1948
1950
1969
2006
2050
2089
2109
2108
2089
2062
2037
2016
2001
1991
1983
1978
1975
1974
1974
1974
1973
1973
1973
1972
1972
1971
1971
1972
1972
1973
1973
1973
1973
1973
1973
1973
1974
1975
1976
1977
1978
1978
1978
1977
1977
1977
1978
1979
1980
1982
1983
1983
1984
1984
1984
1984
1984
1985
1986
1987
1988
1989
1989
1990
1991
1993
1994
1995
1997
1998
2000
2001
2002
2003
2003
2003
2004
2003
2002
2001
1998
1994
1991
1988
1984
1982
1979
1978
1976
1975
1974
1973
1972
1971
1971
1970
1969
1969
1969
1969
1970
1971
1971
1972
1971
1971
1970
1970
1971
1972
1972
1972
1972
1971
1970
1969
1969
1970
1970
1970
1970
1970
1970
1969
1968
1968
1968
1969
1969
1970
1970
1970
1969
1968
1966
1966
1965
1965
1965
1966
1966
1967
1967
1967
1966
1966
1966
1966
1966
1966
1966
1966
1965
1965
1965
1965
1965
1965
1966
1966
1966
1966
1966
1966
1966
1965
1965
1966
1966
1967
1967
1967
1966
1965
1965
1964
1965
1965
1966
1966
1966
1965
1964
1964
1964
1966
1969
1971
1973
1975
1975
1975
1975
1973
1970
1968
1966
1965
1965
1966
1967
1969
1970
1969
1963
1952
1940
1936
1949
1981
2026
2068
2096
2099
2081
2052
2025
2004
1990
1982
1977
1973
1970
1967
1966
1965
1964
1964
1964
1965
1965
1965
1965
1965
1965
1965
1965
1965
1966
1967
1967
1968
1968
1968
1969
1969
1970
1971
1972
1973
1974
1975
1975
1975
1975
1976
1976
1978
1979
1981
1982
1983
1983
1984
1984
1985
1986
1988
1989
1991
1992
1994
1995
1996
1997
1998
1999
2001
2002
2004
2005
2005
2005
2003
2001
1998
1994
1991
1988
1985
1983
1981
1979
1976
1974
1972
1970
1970
1970
1970
1971
1971
1971
1971
1970
1970
1970
1970
1971
1972
1973
1973
1973
1973
1973
1973
1973
1974
1974
1975
1975
1975
1974
1974
1973
1972
1972
1972
1973
1974
1975
1975
1975
1974
1973
1972
1972
1972
1973
1974
1974
1974
1974
1974
1974
1974
1974
1974
1974
1975
1975
1976
1976
1975
1975
1975
1975
1975
1976
1976
1976
1976
1976
1976
1975
1975
1976
1976
1978
1979
1979
1979
1978
1977
1977
1976
1976
1976
1977
1978
1978
1979
1979
1980
1982
1984
1985
1986
1987
1988
1987
1985
1982
1979
1977
1976
1976
1977
1978
1980
1981
1982
1978
1970
1957
1948
1953
1977
2017
2062
2098
2113
2106
2083
2055
2031
2012
1998
1989
1984
1981
1980
1979
1979
1977
1976
1975
1975
1975
1976
1976
1977
1977
1977
1976
1977
1977
1978
1978
1979
1979
1980
1980
1980
1980
1980
1981
1982
1983
1984
1985
1986
1986
1986
1985
1985
1986
1987
1989
1990
1991
1992
1992
1992
1993
1994
1995
1997
1998
2000
2002
2003
2004
2005
2005
2006
2007
2008
2009
2010
2010
2009
2006
2004
2000
1997
1994
1991
1989
1986
1984
1982
1980
1978
1977
1976
1976
1976
1976
1977
1977
1977
1977
1976
1976
1975
1976
1977
1978
1980
1980
1980
1979
1979
1978
1978
1978
1978
1978
1979
1979
1980
1980
1979
1978
1978
1977
1977
1977
1978
1978
1979
1979
1978
1978
1977
1976
1976
1977
1977
1978
1978
1978
1977
1977
1976
1976
1977
1977
1978
1978
1978
1977
1977
1977
1977
1977
1978
1978
1979
1979
1979
1979
1978
1978
1977
1977
1977
1978
1979
1979
1980
1980
1979
1978
1977
1977
1977
1978
1978
1979
1979
1979
1978
1978
1978
1979
1979
1979
1979
1979
1979
1979
1978
1978
1977
1977
1978
1979
1982
1984
1986
1987
1987
1987
1986
1984
1983
1982
1981
1980
1979
1978
1978
1978
1980
1981
1980
1974
1963
1953
1952
1968
2002
2046
2086
2110
2111
2094
2068
2043
2021
2004
1993
1985
1981
1978
1977
1977
1977
1975
1975
1974
1973
1973
1974
1974
1974
1975
1975
1975
1976
1976
1975
1975
1975
1975
1976
1977
1979
1980
1981
1981
1980
1980
1980
1981
1981
1983
1984
1985
1986
1986
1986
1987
1987
1987
1988
1989
1991
1992
1992
1993
1994
1995
1997
1998
2000
2001
2003
2004
2004
2005
2005
2005
2006
2006
2005
2004
2002
2000
1997
1993
1990
1986
1982
1980
1978
1977
1977
1975
1974
1973
1973
1972
1972
1972
1972
1972
1973
1973
1974
1974
1974
1973
1973
1973
1973
1974
1975
1976
1976
1976
1975
1974
1973
1972
1973
1974
1974
1975
1975
1975
1975
1974
1973
1973
1973
1973
1974
1973
1973
1972
1972
1971
1971
1971
1971
1971
1971
1972
1972
1972
1972
1972
1972
1971
1971
1972
1972
1973
1973
1974
1973
1973
1973
1973
1972
1973
1973
1973
1973
1973
1972
1972
1972
1972
1973
1974
1974
1975
1975
1975
1974
1973
1972
1973
1974
1975
1976
1976
1976
1975
1974
1973
1972
1972
1973
1973
1973
1973
1974
1974
1975
1976
1977
1979
1980
1982
1983
1983
1982
1980
1978
1976
1975
1974
1973
1974
1974
1975
1975
1975
1969
1959
1947
1941
1949
1978
2021
2065
2096
2104
2090
2064
2036
2012
1996
1986
1979
1975
1973
1971
1970
1969
1967
1966
1966
1966
1966
1966
1966
1966
1966
1965
1965
1965
1965
1966
1967
1967
1968
1968
1967
1967
1967
1968
1969
1970
1971
1971
1972
1972
1973
1973
1973
1974
1974
1975
1977
1978
1979
1980
1980
1981
1982
1983
1984
1985
1987
1988
1989
1990
1992
1993
1994
1995
1996
1998
1999
2000
2000
1999
1996
1993
1990
1987
1983
1981
1978
1976
1974
1971
1969
1966
1964
1964
1964
1964
1965
1965
1965
1965
1964
1964
1964
1964
1965
1966
1967
1968
1969
1970
1970
1970
1969
1968
1968
1968
1969
1969
1970
1969
1969
1968
1967
1967
1968
1968
1969
1969
1969
1969
1969
1968
1967
1967
1967
1968
1968
1968
1968
1968
1967
1968
1968
1968
1968
1969
1969
1969
1969
1969
1968
1968
1968
1968
1969
1970
1971
1971
1971
1970
1969
1969
1969
1969
1970
1972
1973
1974
1974
1974
1973
1973
1973
1973
1973
1973
1974
1974
1975
1977
1978
1980
1981
1983
1984
1985
1986
1986
1985
1985
1983
1981
1979
1978
1977
1978
1980
1982
1984
1981
1971
1956
1944
1946
1971
2017
2070
2113
2132
2124
2097
2063
2036
2016
2003
1994
1987
1983
1981
1979
1979
1979
1978
1978
1979
1979
1980
1980
1980
1980
1979
1979
1978
1978
1979
1980
1981
1983
1983
1983
1983
1982
1983
1983
1984
1985
1985
1985
1986
1986
1986
1986
1987
1989
1991
1993
1995
1996
1996
1996
1996
1996
1996
1997
1998
2001
2005
2007
2008
2008
2007
2006
2007
2009
2011
2013
2014
2014
2012
2010
2007
2004
2000
1997
1992
1988
1984
1981
1980
1980
1980
1979
1978
1976
1975
1975
1975
1975
1975
1975
1975
1976
1976
1976
1976
1975
1976
1977
1978
1978
1978
1977
1976
1976
1976
1977
1978
1979
1979
1979
1979
1978
1977
1977
1977
1977
1979
1980
1980
1979
1978
1977
1977
1977
1977
1978
1980
1981
1981
1978
1976
1974
1976
1979
1981
1980
1977
1974
1973
1974
1977
1979
1979
1977
1975
1975
1976
1977
1978
1978
1978
1977
1976
1977
1978
1978
1978
1978
1977
1977
1976
1975
1975
1975
1976
1977
1978
1978
1978
1978
1978
1976
1975
1973
1973
1973
1975
1976
1978
1979
1981
1982
1983
1984
1985
1986
1986
1985
1982
1979
1977
1975
1974
1974
1975
1977
1979
1980
1975
1964
1949
1940
1947
1977
2025
2076
2114
2127
2114
2085
2051
2024
2004
1991
1984
1979
1977
1976
1975
1974
1972
1970
1969
1969
1968
1968
1968
1968
1968
1970
1970
1970
1970
1968
1968
1969
1971
1972
1973
1973
1973
1973
1973
1974
1974
1975
1976
1977
1978
1979
1979
1979
1978
1978
1979
1980
1982
1983
1984
1984
1985
1985
1986
1988
1989
1990
1992
1993
1995
1996
1998
1999
1999
1999
2000
2000
2000
2000
1998
1995
1991
1987
1982
1979
1976
1973
1971
1968
1966
1965
1963
1962
1961
1961
1961
1962
1963
1963
1962
1962
1961
1961
1961
1961
1961
1962
1963
1963
1963
1962
1962
1961
1961
1962
1963
1963
1963
1964
1964
1964
1963
1963
1963
1962
1961
1961
1962
1963
1964
1963
1962
1960
1959
1958
1959
1960
1960
1961
1960
1960
1960
1959
1959
1959
1959
1960
1960
1961
1960
1960
1959
1958
1959
1959
1960
1960
1960
1959
1959
1959
1959
1959
1959
1958
1958
1958
1959
1960
1960
1960
1959
1958
1958
1958
1958
1959
1959
1959
1959
1960
1960
1960
1960
1959
1959
1958
1959
1959
1960
1960
1960
1960
1959
1959
1959
1959
1959
1960
1961
1961
1960
1959
1959
1959
1959
1960
1961
1961
1961
1960
1960
1960
1961
1962
1964
1966
1968
1969
1969
1969
1967
1965
1963
1961
1960
1960
1960
1961
1963
1964
1961
1952
1938
1926
1928
1951
1995
2048
2090
2109
2102
2075
2043
2014
1993
1979
1971
1966
1963
1962
1960
1959
1957
1955
1955
1955
1956
1957
1957
1957
1957
1956
1955
1955
1955
1956
1957
1958
1959
1959
1959
1959
1958
1958
1959
1960
1961
1962
1963
1963
1963
1963
1963
1964
1965
1967
1968
1969
1969
1969
1969
1969
1969
1970
1971
1973
1975
1976
1977
1978
1978
1979
1980
1982
1983
1985
1986
1987
1988
1988
1987
1984
1981
1978
1975
1972
1969
1967
1964
1962
1959
1957
1955
1954
1953
1953
1953
1953
1954
1954
1953
1953
1953
1954
1954
1955
1955
1955
1956
1955
1955
1955
1955
1954
1954
1954
1955
1955
1955
1956
1956
1955
1955
1955
1955
1955
1956
1956
1956
1956
1955
1955
1954
1954
1955
1956
1956
1957
1957
1956
1956
1955
1955
1955
1955
1956
1957
1957
1958
1958
1957
1956
1956
1956
1956
1957
1958
1958
1958
1957
1956
1956
1956
1957
1958
1959
1960
1961
1960
1960
1959
1958
1958
1958
1959
1959
1959
1959
1959
1958
1958
1959
1959
1959
1960
1960
1960
1961
1961
1961
1961
1961
1961
1961
1961
1962
1962
1963
1963
1963
1963
1963
1963
1963
1963
1963
1964
1964
1965
1965
1964
1963
1962
1961
1962
1964
1967
1970
1972
1973
1974
1973
1972
1971
1970
1968
1967
1967
1966
1965
1965
1966
1967
1968
1964
1955
1943
1935
1941
1966
2009
2054
2089
2102
2093
2069
2042
2018
2001
1988
1979
1973
1970
1968
1967
1966
1965
1964
1964
1963
1963
1963
1963
1963
1963
1964
1965
1966
1967
1967
1967
1967
1967
1967
1967
1968
1969
1970
1971
1972
1973
1973
1973
1973
1973
1974
1975
1976
1978
1978
1979
1979
1979
1980
1981
1982
1984
1986
1987
1989
1990
1990
1991
1991
1992
1994
1996
1998
2000
2001
2002
2002
2002
2002
2001
2000
1998
1995
1992
1989
1986
1983
1980
1977
1975
1973
1972
1971
1970
1970
1969
1969
1969
1970
1970
1971
1971
1971
1972
1972
1971
1970
1970
1970
1970
1971
1971
1972
1972
1972
1971
1970
1969
1969
1969
1970
1971
1971
1970
1970
1969
1968
1967
1967
1967
1967
1968
1968
1968
1968
1967
1966
1965
1965
1965
1966
1966
1967
1967
1967
1967
1967
1967
1966
1966
1966
1967
1967
1967
1966
1966
1965
1966
1966
1967
1968
1968
1968
1968
1968
1967
1967
1966
1966
1967
1968
1969
1969
1970
1970
1970
1969
1969
1968
1969
1969
1970
1970
1970
1969
1969
1968
1968
1968
1969
1969
1970
1969
1969
1970
1971
1972
1974
1975
1976
1977
1978
1978
1978
1976
1974
1971
1969
1968
1968
1968
1970
1971
1971
1969
1962
1950
1938
1937
1955
1991
2038
2079
2100
2097
2075
2046
2019
2001
1989
1982
1977
1974
1972
1971
1970
1969
1968
1967
1968
1968
1969
1970
1970
1970
1969
1969
1969
1969
1970
1971
1972
1973
1973
1973
1974
1974
1974
1974
1975
1977
1978
1979
1980
1980
1980
1981
1983
1984
1985
1986
1986
1987
1988
1990
1991
1991
1992
1992
1993
1995
1997
2000
2002
2003
2004
2004
2005
2006
2007
2009
2010
2011
2011
2010
2007
2004
2001
1998
1994
1991
1988
1984
1980
1977
1975
1973
1972
1972
1972
1972
1972
1972
1972
1972
1972
1971
1971
1971
1971
1973
1974
1975
1976
1976
1975
1974
1974
1974
1974
1975
1976
1976
1977
1977
1977
1976
1976
1976
1976
1976
1977
1978
1978
1977
1977
1975
1974
1974
1974
1975
1976
1977
1978
1978
1977
1976
1976
1975
1976
1977
1978
1978
1978
1977
1977
1976
1976
1976
1976
1976
1977
1977
1978
1977
1977
1977
1976
1976
1977
1978
1979
1979
1978
1977
1976
1975
1974
1974
1975
1977
1980
1983
1985
1986
1986
1986
1985
1984
1983
1982
1980
1979
1978
1978
1977
1977
1978
1979
1980
1975
1965
1952
1945
1953
1982
2026
2072
2105
2115
2101
2075
2047
2023
2007
1995
1987
1981
1979
1978
1978
1978
1976
1975
1973
1972
1972
1973
1973
1974
1975
1975
1975
1975
1975
1975
1975
1975
1975
1976
1976
1977
1978
1978
1979
1979
1980
1981
1982
1982
1983
1984
1985
1986
1986
1987
1988
1989
1990
1991
1992
1994
1995
1996
1997
1998
1998
1999
1999
2001
2002
2004
2006
2007
2009
2009
2009
2008
2007
2005
2004
2001
1998
1995
1991
1987
1983
1980
1977
1975
1974
1974
1974
1973
1973
1972
1971
1970
1970
1970
1971
1971
1972
1972
1973
1973
1973
1972
1972
1972
1973
1974
1975
1976
1976
1976
1975
1973
1972
1972
1973
1974
1975
1976
1976
1975
1974
1974
1973
1973
1974
1974
1974
1974
1974
1974
1973
1973
1973
1973
1973
1974
1974
1974
1974
1974
1973
1973
1972
1973
1974
1975
1975
1975
1975
1974
1974
1973
1974
1974
1975
1976
1976
1976
1975
1975
1974
1974
1974
1975
1975
1976
1976
1976
1976
1976
1975
1975
1975
1976
1976
1977
1978
1978
1978
1978
1977
1976
1975
1976
1977
1980
1983
1985
1986
1987
1986
1986
1984
1983
1981
1979
1978
1977
1976
1976
1977
1978
1979
1978
1971
1960
1948
1946
1961
1997
2044
2087
2113
2116
2098
2070
2043
2020
2003
1991
1983
1978
1976
1974
1974
1974
1974
1973
1973
1972
1972
1971
1971
1971
1972
1973
1973
1974
1974
1974
1974
1973
1974
1974
1975
1976
1976
1977
1977
1977
1978
1978
1979
1980
1981
1982
1983
1983
1983
1983
1984
1984
1985
1986
1987
1989
1990
1991
1991
1992
1992
1993
1994
1995
1997
1998
1999
2001
2001
2002
2002
2002
2002
2001
1999
1998
1996
1993
1989
1985
1981
1977
1975
1973
1972
1972
1972
1971
1971
1970
1969
1969
1969
1969
1969
1970
1971
1971
1971
1971
1971
1971
1971
1971
1971
1972
1972
1972
1972
1972
1971
1971
1971
1971
1971
1971
1972
1972
1972
1972
1971
1970
1970
1969
1969
1970
1970
1970
1970
1970
1969
1969
1969
1969
1970
1970
1971
1971
1971
1971
1970
1969
1968
1968
1969
1970
1970
1971
1971
1970
1969
1968
1968
1968
1969
1970
1970
1970
1970
1969
1969
1969
1969
1970
1970
1970
1970
1970
1970
1969
1969
1969
1968
1969
1969
1970
1970
1970
1969
1969
1968
1968
1968
1968
1969
1970
1971
1971
1970
1970
1969
1969
1969
1969
1970
1970
1971
1971
1970
1969
1968
1967
1968
1971
1974
1977
1979
1979
1979
1978
1977
1976
1974
1973
1972
1971
1971
1971
1971
1971
1972
1972
1969
1961
1950
1940
1941
1961
1999
2046
2084
2103
2099
2076
2048
2022
2003
1990
1982
1975
1972
1970
1969
1969
1968
1968
1967
1967
1967
1967
1966
1965
1965
1965
1966
1967
1968
1968
1968
1969
1969
1969
1969
1969
1969
1970
1971
1972
1973
1974
1974
1975
1975
1975
1975
1976
1978
1979
1980
1981
1981
1980
1981
1982
1984
1986
1988
1989
1989
1989
1989
1990
1992
1994
1996
1998
1999
2001
2001
2001
2001
2000
1999
1998
1997
1994
1991
1987
1983
1979
1976
1973
1971
1970
1969
1968
1967
1966
1966
1965
1965
1965
1965
1965
1966
1966
1967
1967
1967
1967
1967
1967
1967
1967
1968
1968
1969
1969
1969
1969
1968
1968
1968
1968
1968
1968
1968
1968
1968
1968
1968
1967
1967
1967
1967
1968
1968
1968
1968
1967
1967
1967
1967
1967
1968
1969
1969
1969
1968
1968
1967
1966
1966
1967
1968
1969
1969
1970
1970
1970
1970
1970
1970
1970
1970
1971
1972
1972
1971
1970
1969
1969
1969
1970
1971
1972
1973
1973
1973
1973
1973
1972
1971
1971
1971
1972
1973
1973
1973
1973
1972
1971
1972
1973
1976
1979
1981
1982
1982
1982
1981
1980
1979
1977
1975
1974
1973
1973
1973
1974
1975
1976
1974
1967
1956
1944
1942
1959
1996
2044
2087
2112
2113
2093
2064
2037
2016
2001
1991
1984
1979
1976
1974
1973
1973
1972
1972
1971
1971
1970
1970
1970
1970
1970
1971
1972
1973
1973
1974
1974
1974
1973
1973
1974
1975
1976
1977
1978
1979
1979
1979
1979
1979
1980
1981
1982
1983
1984
1985
1986
1986
1986
1987
1988
1989
1990
1992
1994
1995
1996
1997
1998
1999
2001
2003
2004
2005
2007
2008
2008
2008
2007
2005
2003
2000
1998
1995
1992
1989
1986
1983
1980
1978
1977
1976
1975
1975
1975
1975
1974
1974
1974
1973
1973
1974
1974
1975
1975
1975
1976
1976
1976
1977
1977
1977
1977
1978
1978
1978
1978
1978
1979
1980
1981
1981
1980
1978
1977
1976
1976
1976
1975
1975
1975
1975
1976
1977
1977
1976
1975
1975
1974
1975
1975
1976
1976
1976
1977
1977
1977
1976
1976
1975
1975
1976
1977
1977
1977
1977
1976
1976
1975
1976
1976
1977
1977
1978
1978
1978
1978
1977
1977
1977
1978
1979
1979
1979
1978
1978
1978
1978
1978
1978
1979
1979
1980
1980
1980
1979
1979
1978
1978
1978
1979
1980
1981
1981
1982
1981
1981
1980
1978
1977
1977
1978
1979
1980
1981
1981
1980
1979
1979
1978
1978
1978
1979
1979
1979
1980
1981
1982
1983
1984
1985
1985
1986
1986
1985
1983
1980
1978
1976
1976
1976
1978
1980
1982
1982
1976
1965
1952
1944
1953
1981
2026
2073
2109
2123
2114
2089
2059
2033
2012
1997
1987
1981
1978
1977
1976
1976
1974
1973
1972
1972
1972
1973
1974
1974
1974
1973
1973
1973
1973
1974
1975
1976
1977
1978
1979
1979
1979
1979
1979
1979
1980
1981
1982
1983
1984
1984
1984
1985
1985
1986
1987
1989
1990
1991
1992
1992
1992
1993
1994
1996
1997
1999
2000
2000
2001
2002
2003
2004
2005
2007
2008
2009
2010
2009
2007
2005
2002
1999
1996
1993
1991
1989
1986
1984
1982
1981
1979
1978
1977
1977
1977
1978
1978
1978
1978
1977
1977
1976
1976
1976
1977
1978
1978
1978
1978
1977
1977
1977
1978
1979
1979
1979
1979
1978
1977
1977
1976
1976
1976
1977
1977
1978
1978
1977
1976
1975
1974
1973
1973
1974
1975
1976
1976
1975
1974
1974
1973
1973
1972
1973
1974
1975
1977
1977
1977
1975
1974
1973
1973
1974
1974
1975
1975
1975
1974
1973
1973
1973
1974
1975
1976
1977
1977
1976
1975
1975
1974
1974
1973
1973
1974
1974
1975
1974
1974
1973
1972
1972
1972
1973
1974
1974
1975
1975
1974
1973
1973
1972
1973
1973
1974
1974
1974
1973
1973
1974
1976
1977
1979
1981
1982
1983
1982
1981
1978
1975
1973
1971
1971
1972
1973
1975
1976
1977
1973
1964
1951
1941
1945
1969
2010
2056
2094
2110
2103
2079
2048
2023
2004
1991
1984
1979
1976
1974
1971
1969
1967
1967
1967
1967
1968
1968
1968
1968
1968
1969
1969
1969
1969
1970
1970
1971
1972
1973
1973
1973
1973
1973
1973
1974
1975
1975
1976
1977
1978
1979
1979
1979
1979
1979
1980
1980
1982
1983
1984
1985
1985
1986
1987
1988
1990
1992
1994
1995
1996
1997
1998
1998
1999
2000
2002
2004
2005
2004
2002
1998
1994
1990
1986
1983
1980
1978
1975
1973
1972
1970
1969
1968
1967
1966
1966
1966
1966
1967
1967
1967
1967
1967
1967
1967
1968
1969
1970
1971
1971
1971
1970
1970
1971
1971
1972
1972
1972
1972
1971
1971
1970
1970
1970
1971
1971
1972
1972
1972
1972
1971
1970
1970
1969
1970
1970
1971
1972
1972
1972
1971
1971
1971
1971
1971
1972
1973
1973
1973
1973
1973
1973
1973
1973
1974
1975
1976
1977
1977
1977
1977
1977
1977
1976
1976
1976
1977
1977
1978
1977
1976
1975
1975
1975
1976
1976
1976
1976
1977
1978
1980
1982
1984
1985
1986
1986
1986
1986
1984
1983
1980
1978
1977
1977
1977
1978
1980
1982
1982
1977
1966
1953
1946
1955
1984
2029
2075
2109
2120
2109
2083
2054
2029
2010
1997
1988
1983
1980
1979
1978
1977
1976
1974
1974
1974
1974
1975
1975
1975
1975
1975
1975
1974
1975
1976
1977
1978
1979
1979
1978
1978
1978
1978
1978
1979
1979
1980
1981
1982
1983
1983
1983
1984
1985
1986
1987
1988
1990
1991
1992
1992
1993
1993
1994
1995
1997
1998
2000
2001
2002
2002
2003
2004
2005
2006
2007
2008
2007
2006
2003
2000
1996
1992
1989
1987
1985
1983
1981
1979
1977
1976
1975
1974
1973
1973
1973
1974
1975
1975
1975
1973
1972
1972
1972
1973
1974
1975
1976
1977
1977
1976
1976
1975
1975
1976
1976
1977
1977
1977
1977
1977
1976
1976
1976
1975
1976
1976
1977
1977
1977
1976
1975
1974
1974
1974
1975
1976
1976
1977
1977
1976
1976
1975
1975
1975
1976
1976
1977
1977
1977
1977
1976
1976
1976
1977
1978
1979
1979
1979
1978
1978
1977
1977
1978
1979
1979
1980
1981
1981
1981
1980
1979
1978
1978
1979
1980
1980
1981
1981
1980
1980
1980
1980
1980
1980
1980
1980
1980
1980
1979
1980
1981
1983
1985
1988
1989
1990
1990
1990
1989
1987
1985
1983
1982
1982
1982
1983
1984
1985
1985
1981
1971
1957
1950
1956
1983
2027
2073
2108
2120
2108
2082
2052
2028
2010
1999
1992
1987
1984
1982
1981
1980
1979
1977
1977
1977
1978
1978
1978
1978
1978
1978
1978
1978
1978
1979
1979
1980
1981
1981
1981
1981
1981
1981
1982
1983
1984
1985
1986
1986
1986
1986
1986
1986
1987
1989
1991
1992
1993
1993
1994
1995
1995
1997
1998
1999
2001
2002
2004
2005
2006
2006
2007
2008
2010
2011
2012
2013
2012
2011
2008
2005
2001
1998
1995
1992
1989
1986
1984
1982
1980
1978
1976
1975
1974
1974
1975
1975
1975
1974
1974
1973
1973
1973
1973
1974
1975
1976
1977
1977
1976
1976
1976
1976
1976
1976
1976
1976
1976
1976
1976
1976
1976
1976
1977
1977
1976
1976
1976
1975
1975
1975
1975
1974
1974
1974
1974
1975
1975
1975
1975
1974
1973
1973
1973
1973
1974
1974
1975
1974
1974
1974
1974
1974
1974
1974
1975
1975
1976
1975
1975
1974
1974
1974
1974
1974
1974
1975
1975
1975
1975
1974
1974
1973
1973
1973
1973
1974
1975
1976
1978
1980
1981
1983
1983
1984
1983
1982
1980
1978
1976
1974
1973
1973
1973
1975
1977
1978
1976
1968
1955
1943
1943
1962
2000
2048
2090
2114
2114
2094
2065
2037
2014
1997
1986
1979
1976
1974
1974
1974
1973
1971
1969
1968
1968
1969
1969
1970
1970
1970
1970
1970
1970
1970
1971
1972
1973
1973
1974
1974
1974
1974
1974
1974
1975
1977
1978
1979
1980
1980
1980
1980
1980
1981
1982
1984
1985
1986
1987
1988
1988
1989
1989
1991
1992
1994
1996
1997
1998
1999
2000
2000
2001
2001
2002
2003
2003
2002
2000
1997
1993
1989
1985
1981
1979
1976
1975
1973
1972
1970
1969
1968
1967
1966
1966
1966
1967
1968
1968
1968
1968
1968
1967
1967
1967
1967
1968
1969
1969
1969
1969
1968
1968
1968
1968
1969
1969
1970
1970
1970
1969
1968
1967
1966
1966
1967
1969
1969
1969
1968
1967
1966
1966
1965
1965
1966
1966
1967
1967
1967
1967
1966
1965
1965
1965
1965
1966
1966
1967
1967
1967
1966
1966
1965
1966
1966
1967
1968
1968
1968
1967
1966
1966
1965
1966
1966
1967
1967
1968
1968
1967
1967
1966
1966
1966
1966
1967
1967
1968
1968
1967
1967
1966
1966
1966
1966
1967
1967
1968
1968
1968
1967
1967
1967
1967
1967
1968
1968
1969
1969
1969
1969
1968
1968
1967
1967
1968
1969
1971
1973
1975
1976
1977
1977
1977
1977
1976
1974
1973
1971
1970
1969
1968
1968
1970
1971
1972
1970
1961
1949
1938
1940
1961
2001
2048
2088
2109
2106
2085
2056
2029
2007
1991
1980
1974
1970
1969
1968
1968
1967
1965
1964
1964
1963
1963
1964
1964
1965
1965
1965
1965
1965
1965
1965
1966
1966
1967
1968
1969
1970
1970
1970
1970
1970
1970
1971
1972
1973
1973
1974
1974
1975
1976
1976
1977
1978
1978
1979
1980
1981
1982
1982
1983
1984
1985
1987
1989
1990
1992
1993
1993
1993
1994
1995
1996
1997
1997
1996
1994
1992
1988
1985
1981
1978
1975
1973
1971
1970
1968
1967
1965
1964
1963
1962
1962
1963
1964
1964
1965
1965
1965
1964
1964
1964
1964
1964
1965
1966
1966
1966
1965
1964
1963
1963
1964
1966
1967
1967
1966
1965
1965
1964
1964
1964
1964
1964
1963
1963
1963
1963
1963
1963
1963
1963
1963
1963
1964
1964
1964
1964
1964
1964
1963
1963
1963
1963
1963
1963
1963
1963
1963
1963
1963
1962
1963
1964
1965
1965
1965
1965
1964
1963
1963
1963
1964
1964
1965
1965
1965
1965
1965
1964
1964
1963
1963
1963
1964
1964
1965
1965
1965
1965
1965
1965
1965
1965
1965
1965
1966
1966
1965
1965
1964
1964
1963
1963
1964
1964
1966
1967
1969
1971
1972
1973
1974
1974
1974
1973
1972
1969
1967
1966
1965
1964
1965
1967
1969
1970
1966
1956
1943
1934
1941
1967
2010
2057
2092
2105
2094
2068
2039
2013
1994
1983
1976
1971
1969
1967
1966
1965
1964
1963
1962
1962
1962
1963
1964
1964
1965
1965
1965
1965
1964
1964
1964
1965
1967
1968
1969
1970
1969
1969
1969
1969
1970
1971
1972
1974
1975
1975
1976
1976
1977
1978
1979
1980
1981
1983
1984
1985
1985
1985
1986
1987
1988
1990
1993
1994
1996
1997
1997
1998
1999
2000
2000
2001
2001
2000
1999
1996
1992
1988
1984
1981
1978
1976
1975
1973
1971
1969
1967
1966
1965
1965
1965
1965
1966
1966
1967
1967
1966
1966
1966
1965
1966
1967
1968
1969
1970
1970
1969
1969
1968
1968
1968
1969
1969
1970
1970
1970
1970
1969
1969
1969
1969
1970
1971
1971
1971
1970
1969
1968
1968
1968
1968
1969
1969
1970
1970
1970
1969
1969
1968
1968
1969
1969
1970
1970
1971
1971
1971
1970
1970
1970
1971
1971
1971
1972
1972
1971
1971
1971
1971
1971
1971
1971
1972
1972
1972
1972
1972
1971
1971
1971
1971
1972
1973
1973
1973
1973
1973
1972
1972
1972
1972
1972
1973
1973
1973
1974
1974
1973
1973
1973
1973
1973
1973
1973
1973
1972
1972
1973
1976
1978
1981
1983
1984
1984
1984
1982
1981
1979
1977
1975
1975
1975
1975
1976
1977
1978
1978
1972
1962
1949
1943
1952
1980
2025
2071
2104
2116
2105
2079
2050
2025
2006
1993
1985
1980
1978
1976
1975
1973
1972
1972
1972
1972
1972
1972
1972
1971
1971
1971
1971
1972
1973
1974
1975
1975
1975
1975
1975
1975
1976
1977
1978
1979
1980
1981
1982
1982
1982
1982
1982
1983
1984
1985
1986
1987
1988
1989
1989
1990
1990
1991
1993
1995
1996
1998
1998
1999
1999
2000
2001
2003
2004
2005
2006
2006
2006
2004
2002
2000
1997
1994
1991
1988
1985
1982
1980
1978
1976
1975
1974
1973
1972
1972
1973
1973
1973
1973
1972
1972
1972
1973
1973
1974
1974
1974
1974
1974
1974
1974
1974
1974
1975
1975
1976
1976
1976
1975
1975
1974
1974
1975
1975
1975
1976
1976
1976
1976
1975
1974
1973
1973
1973
1974
1975
1975
1975
1974
1973
1973
1973
1973
1973
1974
1974
1974
1974
1974
1974
1973
1973
1974
1975
1976
1976
1977
1976
1976
1975
1975
1975
1975
1975
1976
1976
1977
1977
1976
1976
1976
1976
1976
1977
1978
1978
1978
1978
1977
1977
1977
1977
1977
1977
1978
1978
1978
1978
1978
1977
1977
1977
1977
1978
1979
1979
1979
1979
1979
1978
1977
1977
1977
1978
1979
1979
1980
1980
1979
1979
1979
1979
1979
1980
1980
1980
1980
1980
1979
1978
1978
1979
1980
1983
1985
1988
1989
1989
1988
1987
1986
1984
1983
1981
1981
1980
1980
1980
1981
1981
1981
1979
1971
1959
1950
1952
1972
2009
2055
2094
2116
2115
2096
2068
2042
2020
2004
1994
1986
1982
1980
1978
1978
1977
1976
1976
1976
1976
1976
1975
1975
1975
1975
1976
1977
1978
1978
1978
1978
1978
1978
1978
1979
1980
1981
1982
1982
1983
1983
1983
1983
1983
1984
1985
1986
1987
1988
1989
1989
1990
1990
1991
1991
1992
1993
1995
1996
1997
1998
1999
2000
2001
2002
2004
2005
2007
2008
2008
2008
2008
2008
2007
2006
2004
2002
1999
1996
1992
1989
1986
1984
1982
1980
1979
1978
1978
1977
1977
1976
1976
1975
1975
1975
1976
1977
1978
1978
1978
1978
1977
1977
1977
1977
1978
1978
1979
1979
1979
1978
1978
1978
1978
1978
1978
1979
1979
1979
1978
1978
1977
1977
1977
1977
1977
1977
1977
1977
1976
1976
1975
1975
1975
1976
1976
1977
1976
1976
1975
1975
1974
1974
1974
1974
1975
1976
1976
1976
1976
1976
1975
1975
1975
1975
1976
1976
1976
1976
1976
1976
1976
1976
1975
1975
1976
1976
1977
1976
1976
1975
1974
1973
1973
1974
1975
1976
1977
1977
1977
1976
1975
1974
1974
1973
1974
1974
1975
1975
1975
1975
1975
1975
1976
1976
1976
1977
1977
1976
1976
1975
1975
1974
1974
1974
1975
1975
1976
1976
1976
1976
1975
1975
1974
1974
1975
1977
1979
1981
1983
1984
1984
1983
1983
1982
1982
1981
1980
1978
1977
1976
1976
1976
1977
1978
1976
1969
1958
1946
1946
1963
1999
2046
2087
2111
2111
2092
2063
2035
2013
1997
1988
1981
1978
1976
1976
1976
1975
1975
1974
1973
1972
1971
1971
1971
1972
1973
1973
1974
1974
1974
1974
1975
1975
1976
1977
1978
1978
1978
1978
1979
1979
1979
1980
1981
1982
1983
1984
1985
1985
1986
1986
1987
1988
1989
1990
1991
1992
1993
1994
1995
1996
1997
1998
2000
2002
2003
2005
2006
2006
2007
2007
2008
2008
2008
2008
2007
2005
2002
1998
1994
1990
1986
1983
1981
1979
1978
1976
1976
1975
1974
1973
1972
1972
1972
1972
1973
1974
1974
1975
1975
1974
1974
1974
1974
1975
1976
1976
1977
1977
1977
1976
1975
1975
1975
1976
1976
1977
1977
1977
1976
1976
1976
1976
1976
1976
1976
1976
1976
1976
1975
1974
1974
1973
1974
1975
1975
1976
1976
1976
1975
1974
1974
1975
1975
1976
1976
1976
1976
1976
1975
1975
1975
1975
1976
1976
1977
1977
1976
1976
1976
1975
1975
1975
1975
1976
1977
1977
1977
1977
1976
1975
1975
1975
1976
1976
1977
1978
1978
1978
1977
1976
1976
1977
1977
1978
1979
1979
1979
1978
1978
1977
1977
1977
1978
1978
1979
1980
1980
1980
1979
1979
1979
1979
1979
1979
1979
1979
1979
1978
1978
1977
1978
1980
1982
1985
1987
1989
1989
1989
1988
1987
1985
1983
1981
1981
1980
1980
1981
1981
1982
1982
1980
1972
1960
1950
1950
1969
2006
2053
2095
2118
2117
2098
2069
2042
2020
2005
1995
1987
1983
1980
1979
1978
1978
1977
1977
1977
1977
1976
1976
1976
1976
1976
1976
1977
1978
1978
1979
1979
1979
1979
1979
1979
1979
1980
1981
1982
1983
1984
1984
1984
1984
1984
1985
1985
1986
1988
1989
1989
1990
1990
1991
1992
1993
1994
1996
1998
1999
1999
2000
2000
2001
2002
2003
2005
2006
2008
2009
2009
2009
2008
2006
2004
2002
2000
1997
1994
1991
1988
1985
1982
1980
1978
1977
1976
1976
1976
1975
1975
1975
1974
1974
1973
1973
1974
1974
1975
1975
1975
1976
1975
1975
1975
1975
1976
1976
1977
1977
1977
1977
1976
1976
1976
1976
1977
1977
1978
1978
1978
1977
1976
1975
1975
1975
1975
1975
1976
1976
1976
1976
1976
1975
1975
1975
1976
1976
1977
1977
1976
1976
1975
1975
1975
1975
1976
1976
1977
1976
1976
1975
1975
1975
1975
1975
1976
1976
1977
1976
1976
1975
1975
1975
1975
1975
1976
1976
1977
1977
1977
1976
1976
1976
1975
1976
1976
1976
1976
1977
1977
1977
1977
1976
1976
1976
1976
1976
1977
1977
1977
1976
1976
1976
1976
1976
1977
1977
1978
1978
1978
1978
1977
1976
1976
1976
1977
1977
1978
1978
1978
1978
1977
1977
1977
1977
1977
1978
1979
1979
1979
1978
1977
1977
1976
1976
1976
1977
1978
1980
1983
1984
1985
1986
1986
1986
1986
1986
1985
1983
1981
1979
1978
1977
1978
1979
1981
1981
1978
1969
1956
1947
1953
1977
2019
2064
2100
2116
2109
2086
2057
2032
2011
1996
1987
1981
1979
1978
1977
1977
1976
1975
1974
1973
1972
1972
1972
1973
1974
1974
1975
1974
1974
1974
1973
1973
1974
1976
1977
1978
1978
1978
1978
1978
1979
1980
1981
1982
1982
1983
1983
1983
1983
1984
1985
1986
1987
1989
1990
1992
1992
1992
1993
1993
1994
1996
1997
1999
2000
2002
2003
2004
2005
2006
2007
2007
2008
2008
2007
2005
2003
2000
1996
1992
1988
1985
1983
1981
1979
1978
1976
1974
1973
1972
1971
1971
1971
1971
1972
1972
1972
1971
1971
1971
1972
1972
1973
1974
1974
1974
1974
1973
1973
1972
1973
1973
1974
1974
1975
1975
1974
1974
1973
1972
1972
1972
1973
1973
1974
1974
1973
1972
1972
1971
1971
1971
1972
1972
1972
1973
1973
1972
1972
1971
1971
1970
1971
1971
1972
1972
1972
1971
1971
1971
1971
1972
1972
1973
1973
1973
1972
1971
1971
1971
1971
1971
1972
1972
1973
1973
1973
1973
1972
1971
1971
1971
1972
1973
1973
1974
1974
1973
1973
1972
1972
1972
1972
1973
1974
1974
1973
1973
1972
1972
1972
1972
1972
1973
1974
1974
1974
1973
1973
1972
1972
1973
1973
1974
1974
1975
1974
1974
1973
1972
1972
1973
1974
1974
1975
1975
1974
1973
1972
1971
1972
1973
1976
1979
1982
1983
1983
1983
1982
1980
1979
1977
1976
1976
1976
1975
1975
1976
1977
1977
1974
1966
1954
1945
1948
1969
2009
2055
2093
2112
2107
2084
2055
2030
2010
1997
1988
1981
1978
1975
1973
1973
1972
1972
1972
1972
1972
1971
1970
1970
1970
1971
1972
1973
1973
1973
1973
1974
1974
1974
1974
1974
1975
1976
1978
1979
1979
1980
1980
1980
1980
1980
1981
1982
1983
1985
1986
1986
1987
1987
1988
1989
1990
1991
1993
1994
1994
1995
1996
1998
1999
2001
2002
2003
2005
2006
2007
2007
2007
2006
2005
2004
2002
1999
1996
1993
1989
1985
1982
1979
1976
1975
1973
1973
1972
1971
1971
1970
1969
1969
1969
1969
1969
1970
1971
1971
1971
1971
1970
1970
1971
1971
1972
1973
1973
1973
1974
1973
1973
1972
1972
1972
1972
1973
1974
1974
1974
1973
1972
1971
1971
1971
1971
1972
1972
1972
1972
1972
1971
1971
1971
1971
1971
1972
1972
1972
1972
1972
1971
1971
1971
1972
1972
1973
1973
1973
1973
1972
1971
1971
1971
1971
1972
1973
1973
1974
1973
1973
1972
1972
1972
1972
1973
1974
1974
1974
1974
1974
1974
1973
1973
1973
1973
1974
1974
1974
1974
1974
1974
1973
1974
1974
1975
1976
1976
1976
1976
1975
1975
1975
1975
1975
1976
1976
1977
1977
1977
1977
1976
1976
1976
1976
1976
1977
1978
1978
1978
1978
1978
1977
1977
1976
1976
1977
1977
1978
1979
1981
1982
1984
1986
1987
1987
1987
1987
1985
1983
1980
1978
1977
1977
1977
1979
1981
1982
1981
1975
1963
1950
1945
1957
1989
2035
2080
2111
2119
2106
2079
2049
2025
2006
1993
1985
1981
1979
1978
1977
1976
1975
1973
1973
1972
1973
1973
1974
1974
1974
1973
1973
1973
1973
1973
1974
1975
1976
1977
1977
1977
1977
1977
1977
1977
1978
1979
1980
1981
1982
1982
1983
1983
1984
1985
1986
1987
1988
1989
1990
1990
1990
1991
1992
1993
1995
1996
1998
1999
2000
2001
2001
2002
2003
2004
2005
2006
2007
2007
2006
2003
2000
1997
1994
1991
1988
1985
1983
1981
1979
1977
1975
1974
1973
1973
1973
1973
1973
1973
1972
1972
1972
1972
1972
1972
1972
1972
1973
1973
1973
1973
1973
1973
1973
1973
1974
1974
1975
1975
1975
1974
1974
1973
1973
1973
1974
1974
1975
1975
1974
1973
1972
1971
1971
1972
1972
1973
1973
1973
1973
1972
1972
1972
1972
1972
1972
1973
1973
1973
1973
1973
1972
1972
1972
1972
1973
1973
1974
1974
1974
1974
1973
1973
1973
1973
1973
1973
1974
1975
1975
1975
1974
1973
1973
1973
1974
1975
1975
1975
1975
1975
1974
1974
1974
1974
1975
1975
1975
1976
1976
1975
1975
1975
1975
1975
1975
1976
1976
1976
1976
1976
1976
1975
1975
1975
1975
1976
1977
1977
1977
1977
1976
1976
1976
1976
1977
1977
1977
1977
1977
1977
1977
1976
1976
1976
1977
1977
1977
1977
1977
1976
1977
1978
1980
1982
1984
1985
1986
1987
1986
1984
1982
1979
1977
1976
1976
1977
1978
1979
1980
1979
1974
1965
1953
1947
1956
1983
2025
2069
2102
2114
2104
2080
2052
2028
2009
1997
1988
1983
1980
1977
1976
1975
1974
1973
1973
1973
1974
1974
1974
1973
1973
1973
1973
1974
1975
1975
1976
1976
1976
1976
1976
1976
1977
1978
1978
1979
1980
1981
1982
1982
1981
1981
1981
1982
1983
1985
1987
1988
1988
1988
1988
1989
1990
1992
1993
1995
1997
1998
1998
1998
1999
2000
2001
2003
2004
2005
2006
2007
2007
2007
2006
2004
2001
1999
1996
1993
1991
1988
1985
1982
1979
1976
1975
1973
1973
1973
1973
1973
1972
1972
1971
1971
1972
1972
1972
1973
1973
1974
1973
1973
1972
1972
1973
1973
1974
1975
1975
1975
1974
1974
1973
1973
1973
1973
1974
1975
1975
1975
1975
1974
1973
1973
1973
1973
1974
1974
1973
1973
1972
1972
1972
1973
1973
1973
1974
1974
1975
1974
1974
1973
1972
1972
1972
1972
1973
1973
1974
1974
1973
1973
1972
1972
1972
1973
1973
1974
1974
1974
1974
1974
1973
1973
1972
1972
1973
1973
1974
1974
1974
1974
1974
1973
1973
1973
1973
1974
1975
1975
1975
1974
1974
1974
1974
1974
1975
1975
1975
1975
1975
1974
1974
1974
1974
1974
1975
1975
1976
1976
1975
1975
1975
1974
1974
1974
1975
1975
1975
1975
1974
1974
1974
1976
1978
1981
1983
1985
1985
1985
1983
1981
1978
1976
1975
1974
1975
1976
1977
1978
1978
1975
1968
1956
1946
1947
1966
2003
2048
2087
2108
2106
2085
2057
2031
2011
1998
1989
1983
1980
1978
1976
1975
1973
1972
1971
1972
1972
1973
1973
1973
1972
1972
1972
1972
1972
1973
1974
1975
1976
1976
1976
1977
1977
1977
1978
1978
1979
1980
1980
1981
1981
1982
1982
1982
1983
1984
1985
1986
1987
1987
1988
1989
1989
1991
1992
1994
1996
1997
1999
1999
2000
2000
2001
2002
2004
2006
2007
2008
2009
2008
2007
2004
2001
1998
1994
1991
1988
1986
1983
1981
1978
1976
1974
1972
1972
1971
1971
1971
1971
1971
1971
1970
1970
1970
1970
1971
1971
1972
1973
1973
1973
1972
1972
1972
1973
1974
1974
1975
1975
1974
1974
1974
1974
1974
1974
1974
1974
1974
1974
1974
1974
1974
1973
1973
1973
1973
1974
1974
1974
1974
1974
1973
1973
1973
1973
1974
1974
1974
1974
1974
1973
1973
1973
1973
1973
1973
1974
1975
1975
1975
1974
1974
1974
1974
1974
1975
1976
1976
1976
1975
1975
1974
1974
1974
1975
1976
1976
1976
1976
1976
1975
1975
1975
1975
1975
1975
1976
1977
1977
1978
1977
1977
1976
1976
1976
1976
1977
1978
1978
1978
1977
1976
1976
1976
1976
1977
1978
1978
1978
1978
1977
1976
1976
1976
1976
1977
1978
1978
1978
1978
1978
1977
1977
1976
1976
1976
1978
1980
1983
1985
1986
1986
1986
1986
1985
1985
1984
1983
1981
1979
1978
1977
1977
1978
1980
1981
1977
1968
1956
1948
1955
1980
2022
2068
2103
2118
2111
2088
2059
2033
2012
1998
1988
1982
1979
1978
1978
1978
1977
1976
1975
1974
1973
1973
1973
1973
1974
1975
1976
1976
1976
1975
1975
1976
1977
1978
1979
1980
1980
1981
1981
1980
1980
1980
1981
1982
1984
1985
1985
1986
1986
1986
1986
1987
1988
1990
1991
1993
1994
1994
1995
1995
1996
1997
1999
2000
2001
2003
2004
2005
2005
2006
2006
2007
2007
2007
2007
2006
2004
2001
