2031
2030
2030
2031
2031
2031
2031
2030
2033
2033
2033
2030
2026
2024
2026
2031
2037
2039
2037
2034
2031
2029
2032
2032
2032
2031
2031
2032
2032
2033
2033
2033
2033
2032
2032
2033
2035
2036
2036
2036
2034
2031
2029
2027
2028
2031
2034
2037
2039
2039
2037
2035
2034
2034
2034
2034
2033
2033
2033
2034
2033
2033
2033
2032
2032
2032
2033
2034
2034
2034
2033
2036
2036
2034
2031
2028
2028
2033
2043
2057
2074
2090
2102
2103
2091
2069
2038
2011
1993
1988
1994
2005
2018
2029
2036
2040
2042
2043
2043
2044
2044
2045
2046
2045
2046
2044
2043
2044
2047
2051
2054
2056
2054
2052
2051
2050
2053
2053
2055
2056
2057
2058
2059
2060
2061
2062
2063
2064
2066
2067
2068
2068
2068
2072
2074
2076
2074
2071
2068
2068
2072
2077
2079
2075
2067
2059
2052
2052
2050
2048
2047
2044
2042
2041
2039
2038
2036
2036
2036
2036
2035
2035
2034
2032
2034
2033
2033
2032
2031
2031
2032
2035
2039
2040
2039
2036
2034
2032
2035
2037
2039
2038
2037
2035
2034
2033
2035
2036
2036
2037
2037
2036
2036
2035
2035
2035
2035
2036
2035
2034
2033
2033
2034
2036
2037
2037
2036
2034
2032
2033
2033
2034
2034
2033
2033
2033
2032
2033
2033
2034
2034
2033
2033
2033
2032
2032
2032
2034
2034
2034
2032
2029
2029
2031
2034
2037
2038
2036
2033
2032
2030
2031
2031
2032
2032
2032
2033
2033
2033
2033
2033
2033
2033
2033
2033
2033
2033
2032
2035
2035
2035
2033
2030
2029
2031
2034
2038
2038
2035
2032
2031
2030
2034
2035
2035
2035
2035
2036
2037
2037
2037
2036
2036
2036
2035
2034
2034
2033
2031
2034
2035
2035
2034
2032
2032
2032
2035
2038
2040
2039
2037
2035
2033
2033
2034
2036
2043
2054
2072
2091
2104
2106
2091
2064
2034
2007
1992
1990
1997
2010
2022
2034
2039
2041
2039
2036
2035
2041
2048
2052
2053
2050
2047
2045
2044
2047
2048
2049
2050
2050
2051
2051
2052
2052
2053
2054
2055
2056
2057
2058
2058
2059
2062
2063
2065
2064
2063
2063
2066
2071
2075
2077
2076
2073
2072
2070
2073
2073
2073
2071
2069
2067
2065
2062
2059
2056
2053
2049
2047
2045
2043
2042
2039
2041
2039
2037
2034
2030
2029
2031
2037
2042
2044
2041
2037
2033
2029
2032
2033
2035
2035
2035
2036
2036
2036
2036
2036
2036
2036
2037
2037
2037
2038
2036
2038
2037
2036
2035
2033
2033
2035
2037
2042
2041
2038
2035
2033
2031
2035
2037
2039
2038
2037
2035
2034
2034
2035
2035
2036
2036
2036
2036
2036
2036
2035
2035
2035
2035
2034
2034
2032
2032
2033
2035
2037
2039
2038
2036
2034
2033
2033
2033
2035
2035
2034
2033
2033
2033
2034
2034
2034
2034
2034
2034
2034
2034
2033
2035
2035
2035
2034
2032
2031
2032
2035
2038
2039
2039
2037
2035
2033
2035
2036
2038
2039
2039
2039
2039
2038
2037
2036
2036
2036
2035
2035
2035
2035
2034
2037
2038
2037
2036
2033
2032
2034
2038
2042
2044
2043
2040
2037
2036
2044
2053
2070
2092
2110
2119
2111
2088
2054
2022
1999
1988
1989
1997
2008
2019
2028
2038
2043
2046
2046
2045
2046
2048
2051
2055
2057
2057
2055
2053
2053
2055
2056
2057
2057
2057
2057
2058
2059
2060
2061
2061
2061
2062
2063
2065
2067
2068
2068
2072
2072
2072
2071
2069
2069
2073
2079
2084
2085
2082
2078
2075
2073
2075
2073
2072
2069
2066
2062
2059
2055
2051
2048
2046
2044
2043
2041
2040
2039
2039
2039
2038
2037
2034
2032
2032
2034
2037
2040
2041
2041
2039
2034
2028
2028
2029
2036
2043
2048
2047
2042
2036
2033
2032
2036
2038
2039
2039
2039
2039
2037
2038
2040
2039
2037
2034
2031
2033
2038
2043
2046
2043
2039
2035
2031
2033
2035
2035
2035
2035
2036
2036
2036
2036
2035
2035
2035
2036
2035
2036
2035
2034
2036
2036
2036
2035
2033
2033
2033
2034
2039
2039
2038
2036
2033
2033
2034
2037
2038
2037
2035
2034
2033
2033
2034
2033
2033
2033
2034
2034
2035
2035
2035
2036
2036
2038
2038
2037
2037
2037
2038
2039
2039
2039
2038
2036
2035
2035
2035
2035
2035
2035
2035
2035
2035
2035
2035
2036
2037
2037
2036
2035
2034
2035
2040
2052
2068
2088
2104
2110
2102
2081
2052
2024
2001
1990
1989
1998
2009
2022
2032
2038
2043
2044
2045
2046
2046
2048
2048
2048
2049
2049
2050
2050
2051
2050
2053
2054
2055
2054
2053
2052
2054
2058
2062
2064
2063
2061
2061
2061
2066
2067
2067
2067
2068
2069
2071
2072
2074
2075
2075
2076
2076
2075
2075
2074
2072
2073
2072
2069
2065
2059
2054
2050
2049
2050
2050
2048
2045
2039
2035
2033
2033
2032
2032
2032
2032
2032
2032
2032
2031
2030
2030
2029
2029
2030
2030
2031
2031
2034
2033
2031
2027
2024
2025
2029
2035
2040
2041
2038
2033
2030
2028
2031
2032
2034
2033
2032
2032
2031
2031
2031
2031
2031
2031
2031
2031
2031
2031
2031
2032
2032
2032
2030
2028
2028
2029
2033
2037
2039
2038
2035
2032
2028
2030
2030
2033
2033
2033
2033
2032
2032
2031
2032
2032
2032
2032
2032
2032
2032
2030
2034
2033
2032
2032
2028
2027
2028
2033
2038
2042
2041
2038
2034
2030
2032
2033
2034
2036
2035
2034
2034
2034
2033
2034
2034
2035
2036
2036
2036
2035
2034
2036
2035
2035
2033
2032
2031
2033
2037
2041
2043
2044
2041
2038
2036
2036
2036
2036
2037
2037
2036
2035
2034
2033
2032
2033
2033
2034
2034
2035
2035
2034
2034
2034
2035
2034
2032
2031
2032
2032
2035
2039
2046
2056
2072
2088
2100
2099
2087
2061
2032
2008
1994
1992
1999
2012
2024
2033
2039
2042
2043
2043
2043
2043
2045
2045
2046
2045
2044
2044
2046
2048
2051
2052
2051
2050
2049
2048
2049
2050
2051
2051
2052
2053
2055
2056
2057
2058
2059
2060
2060
2061
2063
2064
2064
2068
2068
2068
2067
2065
2064
2066
2069
2072
2073
2071
2067
2063
2058
2058
2054
2050
2048
2045
2043
2041
2040
2038
2036
2034
2033
2032
2031
2031
2031
2029
2031
2031
2031
2030
2027
2027
2028
2031
2034
2036
2035
2032
2030
2029
2030
2031
2032
2032
2031
2031
2032
2032
2033
2033
2033
2033
2032
2032
2033
2033
2032
2031
2033
2032
2030
2027
2024
2024
2028
2033
2038
2038
2035
2031
2029
2027
2030
2030
2031
2030
2030
2031
2031
2032
2032
2032
2031
2031
2031
2031
2032
2032
2033
2035
2034
2033
2030
2029
2028
2031
2034
2037
2038
2036
2033
2032
2030
2032
2033
2033
2033
2033
2034
2034
2034
2034
2034
2035
2035
2036
2036
2036
2036
2034
2037
2038
2038
2035
2032
2029
2031
2036
2042
2045
2043
2039
2035
2032
2036
2037
2038
2038
2038
2038
2039
2040
2040
2040
2041
2041
2041
2040
2040
2039
2037
2040
2039
2039
2037
2036
2036
2037
2041
2043
2044
2042
2039
2037
2035
2037
2037
2037
2037
2039
2043
2049
2063
2080
2098
2107
2106
2088
2061
2032
2008
1996
1995
2003
2015
2027
2035
2040
2042
2043
2046
2048
2050
2050
2049
2048
2048
2048
2048
2051
2051
2051
2050
2051
2052
2053
2054
2055
2055
2056
2056
2057
2057
2059
2061
2061
2063
2062
2062
2062
2065
2069
2073
2074
2074
2073
2072
2071
2073
2073
2074
2074
2074
2074
2073
2071
2069
2066
2065
2062
2060
2054
2048
2044
2041
2047
2049
2049
2048
2039
2033
2031
2035
2040
2044
2043
2040
2037
2034
2037
2037
2037
2038
2037
2038
2038
2039
2039
2039
2039
2039
2040
2040
2041
2041
2040
2042
2043
2044
2042
2040
2039
2039
2041
2044
2046
2045
2043
2041
2040
2041
2041
2040
2040
2039
2040
2040
2040
2040
2041
2040
2041
2040
2040
2039
2039
2040
2040
2043
2042
2041
2036
2034
2034
2038
2043
2048
2048
2046
2042
2039
2037
2039
2039
2040
2040
2040
2040
2040
2041
2041
2042
2041
2040
2040
2039
2040
2039
2040
2040
2039
2039
2037
2036
2036
2038
2042
2045
2046
2044
2041
2039
2036
2039
2039
2040
2040
2041
2041
2041
2041
2041
2041
2042
2044
2045
2045
2046
2045
2044
2047
2047
2046
2043
2039
2037
2039
2044
2048
2050
2048
2044
2040
2037
2040
2041
2042
2043
2044
2044
2043
2042
2041
2040
2042
2048
2059
2077
2099
2118
2125
2118
2094
2061
2029
2004
1993
1994
2005
2019
2031
2039
2045
2048
2048
2049
2050
2051
2052
2054
2054
2055
2054
2054
2054
2053
2055
2056
2056
2057
2058
2059
2059
2060
2061
2061
2061
2061
2062
2064
2068
2071
2072
2072
2071
2071
2072
2074
2077
2078
2078
2078
2079
2079
2079
2080
2080
2079
2078
2077
2074
2071
2068
2064
2062
2058
2055
2049
2045
2042
2042
2045
2047
2046
2043
2039
2037
2034
2036
2037
2037
2037
2036
2037
2037
2037
2037
2037
2037
2037
2037
2038
2037
2037
2036
2039
2040
2040
2039
2037
2037
2039
2042
2046
2047
2044
2041
2040
2038
2041
2041
2040
2040
2039
2040
2040
2039
2039
2038
2038
2037
2037
2037
2037
2037
2037
2039
2040
2039
2039
2037
2036
2035
2037
2040
2042
2042
2041
2039
2037
2037
2037
2036
2036
2036
2037
2038
2038
2038
2037
2037
2036
2037
2037
2038
2038
2038
2037
2039
2039
2038
2035
2032
2031
2033
2038
2042
2044
2043
2040
2037
2035
2038
2038
2040
2040
2041
2041
2040
2040
2040
2039
2039
2039
2039
2038
2037
2037
2036
2038
2037
2038
2037
2035
2035
2037
2042
2045
2047
2045
2041
2038
2037
2045
2055
2074
2095
2112
2119
2110
2086
2054
2023
2001
1993
1995
2004
2016
2028
2035
2045
2048
2049
2049
2046
2042
2043
2048
2055
2061
2062
2059
2055
2050
2052
2053
2054
2057
2057
2057
2058
2059
2060
2061
2062
2064
2066
2067
2069
2070
2069
2073
2073
2073
2072
2070
2070
2071
2075
2079
2081
2081
2079
2075
2075
2074
2073
2071
2068
2065
2061
2059
2056
2052
2048
2046
2044
2041
2041
2039
2037
2036
2036
2036
2036
2035
2034
2032
2032
2033
2035
2037
2037
2036
2034
2033
2033
2034
2035
2035
2034
2034
2034
2035
2036
2036
2037
2037
2037
2037
2037
2037
2036
2036
2037
2036
2036
2034
2033
2033
2035
2038
2040
2039
2037
2035
2033
2032
2034
2033
2034
2033
2033
2033
2034
2034
2034
2034
2034
2034
2033
2033
2033
2033
2032
2033
2034
2033
2032
2029
2029
2030
2033
2037
2038
2036
2034
2032
2030
2033
2033
2033
2032
2032
2033
2033
2033
2033
2032
2032
2032
2033
2033
2033
2033
2032
2033
2034
2035
2034
2032
2031
2031
2033
2036
2037
2038
2037
2035
2034
2034
2035
2036
2037
2037
2038
2038
2037
2036
2035
2035
2035
2034
2035
2035
2035
2035
2035
2037
2036
2036
2033
2031
2031
2035
2041
2044
2044
2039
2036
2038
2048
2067
2088
2106
2111
2101
2077
2046
2016
1996
1990
1994
2005
2019
2029
2038
2043
2046
2048
2048
2048
2047
2045
2045
2048
2052
2055
2057
2056
2054
2052
2050
2053
2054
2056
2057
2057
2058
2058
2059
2060
2061
2062
2063
2065
2067
2068
2070
2070
2075
2076
2077
2075
2073
2073
2076
2083
2090
2093
2091
2084
2076
2070
2072
2075
2079
2080
2075
2069
2061
2056
2053
2052
2052
2050
2049
2048
2048
2048
2046
2047
2046
2046
2045
2044
2043
2043
2045
2048
2049
2050
2049
2048
2046
2044
2046
2046
2048
2047
2047
2048
2049
2051
2051
2051
2050
2050
2050
2049
2051
2051
2051
2051
2051
2051
2049
2048
2048
2048
2051
2053
2055
2053
2050
2048
2047
2048
2048
2048
2048
2047
2047
2048
2048
2048
2049
2050
2050
2051
2051
2051
2051
2050
2051
2050
2051
2050
2049
2048
2048
2051
2053
2055
2054
2053
2051
2050
2050
2050
2052
2052
2052
2052
2053
2053
2054
2053
2053
2053
2053
2053
2054
2054
2054
2056
2056
2056
2055
2052
2051
2051
2053
2057
2059
2059
2057
2056
2054
2055
2056
2056
2057
2057
2058
2058
2057
2057
2056
2056
2056
2056
2055
2055
2054
2053
2055
2058
2057
2057
2053
2050
2050
2054
2062
2068
2069
2065
2059
2057
2061
2077
2094
2118
2132
2134
2119
2090
2057
2029
2013
2010
2017
2029
2043
2053
2062
2067
2071
2071
2070
2068
2066
2067
2070
2075
2079
2080
2079
2076
2074
2074
2076
2075
2078
2079
2079
2078
2076
2075
2076
2078
2081
2084
2085
2086
2086
2086
2088
2091
2092
2092
2090
2089
2089
2091
2096
2100
2102
2100
2096
2093
2092
2092
2091
2089
2086
2083
2079
2076
2073
2070
2067
2065
2062
2060
2059
2059
2059
2058
2058
2057
2055
2052
2051
2050
2052
2055
2058
2060
2059
2056
2053
2051
2053
2054
2056
2055
2055
2056
2056
2056
2057
2057
2057
2058
2059
2058
2058
2057
2055
2056
2056
2057
2055
2053
2053
2054
2057
2061
2062
2061
2057
2053
2051
2051
2052
2056
2055
2054
2053
2052
2052
2054
2056
2056
2056
2054
2052
2051
2051
2053
2053
2053
2052
2049
2048
2049
2051
2055
2058
2058
2055
2052
2050
2050
2051
2053
2052
2051
2051
2051
2051
2051
2051
2051
2052
2051
2051
2050
2050
2050
2050
2050
2052
2052
2052
2050
2049
2050
2052
2056
2059
2059
2056
2051
2048
2048
2048
2049
2050
2049
2048
2048
2048
2049
2050
2050
2050
2049
2049
2049
2049
2049
2048
2048
2047
2048
2051
2060
2077
2100
2123
2136
2131
2106
2069
2033
2005
1994
1995
2004
2016
2028
2038
2046
2051
2053
2054
2054
2055
2056
2057
2057
2058
2057
2059
2061
2060
2061
2057
2054
2054
2058
2065
2071
2073
2071
2067
2064
2063
2065
2065
2068
2068
2068
2070
2071
2073
2075
2077
2078
2079
2079
2080
2081
2082
2082
2085
2084
2083
2079
2074
2071
2072
2073
2073
2069
2062
2054
2047
2044
2042
2039
2039
2037
2037
2037
2037
2036
2035
2034
2033
2034
2035
2035
2035
2034
2034
2036
2034
2036
2032
2029
2028
2031
2038
2045
2048
2046
2039
2033
2029
2030
2032
2036
2037
2036
2036
2036
2036
2037
2038
2038
2039
2038
2037
2036
2036
2036
2038
2039
2038
2035
2033
2032
2036
2043
2048
2050
2048
2043
2039
2035
2037
2039
2042
2043
2043
2044
2043
2043
2043
2044
2045
2047
2049
2049
2049
2048
2047
2048
2048
2048
2047
2044
2040
2039
2043
2048
2053
2055
2053
2050
2048
2046
2046
2045
2043
2041
2039
2038
2037
2038
2040
2043
2046
2048
2048
2047
2046
2045
2045
2047
2047
2046
2045
2043
2042
2043
2046
2048
2049
2049
2048
2052
2064
2082
2102
2112
2108
2088
2058
2026
2003
1994
1997
2009
2024
2037
2047
2053
2057
2059
2061
2061
2061
2060
2059
2059
2060
2063
2066
2068
2067
2066
2065
2065
2067
2069
2070
2070
2070
2070
2070
2071
2072
2074
2075
2077
2078
2080
2081
2083
2084
2089
2091
2092
2091
2089
2088
2090
2094
2098
2100
2097
2093
2090
2085
2084
2082
2078
2073
2069
2066
2063
2060
2056
2055
2053
2052
2048
2044
2041
2041
2044
2050
2055
2054
2049
2043
2038
2040
2045
2052
2054
2053
2050
2047
2044
2044
2046
2046
2047
2047
2047
2047
2046
2045
2045
2044
2044
2044
2044
2044
2045
2045
2044
2046
2046
2044
2041
2038
2038
2043
2048
2054
2055
2053
2049
2047
2046
2048
2048
2046
2043
2041
2040
2039
2040
2040
2042
2045
2048
2051
2053
2055
2055
2054
2056
2055
2054
2052
2049
2050
2054
2059
2064
2065
2062
2058
2055
2052
2055
2055
2056
2057
2058
2059
2060
2061
2061
2062
2063
2062
2060
2058
2057
2057
2058
2058
2058
2058
2057
2056
2056
2058
2061
2064
2065
2065
2064
2063
2062
2063
2064
2064
2064
2068
2076
2089
2106
2123
2132
2128
2109
2079
2047
2022
2010
2012
2026
2042
2055
2064
2070
2074
2078
2081
2083
2083
2080
2077
2076
2075
2076
2077
2078
2078
2078
2080
2081
2081
2082
2082
2085
2089
2093
2095
2095
2094
2093
2094
2095
2099
2099
2099
2100
2102
2106
2110
2113
2114
2114
2114
2114
2116
2117
2118
2118
2117
2115
2113
2110
2106
2102
2098
2095
2091
2088
2084
2080
2075
2073
2072
2069
2066
2063
2060
2060
2061
2064
2064
2063
2060
2059
2059
2060
2064
2064
2064
2064
2064
2064
2063
2063
2062
2062
2061
2061
2061
2061
2060
2061
2061
2064
2064
2063
2060
2057
2057
2060
2064
2067
2066
2062
2058
2055
2053
2054
2053
2053
2052
2051
2052
2052
2052
2052
2051
2050
2051
2051
2051
2051
2050
2049
2050
2052
2052
2050
2046
2043
2042
2044
2048
2049
2048
2046
2042
2040
2039
2041
2042
2043
2045
2045
2046
2045
2044
2044
2043
2041
2039
2038
2037
2037
2037
2035
2036
2036
2034
2030
2025
2023
2025
2030
2034
2034
2029
2023
2018
2015
2018
2018
2019
2018
2017
2016
2016
2016
2015
2015
2015
2014
2013
2011
2012
2016
2023
2041
2058
2075
2079
2068
2044
2012
1984
1965
1959
1963
1973
1985
1995
2006
2010
2012
2012
2011
2011
2011
2010
2010
2010
2010
2010
2010
2010
2010
2010
2010
2011
2011
2011
2009
2008
2007
2008
2009
2010
2010
2009
2007
2005
2003
2004
2005
2006
2006
2007
2007
2008
2008
2008
2009
2009
2010
2011
2013
2014
2013
2011
2009
2006
2001
1997
1991
1987
1984
1983
1981
1979
1975
1970
1966
1963
1962
1962
1962
1962
1962
1963
1963
1962
1960
1958
1957
1956
1956
1955
1953
1950
1949
1949
1952
1958
1960
1962
1964
1964
1966
1968
1970
1970
1970
1969
1970
1971
1973
1974
1974
1974
1974
1975
1975
1976
1976
1976
1977
1977
1977
1977
1977
1976
1975
1978
1978
1978
1978
1977
1978
1980
1982
1984
1984
1984
1983
1984
1984
1988
1988
1988
1989
1990
1991
1992
1993
1994
1995
1995
1996
1996
1996
1996
1996
1995
1998
1999
1999
1998
1997
1997
2000
2005
2010
2013
2014
2013
2014
2014
2018
2019
2019
2019
2019
2020
2020
2022
2024
2025
2026
2027
2026
2025
2025
2026
2027
2030
2033
2032
2033
2029
2028
2030
2035
2044
2053
2064
2078
2093
2107
2113
2107
2083
2054
2024
2003
1996
2000
2011
2025
2038
2048
2055
2060
2062
2063
2065
2067
2069
2069
2069
2067
2066
2069
2075
2081
2086
2086
2084
2082
2080
2083
2086
2087
2089
2090
2092
2094
2097
2100
2101
2100
2099
2098
2099
2102
2106
2109
2113
2115
2116
2116
2115
2115
2116
2119
2122
2124
2124
2121
2118
2115
2113
2111
2108
2106
2103
2101
2100
2099
2098
2097
2097
2096
2096
2095
2095
2096
2096
2096
2098
2098
2098
2096
2095
2095
2098
2103
2107
2109
2107
2105
2103
2103
2106
2107
2109
2110
2110
2111
2111
2112
2112
2112
2112
2113
2113
2113
2113
2113
2112
2113
2113
2113
2112
2112
2113
2114
2117
2120
2120
2116
2110
2106
2106
2112
2117
2121
2119
2115
2109
2108
2107
2108
2109
2108
2109
2110
2111
2111
2110
2109
2109
2109
2110
2111
2110
2109
2111
2114
2117
2120
2119
2117
2114
2112
2112
2112
2113
2112
2110
2108
2107
2106
2106
2107
2107
2108
2108
2109
2109
2110
2111
2112
2113
2114
2114
2113
2112
2113
2114
2116
2117
2115
2112
2112
2118
2131
2152
2175
2191
2192
2176
2147
2113
2083
2066
2061
2067
2078
2091
2102
2111
2118
2120
2123
2122
2122
2121
2120
2121
2123
2126
2128
2129
2128
2127
2125
2123
2125
2126
2127
2127
2127
2127
2128
2129
2131
2132
2133
2133
2133
2134
2135
2136
2136
2139
2142
2142
2143
2139
2136
2135
2137
2143
2148
2150
2148
2144
2138
2135
2134
2131
2130
2127
2124
2122
2119
2117
2115
2113
2111
2109
2107
2107
2106
2106
2106
2106
2105
2104
2101
2099
2098
2101
2105
2108
2109
2107
2104
2101
2100
2101
2100
2101
2102
2102
2102
2102
2102
2101
2100
2099
2099
2099
2099
2100
2101
2099
2101
2099
2100
2095
2090
2088
2090
2096
2103
2107
2105
2099
2093
2087
2089
2090
2094
2094
2094
2094
2093
2092
2092
2093
2095
2096
2097
2097
2097
2098
2098
2098
2097
2096
2093
2091
2090
2091
2094
2095
2096
2095
2094
2093
2092
2095
2097
2100
2100
2101
2101
2101
2101
2101
2100
2099
2097
2095
2093
2093
2092
2092
2092
2091
2091
2088
2087
2088
2090
2093
2094
2094
2092
2089
2087
2086
2086
2086
2085
2086
2090
2099
2116
2135
2152
2159
2150
2126
2093
2061
2039
2029
2031
2042
2056
2069
2079
2084
2087
2089
2093
2097
2100
2100
2098
2094
2092
2093
2094
2096
2097
2097
2097
2098
2098
2099
2099
2099
2098
2098
2098
2097
2096
2094
2095
2097
2098
2099
2099
2100
2102
2106
2110
2112
2111
2108
2106
2105
2104
2105
2104
2102
2100
2099
2097
2095
2093
2091
2089
2086
2083
2081
2079
2076
2074
2071
2070
2069
2067
2065
2064
2066
2069
2074
2077
2078
2076
2074
2072
2071
2072
2072
2071
2071
2070
2070
2070
2070
2071
2072
2073
2074
2073
2072
2070
2068
2066
2068
2069
2070
2071
2067
2063
2061
2063
2067
2072
2073
2071
2067
2063
2062
2062
2064
2066
2067
2067
2068
2071
2074
2078
2081
2082
2081
2079
2077
2076
2076
2077
2077
2074
2070
2065
2060
2059
2062
2066
2068
2067
2064
2061
2058
2058
2060
2060
2060
2059
2058
2058
2058
2059
2058
2058
2059
2059
2061
2061
2062
2062
2062
2068
2067
2068
2064
2060
2058
2061
2067
2071
2072
2068
2062
2057
2052
2053
2053
2055
2055
2056
2057
2058
2058
2059
2060
2061
2060
2058
2056
2057
2064
2076
2094
2111
2124
2122
2108
2081
2051
2029
2015
2013
2018
2028
2037
2044
2050
2054
2057
2057
2057
2057
2057
2055
2053
2051
2050
2049
2049
2051
2052
2054
2055
2057
2058
2058
2058
2057
2057
2059
2061
2063
2063
2062
2059
2058
2058
2058
2060
2061
2062
2063
2064
2065
2065
2066
2067
2069
2070
2070
2069
2068
2067
2066
2065
2063
2063
2061
2058
2055
2052
2050
2049
2049
2048
2044
2040
2037
2035
2035
2036
2036
2036
2036
2035
2035
2036
2037
2038
2040
2040
2039
2039
2039
2039
2038
2041
2040
2040
2039
2039
2039
2041
2043
2043
2042
2040
2039
2038
2037
2040
2039
2038
2037
2036
2036
2036
2037
2038
2040
2042
2043
2044
2045
2045
2045
2045
2047
2048
2047
2045
2042
2040
2041
2044
2047
2048
2048
2046
2043
2041
2043
2044
2045
2046
2047
2047
2047
2047
2047
2047
2047
2045
2043
2042
2042
2042
2043
2046
2048
2047
2047
2043
2043
2044
2048
2052
2054
2052
2048
2045
2042
2042
2043
2043
2044
2044
2045
2046
2045
2046
2045
2045
2042
2040
2039
2041
2045
2049
2051
2050
2048
2047
2052
2069
2091
2112
2118
2107
2081
2048
2018
1998
1995
2002
2013
2026
2037
2046
2051
2053
2055
2055
2055
2055
2056
2057
2058
2059
2059
2060
2062
2062
2063
2058
2055
2054
2058
2066
2074
2079
2078
2074
2069
2066
2070
2071
2075
2077
2078
2079
2080
2081
2082
2083
2083
2084
2084
2084
2085
2086
2086
2089
2089
2087
2084
2080
2078
2079
2081
2081
2078
2072
2066
2061
2057
2056
2055
2054
2054
2052
2052
2052
2051
2050
2049
2048
2049
2050
2052
2053
2053
2052
2054
2053
2054
2054
2053
2054
2056
2060
2063
2066
2065
2063
2060
2059
2060
2060
2061
2061
2062
2062
2063
2062
2062
2063
2062
2062
2061
2062
2063
2064
2066
2066
2066
2066
2065
2064
2063
2066
2067
2069
2071
2072
2071
2069
2068
2068
2069
2070
2071
2071
2071
2071
2072
2073
2074
2075
2077
2078
2079
2080
2081
2082
2083
2085
2086
2086
2084
2083
2082
2084
2087
2090
2091
2090
2089
2088
2088
2091
2093
2094
2094
2095
2095
2095
2095
2096
2098
2099
2100
2100
2099
2101
2106
2117
2137
2158
2174
2178
2165
2139
2108
2081
2064
2059
2062
2071
2082
2093
2103
2110
2113
2114
2115
2116
2118
2120
2120
2120
2120
2120
2120
2121
2122
2124
2125
2128
2129
2130
2131
2129
2127
2128
2132
2138
2143
2145
2144
2141
2139
2140
2143
2145
2147
2147
2147
2147
2148
2148
2148
2149
2149
2149
2149
2149
2149
2149
2147
2148
2144
2139
2131
2125
2122
2124
2129
2132
2131
2125
2118
2112
2109
2111
2111
2112
2112
2112
2112
2111
2111
2110
2111
2112
2113
2114
2114
2114
2114
2113
2115
2113
2112
2110
2109
2109
2112
2116
2119
2119
2116
2112
2108
2105
2108
2109
2111
2111
2112
2111
2110
2110
2109
2109
2109
2109
2109
2109
2109
2108
2106
2109
2108
2108
2106
2103
2100
2101
2105
2110
2113
2111
2108
2104
2102
2104
2105
2106
2105
2104
2103
2102
2101
2101
2100
2100
2101
2101
2100
2099
2097
2095
2097
2097
2096
2095
2093
2094
2096
2101
2105
2105
2103
2100
2097
2095
2095
2095
2095
2095
2094
2093
2093
2092
2092
2093
2094
2095
2094
2093
2092
2092
2093
2095
2094
2092
2090
2091
2097
2111
2131
2152
2166
2166
2150
2120
2085
2057
2041
2039
2046
2058
2071
2082
2090
2094
2097
2097
2097
2097
2097
2096
2095
2094
2095
2096
2096
2096
2094
2094
2095
2097
2099
2100
2100
2098
2097
2097
2098
2100
2100
2101
2100
2101
2101
2102
2104
2104
2105
2105
2105
2104
2105
2105
2106
2107
2109
2109
2109
2106
2103
2102
2102
2102
2102
2099
2095
2089
2084
2081
2078
2075
2073
2070
2069
2068
2067
2066
2065
2064
2063
2062
2061
2060
2059
2058
2057
2058
2059
2059
2057
2055
2053
2054
2057
2062
2065
2065
2063
2059
2057
2056
2058
2058
2058
2058
2057
2057
2058
2058
2059
2059
2059
2058
2059
2059
2060
2061
2061
2063
2063
2060
2057
2054
2055
2060
2067
2072
2072
2067
2061
2055
2052
2053
2053
2054
2053
2054
2054
2054
2054
2054
2055
2055
2055
2054
2054
2054
2054
2053
2055
2054
2053
2050
2048
2047
2048
2052
2056
2058
2058
2056
2055
2053
2057
2057
2058
2057
2056
2055
2054
2054
2053
2053
2052
2051
2050
2050
2051
2051
2050
2052
2051
2052
2050
2049
2048
2050
2053
2056
2060
2064
2072
2087
2104
2120
2124
2111
2085
2052
2023
2004
1998
2002
2014
2027
2039
2048
2054
2057
2058
2058
2059
2060
2060
2060
2059
2060
2061
2064
2066
2067
2066
2065
2064
2064
2066
2067
2068
2068
2068
2068
2068
2069
2070
2070
2071
2071
2071
2071
2072
2072
2074
2075
2077
2078
2076
2075
2074
2076
2079
2080
2079
2074
2070
2068
2069
2072
2073
2069
2063
2056
2051
2049
2049
2049
2048
2046
2046
2045
2044
2044
2043
2042
2042
2042
2043
2043
2042
2042
2043
2044
2045
2046
2044
2042
2040
2039
2039
2041
2042
2043
2042
2042
2042
2041
2041
2040
2040
2039
2039
2038
2037
2038
2038
2038
2041
2039
2037
2034
2034
2038
2043
2047
2047
2044
2040
2037
2037
2036
2038
2037
2037
2037
2037
2038
2038
2038
2038
2038
2037
2037
2036
2036
2035
2035
2034
2035
2035
2036
2035
2032
2029
2029
2033
2039
2043
2043
2040
2035
2031
2031
2032
2033
2034
2033
2033
2033
2034
2034
2034
2033
2033
2033
2033
2034
2035
2037
2037
2039
2039
2038
2035
2032
2031
2033
2037
2041
2041
2039
2035
2030
2026
2028
2028
2029
2029
2028
2028
2028
2029
2029
2030
2031
2031
2031
2030
2030
2031
2036
2048
2061
2079
2091
2093
2083
2062
2038
2014
1995
1985
1984
1991
2000
2013
2022
2029
2032
2032
2032
2033
2032
2032
2032
2032
2033
2033
2033
2033
2034
2033
2038
2041
2043
2042
2036
2032
2032
2038
2047
2054
2056
2052
2047
2042
2042
2045
2047
2049
2049
2050
2051
2052
2053
2053
2053
2053
2054
2054
2054
2053
2052
2051
2052
2050
2048
2041
2036
2033
2034
2038
2040
2037
2031
2024
2019
2017
2018
2019
2019
2017
2016
2016
2016
2017
2017
2017
2018
2017
2019
2018
2016
2015
2014
2016
2018
2019
2017
2014
2013
2014
2019
2023
2025
2022
2019
2016
2015
2017
2018
2018
2016
2016
2015
2014
2014
2015
2016
2016
2015
2015
2014
2013
2013
2013
2014
2014
2014
2011
2009
2007
2008
2012
2015
2017
2015
2011
2008
2006
2008
2009
2010
2009
2009
2009
2009
2009
2010
2010
2009
2008
2007
2007
2007
2008
2008
2008
2008
2008
2006
2004
2003
2004
2007
2010
2013
2012
2009
2006
2004
2005
2006
2007
2007
2006
2006
2006
2007
2008
2009
2010
2010
2009
2008
2008
2007
2006
2008
2010
2012
2013
2011
2008
2007
2010
2015
2019
2019
2017
2012
2009
2008
2008
2008
2008
2007
2007
2008
2008
2009
2010
2009
2009
2008
2007
2008
2008
2008
2008
2009
2009
2012
2018
2031
2050
2072
2085
2084
2065
2033
1998
1970
1957
1960
1970
1986
2000
2011
2018
2021
2022
2021
2021
2021
2022
2024
2025
2026
2025
2027
2030
2030
2030
2027
2024
2025
2028
2034
2039
2041
2038
2034
2031
2030
2033
2035
2038
2040
2041
2042
2042
2042
2044
2046
2048
2048
2048
2045
2043
2043
2044
2047
2048
2050
2048
2044
2041
2040
2042
2045
2046
2042
2033
2024
2018
2016
2016
2017
2016
2014
2012
2011
2011
2011
2011
2011
2011
2011
2011
2012
2012
2012
2012
2012
2011
2009
2008
2008
2010
2014
2016
2016
2015
2013
2012
2012
2012
2012
2012
2011
2010
2009
2009
2009
2009
2009
2009
2009
2009
2008
2008
2007
2006
2005
2004
2005
2005
2006
2007
2006
2006
2007
2007
2007
2007
2006
2005
2004
2005
2006
2005
2005
2005
2005
2006
2007
2007
2008
2008
2008
2008
2008
2007
2007
2006
2007
2007
2007
2005
2004
2004
2006
2009
2012
2012
2010
2007
2005
2004
2006
2007
2008
2008
2008
2008
2007
2006
2005
2005
2004
2004
2004
2005
2005
2005
2006
2009
2009
2009
2008
2007
2007
2009
2011
2012
2011
2009
2008
2007
2007
2009
2007
2006
2005
2005
2005
2006
2006
2006
2007
2007
2008
2008
2008
2007
2005
2003
2005
2011
2021
2037
2053
2070
2078
2074
2056
2028
1997
1972
1960
1960
1970
1983
1995
2004
2010
2014
2016
2017
2017
2018
2018
2018
2019
2019
2020
2021
2023
2023
2026
2026
2026
2024
2022
2023
2026
2031
2035
2038
2038
2038
2037
2036
2039
2040
2041
2042
2044
2045
2047
2048
2048
2047
2043
2041
2043
2048
2054
2058
2056
2053
2048
2043
2039
2036
2035
2033
2034
2035
2033
2029
2023
2018
2014
2015
2014
2014
2013
2012
2011
2011
2010
2010
2010
2010
2010
2010
2010
2010
2010
2009
2011
2011
2012
2011
2008
2005
2006
2010
2016
2021
2021
2017
2013
2010
2012
2014
2017
2018
2017
2017
2016
2016
2015
2014
2014
2013
2014
2014
2013
2013
2012
2012
2014
2013
2013
2011
2010
2011
2015
2019
2021
2020
2017
2015
2013
2013
2014
2014
2015
2014
2015
2015
2015
2015
2016
2016
2016
2016
2015
2015
2015
2014
2014
2014
2014
2014
2013
2014
2015
2018
2021
2022
2021
2018
2015
2013
2013
2015
2016
2016
2015
2015
2015
2015
2015
2015
2015
2015
2016
2016
2016
2016
2014
2016
2017
2017
2017
2016
2016
2017
2019
2021
2022
2022
2020
2018
2017
2019
2021
2023
2024
2023
2023
2023
2022
2022
2021
2021
2021
2021
2021
2021
2020
2019
2019
2019
2020
2021
2021
2021
2022
2023
2025
2027
2027
2025
2023
2022
2022
2022
2023
2028
2037
2051
2069
2085
2091
2084
2063
2035
2006
1985
1976
1979
1989
2002
2014
2023
2029
2030
2029
2027
2027
2030
2034
2037
2038
2037
2034
2033
2033
2034
2034
2035
2036
2038
2040
2041
2042
2043
2043
2044
2045
2046
2047
2048
2049
2050
2053
2054
2054
2052
2051
2052
2055
2060
2065
2067
2066
2063
2061
2059
2060
2060
2061
2060
2058
2056
2053
2050
2047
2044
2041
2038
2036
2034
2033
2031
2028
2028
2026
2025
2022
2020
2019
2021
2024
2027
2028
2027
2023
2020
2018
2020
2021
2023
2023
2024
2025
2026
2026
2026
2026
2026
2026
2026
2027
2027
2028
2026
2028
2028
2028
2026
2023
2020
2020
2025
2030
2036
2036
2031
2025
2019
2018
2019
2022
2024
2024
2024
2023
2023
2023
2023
2023
2022
2021
2021
2022
2022
2022
2022
2023
2022
2022
2020
2019
2020
2024
2027
2028
2027
2024
2022
2020
2019
2020
2020
2021
2022
2022
2022
2022
2022
2021
2022
2022
2022
2023
2024
2024
2024
2023
2023
2023
2022
2021
2021
2021
2023
2026
2028
2028
2026
2023
2021
2022
2023
2023
2023
2022
2022
2022
2023
2024
2025
2026
2028
2029
2030
2030
2029
2028
2028
2028
2027
2027
2026
2025
2024
2025
2026
2028
2028
2026
2024
2022
2022
2023
2024
2025
2025
2025
2025
2024
2023
2024
2027
2035
2048
2066
2084
2096
2095
2080
2053
2024
1997
1981
1977
1983
1996
2011
2023
2032
2035
2035
2034
2033
2034
2036
2037
2037
2038
2038
2039
2040
2041
2042
2042
2043
2043
2044
2045
2046
2046
2048
2049
2050
2050
2048
2048
2048
2052
2057
2062
2064
2063
2061
2059
2059
2061
2062
2064
2064
2065
2065
2066
2066
2066
2065
2064
2062
2061
2058
2056
2052
2049
2047
2044
2039
2034
2031
2030
2033
2036
2037
2036
2032
2028
2024
2024
2025
2026
2026
2026
2026
2026
2026
2026
2026
2026
2026
2026
2026
2026
2027
2027
2027
2031
2031
2030
2027
2024
2023
2027
2033
2038
2039
2035
2029
2025
2023
2025
2026
2026
2026
2026
2026
2025
2025
2024
2024
2025
2025
2025
2025
2025
2025
2025
2027
2026
2023
2020
2017
2017
2020
2027
2032
2033
2030
2026
2022
2020
2021
2022
2022
2022
2021
2022
2022
2023
2023
2023
2022
2022
2023
2023
2023
2023
2023
2024
2024
2023
2022
2020
2020
2022
2025
2028
2028
2026
2024
2022
2022
2022
2023
2024
2024
2024
2024
2023
2024
2024
2024
2025
2025
2025
2025
2024
2024
2023
2023
2023
2023
2025
2025
2025
2025
2025
2027
2030
2032
2031
2028
2026
2024
2025
2025
2027
2026
2025
2025
2025
2026
2026
2027
2027
2028
2028
2029
2029
2029
2027
2027
2026
2029
2034
2048
2067
2089
2102
2101
2083
2055
2027
2004
1990
1988
1991
1999
2008
2019
2027
2033
2035
2035
2036
2036
2037
2038
2039
2039
2040
2040
2043
2044
2045
2045
2045
2046
2048
2051
2053
2053
2053
2053
2053
2053
2055
2055
2055
2056
2057
2058
2059
2060
2061
2062
2063
2064
2065
2065
2065
2066
2066
2068
2068
2067
2066
2062
2059
2058
2059
2060
2058
2053
2047
2040
2035
2032
2031
2030
2029
2028
2027
2027
2027
2027
2026
2025
2025
2024
2024
2024
2025
2026
2027
2028
2027
2028
2025
2022
2020
2022
2026
2031
2034
2034
2032
2029
2027
2028
2028
2030
2030
2030
2030
2030
2030
2030
2029
2028
2026
2026
2026
2026
2026
2025
2027
2026
2027
2023
2020
2018
2020
2026
2032
2035
2032
2026
2021
2018
2020
2024
2025
2026
2026
2026
2025
2025
2024
2024
2024
2024
2024
2024
2024
2024
2023
2025
2024
2024
2023
2023
2022
2023
2024
2026
2027
2027
2025
2024
2023
2024
2024
2026
2026
2026
2026
2026
2026
2026
2026
2026
2027
2028
2029
2030
2030
2029
2029
2028
2028
2026
2026
2026
2028
2030
2033
2033
2031
2029
2028
2027
2027
2028
2029
2028
2028
2028
2028
2029
2029
2029
2030
2031
2032
2032
2032
2031
2029
2030
2029
2027
2028
2026
2025
2025
2027
2029
2031
2032
2030
2028
2027
2027
2028
2029
2031
2030
2029
2027
2027
2031
2039
2053
2072
2091
2103
2101
2083
2054
2022
1998
1983
1980
1986
1998
2011
2024
2034
2039
2039
2036
2034
2033
2033
2036
2037
2037
2037
2038
2038
2039
2040
2042
2043
2045
2046
2046
2046
2045
2046
2047
2048
2050
2051
2050
2049
2049
2051
2055
2059
2061
2060
2059
2059
2060
2062
2063
2065
2064
2065
2065
2066
2066
2066
2065
2063
2060
2057
2053
2050
2047
2044
2043
2040
2037
2033
2028
2026
2026
2027
2030
2031
2029
2026
2023
2020
2021
2020
2020
2020
2021
2021
2022
2022
2022
2023
2024
2024
2024
2023
2023
2023
2024
2024
2026
2026
2025
2023
2021
2021
2024
2028
2031
2032
2031
2028
2025
2022
2023
2023
2024
2024
2024
2024
2023
2023
2023
2022
2022
2022
2023
2023
2025
2025
2024
2026
2025
2025
2023
2022
2022
2023
2027
2030
2032
2030
2027
2025
2022
2025
2025
2026
2026
2027
2027
2027
2027
2027
2027
2027
2027
2027
2027
2027
2027
2027
2029
2030
2032
2029
2026
2022
2022
2027
2034
2041
2041
2036
2030
2024
2024
2026
2030
2031
2031
2031
2031
2031
2030
2030
2030
2030
2031
2032
2033
2033
2033
2034
2035
2034
2034
2032
2031
2032
2035
2038
2039
2038
2034
2031
2030
2030
2032
2032
2033
2034
2033
2033
2033
2034
2034
2034
2033
2033
2033
2035
2041
2051
2067
2088
2105
2112
2102
2076
2043
2013
1995
1990
1994
2004
2014
2022
2028
2035
2039
2042
2041
2041
2041
2041
2042
2043
2045
2046
2046
2047
2047
2048
2048
2048
2049
2050
2052
2052
2052
2053
2054
2058
2061
2063
2062
2060
2059
2058
2061
2063
2064
2064
2065
2066
2067
2068
2070
2072
2073
2075
2076
2076
2075
2073
2071
2070
2068
2064
2059
2053
2049
2047
2046
2045
2044
2042
2039
2035
2033
2032
2031
2031
2030
2029
2029
2030
2030
2030
2030
2029
2028
2028
2028
2029
2028
2028
2029
2029
2029
2029
2028
2027
2027
2028
2031
2033
2035
2034
2032
2030
2030
2030
2030
2031
2031
2031
2031
2031
2030
2030
2029
2028
2027
2026
2026
2026
2027
2027
2027
2027
2025
2023
2021
2021
2024
2027
2030
2032
2031
2029
2025
2022
2023
2023
2023
2024
2024
2024
2024
2025
2025
2025
2025
2025
2025
2024
2024
2023
2024
2026
2024
2023
2020
2018
2019
2021
2026
2029
2030
2028
2025
2022
2021
2023
2024
2024
2024
2022
2023
2023
2023
2020
2017
2016
2017
2021
2026
2029
2027
2021
2020
2018
2019
2022
2020
2018
2018
2022
2028
2033
2034
2030
2023
2016
2013
2013
2016
2019
2018
2017
2017
2017
2016
2015
2015
2015
2015
2016
2016
2016
2016
2015
2013
2013
2013
2017
2028
2045
2066
2085
2091
2080
2055
2022
1991
1971
1965
1969
1981
1994
2005
2013
2017
2019
2020
2021
2022
2023
2023
2023
2023
2023
2023
2024
2024
2024
2023
2024
2025
2026
2029
2030
2032
2033
2033
2034
2034
2034
2035
2036
2035
2037
2038
2038
2039
2041
2042
2044
2046
2046
2047
2047
2047
2048
2049
2049
2050
2048
2047
2045
2044
2043
2040
2036
2031
2025
2020
2017
2016
2014
2012
2010
2009
2008
2008
2008
2009
2009
2009
2009
2009
2009
2009
2009
2009
2010
2011
2011
2010
2009
2008
2010
2013
2016
2018
2017
2016
2015
2016
2017
2019
2020
2021
2021
2022
2022
2023
2023
2024
2025
2026
2026
2027
2028
2029
2030
2030
2032
2033
2034
2034
2034
2035
2037
2040
2040
2040
2039
2038
2039
2040
2042
2043
2043
2043
2044
2044
2045
2046
2046
2047
2047
2048
2048
2049
2050
2051
2052
2053
2054
2054
2053
2052
2053
2057
2061
2064
2066
2066
2064
2062
2060
2063
2064
2066
2067
2068
2069
2069
2069
2068
2069
2068
2068
2069
2070
2071
2072
2071
2073
2073
2074
2072
2072
2073
2077
2081
2085
2087
2086
2083
2081
2079
2082
2084
2086
2086
2086
2086
2086
2085
2085
2085
2086
2087
2087
2088
2088
2088
2087
2089
2090
2090
2090
2087
2084
2085
2092
2105
2123
2142
2159
2169
2168
2154
2129
2097
2069
2050
2046
2050
2063
2076
2086
2095
2100
2104
2105
2106
2107
2108
2110
2110
2109
2108
2108
2108
2110
2114
2118
2120
2119
2116
2115
2114
2115
2118
2119
2120
2121
2122
2123
2123
2124
2125
2127
2129
2130
2132
2133
2134
2134
2135
2137
2138
2137
2136
2135
2135
2138
2140
2140
2137
2133
2128
2125
2124
2123
2119
2115
2110
2106
2104
2104
2102
2101
2101
2100
2099
2098
2097
2096
2095
2095
2096
2097
2097
2095
2092
2090
2090
2092
2094
2097
2097
2096
2094
2091
2091
2091
2092
2091
2091
2092
2093
2094
2094
2094
2094
2093
2092
2092
2092
2092
2093
2094
2095
2094
2092
2090
2091
2092
2095
2097
2096
2094
2090
2087
2086
2087
2087
2088
2087
2087
2086
2086
2087
2088
2088
2088
2088
2088
2088
2088
2088
2088
2088
2090
2089
2088
2087
2086
2088
2090
2093
2093
2090
2085
2081
2080
2080
2081
2081
2080
2081
2081
2081
2080
2079
2078
2078
2079
2079
2080
2080
2079
2078
2078
2078
2078
2079
2077
2075
2075
2077
2080
2084
2085
2085
2082
2078
2074
2074
2074
2075
2074
2074
2074
2073
2074
2074
2074
2073
2073
2072
2071
2071
2071
2071
2074
2073
2072
2069
2066
2068
2075
2090
2111
2134
2152
2157
2146
2118
2087
2054
2032
2022
2022
2031
2042
2052
2061
2068
2073
2075
2076
2077
2078
2078
2077
2080
2081
2081
2082
2079
2078
2079
2083
2088
2094
2095
2092
2088
2084
2084
2086
2089
2091
2091
2092
2092
2093
2094
2094
2095
2097
2099
2100
2102
2103
2104
2105
2107
2106
2106
2104
2103
2104
2106
2107
2107
2102
2095
2089
2083
2079
2076
2071
2068
2065
2065
2065
2065
2064
2063
2061
2059
2059
2058
2056
2056
2055
2054
2056
2057
2056
2054
2052
2052
2053
2058
2061
2060
2057
2053
2051
2051
2055
2058
2058
2057
2056
2056
2055
2057
2056
2056
2057
2057
2057
2056
2055
2055
2053
2055
2055
2055
2054
2052
2051
2052
2056
2059
2061
2059
2057
2054
2052
2054
2055
2056
2055
2055
2055
2055
2054
2054
2055
2055
2055
2055
2054
2054
2052
2051
2052
2052
2051
2051
2050
2049
2047
2047
2048
2050
2055
2059
2061
2059
2055
2050
2048
2048
2048
2051
2050
2050
2050
2050
2050
2050
2050
2050
2050
2049
2049
2049
2051
2052
2052
2051
2050
2051
2053
2055
2053
2050
2046
2042
2040
2040
2041
2040
2040
2041
2040
2041
2040
2040
2040
2039
2040
2040
2041
2041
2042
2041
2041
2040
2039
2038
2039
2044
2057
2079
2103
2118
2117
2098
2064
2028
1999
1986
1986
1997
2011
2023
2033
2039
2043
2044
2045
2045
2046
2048
2048
2049
2049
2049
2052
2052
2052
2049
2048
2048
2052
2058
2063
2065
2062
2056
2053
2051
2055
2057
2060
2062
2063
2064
2066
2067
2068
2069
2070
2071
2072
2072
2073
2074
2074
2078
2080
2079
2080
2073
2066
2062
2062
2065
2068
2065
2057
2048
2038
2034
2033
2032
2033
2031
2029
2028
2028
2027
2026
2026
2025
2026
2025
2025
2025
2024
2026
2026
2026
2024
2021
2019
2020
2024
2030
2033
2032
2028
2024
2021
2022
2023
2025
2025
2025
2025
2025
2025
2024
2024
2024
2024
2025
2025
2025
2024
2024
2023
2023
2024
2022
2021
2019
2019
2021
2025
2030
2030
2027
2023
2020
2019
2022
2025
2027
2026
2023
2021
2020
2020
2022
2023
2024
2024
2024
2023
2022
2022
2020
2021
2021
2021
2019
2018
2018
2021
2025
2028
2030
2028
2024
2022
2021
2022
2024
2024
2024
2023
2024
2024
2024
2024
2025
2024
2023
2022
2022
2022
2023
2023
2024
2024
2023
2020
2019
2019
2021
2025
2030
2032
2031
2028
2025
2024
2024
2024
2023
2021
2019
2019
2019
2020
2020
2020
2020
2020
2019
2019
2018
2017
2015
2015
2017
2019
2018
2017
2015
2015
2020
2027
2035
2047
2059
2073
2082
2078
2062
2033
2000
1976
1964
1965
1975
1989
2002
2012
2017
2020
2021
2022
2022
2023
2024
2025
2025
2025
2024
2023
2023
2026
2030
2034
2035
2034
2032
2030
2028
2030
2031
2034
2034
2035
2037
2037
2038
2039
2040
2041
2042
2044
2045
2048
2049
2050
2053
2053
2054
2053
2053
2054
2056
2059
2061
2061
2057
2051
2046
2039
2037
2034
2031
2027
2025
2022
2020
2017
2015
2013
2012
2010
2010
2010
2010
2010
2008
2010
2010
2009
2009
2007
2005
2006
2011
2016
2021
2022
2017
2012
2007
2006
2008
2010
2013
2012
2013
2013
2013
2013
2013
2013
2013
2014
2014
2015
2015
2015
2016
2015
2015
2014
2012
2012
2012
2015
2017
2018
2017
2014
2011
2010
2010
2011
2012
2012
2012
2011
2010
2009
2009
2010
2010
2010
2010
2009
2009
2009
2009
2010
2010
2010
2011
2010
2008
2008
2008
2010
2013
2015
2015
2012
2009
2007
2007
2009
2012
2013
2013
2013
2012
2012
2012
2012
2013
2014
2014
2013
2013
2013
2012
2013
2014
2015
2014
2013
2012
2013
2015
2018
2020
2019
2017
2014
2011
2012
2012
2013
2014
2014
2015
2017
2018
2019
2019
2020
2021
2021
2021
2020
2019
2019
2020
2021
2022
2022
2020
2019
2018
2020
2023
2025
2025
2024
2021
2020
2020
2021
2022
2022
2022
2021
2021
2024
2030
2044
2062
2083
2099
2102
2089
2062
2028
1998
1980
1973
1977
1988
2001
2014
2025
2033
2036
2036
2034
2032
2032
2032
2034
2034
2035
2037
2038
2040
2041
2042
2042
2042
2043
2043
2044
2045
2047
2048
2050
2052
2052
2053
2052
2050
2050
2054
2058
2063
2066
2066
2065
2063
2062
2064
2066
2069
2070
2071
2071
2071
2071
2070
2068
2066
2062
2059
2055
2051
2048
2045
2045
2042
2040
2036
2033
2032
2033
2036
2038
2039
2037
2033
2030
2026
2028
2028
2030
2030
2030
2030
2030
2030
2030
2030
2031
2032
2032
2032
2032
2031
2031
2034
2036
2036
2036
2033
2030
2030
2033
2039
2044
2045
2042
2037
2033
2033
2034
2035
2036
2036
2036
2036
2034
2031
2029
2030
2034
2039
2042
2040
2036
2032
2029
2031
2032
2033
2029
2028
2029
2032
2037
2039
2040
2036
2033
2031
2031
2033
2033
2034
2033
2032
2032
2031
2031
2031
2031
2031
2032
2032
2033
2033
2033
2032
2033
2034
2033
2033
2032
2032
2034
2036
2039
2039
2039
2037
2036
2037
2038
2039
2040
2041
2043
2042
2041
2040
2039
2039
2039
2040
2040
2040
2040
2040
2040
2041
2041
2042
2041
2041
2041
2042
2045
2046
2047
2045
2042
2040
2041
2048
2059
2078
2100
2120
2129
2120
2096
2061
2028
2004
1993
1994
2004
2016
2028
2038
2046
2052
2055
2056
2056
2057
2058
2060
2063
2066
2067
2066
2065
2065
2066
2068
2069
2070
2070
2071
2072
2074
2075
2076
2078
2079
2080
2081
2082
2084
2086
2087
2090
2090
2091
2091
2092
2095
2099
2104
2105
2105
2104
2103
2103
2102
2102
2098
2095
2092
2089
2087
2085
2083
2080
2077
2075
2072
2070
2069
2067
2066
2065
2065
2063
2061
2058
2055
2055
2058
2062
2066
2066
2063
2060
2057
2055
2058
2058
2061
2061
2062
2062
2062
2063
2062
2062
2062
2061
2062
2062
2063
2063
2062
2064
2063
2063
2061
2060
2060
2063
2066
2068
2068
2064
2061
2058
2056
2058
2058
2057
2057
2057
2056
2056
2055
2054
2054
2053
2054
2055
2056
2056
2056
2055
2057
2058
2056
2057
2052
2049
2049
2052
2059
2065
2067
2064
2059
2053
2050
2052
2053
2057
2056
2056
2056
2056
2056
2056
2057
2057
2057
2057
2057
2056
2054
2056
2054
2053
2051
2050
2050
2052
2056
2060
2062
2060
2057
2055
2053
2053
2053
2053
2052
2051
2051
2050
2050
2050
2050
2050
2051
2051
2051
2051
2051
2050
2050
2050
2051
2051
2050
2048
2049
2054
2064
2079
2097
2115
2128
2128
2111
2083
2049
2020
2003
2000
2008
2021
2033
2043
2050
2056
2059
2060
2060
2060
2061
2061
2064
2065
2065
2064
2062
2061
2062
2065
2068
2070
2069
2068
2067
2067
2070
2072
2073
2073
2074
2075
2076
2077
2078
2080
2082
2083
2085
2087
2088
2089
2090
2092
2094
2095
2094
2093
2093
2093
2095
2096
2095
2090
2084
2078
2072
2069
2066
2063
2059
2056
2054
2052
2051
2050
2049
2048
2048
2047
2047
2047
2047
2047
2046
2047
2047
2046
2046
2047
2048
2049
2052
2051
2050
2048
2048
2048
2048
2048
2047
2047
2048
2048
2048
2048
2048
2048
2048
2047
2046
2046
2046
2046
2046
2046
2047
2045
2045
2042
2040
2040
2043
2046
2048
2050
2048
2046
2043
2041
2043
2043
2044
2044
2044
2043
2043
2043
2043
2043
2042
2042
2042
2041
2043
2043
2042
2043
2042
2041
2040
2039
2039
2040
2043
2045
2047
2045
2042
2040
2037
2039
2039
2040
2040
2040
2040
2041
2041
2041
2041
2040
2040
2040
2040
2039
2039
2039
2041
2041
2043
2042
2038
2035
2033
2037
2044
2050
2052
2048
2042
2036
2036
2037
2041
2044
2043
2043
2043
2044
2044
2044
2045
2045
2046
2045
2044
2043
2042
2042
2041
2041
2039
2037
2035
2035
2038
2042
2044
2044
2041
2039
2038
2038
2038
2039
2040
2043
2049
2062
2080
2098
2111
2112
2097
2071
2040
2012
1995
1991
1998
2011
2024
2036
2043
2046
2048
2048
2050
2052
2054
2054
2053
2051
2051
2053
2054
2055
2055
2056
2057
2060
2061
2063
2063
2062
2063
2063
2063
2065
2065
2066
2068
2069
2070
2070
2068
2068
2070
2073
2077
2081
2083
2083
2082
2081
2083
2085
2088
2089
2088
2087
2086
2083
2080
2077
2073
2068
2063
2059
2055
2052
2049
2050
2048
2047
2045
2043
2043
2044
2046
2047
2046
2043
2041
2040
2040
2040
2041
2040
2040
2040
2040
2041
2042
2042
2042
2042
2043
2043
2043
2043
2043
2043
2043
2043
2044
2044
2043
2043
2043
2042
2042
2042
2044
2046
2048
2048
2047
2042
2037
2035
2035
2036
2038
2039
2039
2039
2039
2038
2037
2037
2037
2036
2036
2037
2038
2039
2038
2036
2034
2034
2036
2039
2042
2042
2041
2039
2037
2036
2037
2036
2036
2036
2037
2038
2038
2038
2038
2037
2036
2035
2035
2034
2035
2035
2034
2037
2037
2037
2035
2034
2035
2037
2041
2044
2044
2042
2038
2036
2034
2036
2037
2038
2038
2039
2039
2039
2039
2038
2038
2038
2039
2039
2039
2038
2037
2036
2037
2038
2038
2038
2033
2030
2029
2033
2040
2047
2048
2046
2040
2035
2034
2038
2040
2044
2043
2042
2041
2039
2038
2038
2038
2037
2038
2037
2037
2037
2036
2035
2035
2035
2035
2034
2033
2034
2037
2039
2040
2038
2035
2034
2038
2048
2063
2081
2100
2107
2101
2082
2052
2023
2000
1989
1990
2000
2013
2024
2033
2038
2040
2042
2043
2043
2043
2042
2041
2043
2046
2048
2048
2048
2046
2045
2044
2048
2048
2049
2048
2048
2049
2050
2052
2053
2054
2055
2056
2057
2057
2059
2059
2058
2060
2062
2063
2063
2063
2064
2065
2068
2071
2073
2073
2072
2070
2069
2069
2068
2065
2062
2059
2056
2052
2049
2046
2042
2039
2036
2033
2031
2029
2028
2026
2027
2027
2026
2024
2021
2020
2021
2023
2027
2029
2028
2026
2024
2023
2023
2023
2023
2022
2023
2024
2024
2025
2025
2025
2025
2025
2025
2025
2025
2025
2025
2025
2025
2023
2024
2022
2021
2022
2023
2026
2028
2029
2028
2025
2023
2021
2021
2021
2023
2022
2023
2023
2023
2024
2024
2023
2023
2023
2023
2023
2023
2022
2022
2021
2021
2019
2017
2016
2018
2021
2025
2027
2026
2023
2020
2018
2017
2018
2018
2019
2018
2018
2019
2019
2019
2019
2020
2020
2020
2021
2020
2021
2021
2019
2021
2020
2018
2015
2011
2011
2015
2023
2028
2029
2026
2020
2017
2016
2019
2022
2022
2022
2022
2021
2020
2019
2019
2018
2019
2019
2019
2020
2021
2023
2024
2026
2028
2026
2024
2020
2018
2019
2024
2029
2031
2029
2024
2020
2016
2017
2021
2021
2022
2022
2023
2023
2023
2023
2023
2023
2024
2024
2026
2032
2043
2058
2079
2096
2104
2096
2071
2039
2007
1985
1977
1981
1991
2002
2013
2020
2027
2031
2032
2034
2033
2033
2034
2034
2035
2035
2036
2036
2037
2038
2039
2039
2040
2039
2039
2041
2041
2042
2042
2043
2045
2048
2051
2053
2053
2052
2051
2051
2053
2055
2057
2057
2058
2059
2061
2062
2063
2063
2064
2064
2064
2065
2066
2064
2062
2061
2058
2054
2049
2044
2039
2037
2037
2037
2035
2031
2027
2023
2020
2021
2021
2021
2020
2019
2019
2018
2018
2018
2018
2018
2018
2018
2017
2017
2017
2016
2018
2019
2019
2019
2018
2017
2018
2019
2021
2021
2020
2019
2019
2020
2022
2022
2021
2020
2019
2019
2019
2019
2019
2019
2018
2018
2017
2016
2016
2015
2015
2016
2016
2015
2016
2015
2015
2015
2017
2019
2020
2020
2019
2016
2014
2013
2012
2013
2013
2014
2014
2014
2014
2014
2014
2015
2014
2014
2014
2014
2015
2015
2016
2016
2016
2016
2015
2014
2013
2015
2018
2020
2020
2018
2016
2014
2013
2013
2014
2015
2015
2015
2015
2016
2017
2017
2018
2019
2020
2021
2021
2022
2021
2019
2021
2019
2019
2016
2013
2012
2014
2018
2022
2023
2022
2018
2016
2014
2017
2019
2020
2020
2019
2018
2018
2017
2017
2020
2027
2041
2059
2079
2094
2095
2079
2051
2021
1990
1970
1964
1969
1984
2001
2018
2029
2032
2030
2027
2024
2025
2029
2030
2031
2032
2033
2034
2035
2036
2037
2038
2039
2040
2040
2040
2041
2042
2042
2046
2046
2047
2045
2044
2045
2048
2055
2060
2061
2059
2057
2056
2055
2060
2060
2064
2065
2066
2065
2062
2061
2063
2067
2071
2070
2065
2057
2049
2042
2040
2037
2035
2030
2026
2024
2023
2024
2026
2026
2024
2022
2020
2018
2018
2018
2020
2019
2018
2017
2016
2016
2018
2019
2020
2020
2019
2019
2019
2018
2019
2019
2020
2021
2022
2021
2020
2020
2022
2024
2026
2026
2025
2022
2020
2020
2020
2021
2021
2020
2019
2019
2019
2020
2020
2021
2020
2020
2020
2020
2020
2019
2019
2020
2020
2019
2017
2016
2016
2018
2022
2024
2025
2023
2020
2018
2017
2019
2019
2019
2019
2018
2018
2019
2019
2019
2020
2020
2020
2020
2021
2021
2021
2021
2021
2022
2021
2020
2020
2020
2022
2024
2026
2025
2023
2021
2020
2020
2022
2022
2021
2021
2021
2021
2022
2022
2022
2022
2022
2023
2023
2024
2025
2026
2026
2026
2026
2026
2025
2023
2021
2020
2022
2025
2028
2028
2027
2025
2023
2022
2022
2022
2023
2023
2024
2024
2024
2024
2024
2022
2023
2026
2033
2045
2061
2079
2091
2094
2080
2055
2022
1992
1976
1974
1983
1999
2012
2021
2026
2028
2028
2030
2031
2032
2033
2034
2035
2036
2036
2036
2037
2038
2039
2040
2041
2042
2043
2043
2045
2046
2045
2047
2045
2045
2046
2048
2053
2058
2059
2059
2056
2053
2053
2055
2057
2062
2062
2064
2064
2065
2066
2067
2068
2069
2070
2069
2068
2065
2062
2057
2054
2049
2047
2042
2037
2034
2033
2034
2035
2034
2031
2028
2024
2023
2023
2023
2024
2023
2023
2023
2023
2023
2023
2024
2024
2024
2025
2025
2025
2025
2024
2025
2025
2026
2025
2024
2023
2024
2028
2032
2033
2032
2029
2026
2023
2024
2025
2026
2026
2025
2025
2025
2026
2028
2029
2029
2027
2026
2025
2025
2024
2024
2026
2026
2026
2025
2023
2023
2023
2026
2029
2030
2029
2026
2024
2022
2024
2025
2025
2025
2024
2024
2024
2024
2025
2025
2025
2025
2025
2025
2024
2024
2025
2027
2028
2028
2026
2024
2023
2024
2027
2031
2033
2032
2030
2029
2027
2028
2028
2027
2028
2028
2029
2030
2030
2031
2031
2031
2031
2030
2030
2030
2030
2030
2030
2030
2030
2030
2028
2027
2028
2030
2034
2036
2036
2035
2033
2032
2032
2032
2031
2031
2030
2030
2030
2030
2030
2029
2028
2028
2027
2028
2029
2030
2030
2031
2031
2031
2031
2028
2026
2026
2029
2034
2041
2048
2059
2073
2088
2099
2099
2083
2057
2026
2000
1986
1984
1993
2005
2018
2027
2035
2039
2041
2040
2037
2036
2038
2039
2042
2042
2041
2042
2045
2049
2055
2057
2055
2051
2048
2048
2049
2050
2051
2052
2053
2054
2055
2055
2055
2056
2057
2058
2059
2060
2061
2063
2064
2067
2068
2068
2066
2064
2064
2067
2072
2077
2079
2076
2071
2066
2061
2060
2057
2053
2049
2046
2043
2040
2038
2036
2034
2032
2031
2030
2029
2029
2029
2028
2029
2028
2027
2025
2022
2021
2024
2029
2034
2037
2035
2030
2026
2023
2024
2025
2027
2028
2029
2029
2029
2029
2028
2027
2027
2028
2029
2030
2030
2029
2028
2025
2028
2027
2027
2024
2021
2020
2023
2030
2035
2036
2033
2028
2024
2021
2024
2025
2026
2025
2026
2025
2025
2024
2024
2024
2026
2027
2028
2028
2026
2025
2023
2024
2027
2027
2025
2023
2022
2024
2028
2032
2034
2032
2028
2024
2022
2023
2025
2026
2025
2025
2025
2026
2027
2027
2028
2028
2028
2028
2028
2028
2028
2028
2030
2031
2030
2029
2026
2024
2026
2030
2035
2039
2038
2035
2031
2028
2029
2029
2029
2031
2031
2032
2033
2034
2034
2035
2034
2035
2035
2034
2034
2033
2032
2033
2034
2035
2035
2032
2029
2029
2031
2035
2038
2038
2036
2032
2030
2029
2030
2031
2032
2031
2031
2031
2032
2036
2044
2057
2075
2092
2103
2100
2082
2054
2023
1998
1987
1985
1994
2006
2018
2027
2034
2040
2045
2048
2051
2050
2047
2044
2041
2041
2044
2046
2048
2048
2048
2048
2049
2049
2050
2051
2051
2052
2052
2052
2055
2055
2056
2054
2053
2053
2057
2063
2068
2071
2069
2066
2064
2062
2065
2067
2070
2071
2072
2073
2073
2073
2072
2072
2071
2068
2065
2062
2059
2057
2053
2052
2049
2046
2042
2036
2032
2031
2034
2039
2044
2044
2040
2034
2029
2028
2028
2029
2031
2031
2031
2030
2031
2030
2031
2031
2032
2032
2032
2032
2032
2032
2033
2034
2034
2033
2030
2029
2030
2033
2037
2040
2040
2036
2033
2031
2031
2032
2033
2033
2032
2032
2032
2032
2032
2032
2032
2032
2032
2032
2032
2031
2030
2030
2031
2032
2030
2027
2024
2024
2029
2037
2043
2044
2039
2033
2028
2026
2029
2032
2032
2031
2031
2032
2034
2035
2036
2035
2034
2032
2031
2030
2030
2030
2029
2032
2031
2032
2031
2029
2029
2031
2035
2037
2039
2037
2034
2032
2030
2031
2031
2032
2032
2032
2032
2032
2032
2032
2032
2032
2032
2033
2034
2035
2036
2037
2039
2040
2040
2037
2035
2034
2035
2037
2039
2040
2039
2036
2033
2032
2033
2033
2035
2035
2035
2035
2036
2036
2037
2037
2037
2036
2035
2034
2033
2035
2040
2051
2068
2089
2106
2111
2101
2079
2049
2022
2001
1991
1990
1997
2008
2020
2030
2037
2041
2042
2042
2044
2045
2046
2047
2048
2048
2048
2048
2049
2049
2049
2049
2050
2052
2052
2052
2051
2051
2054
2057
2060
2062
2061
2060
2059
2059
2060
2062
2064
2065
2067
2068
2070
2070
2071
2072
2073
2073
2074
2074
2074
2074
2073
2075
2072
2069
2063
2058
2054
2052
2052
2051
2049
2046
2041
2037
2033
2034
2034
2033
2033
2032
2032
2031
2030
2030
2030
2030
2030
2031
2031
2031
2032
2031
2033
2033
2032
2031
2031
2030
2032
2035
2038
2039
2038
2036
2034
2033
2035
2035
2035
2035
2034
2034
2034
2035
2034
2034
2034
2033
2033
2033
2033
2033
2033
2034
2034
2034
2032
2030
2029
2030
2033
2036
2038
2037
2034
2032
2030
2030
2031
2032
2033
2033
2033
2032
2032
2032
2032
2032
2032
2032
2032
2032
2032
2032
2031
2034
2034
2034
2032
2029
2028
2030
2035
2039
2041
2038
2035
2032
2029
2032
2033
2034
2034
2034
2034
2034
2035
2034
2034
2033
2033
2032
2033
2034
2034
2033
2035
2036
2037
2036
2036
2035
2036
2039
2041
2042
2040
2038
2035
2033
2035
2036
2037
2037
2036
2036
2036
2036
2037
2037
2037
2038
2037
2037
2037
2036
2035
2035
2036
2040
2046
2055
2072
2092
2107
2111
2098
2069
2035
2005
1988
1986
1995
2008
2021
2031
2039
2043
2045
2045
2046
2046
2047
2048
2048
2049
2049
2049
2050
2051
2053
2054
2053
2051
2051
2053
2057
2060
2061
2061
2059
2058
2059
2060
2062
2063
2064
2065
2067
2068
2070
2070
2071
2072
2072
2073
2074
2075
2076
2078
2078
2078
2078
2074
2071
2069
2069
2070
2070
2066
2059
2053
2047
2045
2043
2041
2040
2038
2038
2037
2036
2036
2035
2034
2034
2034
2033
2033
2033
2033
2033
2035
2034
2034
2032
2031
2031
2034
2037
2040
2040
2038
2036
2035
2034
2036
2036
2036
2036
2036
2036
2036
2036
2037
2037
2037
2036
2035
2034
2035
2037
2037
2038
2036
2033
2033
2030
2029
2031
2035
2040
2044
2044
2041
2037
2032
2031
2031
2031
2034
2034
2034
2034
2034
2033
2033
2033
2033
2033
2033
2033
2033
2033
2032
2033
2032
2032
2030
2029
2030
2033
2037
2039
2039
2037
2034
2031
2031
2033
2033
2035
2036
2036
2035
2035
2035
2035
2036
2036
2036
2036
2036
2036
2036
2034
2036
2036
2036
2034
2032
2031
2033
2037
2040
2041
2039
2035
2034
2033
2035
2039
2040
2040
2036
2033
2029
2032
2036
2041
2043
2040
2036
2032
2031
2032
2032
2035
2033
2033
2032
2031
2031
2032
2035
2038
2039
2037
2033
2031
2033
2043
2056
2074
2093
2106
2105
2089
2061
2030
2004
1989
1986
1994
2006
2018
2028
2035
2040
2043
2043
2042
2040
2040
2040
2043
2045
2048
2048
2048
2048
2048
2048
2049
2050
2050
2051
2052
2053
2054
2054
2055
2056
2057
2058
2059
2060
2060
2062
2064
2067
2068
2070
2068
2068
2069
2072
2076
2079
2080
2078
2076
2075
2075
2075
2074
2073
2071
2068
2065
2061
2059
2055
2052
2048
2045
2043
2040
2039
2038
2037
2036
2036
2034
2031
2030
2029
2031
2033
2036
2037
2036
2034
2032
2031
2032
2033
2034
2033
2034
2034
2035
2036
2036
2036
2035
2035
2035
2035
2036
2036
2036
2038
2037
2037
2034
2032
2031
2033
2036
2039
2041
2039
2036
2033
2030
2032
2032
2033
2033
2034
2034
2034
2034
2033
2032
2032
2032
2032
2032
2033
2034
2033
2035
2035
2033
2031
2029
2028
2030
2033
2036
2037
2035
2032
2030
2029
2031
2031
2031
2031
2030
2031
2031
2032
2032
2032
2032
2031
2032
2031
2032
2032
2031
2032
2031
2031
2030
2028
2028
2029
2033
2037
2039
2040
2038
2036
2035
2035
2035
2035
2036
2035
2035
2035
2035
2034
2034
2034
2034
2034
2034
2034
2034
2034
2034
2036
2036
2036
2033
2029
2028
2030
2038
2048
2061
2077
2093
2106
2110
2101
2075
2043
2011
1989
1982
1986
1998
2012
2023
2031
2037
2040
2042
2043
2044
2045
2047
2046
2046
2044
2043
2044
2047
2050
2054
2056
2056
2055
2054
2054
2057
2059
2060
2061
2062
2063
2064
2065
2066
2068
2069
2070
2071
2072
2073
2074
2074
2077
2079
2080
2079
2078
2078
2080
2084
2087
2088
2085
2080
2075
2070
2068
2064
2061
2057
2054
2052
2049
2048
2046
2044
2043
2041
2040
2039
2039
2038
2037
2037
2037
2036
2035
2033
2032
2033
2037
2041
2042
2041
2037
2034
2031
2033
2034
2035
2035
2036
2036
2037
2037
2038
2037
2037
2036
2035
2035
2035
2035
2036
2036
2037
2037
2036
2033
2032
2032
2034
2037
2039
2039
2037
2035
2034
2033
2032
2033
2033
2033
2034
2034
2035
2034
2033
2033
2033
2033
2033
2033
2033
2033
2032
2034
2034
2034
2032
2030
2030
2031
2034
2037
2039
2038
2035
2033
2030
2032
2033
2034
2035
2036
2036
2036
2035
2035
2035
2036
2035
2035
2034
2035
2035
2034
2037
2036
2035
2034
2031
2029
2029
2033
2037
2041
2042
2040
2037
2034
2035
2035
2035
2038
2037
2037
2036
2036
2035
2034
2034
2034
2035
2034
2034
2034
2033
2033
2033
2034
2033
2032
2031
2032
2035
2038
2039
2038
2035
2033
2032
2035
2044
2057
2076
2095
2108
2108
2092
2064
2032
2005
1990
1987
1994
2007
2019
2030
2036
2043
2044
2044
2042
2039
2038
2042
2048
2052
2054
2051
2048
2045
2044
2048
2048
2049
2048
2048
2049
2050
2051
2053
2055
2055
2056
2056
2057
2059
2060
2061
2065
2066
2066
2066
2066
2066
2069
2072
2075
2077
2077
2075
2074
2072
2074
2073
2072
2069
2066
2063
2060
2056
2053
2050
2048
2045
2043
2040
2038
2036
2034
2034
2034
2034
2032
2029
2028
2028
2030
2032
2034
2034
2033
2031
2030
2031
2031
2031
2031
2031
2031
2032
2033
2033
2034
2034
2034
2033
2033
2033
2033
2034
2035
2036
2037
2036
2033
2032
2031
2033
2037
2039
2039
2037
2035
2033
2033
2033
2034
2034
2034
2034
2034
2034
2035
2035
2035
2035
2034
2033
2033
2034
2035
2036
2037
2036
2035
2032
2030
2030
2034
2038
2041
2041
2037
2034
2032
2032
2033
2034
2035
2034
2035
2035
2035
2035
2035
2035
2035
2035
2036
2036
2036
2036
2038
2038
2037
2034
2031
2032
2035
2040
2044
2044
2041
2037
2034
2032
2034
2035
2036
2036
2036
2037
2037
2037
2037
2037
2037
2037
2037
2039
2040
2041
2042
2041
2043
2041
2041
2039
2038
2037
2038
2042
2044
2046
2043
2040
2036
2033
2035
2036
2037
2038
2038
2038
2038
2038
2037
2037
2037
2037
2039
2042
2050
2064
2082
2102
2113
2108
2090
2057
2026
2002
1994
1998
2009
2020
2028
2034
2039
2044
2048
2048
2049
2048
2048
2048
2049
2049
2050
2051
2051
2052
2053
2053
2054
2054
2055
2056
2057
2057
2056
2056
2056
2059
2062
2066
2067
2067
2065
2065
2064
2067
2070
2071
2072
2073
2073
2074
2075
2076
2077
2078
2079
2079
2079
2077
2075
2072
2074
2072
2069
2063
2054
2049
2048
2050
2053
2053
2049
2045
2041
2037
2038
2038
2037
2037
2037
2037
2037
2037
2037
2037
2037
2037
2037
2037
2037
2037
2036
2037
2038
2038
2038
2036
2035
2036
2038
2041
2043
2042
2040
2038
2037
2038
2038
2039
2039
2038
2038
2039
2039
2040
2039
2039
2038
2038
2039
2039
2039
2038
2037
2039
2038
2036
2033
2030
2030
2034
2040
2044
2044
2041
2036
2033
2031
2034
2033
2033
2034
2035
2036
2036
2035
2035
2036
2036
2036
2035
2035
2035
2036
2035
2035
2036
2035
2034
2032
2032
2034
2037
2040
2041
2040
2038
2035
2033
2034
2035
2037
2038
2038
2038
2038
2038
2037
2036
2036
2037
2038
2038
2039
2040
2041
2043
2043
2043
2040
2038
2036
2036
2039
2043
2044
2043
2040
2037
2035
2036
2037
2039
2039
2039
2040
2040
2041
2041
2041
2040
2039
2039
2038
2040
2045
2052
2070
2092
2112
2122
2115
2091
2059
2030
2006
1996
1995
2000
2010
2020
2030
2039
2044
2046
2047
2048
2048
2048
2048
2048
2049
2050
2051
2052
2052
2053
2053
2055
2056
2056
2056
2055
2054
2056
2060
2064
2067
2067
2066
2065
2066
2065
2068
2068
2070
2071
2072
2073
2074
2075
2076
2077
2078
2079
2079
2079
2079
2078
2078
2077
2074
2071
2066
2061
2058
2057
2056
2055
2052
2048
2042
2038
2036
2036
2036
2037
2036
2035
2035
2034
2034
2034
2034
2035
2034
2036
2035
2034
2032
2030
2034
2035
2036
2034
2031
2029
2032
2037
2041
2045
2042
2038
2035
2033
2036
2036
2036
2036
2035
2035
2036
2035
2036
2035
2035
2035
2035
2035
2034
2034
2034
2036
2036
2036
2034
2032
2031
2032
2035
2038
2039
2037
2034
2032
2032
2033
2033
2033
2033
2033
2033
2033
2033
2033
2033
2033
2034
2033
2033
2032
2033
2034
2034
2037
2036
2033
2029
2026
2028
2033
2039
2042
2041
2037
2032
2030
2028
2031
2032
2033
2034
2035
2037
2037
2038
2038
2037
2036
2035
2034
2034
2033
2034
2033
2034
2034
2033
2032
2030
2030
2031
2035
2038
2039
2038
2036
2033
2032
2031
2032
2033
2037
2046
2060
2079
2099
2109
2105
2085
2054
2022
1995
1983
1983
1992
2007
2019
2029
2034
2037
2039
2040
2043
2046
2048
2048
2046
2045
2043
2045
2046
2048
2048
2048
2049
2050
2050
2051
2052
2052
2053
2053
2054
2055
2057
2058
2060
2062
2062
2061
2061
2061
2064
2068
2072
2074
2074
2073
2072
2072
2074
2075
2075
2075
2075
2074
2071
2068
2065
2061
2058
2054
2051
2048
2045
2042
2039
2037
2036
2035
2033
2029
2027
2027
2029
2033
2034
2034
2032
2031
2030
2029
2030
2030
2030
2029
2029
2029
2029
2029
2030
2030
2031
2031
2032
2032
2032
2032
2031
2033
2032
2032
2031
2030
2029
2031
2034
2037
2037
2036
2033
2032
2030
2032
2033
2033
2033
2032
2032
2031
2031
2031
2031
2032
2032
2033
2032
2031
2030
2028
2032
2033
2035
2033
2029
2026
2026
2031
2036
2039
2039
2035
2032
2029
2031
2033
2033
2029
2025
2022
2025
2032
2040
2044
2041
2035
2029
2026
2026
2029
2030
2031
2032
2032
2031
2029
2027
2026
2028
2032
2035
2035
2033
2032
2031
2033
2034
2035
2035
2034
2034
2033
2033
2032
2032
2032
2031
2031
2031
2031
2030
2030
2030
2033
2034
2033
2030
2027
2026
2030
2036
2040
2041
2037
2035
2037
2045
2062
2082
2099
2106
2098
2076
2045
2014
1991
1983
1986
1997
2011
2024
2032
2037
2041
2042
2042
2041
2040
2040
2042
2045
2048
2051
2051
2050
2048
2047
2047
2048
2048
2050
2051
2052
2053
2054
2055
2055
2056
2057
2058
2060
2061
2063
2063
2065
2067
2067
2068
2067
2067
2069
2072
2076
2080
2081
2080
2078
2075
2074
2074
2073
2071
2068
2064
2060
2057
2053
2050
2048
2045
2043
2041
2039
2038
2037
2035
2036
2035
2034
2032
2028
2027
2029
2032
2037
2039
2038
2035
2032
2030
2031
2032
2033
2033
2033
2032
2032
2033
2033
2034
2035
2036
2036
2036
2035
2034
2034
2034
2036
2036
2034
2030
2028
2028
2034
2041
2045
2045
2040
2034
2030
2030
2032
2033
2034
2034
2034
2033
2033
2033
2033
2033
2033
2033
2033
2033
2033
2033
2032
2036
2035
2035
2032
2029
2028
2030
2036
2041
2042
2039
2035
2032
2030
2033
2033
2034
2034
2034
2033
2033
2034
2034
2035
2035
2036
2035
2035
2034
2033
2032
2032
2033
2035
2036
2037
2036
2037
2038
2041
2042
2042
2040
2037
2034
2035
2036
2036
2034
2034
2033
2033
2034
2035
2035
2035
2035
2035
2035
2035
2036
2035
2037
2038
2037
2035
2034
2038
2048
2067
2091
2113
2122
2115
2089
2054
2021
1997
1987
1989
1999
2012
2023
2032
2039
2044
2045
2046
2046
2046
2047
2047
2048
2048
2050
2052
2053
2051
2049
2048
2050
2055
2060
2063
2063
2060
2058
2057
2058
2059
2062
2063
2064
2066
2067
2068
2069
2070
2071
2071
2072
2073
2075
2077
2077
2079
2079
2080
2077
2074
2073
2075
2077
2079
2078
2072
2064
2057
2051
2050
2048
2047
2045
2043
2041
2039
2039
2037
2037
2036
2035
2035
2035
2035
2036
2035
2036
2036
2036
2033
2032
2031
2034
2039
2043
2045
2042
2039
2036
2033
2036
2038
2040
2041
2041
2041
2041
2041
2041
2041
2041
2042
2042
2042
2041
2042
2041
2042
2044
2044
2042
2038
2035
2036
2040
2046
2049
2049
2046
2042
2038
2039
2040
2041
2042
2041
2041
2041
2041
2041
2041
2042
2042
2042
2042
2042
2042
2042
2042
2045
2044
2043
2039
2037
2037
2041
2048
2053
2053
2049
2044
2040
2037
2042
2042
2043
2044
2043
2044
2044
2045
2046
2047
2048
2048
2048
2048
2048
2046
2046
2048
2048
2048
2044
2039
2038
2042
2048
2054
2055
2051
2046
2043
2041
2045
2047
2048
2048
2046
2046
2045
2047
2051
2062
2078
2098
2114
2124
2115
2091
2057
2025
2002
1994
1996
2007
2019
2033
2045
2054
2058
2059
2056
2053
2052
2054
2056
2058
2058
2058
2058
2059
2060
2061
2061
2061
2062
2062
2063
2064
2064
2064
2066
2068
2068
2067
2065
2065
2068
2073
2079
2082
2081
2078
2076
2076
2079
2081
2083
2082
2082
2083
2083
2084
2084
2083
2080
2077
2074
2069
2065
2060
2054
2051
2048
2047
2043
2037
2032
2029
2030
2034
2037
2037
2034
2029
2025
2024
2023
2021
2022
2021
2021
2021
2020
2020
2019
2018
2017
2016
2015
2015
2015
2015
2014
2014
2013
2011
2008
2005
2005
2007
2010
2012
2012
2009
2005
2002
2000
2000
1999
1999
1997
1997
1996
1995
1995
1993
1992
1990
1989
1988
1987
1987
1986
1984
1984
1982
1981
1978
1975
1974
1975
1978
1980
1981
1978
1972
1968
1965
1966
1968
1968
1968
1967
1967
1966
1965
1965
1965
1965
1965
1965
1965
1964
1961
1958
1958
1960
1965
1969
1969
1966
1962
1961
1961
1964
1963
1961
1958
1957
1958
1960
1962
1964
1965
1966
1967
1969
1969
1969
1970
1971
1973
1973
1973
1973
1972
1973
1974
1975
1975
1974
1974
1975
1978
1982
1984
1985
1985
1984
1986
1986
1990
1990
1991
1991
1994
2000
2011
2027
2047
2063
2072
2066
2047
2017
1986
1964
1956
1960
1972
1987
1998
2006
2013
2018
2023
2027
2029
2030
2029
2028
2028
2031
2033
2035
2037
2038
2040
2041
2042
2044
2046
2048
2048
2050
2052
2054
2055
2055
2060
2062
2064
2064
2064
2065
2070
2077
2084
2087
2087
2085
2084
2084
2089
2093
2096
2097
2097
2097
2096
2093
2091
2087
2084
2080
2077
2074
2071
2069
2066
2065
2064
2063
2061
2058
2056
2056
2059
2063
2066
2067
2065
2064
2064
2065
2067
2069
2070
2072
2074
2075
2077
2078
2079
2080
2081
2082
2083
2084
2085
2086
2086
2089
2090
2089
2087
2086
2086
2090
2096
2101
2102
2100
2097
2095
2093
2097
2098
2098
2098
2098
2098
2099
2099
2100
2100
2101
2101
2100
2100
2100
2099
2101
2101
2101
2101
2099
2099
2100
2102
2106
2108
2108
2107
2105
2103
2103
2104
2105
2107
2107
2108
2108
2108
2109
2108
2108
2108
2109
2110
2109
2110
2110
2110
2111
2110
2110
2108
2107
2107
2109
2112
2115
2114
2112
2109
2107
2105
2107
2109
2110
2111
2111
2111
2111
2110
2109
2108
2107
2107
2106
2105
2105
2105
2104
2106
2106
2105
2104
2101
2100
2101
2105
2109
2111
2109
2106
2104
2101
2103
2103
2103
2102
2103
2109
2120
2138
2158
2175
2180
2169
2144
2110
2079
2057
2049
2053
2066
2077
2087
2093
2097
2103
2109
2114
2115
2114
2110
2108
2107
2108
2112
2111
2112
2111
2111
2111
2111
2111
2112
2113
2115
2116
2118
2119
2120
2121
2121
2122
2122
2122
2122
2122
2123
2125
2129
2132
2134
2134
2132
2131
2130
2133
2135
2136
2136
2134
2132
2130
2128
2125
2122
2117
2113
2109
2104
2100
2096
2093
2093
2091
2089
2084
2080
2078
2079
2084
2088
2089
2086
2081
2078
2077
2078
2079
2078
2078
2076
2076
2076
2077
2078
2078
2078
2077
2076
2076
2076
2076
2076
2078
2079
2079
2078
2075
2074
2074
2076
2079
2080
2079
2076
2073
2072
2074
2074
2075
2075
2075
2075
2075
2075
2075
2075
2075
2075
2075
2075
2074
2074
2075
2075
2078
2079
2078
2074
2071
2070
2072
2078
2082
2083
2080
2075
2072
2069
2070
2071
2071
2072
2072
2072
2072
2072
2072
2072
2071
2070
2069
2070
2070
2071
2071
2071
2071
2070
2068
2066
2066
2067
2070
2072
2074
2073
2071
2069
2067
2066
2065
2066
2065
2065
2066
2066
2067
2068
2069
2069
2069
2069
2068
2068
2067
2066
2067
2065
2064
2062
2060
2059
2060
2062
2065
2066
2065
2063
2061
2059
2061
2062
2063
2062
2061
2060
2060
2062
2069
2082
2098
2117
2129
2129
2114
2086
2053
2028
2012
2010
2017
2027
2038
2049
2059
2069
2073
2072
2068
2064
2061
2063
2064
2067
2068
2068
2069
2069
2070
2071
2071
2072
2073
2074
2074
2074
2074
2075
2077
2079
2080
2080
2078
2077
2078
2082
2086
2089
2089
2087
2086
2087
2088
2092
2093
2094
2093
2092
2092
2091
2091
2091
2090
2090
2088
2085
2081
2076
2071
2069
2066
2064
2061
2057
2053
2052
2053
2055
2057
2056
2053
2049
2046
2044
2045
2047
2048
2048
2048
2048
2048
2048
2048
2048
2049
2049
2048
2048
2047
2047
2046
2048
2048
2046
2046
2041
2041
2043
2048
2052
2054
2052
2049
2047
2045
2046
2047
2046
2047
2046
2047
2047
2046
2046
2046
2046
2046
2046
2046
2046
2046
2046
2048
2048
2047
2044
2041
2039
2041
2044
2048
2049
2049
2047
2042
2038
2037
2037
2040
2045
2048
2048
2047
2043
2040
2039
2041
2043
2043
2043
2042
2042
2041
2042
2044
2043
2041
2038
2035
2037
2041
2047
2049
2048
2046
2042
2040
2039
2042
2041
2042
2042
2041
2041
2040
2040
2040
2040
2041
2041
2042
2042
2043
2044
2044
2044
2044
2042
2039
2037
2036
2037
2040
2043
2045
2044
2042
2039
2038
2038
2039
2041
2041
2041
2042
2043
2043
2042
2041
2040
2040
2043
2050
2065
2085
2107
2123
2124
2109
2078
2042
2010
1992
1989
1997
2010
2022
2031
2038
2041
2045
2047
2048
2049
2050
2050
2051
2051
2052
2053
2054
2054
2055
2056
2056
2056
2055
2057
2058
2058
2057
2057
2057
2059
2063
2067
2069
2069
2067
2065
2064
2066
2068
2070
2071
2072
2073
2073
2075
2075
2076
2077
2078
2079
2079
2078
2076
2074
2071
2068
2064
2059
2053
2048
2045
2045
2047
2046
2044
2040
2035
2033
2030
2032
2030
2030
2029
2028
2028
2028
2028
2028
2028
2029
2029
2029
2029
2028
2029
2028
2030
2030
2031
2030
2028
2029
2030
2034
2036
2037
2036
2033
2031
2029
2032
2032
2034
2033
2033
2032
2032
2032
2032
2033
2032
2032
2032
2031
2031
2030
2028
2031
2031
2031
2029
2025
2022
2023
2027
2033
2036
2035
2032
2029
2026
2028
2029
2030
2030
2029
2028
2028
2029
2029
2030
2030
2030
2029
2029
2028
2028
2027
2028
2029
2029
2027
2025
2023
2023
2025
2028
2030
2030
2028
2025
2024
2024
2024
2025
2025
2025
2024
2024
2023
2023
2022
2022
2022
2022
2022
2023
2023
2025
2026
2031
2031
2030
2026
2021
2020
2021
2027
2030
2031
2028
2023
2020
2016
2019
2018
2019
2019
2019
2020
2020
2020
2020
2020
2019
2018
2017
2021
2028
2041
2058
2078
2091
2091
2074
2046
2013
1987
1973
1973
1980
1991
2002
2010
2017
2022
2024
2027
2027
2028
2029
2029
2030
2030
2031
2031
2032
2032
2032
2033
2034
2035
2036
2036
2036
2034
2033
2035
2038
2042
2046
2048
2047
2046
2045
2045
2047
2048
2051
2052
2053
2055
2056
2056
2057
2058
2059
2059
2060
2061
2061
2061
2059
2058
2054
2051
2046
2040
2035
2032
2032
2032
2031
2027
2022
2017
2013
2014
2014
2014
2014
2014
2014
2014
2014
2013
2013
2013
2013
2014
2014
2014
2014
2012
2015
2016
2014
2013
2010
2008
2009
2014
2018
2020
2019
2016
2013
2012
2011
2013
2013
2013
2012
2012
2012
2011
2011
2011
2012
2012
2012
2013
2013
2013
2013
2012
2013
2013
2013
2011
2009
2009
2010
2013
2016
2017
2015
2013
2011
2009
2011
2012
2012
2012
2012
2012
2012
2012
2013
2013
2013
2013
2013
2013
2013
2013
2011
2014
2014
2014
2011
2008
2007
2008
2013
2016
2018
2017
2015
2013
2011
2011
2011
2010
2009
2012
2012
2014
2014
2015
2015
2015
2015
2015
2014
2013
2013
2012
2014
2015
2016
2015
2012
2009
2009
2011
2015
2017
2017
2016
2014
2014
2015
2017
2017
2017
2017
2017
2017
2017
2017
2017
2017
2016
2016
2015
2015
2015
2016
2016
2019
2018
2017
2015
2014
2015
2019
2024
2026
2025
2021
2017
2017
2019
2033
2048
2070
2089
2097
2089
2065
2032
2000
1977
1968
1969
1979
1991
2003
2012
2019
2023
2025
2025
2024
2023
2023
2025
2028
2032
2034
2034
2032
2030
2028
2029
2029
2031
2032
2033
2034
2036
2037
2037
2038
2038
2039
2040
2041
2044
2045
2047
2048
2049
2050
2049
2049
2049
2051
2055
2059
2061
2061
2060
2058
2056
2057
2057
2056
2054
2051
2048
2045
2041
2037
2033
2029
2026
2024
2022
2020
2019
2017
2017
2016
2016
2015
2013
2012
2012
2014
2016
2017
2017
2015
2013
2012
2013
2014
2015
2015
2014
2015
2015
2015
2015
2015
2015
2017
2019
2018
2016
2013
2012
2015
2020
2024
2025
2021
2015
2013
2014
2018
2021
2022
2019
2017
2017
2016
2018
2018
2018
2017
2016
2016
2015
2015
2015
2015
2016
2015
2015
2015
2014
2014
2013
2016
2015
2014
2011
2008
2008
2012
2020
2025
2025
2020
2015
2011
2010
2013
2015
2016
2015
2015
2014
2014
2015
2015
2016
2016
2016
2016
2015
2016
2016
2015
2018
2018
2018
2016
2014
2012
2014
2018
2021
2021
2018
2016
2014
2014
2017
2018
2019
2018
2018
2019
2021
2021
2022
2022
2021
2020
2019
2018
2018
2017
2017
2018
2019
2018
2016
2013
2012
2014
2018
2023
2026
2025
2023
2020
2017
2018
2017
2017
2020
2027
2039
2055
2074
2089
2092
2080
2055
2023
1994
1975
1970
1975
1990
2005
2016
2022
2023
2023
2025
2029
2034
2037
2037
2035
2032
2031
2031
2032
2033
2034
2035
2036
2037
2037
2038
2038
2039
2039
2040
2041
2042
2044
2045
2046
2048
2048
2048
2048
2048
2049
2053
2057
2060
2062
2062
2062
2061
2062
2063
2064
2065
2065
2064
2064
2062
2059
2055
2051
2048
2043
2040
2036
2033
2031
2029
2028
2025
2024
2021
2019
2018
2018
2020
2022
2023
2023
2021
2019
2017
2018
2019
2020
2021
2022
2022
2022
2020
2020
2020
2020
2020
2019
2020
2020
2022
2021
2022
2022
2021
2020
2018
2017
2018
2021
2024
2027
2026
2024
2021
2020
2021
2022
2023
2023
2023
2023
2023
2023
2023
2023
2023
2023
2024
2024
2024
2023
2022
2023
2023
2022
2022
2021
2020
2020
2023
2026
2028
2029
2027
2025
2024
2022
2024
2023
2023
2023
2023
2023
2023
2023
2023
2023
2024
2024
2024
2024
2025
2025
2025
2026
2026
2025
2023
2022
2021
2023
2026
2029
2030
2028
2026
2025
2023
2026
2027
2027
2026
2026
2025
2025
2026
2026
2026
2026
2025
2025
2025
2025
2026
2025
2030
2031
2032
2029
2026
2024
2026
2030
2035
2035
2032
2027
2024
2022
2025
2028
2028
2027
2025
2024
2024
2023
2026
2026
2026
2026
2026
2026
2026
2025
2025
2027
2031
2039
2050
2066
2082
2092
2091
2077
2050
2019
1993
1978
1978
1988
2001
2014
2023
2028
2032
2033
2033
2034
2035
2036
2037
2038
2038
2038
2038
2039
2039
2043
2044
2043
2041
2039
2040
2045
2051
2056
2056
2053
2049
2048
2048
2051
2051
2052
2053
2055
2056
2057
2058
2060
2061
2062
2063
2064
2065
2066
2067
2068
2069
2068
2067
2063
2059
2057
2056
2057
2057
2054
2049
2044
2038
2035
2034
2032
2032
2030
2029
2028
2027
2027
2026
2026
2026
2026
2026
2026
2026
2027
2027
2028
2027
2027
2025
2023
2022
2023
2026
2030
2032
2032
2029
2027
2024
2024
2025
2027
2027
2027
2027
2027
2027
2027
2027
2026
2025
2025
2025
2026
2027
2027
2027
2026
2025
2025
2023
2022
2023
2026
2029
2031
2031
2028
2025
2021
2021
2022
2024
2026
2025
2025
2025
2026
2026
2026
2026
2026
2027
2027
2027
2027
2026
2027
2027
2026
2026
2025
2023
2023
2025
2028
2030
2031
2030
2028
2026
2025
2026
2026
2027
2027
2027
2027
2027
2028
2028
2028
2029
2028
2027
2027
2026
2027
2027
2028
2029
2029
2027
2025
2024
2025
2028
2032
2033
2032
2029
2027
2025
2028
2028
2028
2028
2027
2027
2027
2028
2029
2030
2031
2032
2033
2034
2034
2033
2031
2034
2033
2032
2030
2026
2025
2027
2032
2037
2038
2037
2032
2028
2026
2026
2028
2030
2031
2032
2032
2031
2030
2030
2029
2035
2044
2058
2078
2099
2112
2110
2093
2063
2030
2000
1983
1979
1987
2002
2018
2030
2036
2038
2038
2037
2038
2039
2040
2040
2041
2041
2043
2044
2045
2045
2046
2046
2046
2047
2048
2048
2049
2049
2052
2052
2052
2049
2048
2049
2053
2059
2064
2066
2064
2059
2055
2053
2059
2065
2070
2073
2072
2069
2066
2064
2066
2068
2068
2067
2065
2064
2062
2059
2056
2053
2048
2044
2039
2034
2031
2031
2032
2033
2033
2031
2028
2026
2024
2024
2023
2024
2024
2024
2024
2024
2024
2024
2024
2024
2024
2024
2024
2025
2025
2025
2027
2027
2028
2027
2026
2025
2026
2029
2032
2033
2033
2031
2029
2027
2028
2029
2030
2030
2031
2031
2030
2030
2029
2029
2029
2029
2029
2029
2030
2029
2028
2028
2028
2029
2028
2027
2026
2026
2028
2029
2032
2032
2030
2028
2026
2027
2028
2030
2030
2029
2029
2029
2029
2028
2028
2029
2029
2029
2029
2029
2029
2028
2029
2029
2029
2029
2027
2026
2027
2030
2033
2034
2034
2032
2030
2029
2028
2030
2030
2030
2030
2030
2030
2030
2029
2030
2031
2032
2032
2030
2028
2026
2027
2028
2035
2036
2035
2031
2025
2025
2030
2038
2045
2046
2042
2035
2030
2027
2030
2031
2032
2030
2030
2029
2029
2030
2030
2030
2030
2030
2030
2030
2030
2030
2030
2033
2033
2033
2029
2025
2026
2034
2051
2075
2099
2113
2111
2095
2063
2031
2000
1982
1978
1985
1999
2013
2024
2030
2035
2038
2038
2041
2040
2040
2040
2040
2041
2043
2043
2043
2040
2038
2040
2044
2049
2054
2056
2054
2051
2048
2048
2048
2049
2051
2052
2053
2054
2057
2057
2059
2059
2061
2062
2063
2064
2065
2065
2067
2070
2072
2073
2070
2067
2065
2066
2070
2073
2073
2069
2062
2054
2048
2045
2043
2040
2039
2036
2035
2033
2032
2031
2030
2029
2028
2027
2027
2027
2027
2026
2026
2026
2026
2024
2022
2022
2024
2027
2031
2033
2031
2028
2025
2024
2025
2026
2028
2028
2029
2029
2029
2030
2029
2029
2029
2028
2029
2029
2030
2031
2030
2031
2030
2031
2028
2026
2025
2026
2029
2034
2036
2034
2030
2027
2025
2026
2028
2030
2030
2030
2029
2029
2028
2029
2029
2029
2028
2028
2028
2028
2029
2030
2031
2031
2031
2029
2027
2025
2027
2030
2034
2038
2037
2034
2031
2028
2028
2030
2031
2031
2030
2030
2030
2031
2031
2031
2032
2031
2031
2031
2031
2031
2031
2032
2032
2032
2031
2028
2026
2027
2030
2035
2038
2039
2037
2033
2031
2029
2032
2032
2032
2032
2031
2031
2031
2031
2031
2031
2031
2031
2030
2030
2030
2031
2031
2033
2034
2034
2032
2028
2026
2027
2031
2035
2037
2036
2032
2028
2025
2028
2029
2030
2030
2031
2030
2030
2031
2031
2032
2033
2033
2033
2032
2031
2031
2031
2040
2050
2069
2087
2101
2104
2093
2071
2042
2014
1993
1984
1986
1996
2009
2020
2028
2033
2037
2041
2043
2043
2043
2041
2041
2042
2044
2046
2046
2046
2047
2048
2051
2051
2051
2048
2047
2048
2053
2061
2067
2067
2064
2059
2057
2058
2061
2062
2063
2064
2065
2066
2068
2069
2070
2071
2071
2072
2072
2073
2074
2074
2075
2077
2077
2075
2069
2063
2059
2059
2061
2061
2059
2053
2047
2041
2037
2036
2035
2035
2036
2037
2038
2037
2034
2030
2028
2026
2026
2027
2029
2030
2030
2029
2031
2031
2030
2029
2026
2026
2028
2031
2035
2038
2038
2035
2033
2029
2031
2031
2032
2032
2032
2032
2032
2032
2032
2031
2031
2031
2031
2031
2031
2031
2030
2033
2031
2029
2028
2025
2024
2027
2032
2036
2038
2036
2033
2030
2027
2028
2028
2028
2030
2030
2030
2030
2030
2029
2028
2029
2029
2028
2029
2030
2032
2032
2031
2031
2030
2030
2029
2028
2028
2030
2033
2035
2035
2034
2030
2028
2028
2029
2030
2032
2032
2032
2031
2031
2031
2032
2032
2032
2032
2032
2032
2032
2031
2033
2033
2032
2032
2030
2029
2029
2031
2034
2036
2036
2034
2032
2030
2028
2029
2029
2030
2031
2031
2032
2033
2034
2034
2035
2036
2034
2031
2027
2026
2028
2032
2037
2038
2036
2030
2026
2024
2027
2030
2034
2034
2033
2031
2030
2028
2030
2030
2030
2031
2037
2048
2067
2090
2109
2116
2105
2079
2044
2010
1987
1978
1979
1993
2006
2017
2025
2029
2031
2035
2041
2046
2048
2048
2044
2041
2041
2042
2044
2044
2045
2045
2047
2048
2050
2051
2050
2050
2051
2051
2054
2054
2055
2055
2055
2059
2058
2057
2055
2055
2057
2063
2070
2074
2075
2072
2069
2068
2068
2072
2072
2073
2073
2073
2072
2071
2069
2066
2063
2060
2056
2052
2048
2045
2043
2040
2039
2039
2037
2034
2031
2030
2031
2034
2037
2037
2035
2032
2029
2027
2028
2029
2029
2029
2029
2030
2030
2030
2031
2031
2031
2031
2030
2031
2032
2034
2034
2035
2035
2034
2032
2030
2029
2031
2034
2036
2038
2037
2035
2033
2032
2032
2032
2034
2033
2034
2034
2034
2034
2033
2032
2032
2032
2033
2033
2033
2034
2033
2035
2034
2034
2032
2031
2031
2032
2035
2038
2039
2038
2037
2035
2033
2033
2034
2035
2035
2036
2036
2036
2035
2035
2035
2035
2034
2034
2035
2035
2035
2035
2035
2035
2036
2036
2035
2034
2035
2037
2039
2040
2040
2038
2036
2035
2035
2036
2036
2036
2036
2036
2036
2036
2036
2036
2036
2036
2037
2038
2038
2038
2038
2037
2037
2036
2037
2036
2036
2037
2039
2042
2044
2045
2043
2041
2040
2038
2039
2039
2039
2038
2038
2037
2037
2036
2036
2036
2036
2037
2037
2037
2037
2037
2036
2039
2039
2038
2037
2035
2033
2034
2040
2050
2066
2084
2101
2112
2110
2095
2066
2032
2005
1988
1985
1993
2007
2020
2031
2039
2043
2046
2046
2046
2046
2045
2048
2048
2048
2048
2047
2046
2047
2049
2053
2057
2057
2056
2054
2053
2055
2057
2057
2058
2058
2058
2060
2061
2063
2065
2066
2066
2066
2067
2068
2071
2072
2074
2078
2077
2076
2073
2071
2074
2079
2085
2088
2085
2079
2072
2067
2064
2062
2059
2055
2051
2048
2047
2045
2043
2042
2040
2039
2038
2037
2036
2035
2033
2034
2037
2037
2036
2031
2027
2027
2032
2040
2046
2045
2041
2035
2032
2031
2033
2035
2035
2036
2036
2037
2037
2036
2037
2037
2037
2037
2037
2037
2037
2037
2037
2037
2037
2037
2036
2034
2033
2033
2035
2037
2039
2038
2036
2034
2033
2033
2034
2035
2035
2035
2036
2036
2036
2036
2035
2035
2035
2036
2036
2036
2036
2035
2037
2036
2036
2035
2033
2033
2034
2036
2038
2039
2038
2036
2035
2033
2034
2035
2036
2036
2037
2036
2037
2036
2036
2035
2036
2036
2035
2035
2036
2036
2037
2038
2037
2037
2036
2034
2033
2034
2037
2039
2042
2041
2039
2036
2034
2036
2037
2039
2039
2038
2037
2036
2036
2036
2037
2037
2038
2038
2038
2039
2039
2038
2038
2039
2038
2037
2035
2033
2034
2037
2041
2044
2045
2044
2042
2041
2040
2042
2041
2041
2040
2040
2039
2038
2038
2037
2037
2038
2038
2038
2038
2038
2038
2038
2040
2039
2040
2038
2037
2037
2037
2040
2042
2044
2048
2054
2067
2085
2105
2113
2107
2084
2050
2018
1994
1984
1987
1998
2011
2022
2029
2033
2035
2035
2034
2038
2039
2040
2039
2036
2036
2038
2044
2048
2050
2049
2047
2045
2044
2044
2046
2046
2048
2048
2049
2049
2050
2051
2053
2056
2057
2058
2058
2058
2059
2059
2063
2065
2067
2067
2066
2066
2066
2069
2073
2076
2077
2075
2073
2071
2069
2067
2064
2060
2057
2054
2051
2048
2046
2043
2041
2038
2036
2035
2033
2032
2032
2031
2034
2034
2033
2030
2028
2028
2031
2036
2038
2039
2036
2032
2030
2028
2030
2030
2030
2031
2032
2032
2033
2033
2034
2034
2033
2033
2032
2031
2032
2033
2033
2034
2034
2033
2030
2028
2028
2030
2035
2038
2038
2033
2027
2025
2027
2033
2038
2039
2036
2032
2029
2028
2030
2031
2031
2030
2030
2030
2029
2030
2030
2031
2032
2032
2033
2031
2029
2028
2028
2031
2034
2037
2037
2034
2031
2028
2028
2029
2031
2032
2032
2033
2033
2033
2032
2032
2032
2032
2032
2032
2033
2034
2034
2035
2035
2035
2034
2032
2031
2032
2035
2038
2040
2040
2038
2035
2033
2033
2034
2035
2036
2035
2036
2036
2036
2036
2035
2036
2036
2037
2038
2038
2037
2036
2037
2037
2036
2036
2036
2034
2034
2036
2039
2042
2045
2046
2044
2043
2040
2041
2040
2040
2040
2039
2038
2037
2037
2037
2037
2038
2038
2038
2038
2037
2037
2035
2037
2038
2038
2036
2034
2033
2035
2040
2044
2047
2049
2056
2070
2090
2109
2116
2106
2080
2047
2016
1995
1988
1993
2005
2018
2029
2037
2042
2045
2046
2045
2047
2048
2048
2047
2046
2045
2047
2049
2053
2055
2056
2054
2052
2052
2053
2055
2056
2056
2056
2056
2057
2058
2060
2061
2064
2065
2065
2065
2065
2065
2067
2069
2073
2074
2073
2071
2070
2072
2077
2082
2085
2085
2082
2078
2075
2072
2072
2068
2065
2062
2058
2055
2052
2048
2046
2044
2041
2039
2037
2036
2035
2034
2033
2034
2034
2034
2032
2031
2031
2032
2035
2037
2037
2036
2034
2032
2031
2033
2034
2034
2035
2034
2035
2034
2035
2036
2037
2037
2036
2036
2035
2035
2035
2035
2036
2036
2035
2033
2032
2032
2034
2037
2039
2040
2038
2036
2034
2031
2033
2033
2034
2033
2033
2034
2034
2034
2033
2033
2032
2033
2033
2033
2034
2034
2033
2034
2034
2034
2032
2031
2030
2032
2035
2037
2038
2036
2034
2032
2031
2032
2032
2034
2034
2034
2034
2034
2034
2034
2034
2034
2034
2034
2034
2034
2035
2036
2035
2034
2034
2033
2032
2032
2033
2035
2037
2039
2039
2038
2035
2034
2034
2034
2035
2035
2035
2035
2034
2034
2034
2034
2034
2035
2036
2036
2036
2036
2037
2037
2040
2039
2039
2036
2033
2033
2035
2039
2041
2041
2038
2034
2032
2030
2033
2033
2034
2034
2034
2035
2035
2035
2036
2036
2035
2034
2033
2035
2040
2050
2068
2092
2112
2120
2109
2082
2047
2015
1994
1988
1992
2001
2011
2019
2027
2035
2039
2042
2041
2042
2043
2044
2045
2045
2046
2047
2048
2048
2048
2049
2049
2049
2052
2052
2053
2051
2051
2051
2054
2058
2061
2062
2061
2060
2059
2060
2062
2063
2064
2065
2066
2068
2070
2071
2072
2072
2073
2074
2076
2078
2078
2077
2075
2074
2072
2068
2064
2057
2053
2051
2052
2053
2050
2047
2042
2037
2035
2035
2035
2034
2033
2032
2032
2032
2032
2033
2033
2032
2032
2031
2031
2031
2031
2031
2031
2034
2033
2035
2031
2027
2026
2030
2037
2045
2048
2047
2041
2034
2031
2032
2032
2035
2034
2034
2035
2035
2036
2036
2036
2036
2035
2034
2034
2034
2035
2034
2036
2036
2034
2032
2029
2029
2030
2034
2037
2039
2038
2035
2033
2030
2032
2032
2033
2033
2033
2033
2033
2033
2033
2033
2033
2033
2033
2033
2033
2033
2033
2034
2034
2034
2032
2030
2030
2032
2035
2038
2039
2037
2034
2032
2030
2031
2032
2034
2034
2033
2033
2033
2032
2032
2033
2034
2034
2034
2033
2034
2034
2035
2036
2036
2036
2034
2033
2032
2034
2037
2039
2041
2040
2038
2036
2034
2035
2035
2035
2036
2036
2037
2037
2038
2038
2039
2039
2040
2040
2040
2040
2039
2038
2037
2037
2037
2037
2035
2034
2034
2035
2037
2039
2040
2038
2036
2034
2034
2035
2036
2036
2036
2035
2034
2034
2037
2044
2056
2075
2096
2110
2111
2096
2067
2034
2006
1990
1986
1992
2003
2017
2029
2040
2047
2048
2048
2045
2044
2043
2046
2047
2047
2047
2047
2047
2048
2048
2050
2051
2051
2049
2048
2047
2049
2054
2059
2064
2063
2060
2056
2053
2054
2058
2064
2068
2071
2070
2068
2067
2067
2071
2072
2073
2074
2074
2074
2076
2076
2076
2076
2074
2073
2071
2069
2067
2063
2060
2056
2052
2048
2044
2041
2037
2037
2038
2040
2040
2038
2035
2032
2031
2031
2031
2032
2032
2031
2030
2030
2030
2030
2031
2031
2032
2032
2032
2031
2031
2031
2031
2035
2034
2037
2034
2031
2030
2032
2036
2042
2044
2043
2039
2034
2030
2031
2030
2034
2034
2034
2034
2034
2033
2033
2033
2033
2032
2032
2032
2032
2031
2031
2033
2032
2032
2029
2027
2026
2030
2035
2039
2039
2036
2032
2029
2028
2030
2030
2031
2030
2031
2032
2032
2033
2032
2032
2031
2031
2032
2032
2033
2033
2033
2033
2033
2032
2030
2028
2029
2031
2034
2036
2036
2035
2032
2031
2030
2031
2031
2032
2032
2032
2032
2033
2033
2033
2033
2034
2033
2033
2034
2034
2035
2036
2037
2036
2035
2033
2033
2032
2034
2037
2040
2041
2040
2037
2035
2034
2034
2035
2036
2036
2035
2035
2034
2035
2035
2036
2036
2037
2038
2039
2040
2040
2039
2039
2038
2037
2036
2034
2034
2035
2038
2040
2040
2038
2035
2033
2031
2032
2034
2034
2035
2034
2035
2035
2035
2035
2034
2033
2034
2038
2048
2062
2081
2100
2110
2108
2089
2058
2025
1997
1984
1986
1998
2015
2029
2037
2041
2041
2039
2041
2042
2043
2043
2044
2044
2045
2045
2046
2047
2048
2048
2048
2048
2048
2048
2048
2049
2051
2052
2051
2049
2049
2051
2056
2062
2065
2064
2061
2059
2059
2060
2063
2064
2065
2065
2066
2067
2067
2070
2071
2071
2070
2069
2069
2069
2070
2069
2067
2063
2058
2053
2048
2046
2044
2044
2044
2044
2041
2037
2034
2032
2032
2031
2030
2030
2029
2029
2029
2029
2029
2029
2029
2029
2030
2030
2030
2030
2031
2030
2033
2033
2033
2031
2029
2031
2034
2040
2044
2045
2042
2038
2035
2032
2034
2034
2035
2036
2037
2038
2038
2038
2038
2038
2038
2038
2038
2038
2037
2037
2037
2037
2037
2036
2035
2034
2034
2035
2038
2040
2041
2040
2038
2036
2034
2035
2036
2037
2037
2037
2037
2036
2036
2036
2035
2035
2034
2034
2034
2035
2036
2037
2037
2036
2036
2034
2033
2033
2034
2037
2039
2040
2038
2036
2034
2033
2034
2035
2037
2037
2038
2038
2039
2039
2039
2040
2041
2042
2042
2043
2043
2044
2043
2043
2043
2043
2042
2041
2040
2041
2044
2047
2048
2047
2045
2042
2041
2042
2043
2045
2046
2046
2047
2048
2048
2048
2048
2048
2048
2048
2048
2047
2046
2045
2045
2045
2044
2043
2042
2042
2043
2045
2047
2046
2045
2043
2043
2044
2044
2045
2045
2044
2044
2047
2053
2066
2086
2108
2125
2130
2117
2089
2055
2024
2003
1996
2001
2010
2022
2031
2037
2043
2048
2053
2057
2058
2056
2053
2051
2050
2052
2053
2054
2054
2055
2056
2057
2058
2058
2059
2059
2060
2061
2061
2062
2062
2063
2067
2069
2070
2069
2068
2068
2072
2078
2083
2086
2084
2082
2081
2083
2086
2087
2088
2088
2088
2088
2089
2088
2086
2085
2081
2077
2072
2068
2064
2061
2060
2058
2055
2050
2046
2041
2038
2040
2042
2045
2045
2043
2040
2038
2036
2037
2037
2036
2036
2037
2037
2038
2038
2038
2038
2038
2037
2038
2037
2037
2037
2037
2038
2042
2042
2043
2038
2033
2031
2034
2040
2047
2050
2049
2044
2038
2035
2036
2035
2039
2039
2039
2039
2039
2038
2037
2038
2038
2039
2039
2039
2039
2039
2038
2038
2038
2038
2036
2035
2035
2037
2040
2042
2043
2042
2040
2037
2034
2036
2036
2038
2038
2039
2039
2039
2039
2038
2038
2038
2038
2038
2038
2039
2039
2038
2040
2039
2038
2036
2035
2034
2038
2042
2043
2040
2034
2031
2034
2041
2049
2052
2050
2044
2039
2035
2038
2039
2040
2039
2039
2038
2038
2038
2039
2039
2040
2040
2040
2040
2038
2036
2034
2035
2037
2042
2049
2059
2072
2089
2107
2118
2116
2097
2064
2030
2004
1990
1989
1997
2010
2022
2033
2040
2045
2046
2046
2047
2048
2048
2049
2049
2048
2047
2048
2050
2056
2060
2062
2059
2055
2052
2051
2054
2056
2058
2059
2059
2061
2061
2063
2064
2065
2066
2067
2069
2070
2072
2074
2074
2077
2078
2078
2077
2075
2075
2078
2083
2088
2088
2085
2079
2074
2068
2067
2064
2061
2056
2052
2048
2046
2043
2041
2039
2038
2037
2035
2034
2033
2032
2031
2033
2033
2034
2032
2029
2027
2028
2033
2037
2040
2039
2035
2031
2030
2032
2033
2034
2033
2033
2033
2034
2035
2036
2035
2036
2036
2035
2035
2034
2034
2035
2037
2039
2040
2037
2034
2031
2031
2035
2040
2044
2044
2041
2037
2035
2034
2035
2036
2036
2037
2037
2037
2038
2037
2037
2036
2036
2036
2037
2037
2036
2035
2034
2038
2039
2042
2038
2034
2031
2033
2040
2048
2052
2050
2044
2037
2032
2034
2034
2039
2038
2038
2038
2038
2037
2038
2039
2039
2039
2039
2039
2039
2038
2039
2039
2039
2039
2037
2034
2034
2037
2041
2045
2045
2042
2038
2034
2032
2034
2036
2038
2040
2041
2041
2041
2041
2040
2040
2039
2039
2039
2038
2038
2037
2037
2038
2038
2038
2035
2032
2032
2034
2039
2044
2045
2043
2039
2035
2033
2033
2034
2038
2045
2056
2073
2093
2109
2112
2101
2075
2043
2012
1992
1986
1992
2006
2021
2033
2041
2043
2042
2040
2042
2046
2051
2054
2052
2049
2046
2045
2046
2048
2050
2051
2051
2051
2052
2054
2055
2056
2057
2058
2060
2061
2063
2064
2064
2065
2066
2068
2068
2067
2068
2069
2073
2079
2083
2084
2081
2078
2075
2076
2079
2081
2082
2081
2080
2078
2075
2072
2069
2066
2063
2060
2056
2053
2049
2047
2043
2044
2043
2041
2038
2035
2033
2034
2037
2042
2044
2043
2040
2036
2032
2034
2035
2036
2035
2035
2035
2036
2037
2037
2038
2038
2039
2038
2039
2038
2038
2038
2039
2043
2044
2042
2038
2035
2034
2037
2042
2045
2045
2041
2038
2035
2036
2038
2038
2039
2039
2039
2040
2040
2040
2040
2039
2039
2038
2037
2037
2037
2038
2041
2043
2043
2041
2039
2037
2037
2039
2044
2045
2044
2041
2039
2038
2039
2040
2041
2040
2040
2039
2039
2039
2040
2041
2041
2042
2042
2042
2042
2042
2042
2041
2044
2044
2044
2041
2039
2039
2042
2048
2051
2052
2049
2047
2044
2041
2044
2044
2045
2046
2046
2046
2046
2045
2046
2046
2045
2045
2044
2044
2045
2046
2046
2047
2046
2046
2045
2045
2046
2048
2050
2053
2054
2053
2051
2049
2047
2047
2047
2048
2047
2048
2048
2048
2048
2048
2048
2048
2048
2048
2048
2048
2048
2048
2049
2048
2048
2046
2045
2045
2047
2054
2065
2081
2099
2113
2117
2107
2084
2053
2024
2003
1995
1999
2011
2025
2036
2045
2049
2051
2052
2052
2052
2052
2052
2052
2052
2052
2051
2051
2050
2050
2051
2052
2054
2054
2053
2052
2051
2051
2053
2054
2055
2055
2055
2056
2057
2057
2059
2060
2061
2063
2064
2066
2068
2068
2068
2069
2068
2069
2070
2072
2075
2078
2080
2080
2077
2074
2071
2069
2066
2066
2063
2061
2058
2055
2051
2048
2046
2044
2043
2042
2042
2041
2041
2041
2039
2039
2039
2038
2037
2036
2035
2035
2038
2042
2045
2045
2043
2040
2038
2037
2039
2040
2041
2041
2041
2041
2041
2041
2041
2041
2041
2041
2041
2040
2040
2039
2038
2039
2039
2037
2034
2032
2031
2034
2040
2044
2045
2042
2039
2036
2037
2039
2040
2039
2038
2036
2036
2036
2038
2039
2038
2035
2032
2033
2035
2039
2043
2044
2042
2039
2036
2033
2032
2032
2034
2037
2040
2042
2040
2037
2035
2034
2034
2035
2035
2035
2035
2035
2036
2036
2036
2037
2037
2037
2037
2037
2037
2037
2036
2036
2039
2038
2039
2035
2031
2030
2033
2039
2046
2049
2048
2046
2042
2039
2041
2040
2042
2042
2041
2041
2041
2040
2039
2039
2039
2039
2039
2040
2040
2041
2040
2043
2042
2042
2040
2038
2037
2039
2042
2046
2047
2047
2048
2056
2070
2094
2113
2123
2115
2091
2058
2025
2001
1990
1990
1999
2011
2023
2033
2041
2046
2047
2048
2048
2049
2048
2048
2048
2050
2053
2055
2057
2057
2055
2055
2055
2056
2057
2058
2059
2059
2060
2061
2062
2063
2064
2065
2066
2066
2067
2068
2069
2070
2072
2073
2075
2076
2076
2076
2077
2080
2082
2084
2085
2084
2082
2080
2079
2078
2076
2073
2069
2065
2061
2058
2055
2052
2049
2048
2046
2045
2044
2043
2042
2041
2040
2040
2039
2038
2037
2037
2038
2040
2042
2043
2041
2039
2037
2036
2038
2039
2040
2039
2039
2039
2039
2039
2040
2041
2042
2043
2043
2043
2043
2042
2040
2041
2040
2040
2039
2038
2038
2040
2042
2044
2044
2042
2040
2038
2036
2038
2038
2038
2038
2038
2038
2038
2038
2038
2038
2038
2038
2038
2038
2037
2037
2036
2038
2038
2038
2036
2034
2033
2034
2037
2040
2042
2040
2036
2034
2034
2036
2037
2036
2036
2034
2034
2035
2035
2035
2035
2035
2035
2036
2037
2037
2036
2037
2039
2040
2040
2039
2036
2034
2034
2036
2039
2041
2040
2036
2034
2033
2033
2034
2035
2035
2035
2036
2037
2037
2036
2035
2034
2034
2038
2047
2061
2083
2105
2119
2120
2100
2069
2030
1997
1981
1982
1996
2014
2031
2040
2043
2042
2041
2043
2042
2046
2046
2046
2046
2046
2047
2048
2048
2048
2049
2049
2051
2052
2053
2054
2057
2056
2056
2054
2053
2054
2058
2063
2067
2068
2066
2064
2062
2062
2065
2067
2069
2070
2072
2074
2076
2077
2076
2077
2077
2077
2078
2077
2076
2074
2071
2068
2064
2059
2053
2048
2047
2046
2047
2046
2045
2041
2037
2034
2032
2031
2031
2032
2032
2032
2032
2032
2031
2031
2031
2031
2031
2031
2031
2032
2033
2033
2033
2033
2032
2031
2030
2030
2031
2034
2037
2039
2039
2037
2035
2032
2032
2032
2033
2033
2034
2034
2034
2034
2034
2034
2033
2033
2033
2033
2033
2033
2032
2032
2031
2032
2031
2030
2030
2030
2031
2032
2034
2034
2033
2032
2031
2030
2031
2032
2032
2032
2032
2032
2032
2031
2031
2032
2032
2032
2032
2033
2032
2032
2031
2033
2033
2033
2031
2029
2028
2030
2033
2036
2037
2035
2033
2031
2030
2033
2033
2034
2034
2034
2034
2033
2033
2033
2033
2033
2034
2034
2034
2035
2035
2035
2037
2040
2039
2036
2033
2030
2031
2036
2041
2045
2043
2038
2033
2031
2030
2033
2033
2034
2034
2034
2034
2035
2036
2036
2035
2033
2035
2035
2037
2045
2058
2077
2101
2114
2113
2092
2057
2023
1997
1986
1989
1998
2009
2019
2029
2035
2042
2044
2045
2046
2046
2047
2047
2047
2046
2046
2046
2047
2047
2048
2048
2049
2051
2053
2056
2057
2055
2054
2054
2057
2060
2063
2064
2063
2061
2061
2061
2063
2065
2067
2069
2070
2072
2073
2074
2075
2076
2077
2078
2078
2078
2078
2078
2077
2077
2075
2072
2067
2061
2057
2054
2052
2052
2050
2048
2043
2039
2036
2035
2035
2035
2034
2034
2034
2034
2033
2032
2031
2031
2031
2032
2032
2033
2033
2033
2034
2034
2033
2032
2031
2031
2032
2035
2039
2041
2040
2037
2034
2032
2032
2033
2034
2034
2034
2035
2035
2034
2034
2034
2034
2034
2034
2033
2033
2032
2032
2034
2035
2035
2033
2031
2031
2033
2035
2036
2035
2033
2033
2036
2038
2041
2038
2035
2032
2030
2032
2033
2034
2033
2033
2033
2034
2035
2035
2035
2034
2033
2034
2035
2034
2033
2033
2033
2035
2038
2040
2039
2037
2034
2033
2033
2034
2036
2035
2035
2035
2035
2035
2036
2036
2036
2037
2037
2037
2037
2037
2036
2036
2036
2036
2037
2037
2035
2034
2034
2036
2040
2042
2042
2040
2037
2035
2035
2036
2037
2036
2036
2035
2035
2035
2036
2037
2038
2039
2040
2040
2040
2039
2038
2036
2038
2037
2036
2034
2032
2031
2033
2037
2040
2041
2039
2036
2034
2033
2036
2036
2036
2036
2034
2034
2034
2036
2041
2051
2067
2088
2106
2114
2105
2081
2048
2015
1996
1987
1989
1998
2008
2021
2032
2043
2050
2050
2048
2045
2044
2043
2045
2045
2046
2046
2047
2048
2049
2050
2051
2052
2052
2052
2052
2052
2052
2054
2054
2058
2060
2059
2057
2056
2056
2060
2067
2072
2074
2072
2068
2067
2065
2070
2071
2072
2074
2074
2075
2075
2076
2076
2076
2075
2074
2071
2068
2065
2062
2058
2056
2052
2049
2045
2041
2038
2038
2039
2040
2041
2039
2036
2033
2031
2031
2032
2033
2032
2032
2033
2033
2034
2033
2033
2033
2033
2033
2033
2034
2034
2034
2036
2036
2037
2036
2035
2034
2035
2037
2039
2040
2038
2036
2034
2032
2033
2033
2034
2034
2034
2033
2034
2033
2033
2033
2033
2033
2033
2033
2033
2034
2034
2034
2033
2032
2031
2031
2030
2031
2033
2035
2038
2037
2036
2034
2032
2032
2032
2034
2034
2035
2035
2035
2035
2034
2034
2034
2034
2034
2035
2035
2035
2035
2034
2034
2034
2034
2033
2032
2032
2033
2036
2038
2038
2037
2034
2033
2031
2033
2033
2034
2034
2033
2034
2034
2033
2034
2034
2034
2034
2034
2034
2034
2033
2033
2034
2035
2036
2035
2034
2034
2035
2037
2040
2040
2039
2037
2035
2034
2035
2037
2038
2038
2038
2038
2038
2039
2041
2042
2042
2042
2041
2039
2039
2038
2037
2040
2040
2040
2038
2036
2035
2037
2040
2043
2044
2044
2042
2041
2040
2040
2040
2039
2039
2041
2047
2059
2077
2100
2117
2122
2110
2081
2048
2016
1994
1987
1991
2004
2017
2028
2035
2039
2043
2047
2051
2053
2053
2050
2048
2048
2049
2050
2050
2051
2051
2052
2054
2055
2056
2056
2057
2058
2058
2059
2060
2060
2060
2063
2065
2066
2067
2066
2066
2068
2071
2077
2079
2079
2078
2076
2075
2075
2078
2078
2079
2079
2080
2081
2081
2081
2079
2076
2073
2070
2067
2064
2061
2057
2052
2052
2049
2046
2042
2038
2036
2038
2042
2046
2046
2043
2039
2035
2034
2036
2036
2037
2037
2037
2038
2038
2039
2039
2039
2039
2038
2038
2038
2038
2038
2039
2040
2039
2038
2035
2034
2035
2038
2042
2044
2045
2042
2038
2036
2034
2036
2035
2036
2036
2036
2035
2035
2035
2034
2034
2035
2034
2035
2035
2035
2035
2034
2033
2035
2033
2033
2031
2029
2030
2034
2038
2042
2042
2039
2034
2031
2030
2032
2033
2035
2034
2034
2034
2034
2034
2034
2035
2035
2035
2036
2035
2036
2035
2035
2035
2035
2035
2034
2034
2034
2036
2038
2039
2039
2037
2035
2034
2034
2035
2036
2036
2036
2035
2035
2035
2035
2036
2037
2038
2038
2039
2039
2040
2040
2040
2041
2040
2040
2039
2037
2036
2036
2038
2040
2040
2039
2038
2036
2035
2037
2038
2039
2038
2038
2038
2038
2038
2038
2037
2038
2042
2049
2065
2086
2107
2119
2119
2100
2067
2031
1999
1982
1981
1992
2008
2022
2032
2038
2042
2043
2045
2046
2047
2047
2047
2047
2048
2048
2048
2048
2048
2050
2050
2052
2053
2053
2054
2055
2057
2058
2059
2059
2057
2057
2059
2063
2065
2067
2066
2065
2066
2067
2069
2070
2070
2071
2073
2075
2077
2076
2074
2073
2072
2075
2079
2081
2080
2075
2068
2063
2059
2057
2053
2049
2046
2044
2045
2045
2042
2039
2035
2033
2030
2032
2032
2032
2032
2032
2033
2032
2032
2032
2032
2032
2032
2033
2033
2033
2033
2032
2035
2035
2035
2033
2030
2029
2031
2036
2041
2044
2043
2039
2035
2031
2031
2032
2032
2034
2034
2034
2034
2034
2033
2033
2032
2032
2032
2032
2032
2032
2031
2033
2034
2033
2031
2029
2028
2029
2033
2036
2038
2037
2034
2031
2029
2028
2030
2029
2030
2030
2031
2031
2031
2031
2031
2030
2030
2030
2030
2031
2032
2033
2033
2033
2031
2030
2029
2028
2029
2033
2036
2038
2037
2034
2031
2029
2030
2032
2032
2033
2032
2032
2032
2032
2032
2032
2033
2033
2033
2033
2034
2034
2033
2034
2033
2033
2032
2031
2031
2032
2034
2036
2037
2037
2035
2034
2033
2034
2036
2037
2038
2038
2037
2036
2035
2035
2035
2035
2035
2035
2035
2035
2035
2034
2034
2034
2035
2034
2033
2032
2032
2034
2037
2039
2039
2036
2035
2039
2048
2065
2087
2104
2112
2104
2082
2049
2017
1994
1985
1987
1999
2012
2024
2034
2040
2042
2045
2045
2045
2044
2042
2043
2046
2049
2051
2052
2050
2048
2048
2048
2050
2051
2052
2052
2052
2053
2053
2054
2055
2056
2057
2057
2058
2059
2060
2062
2063
2064
2067
2067
2069
2069
2069
2069
2071
2075
2078
2078
2077
2075
2074
2074
2074
2072
2070
2066
2064
2061
2058
2054
2050
2048
2045
2043
2040
2038
2036
2035
2035
2034
2034
2034
2032
2030
2030
2032
2035
2037
2037
2035
2032
2031
2029
2031
2032
2032
2033
2033
2033
2033
2033
2033
2033
2033
2033
2034
2034
2034
2033
2031
2033
2034
2033
2030
2028
2028
2030
2034
2039
2040
2038
2034
2030
2028
2030
2032
2032
2032
2031
2032
2031
2032
2031
2031
2030
2030
2030
2030
2031
2032
2031
2033
2032
2033
2031
2030
2029
2031
2034
2036
2038
2036
2034
2031
2030
2031
2031
2032
2033
2034
2034
2035
2035
2035
2036
2036
2036
2037
2037
2037
2037
2037
2035
2037
2036
2036
2034
2032
2032
2035
2039
2044
2045
2042
2037
2033
2031
2033
2035
2037
2036
2036
2036
2036
2035
2035
2035
2034
2034
2034
2035
2034
2035
2035
2036
2037
2038
2037
2037
2036
2037
2037
2038
2038
2037
2035
2034
2033
2033
2033
2034
2034
2034
2033
2033
2033
2033
2034
2034
2035
2035
2035
2034
2033
2032
2036
2045
2060
2079
2098
2108
2105
2088
2058
2027
1999
1984
1983
1993
2008
2023
2034
2040
2043
2044
2044
2045
2046
2046
2047
2048
2048
2048
2049
2049
2049
2051
2052
2053
2052
2049
2049
2051
2056
2060
2063
2063
2061
2060
2059
2061
2062
2063
2065
2066
2067
2069
2070
2072
2073
2073
2074
2074
2075
2076
2077
2077
2080
2081
2079
2076
2072
2069
2069
2071
2072
2069
2063
2056
2051
2048
2048
2046
2043
2041
2039
2038
2038
2039
2039
2038
2036
2034
2033
2033
2034
2037
2038
2041
2041
2041
2038
2036
2034
2034
2038
2043
2046
2045
2042
2038
2035
2035
2037
2037
2038
2038
2039
2040
2040
2040
2039
2039
2039
2039
2039
2039
2038
2037
2036
2039
2039
2037
2034
2030
2029
2033
2039
2045
2047
2044
2040
2035
2032
2033
2035
2036
2036
2037
2037
2037
2037
2036
2036
2036
2036
2036
2036
2037
2037
2037
2038
2037
2037
2034
2032
2032
2034
2039
2044
2046
2044
2040
2036
2033
2034
2035
2037
2038
2038
2038
2037
2036
2036
2036
2036
2037
2037
2037
2037
2037
2037
2036
2040
2039
2039
2034
2031
2030
2033
2039
2044
2044
2039
2034
2031
2029
2033
2034
2036
2036
2037
2037
2038
2039
2038
2037
2036
2036
2035
2035
2036
2035
2035
2034
2035
2034
2033
2033
2031
2030
2032
2035
2039
2043
2044
2043
2038
2034
2031
2032
2037
2048
2065
2085
2105
2116
2110
2089
2056
2022
1996
1983
1984
1993
2008
2021
2032
2037
2040
2041
2043
2047
2050
2051
2050
2048
2047
2046
2048
2048
2050
2050
2050
2051
2051
2052
2052
2052
2053
2054
2055
2056
2056
2057
2057
2060
2062
2063
2062
2061
2061
2063
2068
2073
2076
2076
2074
2073
2071
2073
2074
2075
2076
2075
2075
2075
2073
2072
2069
2066
2063
2059
2055
2051
2048
2046
2045
2045
2042
2041
2037
2033
2032
2034
2039
2042
2042
2040
2037
2034
2032
2033
2031
2032
2032
2032
2033
2034
2034
2034
2034
2035
2036
2037
2038
2038
2038
2039
2040
2041
2040
2036
2034
2032
2034
2039
2042
2043
2041
2037
2035
2032
2033
2034
2035
2034
2034
2035
2034
2035
2035
2034
2034
2034
2035
2035
2035
2034
2032
2034
2034
2033
2031
2027
2026
2028
2034
2040
2043
2041
2036
2031
2028
2029
2030
2031
2033
2033
2033
2034
2034
2033
2033
2032
2032
2032
2032
2033
2033
2032
2033
2033
2033
2031
2029
2028
2028
2033
2038
2042
2042
2038
2034
2031
2030
2033
2033
2034
2034
2034
2034
2034
2034
2034
2034
2034
2033
2033
2034
2035
2035
2036
2036
2034
2034
2031
2029
2031
2034
2038
2041
2041
2038
2034
2031
2032
2036
2039
2042
2042
2040
2037
2035
2034
2034
2035
2036
2036
2036
2036
2036
2035
2036
2036
2036
2035
2034
2033
2035
2038
2041
2042
2041
2038
2036
2034
2034
2037
2042
2052
2068
2088
2105
2113
2105
2081
2048
2017
1994
1985
1989
2001
2014
2027
2037
2042
2044
2044
2043
2043
2045
2048
2050
2050
2049
2047
2046
2046
2048
2049
2052
2052
2053
2053
2053
2053
2053
2054
2055
2056
2057
2058
2059
2060
2060
2063
2063
2064
2063
2062
2063
2066
2071
2075
2076
2076
2074
2073
2072
2075
2075
2076
2075
2075
2074
2073
2070
2068
2065
2061
2058
2054
2051
2048
2046
2044
2043
2043
2040
2039
2036
2033
2033
2035
2037
2039
2038
2037
2036
2036
2035
2036
2035
2036
2036
2037
2037
2037
2038
2038
2038
2039
2039
2039
2039
2039
2039
2039
2041
2042
2042
2040
2038
2038
2039
2043
2045
2045
2043
2040
2039
2037
2038
2038
2038
2038
2038
2039
2039
2040
2039
2039
2038
2037
2038
2038
2039
2039
2038
2041
2041
2039
2037
2034
2033
2035
2039
2044
2046
2045
2042
2038
2035
2036
2037
2037
2038
2038
2039
2039
2040
2040
2040
2039
2039
2039
2039
2041
2041
2041
2041
2040
2040
2038
2037
2036
2038
2041
2045
2046
2045
2042
2039
2037
2038
2038
2039
2039
2039
2040
2040
2040
2038
2037
2036
2035
2036
2036
2036
2035
2035
2034
2036
2036
2037
2036
2034
2034
2039
2045
2050
2052
2048
2043
2038
2035
2037
2038
2039
2038
2038
2038
2038
2038
2038
2039
2039
2040
2041
2041
2041
2040
2040
2039
2039
2038
2036
2036
2039
2048
2063
2085
2107
2120
2118
2100
2069
2036
2008
1992
1987
1992
2003
2015
2026
2034
2039
2042
2042
2043
2044
2045
2046
2046
2047
2048
2049
2049
2048
2048
2050
2053
2056
2057
2056
2054
2052
2051
2053
2055
2055
2054
2054
2054
2055
2056
2057
2059
2062
2064
2066
2067
2068
2068
2067
2070
2071
2072
2071
2069
2068
2069
2071
2074
2074
2071
2067
2063
2059
2056
2053
2050
2047
2045
2043
2043
2042
2041
2039
2038
2037
2035
2034
2033
2033
2033
2033
2033
2032
2031
2030
2029
2031
2034
2038
2038
2037
2034
2033
2033
2035
2036
2034
2033
2032
2034
2036
2036
2036
2035
2035
2034
2034
2034
2033
2033
2032
2034
2034
2034
2034
2031
2031
2031
2033
2036
2037
2036
2034
2031
2030
2029
2030
2029
2030
2029
2030
2032
2031
2029
2026
2025
2027
2032
2037
2039
2037
2033
2029
2029
2032
2031
2028
2024
2023
2026
2033
2040
2043
2040
2035
2031
2028
2030
2032
2033
2033
2033
2033
2033
2032
2032
2032
2031
2030
2030
2030
2031
2031
2030
2031
2031
2031
2029
2028
2029
2031
2035
2037
2038
2036
2033
2030
2029
2030
2031
2033
2033
2033
2032
2032
2032
2031
2032
2032
2032
2033
2033
2033
2034
2035
2035
2039
2037
2035
2030
2027
2027
2031
2038
2042
2041
2036
2031
2027
2026
2030
2031
2033
2033
2034
2034
2035
2035
2035
2035
2035
2035
2039
2046
2060
2079
2100
2112
2110
2090
2058
2024
1997
1986
1988
1998
2012
2022
2030
2035
2038
2040
2041
2041
2041
2041
2041
2041
2042
2043
2044
2046
2047
2048
2050
2052
2052
2052
2052
2053
2054
2053
2053
2053
2054
2056
2058
2060
2060
2059
2058
2058
2061
2063
2065
2066
2067
2068
2068
2069
2070
2071
2072
2073
2073
2073
2073
2072
2070
2070
2068
2066
2062
2057
2052
2050
2049
2049
2048
2046
2042
2039
2036
2036
2035
2034
2033
2032
2031
2032
2031
2031
