2055
2055
2055
2055
2055
2054
2054
2054
2054
2054
2054
2054
2053
2053
2054
2059
2068
2083
2103
2126
2151
2173
2183
2176
2149
2107
2064
2032
2017
2020
2033
2045
2051
2053
2052
2051
2050
2050
2051
2051
2052
2053
2054
2055
2055
2055
2055
2055
2055
2055
2057
2058
2059
2060
2060
2060
2060
2060
2061
2061
2062
2063
2064
2065
2066
2066
2067
2067
2068
2069
2071
2073
2074
2076
2076
2077
2078
2078
2078
2079
2079
2079
2080
2080
2079
2077
2074
2070
2066
2062
2058
2055
2052
2050
2048
2045
2042
2040
2039
2039
2039
2039
2039
2039
2038
2037
2037
2037
2038
2038
2037
2037
2037
2036
2036
2036
2036
2036
2036
2036
2037
2037
2038
2038
2038
2038
2037
2036
2036
2035
2035
2035
2036
2037
2036
2036
2035
2034
2034
2034
2034
2034
2034
2034
2034
2034
2033
2032
2032
2032
2033
2034
2034
2035
2035
2034
2034
2034
2035
2035
2036
2036
2036
2036
2035
2035
2035
2035
2035
2036
2037
2037
2037
2037
2036
2036
2036
2036
2036
2036
2036
2036
2036
2036
2036
2036
2036
2036
2035
2035
2035
2036
2036
2037
2037
2037
2036
2036
2036
2036
2036
2037
2037
2037
2037
2036
2036
2036
2036
2036
2036
2037
2038
2039
2039
2039
2038
2037
2036
2036
2036
2035
2035
2035
2034
2033
2033
2034
2034
2035
2034
2034
2033
2033
2037
2045
2059
2078
2102
2128
2154
2170
2169
2145
2103
2054
2014
1991
1988
1999
2013
2023
2028
2028
2028
2027
2027
2027
2028
2028
2029
2030
2030
2030
2030
2029
2029
2029
2030
2031
2032
2033
2034
2034
2034
2034
2034
2034
2034
2035
2035
2036
2037
2038
2040
2040
2041
2042
2042
2044
2045
2047
2048
2050
2051
2052
2052
2052
2052
2052
2052
2052
2052
2051
2049
2047
2043
2038
2034
2031
2028
2024
2022
2019
2017
2015
2013
2012
2011
2010
2010
2010
2010
2010
2010
2010
2009
2009
2009
2009
2009
2010
2010
2009
2009
2009
2008
2009
2009
2010
2010
2011
2012
2012
2012
2012
2012
2011
2011
2011
2011
2012
2012
2012
2012
2012
2011
2011
2011
2011
2011
2011
2011
2011
2011
2011
2011
2010
2010
2010
2010
2011
2011
2012
2012
2012
2012
2012
2012
2012
2012
2013
2013
2013
2013
2013
2013
2013
2013
2014
2014
2014
2015
2015
2014
2014
2014
2013
2013
2014
2015
2015
2016
2016
2015
2015
2014
2014
2015
2015
2015
2015
2016
2016
2016
2016
2015
2015
2015
2015
2016
2016
2016
2016
2015
2014
2014
2014
2014
2014
2014
2014
2014
2015
2015
2017
2018
2018
2018
2018
2018
2017
2017
2017
2017
2016
2015
2014
2014
2014
2015
2015
2016
2015
2015
2014
2012
2013
2017
2024
2038
2055
2077
2101
2124
2141
2144
2127
2091
2047
2008
1984
1980
1990
2003
2013
2016
2015
2014
2013
2013
2014
2015
2015
2016
2016
2016
2017
2017
2018
2019
2020
2021
2022
2022
2022
2022
2023
2024
2025
2026
2027
2028
2029
2030
2031
2032
2032
2034
2035
2036
2038
2040
2041
2043
2044
2045
2046
2047
2048
2048
2049
2050
2051
2050
2050
2049
2048
2047
2045
2042
2040
2036
2032
2028
2024
2021
2019
2017
2015
2015
2014
2013
2012
2012
2011
2011
2011
2011
2011
2012
2012
2013
2013
2014
2013
2013
2012
2012
2013
2013
2013
2014
2014
2014
2013
2013
2013
2013
2013
2013
2014
2014
2015
2015
2014
2014
2014
2014
2014
2015
2015
2015
2015
2015
2015
2014
2014
2014
2014
2015
2016
2016
2017
2016
2016
2016
2016
2016
2016
2017
2017
2017
2018
2018
2018
2018
2018
2018
2018
2019
2019
2019
2019
2019
2019
2020
2020
2020
2020
2021
2021
2022
2022
2022
2022
2022
2022
2022
2023
2024
2025
2025
2024
2024
2024
2024
2025
2026
2027
2027
2028
2030
2032
2034
2037
2039
2041
2044
2047
2049
2051
2054
2056
2057
2058
2059
2061
2063
2065
2066
2068
2068
2069
2069
2068
2068
2068
2067
2067
2068
2069
2070
2069
2068
2067
2066
2066
2067
2068
2068
2067
2065
2063
2062
2062
2061
2061
2060
2058
2057
2055
2054
2053
2052
2052
2050
2049
2048
2048
2050
2056
2065
2079
2096
2117
2139
2160
2171
2166
2140
2099
2056
2023
2007
2009
2020
2032
2040
2042
2042
2041
2041
2042
2042
2042
2042
2043
2043
2044
2045
2046
2047
2048
2049
2049
2050
2050
2051
2052
2054
2056
2057
2059
2059
2060
2060
2060
2061
2061
2062
2063
2064
2065
2066
2066
2067
2069
2070
2072
2073
2075
2076
2077
2077
2077
2077
2077
2077
2076
2075
2073
2071
2068
2064
2061
2057
2052
2048
2046
2044
2042
2041
2039
2038
2036
2035
2034
2033
2033
2033
2033
2034
2033
2033
2033
2033
2033
2033
2033
2034
2034
2035
2035
2035
2035
2034
2033
2033
2033
2033
2034
2034
2034
2034
2034
2034
2033
2033
2034
2034
2034
2035
2035
2034
2033
2033
2032
2032
2032
2032
2032
2032
2032
2032
2032
2032
2032
2032
2032
2032
2033
2033
2033
2033
2033
2033
2033
2033
2034
2034
2035
2036
2036
2036
2036
2035
2035
2035
2035
2036
2036
2036
2036
2036
2036
2036
2035
2036
2036
2036
2037
2037
2038
2038
2038
2037
2037
2037
2037
2037
2037
2038
2038
2038
2038
2038
2037
2037
2037
2037
2038
2038
2038
2038
2038
2037
2037
2038
2038
2038
2039
2039
2039
2039
2039
2038
2038
2038
2038
2038
2039
2040
2041
2043
2044
2044
2044
2043
2043
2043
2043
2043
2042
2041
2040
2040
2040
2040
2041
2042
2042
2041
2041
2040
2041
2045
2054
2067
2085
2106
2129
2151
2165
2164
2143
2106
2063
2029
2010
2010
2022
2036
2045
2048
2046
2045
2044
2044
2044
2045
2046
2047
2048
2048
2048
2048
2048
2049
2049
2050
2051
2052
2052
2053
2053
2054
2054
2055
2056
2057
2058
2059
2060
2061
2061
2062
2063
2064
2066
2067
2069
2071
2072
2074
2074
2075
2076
2077
2078
2079
2080
2080
2080
2079
2077
2075
2073
2070
2067
2064
2060
2057
2055
2052
2049
2047
2045
2043
2042
2041
2041
2041
2040
2040
2040
2040
2039
2039
2040
2041
2041
2042
2041
2041
2040
2040
2041
2041
2042
2042
2042
2042
2042
2042
2042
2042
2042
2042
2042
2042
2043
2043
2043
2043
2043
2042
2043
2043
2043
2043
2043
2043
2043
2043
2042
2041
2041
2041
2041
2042
2043
2043
2043
2043
2042
2042
2042
2042
2043
2043
2044
2044
2044
2044
2043
2043
2043
2043
2043
2044
2044
2045
2046
2046
2045
2045
2045
2044
2044
2045
2045
2046
2046
2046
2046
2046
2045
2045
2045
2046
2046
2046
2046
2046
2046
2046
2046
2046
2046
2047
2047
2048
2047
2047
2047
2046
2046
2046
2046
2046
2047
2047
2047
2047
2046
2046
2046
2047
2047
2047
2048
2048
2048
2048
2048
2048
2048
2048
2048
2049
2050
2051
2052
2053
2052
2052
2051
2051
2050
2050
2049
2049
2049
2049
2049
2049
2049
2049
2049
2049
2049
2049
2052
2058
2069
2085
2104
2126
2149
2168
2175
2164
2134
2093
2052
2025
2015
2022
2035
2047
2053
2054
2053
2051
2051
2051
2051
2052
2053
2054
2055
2056
2056
2057
2057
2057
2057
2058
2059
2060
2062
2062
2063
2063
2063
2063
2064
2065
2065
2066
2068
2069
2070
2071
2073
2074
2075
2076
2077
2079
2080
2082
2084
2085
2086
2086
2086
2086
2086
2086
2086
2086
2085
2082
2080
2077
2073
2070
2066
2063
2060
2058
2055
2053
2051
2049
2048
2047
2046
2047
2047
2047
2047
2046
2046
2046
2045
2045
2045
2046
2046
2047
2047
2048
2047
2047
2047
2047
2047
2048
2048
2048
2048
2048
2047
2047
2047
2047
2047
2048
2048
2048
2048
2048
2048
2048
2048
2048
2048
2048
2048
2047
2047
2047
2047
2046
2046
2047
2046
2047
2047
2047
2048
2049
2050
2050
2051
2052
2052
2054
2055
2057
2058
2058
2059
2059
2060
2060
2061
2062
2062
2064
2065
2065
2066
2066
2066
2066
2066
2067
2067
2067
2067
2067
2066
2066
2065
2064
2064
2064
2064
2064
2064
2064
2064
2063
2063
2063
2063
2063
2063
2063
2062
2062
2061
2061
2060
2059
2059
2059
2060
2060
2061
2061
2060
2059
2059
2058
2058
2058
2059
2059
2059
2058
2058
2058
2058
2059
2060
2060
2060
2060
2059
2058
2057
2056
2055
2055
2055
2055
2056
2056
2056
2056
2055
2054
2053
2053
2055
2060
2070
2085
2104
2125
2148
2167
2175
2167
2140
2101
2061
2032
2020
2023
2035
2046
2052
2053
2052
2052
2052
2053
2054
2054
2054
2054
2054
2055
2055
2056
2058
2059
2059
2060
2060
2060
2060
2061
2062
2063
2064
2064
2065
2065
2065
2065
2065
2065
2066
2068
2069
2071
2072
2073
2073
2074
2075
2076
2077
2079
2080
2081
2082
2082
2082
2082
2081
2080
2079
2078
2076
2074
2071
2068
2064
2061
2058
2056
2054
2052
2050
2049
2048
2048
2047
2046
2046
2046
2046
2046
2047
2048
2048
2048
2049
2049
2049
2049
2049
2050
2050
2051
2051
2052
2052
2052
2052
2052
2052
2053
2054
2054
2055
2055
2055
2055
2055
2056
2056
2057
2057
2058
2058
2058
2058
2058
2058
2058
2058
2058
2060
2061
2061
2061
2061
2061
2061
2062
2063
2064
2065
2065
2066
2066
2066
2066
2066
2067
2068
2068
2069
2070
2071
2071
2071
2072
2072
2073
2074
2074
2075
2075
2075
2076
2076
2076
2076
2077
2077
2078
2078
2079
2079
2079
2078
2077
2077
2077
2076
2077
2077
2077
2077
2078
2078
2078
2078
2078
2078
2078
2078
2078
2078
2077
2077
2076
2077
2078
2079
2080
2081
2081
2081
2080
2079
2077
2076
2075
2074
2074
2074
2074
2074
2074
2074
2073
2072
2070
2069
2069
2073
2082
2096
2114
2136
2159
2182
2196
2195
2174
2135
2090
2051
2029
2024
2033
2046
2055
2060
2061
2061
2060
2059
2059
2058
2058
2057
2057
2057
2058
2058
2057
2057
2057
2057
2056
2056
2056
2056
2056
2056
2056
2056
2056
2055
2055
2054
2054
2054
2055
2056
2057
2058
2058
2059
2059
2060
2061
2062
2063
2064
2065
2066
2066
2066
2065
2064
2063
2062
2061
2059
2057
2054
2049
2046
2041
2037
2033
2030
2027
2025
2023
2021
2018
2016
2014
2013
2012
2011
2011
2011
2010
2010
2009
2008
2007
2007
2006
2006
2006
2006
2007
2006
2006
2004
2003
2002
2002
2002
2002
2002
2002
2002
2001
2001
2000
1999
1999
1998
1998
1999
1999
1999
1998
1998
1996
1995
1995
1994
1994
1995
1995
1995
1995
1995
1994
1992
1992
1992
1992
1993
1994
1994
1993
1993
1992
1992
1992
1992
1992
1992
1992
1993
1993
1993
1993
1993
1992
1992
1992
1993
1993
1993
1993
1992
1992
1992
1992
1992
1992
1993
1993
1993
1993
1993
1993
1993
1993
1993
1993
1993
1993
1993
1993
1992
1992
1991
1991
1991
1992
1993
1994
1995
1996
1997
1998
1998
1998
1997
1996
1995
1995
1995
1996
1996
1995
1995
1995
1996
1996
1996
1997
1996
1996
1999
2006
2018
2036
2057
2081
2104
2120
2121
2103
2067
2025
1987
1965
1962
1972
1986
1996
2001
2001
2001
2001
2001
2002
2003
2004
2005
2006
2008
2009
2011
2012
2013
2014
2015
2017
2019
2022
2025
2028
2031
2033
2035
2036
2038
2039
2040
2041
2042
2043
2044
2044
2045
2046
2047
2048
2051
2054
2056
2057
2058
2059
2059
2060
2060
2061
2063
2064
2065
2065
2064
2062
2059
2055
2051
2048
2044
2041
2038
2035
2032
2030
2028
2026
2025
2023
2023
2023
2022
2022
2020
2019
2019
2020
2021
2022
2023
2024
2024
2024
2024
2024
2024
2023
2021
2020
2019
2018
2017
2016
2015
2013
2012
2012
2012
2012
2013
2014
2015
2016
2016
2016
2016
2018
2020
2022
2023
2025
2025
2026
2026
2027
2027
2027
2027
2028
2029
2029
2029
2029
2028
2027
2026
2024
2023
2022
2022
2022
2022
2022
2022
2022
2022
2022
2022
2023
2024
2025
2027
2028
2029
2028
2026
2025
2023
2022
2022
2021
2019
2018
2017
2016
2016
2016
2017
2017
2018
2019
2018
2017
2014
2012
2010
2009
2009
2010
2010
2010
2010
2011
2013
2017
2021
2026
2029
2031
2032
2032
2032
2033
2035
2037
2039
2042
2044
2046
2048
2048
2048
2048
2048
2049
2052
2058
2068
2082
2101
2123
2147
2166
2173
2161
2130
2087
2047
2017
2004
2007
2017
2027
2033
2034
2034
2033
2033
2033
2034
2035
2035
2035
2034
2034
2034
2035
2036
2037
2039
2040
2040
2039
2039
2039
2041
2042
2044
2046
2047
2048
2048
2050
2051
2052
2052
2053
2053
2055
2057
2060
2063
2065
2066
2067
2068
2069
2071
2074
2076
2077
2078
2078
2078
2079
2079
2078
2077
2076
2075
2073
2071
2069
2066
2063
2060
2058
2056
2056
2056
2056
2056
2056
2054
2053
2052
2051
2051
2051
2052
2052
2052
2051
2051
2050
2049
2050
2050
2050
2050
2050
2049
2048
2048
2047
2046
2045
2045
2046
2047
2047
2047
2047
2046
2046
2046
2046
2046
2046
2046
2046
2046
2046
2046
2046
2046
2046
2047
2047
2048
2048
2048
2048
2047
2048
2048
2050
2052
2054
2055
2055
2055
2055
2056
2058
2061
2065
2067
2069
2071
2074
2078
2083
2087
2090
2092
2094
2096
2100
2104
2107
2108
2107
2107
2108
2111
2114
2118
2121
2124
2127
2131
2135
2139
2144
2149
2153
2157
2159
2160
2159
2160
2160
2159
2159
2158
2157
2158
2159
2160
2161
2160
2159
2157
2155
2157
2163
2174
2193
2217
2246
2273
2289
2288
2267
2229
2185
2149
2131
2130
2141
2156
2167
2173
2175
2176
2177
2179
2181
2182
2181
2180
2178
2178
2177
2176
2174
2172
2171
2171
2171
2172
2172
2171
2170
2168
2167
2166
2164
2163
2161
2160
2159
2157
2155
2153
2151
2150
2150
2151
2152
2152
2152
2152
2152
2151
2151
2150
2150
2150
2150
2149
2147
2144
2141
2137
2133
2129
2124
2119
2114
2109
2105
2101
2097
2094
2091
2088
2085
2084
2082
2080
2078
2075
2071
2068
2064
2061
2058
2056
2054
2052
2050
2048
2045
2042
2039
2038
2036
2035
2034
2033
2032
2032
2031
2030
2028
2026
2024
2023
2022
2021
2019
2016
2014
2012
2010
2008
2007
2006
2005
2004
2003
2003
2002
2002
2002
2002
2002
2002
2001
2000
1999
1998
1998
1998
1998
1998
1998
1997
1997
1997
1998
1999
1999
1999
1998
1997
1996
1995
1994
1993
1992
1990
1988
1987
1986
1987
1988
1990
1991
1991
1989
1986
1984
1983
1982
1983
1984
1984
1984
1984
1984
1984
1983
1982
1981
1980
1984
1992
2005
2024
2047
2072
2097
2113
2113
2093
2055
2011
1971
1949
1945
1956
1970
1982
1987
1988
1989
1988
1988
1989
1990
1991
1992
1993
1994
1995
1996
1998
1999
2001
2002
2004
2005
2005
2005
2006
2006
2006
2007
2008
2008
2008
2007
2007
2007
2008
2009
2011
2012
2014
2015
2016
2017
2019
2021
2022
2023
2024
2024
2023
2022
2021
2019
2018
2017
2015
2013
2011
2007
2004
2000
1996
1992
1989
1986
1984
1982
1980
1979
1978
1977
1976
1975
1975
1975
1975
1976
1977
1978
1978
1979
1979
1980
1981
1982
1982
1983
1984
1985
1987
1988
1989
1989
1990
1991
1992
1993
1995
1996
1996
1997
1997
1997
1997
1998
1999
2001
2002
2002
2003
2003
2003
2003
2004
2004
2004
2005
2006
2006
2007
2007
2008
2008
2009
2009
2010
2010
2010
2011
2012
2012
2013
2013
2013
2012
2012
2012
2013
2013
2013
2013
2012
2012
2011
2012
2012
2014
2015
2017
2018
2020
2021
2022
2022
2021
2020
2019
2019
2019
2020
2020
2021
2021
2021
2022
2022
2023
2023
2023
2024
2029
2038
2052
2071
2094
2119
2141
2152
2147
2121
2081
2038
2004
1989
1992
2005
2019
2028
2032
2032
2031
2031
2032
2032
2033
2034
2035
2036
2037
2038
2039
2039
2039
2039
2040
2040
2042
2043
2044
2045
2045
2046
2046
2046
2046
2047
2048
2049
2050
2051
2052
2052
2053
2054
2056
2057
2058
2060
2061
2062
2064
2064
2065
2065
2065
2064
2064
2063
2063
2062
2060
2056
2052
2048
2045
2042
2039
2037
2035
2033
2031
2030
2028
2027
2027
2026
2026
2026
2026
2026
2026
2026
2026
2025
2025
2025
2026
2026
2027
2027
2027
2026
2025
2025
2025
2026
2027
2027
2028
2029
2029
2030
2030
2031
2032
2032
2032
2032
2033
2033
2033
2033
2033
2033
2033
2033
2033
2033
2033
2033
2032
2032
2032
2032
2032
2032
2032
2033
2033
2033
2033
2033
2032
2032
2032
2033
2033
2034
2035
2035
2035
2035
2035
2035
2035
2035
2036
2037
2037
2038
2038
2037
2037
2037
2037
2037
2038
2038
2038
2038
2038
2038
2038
2039
2041
2042
2043
2044
2044
2043
2041
2040
2039
2038
2038
2039
2040
2041
2042
2042
2042
2042
2041
2040
2041
2044
2051
2063
2081
2104
2128
2151
2164
2163
2143
2107
2064
2029
2008
2005
2015
2028
2038
2042
2042
2042
2043
2043
2044
2045
2045
2045
2045
2045
2046
2047
2048
2048
2048
2049
2050
2050
2051
2051
2052
2053
2054
2055
2056
2056
2057
2057
2057
2058
2060
2061
2063
2064
2067
2068
2070
2072
2073
2074
2075
2077
2078
2080
2081
2082
2082
2082
2082
2082
2081
2079
2077
2074
2070
2067
2063
2060
2056
2053
2051
2049
2048
2048
2047
2047
2048
2047
2047
2046
2046
2046
2046
2047
2048
2048
2048
2048
2048
2048
2048
2048
2048
2049
2050
2051
2051
2051
2051
2050
2050
2050
2051
2051
2052
2052
2052
2052
2052
2052
2052
2053
2053
2054
2054
2053
2052
2052
2051
2052
2052
2052
2053
2053
2053
2053
2053
2053
2053
2053
2053
2053
2053
2053
2053
2053
2053
2053
2052
2052
2051
2052
2053
2054
2054
2054
2054
2054
2054
2054
2054
2055
2055
2055
2055
2054
2054
2054
2054
2054
2055
2057
2059
2061
2062
2061
2060
2057
2055
2055
2054
2055
2055
2056
2057
2057
2058
2058
2058
2058
2057
2056
2059
2066
2079
2099
2123
2149
2174
2191
2193
2174
2136
2089
2048
2023
2016
2025
2039
2049
2056
2058
2059
2059
2060
2060
2060
2061
2061
2062
2063
2063
2064
2065
2065
2065
2065
2065
2066
2066
2067
2067
2068
2069
2070
2071
2071
2072
2072
2073
2074
2075
2076
2076
2078
2079
2080
2082
2083
2084
2086
2088
2090
2092
2093
2094
2094
2093
2093
2092
2091
2091
2089
2087
2084
2081
2077
2073
2069
2066
2063
2060
2058
2056
2055
2054
2054
2053
2052
2050
2050
2049
2049
2050
2051
2051
2051
2051
2051
2051
2051
2052
2052
2052
2052
2052
2053
2052
2052
2052
2052
2052
2053
2053
2054
2054
2053
2053
2052
2051
2051
2051
2051
2051
2051
2051
2050
2050
2050
2050
2050
2050
2050
2050
2050
2050
2050
2050
2049
2049
2049
2049
2049
2049
2050
2050
2049
2049
2049
2048
2048
2048
2049
2049
2050
2050
2050
2050
2049
2049
2049
2049
2050
2050
2050
2049
2048
2048
2047
2046
2046
2047
2048
2049
2050
2051
2052
2053
2052
2051
2050
2048
2048
2048
2048
2048
2048
2048
2048
2048
2048
2048
2048
2048
2047
2048
2053
2063
2079
2100
2124
2150
2172
2182
2174
2145
2102
2056
2022
2006
2008
2021
2035
2044
2047
2048
2047
2046
2046
2046
2046
2046
2047
2048
2048
2048
2049
2049
2049
2049
2049
2049
2050
2051
2052
2053
2054
2054
2054
2055
2055
2055
2056
2057
2058
2059
2060
2061
2062
2063
2064
2066
2067
2069
2071
2072
2073
2074
2074
2075
2075
2075
2074
2074
2073
2072
2069
2066
2062
2058
2054
2051
2048
2046
2043
2041
2039
2037
2036
2035
2034
2033
2033
2033
2033
2033
2033
2033
2033
2032
2032
2032
2032
2033
2034
2034
2035
2034
2034
2034
2034
2034
2035
2035
2036
2036
2036
2036
2036
2036
2037
2037
2038
2038
2038
2038
2038
2037
2036
2036
2036
2036
2037
2037
2037
2037
2037
2037
2037
2036
2036
2036
2037
2037
2038
2039
2039
2039
2039
2039
2039
2039
2039
2040
2040
2041
2041
2041
2041
2041
2041
2041
2042
2043
2043
2043
2043
2043
2042
2043
2043
2043
2044
2044
2045
2045
2045
2045
2044
2044
2044
2045
2045
2045
2046
2046
2046
2046
2046
2045
2044
2044
2044
2044
2045
2047
2048
2048
2049
2050
2050
2050
2050
2048
2048
2048
2048
2048
2048
2048
2048
2048
2048
2049
2049
2048
2048
2048
2049
2056
2068
2085
2106
2129
2152
2170
2175
2161
2129
2086
2047
2020
2013
2021
2035
2047
2051
2050
2049
2048
2048
2048
2049
2051
2052
2052
2053
2053
2053
2053
2054
2054
2055
2056
2057
2057
2058
2058
2058
2058
2059
2059
2061
2062
2063
2064
2065
2066
2066
2067
2069
2070
2072
2074
2075
2077
2078
2079
2080
2080
2082
2083
2084
2085
2085
2085
2085
2083
2081
2078
2075
2072
2069
2066
2063
2060
2057
2054
2052
2051
2049
2049
2048
2048
2048
2048
2048
2048
2048
2048
2048
2049
2050
2051
2052
2052
2053
2053
2053
2053
2054
2054
2055
2056
2057
2057
2057
2057
2057
2058
2058
2059
2061
2061
2062
2062
2062
2062
2062
2062
2062
2062
2062
2063
2063
2064
2064
2065
2066
2068
2070
2073
2076
2078
2080
2082
2083
2084
2085
2086
2086
2087
2089
2090
2093
2094
2095
2096
2096
2097
2098
2099
2100
2101
2102
2103
2104
2105
2107
2108
2110
2111
2112
2113
2113
2113
2114
2114
2114
2115
2115
2116
2117
2118
2119
2120
2121
2121
2121
2122
2122
2122
2122
2123
2123
2124
2124
2124
2124
2123
2123
2123
2123
2124
2125
2125
2125
2125
2124
2125
2126
2127
2128
2130
2130
2130
2129
2128
2127
2127
2127
2128
2130
2133
2136
2138
2140
2141
2140
2140
2139
2139
2139
2139
2140
2141
2142
2144
2144
2145
2145
2144
2144
2144
2145
2148
2156
2169
2188
2212
2239
2265
2281
2281
2261
2224
2180
2143
2123
2121
2131
2143
2150
2152
2150
2149
2149
2149
2150
2150
2150
2150
2150
2150
2150
2150
2150
2150
2149
2149
2149
2149
2149
2150
2150
2151
2150
2150
2149
2149
2148
2148
2149
2149
2149
2148
2148
2147
2146
2145
2146
2146
2147
2148
2148
2149
2149
2149
2149
2149
2149
2149
2149
2148
2147
2146
2143
2139
2136
2132
2129
2126
2124
2122
2119
2117
2114
2112
2110
2109
2108
2107
2107
2107
2107
2106
2106
2106
2105
2104
2104
2103
2103
2102
2102
2101
2100
2099
2098
2097
2096
2096
2096
2096
2097
2098
2098
2097
2097
2096
2096
2096
2096
2096
2096
2097
2097
2097
2096
2096
2095
2095
2095
2095
2094
2094
2093
2093
2092
2092
2091
2091
2092
2092
2092
2093
2093
2093
2092
2092
2092
2092
2092
2092
2093
2093
2093
2092
2092
2092
2092
2091
2092
2091
2091
2090
2090
2089
2089
2088
2089
2088
2088
2088
2088
2088
2089
2089
2088
2088
2087
2088
2088
2088
2088
2086
2083
2079
2075
2072
2070
2068
2068
2068
2068
2068
2067
2065
2063
2059
2056
2053
2051
2050
2049
2049
2049
2048
2047
2045
2044
2042
2041
2040
2038
2038
2041
2049
2064
2085
2111
2139
2164
2176
2168
2137
2091
2046
2013
2001
2006
2019
2030
2036
2035
2032
2030
2029
2029
2029
2028
2028
2028
2028
2027
2027
2026
2026
2026
2026
2026
2026
2026
2027
2027
2028
2027
2027
2027
2027
2027
2028
2028
2029
2029
2030
2031
2032
2033
2035
2037
2039
2041
2043
2045
2046
2046
2047
2047
2048
2048
2049
2049
2049
2049
2048
2047
2045
2042
2039
2036
2033
2030
2028
2026
2025
2023
2022
2021
2021
2021
2021
2022
2023
2024
2026
2027
2028
2030
2031
2033
2036
2039
2042
2044
2046
2047
2048
2048
2049
2050
2051
2053
2054
2056
2057
2058
2059
2060
2061
2062
2063
2064
2065
2066
2068
2068
2069
2069
2069
2068
2068
2067
2066
2064
2060
2056
2051
2047
2042
2036
2031
2026
2021
2017
2014
2011
2009
2007
2005
2003
2002
2000
1999
1997
1995
1993
1992
1991
1990
1990
1990
1990
1990
1990
1990
1990
1989
1989
1989
1989
1990
1991
1992
1993
1993
1993
1994
1995
1995
1996
1997
1999
2000
2002
2003
2003
2004
2004
2004
2006
2008
2012
2017
2022
2027
2032
2037
2041
2044
2047
2050
2054
2059
2063
2067
2071
2074
2077
2079
2082
2084
2087
2089
2091
2096
2104
2118
2138
2164
2191
2214
2226
2219
2193
2152
2111
2079
2064
2066
2077
2089
2098
2100
2100
2100
2100
2100
2101
2101
2102
2102
2103
2104
2105
2106
2107
2107
2108
2108
2108
2109
2110
2110
2111
2112
2113
2115
2116
2116
2117
2118
2118
2119
2120
2121
2121
2122
2122
2123
2124
2125
2126
2127
2129
2129
2130
2130
2131
2132
2132
2133
2134
2134
2134
2133
2131
2128
2125
2120
2117
2113
2110
2108
2107
2105
2103
2101
2099
2097
2096
2096
2097
2097
2097
2096
2096
2096
2095
2095
2095
2094
2095
2095
2096
2096
2095
2094
2093
2093
2093
2092
2092
2091
2091
2091
2091
2090
2090
2089
2089
2088
2087
2087
2086
2085
2084
2084
2084
2084
2083
2083
2083
2082
2083
2083
2083
2083
2083
2082
2082
2081
2081
2082
2082
2083
2083
2083
2082
2081
2081
2082
2082
2082
2082
2083
2083
2083
2083
2083
2083
2084
2084
2084
2085
2085
2085
2085
2085
2085
2085
2084
2085
2085
2086
2086
2087
2087
2087
2086
2086
2085
2086
2087
2088
2089
2090
2091
2091
2092
2092
2091
2091
2090
2089
2088
2087
2087
2086
2086
2086
2086
2086
2085
2085
2084
2082
2084
2089
2101
2120
2144
2172
2198
2212
2207
2180
2136
2087
2048
2025
2022
2032
2045
2054
2058
2059
2058
2057
2056
2056
2057
2057
2057
2057
2057
2057
2057
2057
2057
2056
2056
2056
2057
2058
2058
2058
2058
2058
2058
2058
2059
2059
2060
2061
2061
2060
2060
2060
2061
2062
2063
2065
2067
2069
2070
2071
2071
2071
2070
2070
2070
2070
2070
2070
2069
2067
2065
2061
2058
2054
2050
2047
2043
2039
2036
2032
2029
2025
2022
2019
2016
2014
2013
2012
2012
2012
2011
2010
2009
2008
2007
2008
2008
2008
2008
2007
2006
2006
2006
2006
2006
2006
2006
2006
2006
2006
2005
2004
2002
2002
2002
2003
2004
2005
2005
2004
2004
2004
2004
2003
2003
2002
2001
2000
2001
2002
2003
2003
2003
2003
2003
2004
2006
2007
2008
2009
2008
2008
2008
2008
2008
2009
2010
2011
2013
2014
2015
2016
2016
2017
2018
2019
2020
2021
2022
2022
2023
2024
2025
2026
2027
2027
2027
2026
2026
2025
2025
2024
2025
2026
2027
2028
2029
2030
2031
2031
2032
2032
2033
2034
2035
2036
2035
2034
2033
2032
2032
2032
2032
2032
2032
2032
2032
2033
2033
2034
2034
2034
2035
2039
2048
2064
2087
2114
2140
2158
2162
2145
2110
2066
2028
2003
1996
2004
2017
2028
2032
2032
2031
2031
2031
2032
2033
2034
2034
2034
2034
2034
2034
2034
2035
2036
2037
2037
2038
2039
2040
2041
2042
2043
2044
2044
2045
2045
2045
2045
2046
2046
2046
2047
2047
2048
2048
2049
2050
2051
2052
2053
2054
2055
2056
2057
2058
2059
2059
2058
2057
2056
2054
2052
2050
2048
2046
2043
2040
2037
2034
2031
2029
2028
2026
2026
2025
2025
2024
2024
2023
2023
2023
2023
2023
2024
2024
2024
2024
2023
2023
2023
2023
2023
2023
2023
2023
2023
2023
2023
2023
2023
2023
2023
2023
2023
2024
2025
2026
2026
2027
2027
2028
2029
2030
2032
2034
2035
2036
2037
2037
2037
2037
2038
2039
2040
2041
2042
2042
2043
2043
2043
2044
2044
2045
2046
2047
2048
2048
2049
2049
2050
2050
2050
2051
2051
2050
2050
2049
2048
2048
2048
2048
2048
2048
2048
2048
2048
2048
2048
2048
2047
2046
2045
2045
2046
2047
2048
2048
2049
2049
2049
2048
2047
2046
2044
2044
2044
2044
2044
2044
2043
2043
2043
2043
2042
2042
2041
2041
2044
2051
2065
2086
2112
2139
2161
2170
2160
2131
2088
2047
2015
2002
2006
2018
2030
2038
2040
2040
2039
2038
2038
2037
2038
2038
2039
2041
2042
2043
2043
2043
2042
2042
2042
2043
2044
2045
2046
2046
2047
2047
2047
2047
2048
2048
2049
2050
2050
2050
2051
2052
2053
2055
2056
2056
2057
2058
2059
2060
2060
2061
2061
2061
2061
2061
2061
2061
2061
2059
2057
2054
2050
2048
2044
2041
2039
2037
2035
2033
2031
2028
2026
2024
2023
2022
2022
2022
2022
2021
2021
2022
2021
2021
2020
2019
2018
2018
2018
2018
2017
2017
2016
2016
2016
2016
2017
2017
2016
2016
2016
2015
2015
2014
2013
2012
2012
2011
2011
2010
2008
2007
2006
2005
2004
2003
2003
2003
2003
2002
2002
2002
2001
2001
2000
2000
2000
2000
2000
1999
1999
1998
1998
1997
1997
1998
1998
1998
1998
1998
1997
1996
1995
1994
1993
1992
1991
1991
1991
1992
1993
1994
1994
1994
1995
1995
1994
1993
1991
1990
1989
1989
1989
1989
1989
1989
1989
1989
1989
1988
1987
1985
1986
1992
2004
2024
2049
2078
2106
2123
2122
2099
2057
2010
1969
1945
1941
1951
1965
1976
1982
1983
1983
1983
1983
1983
1983
1984
1985
1985
1985
1985
1985
1985
1985
1985
1986
1987
1988
1989
1990
1990
1989
1989
1989
1989
1990
1991
1993
1994
1995
1995
1995
1995
1996
1996
1997
1999
2000
2002
2003
2005
2006
2007
2008
2008
2009
2010
2011
2011
2011
2009
2007
2005
2003
2000
1998
1995
1993
1991
1988
1986
1984
1983
1982
1982
1982
1982
1983
1983
1983
1983
1983
1983
1984
1985
1986
1987
1989
1990
1991
1991
1992
1992
1992
1993
1994
1996
1998
1999
1999
2000
2000
2000
2001
2001
2002
2003
2004
2004
2004
2005
2005
2005
2006
2006
2007
2007
2008
2008
2009
2009
2009
2009
2009
2010
2011
2012
2013
2013
2013
2013
2013
2013
2013
2014
2015
2016
2016
2016
2016
2016
2016
2017
2017
2017
2018
2018
2019
2019
2019
2019
2018
2017
2016
2016
2016
2017
2019
2020
2021
2022
2023
2024
2024
2024
2023
2022
2022
2021
2021
2021
2022
2022
2023
2023
2024
2025
2025
2024
2024
2026
2033
2045
2062
2086
2113
2139
2155
2155
2134
2097
2053
2017
1996
1994
2005
2019
2029
2033
2033
2032
2032
2032
2033
2035
2036
2037
2038
2039
2039
2040
2040
2040
2040
2041
2042
2043
2044
2045
2046
2047
2047
2048
2048
2049
2049
2050
2050
2051
2051
2052
2053
2054
2055
2056
2058
2059
2061
2063
2064
2065
2066
2067
2068
2069
2070
2071
2072
2071
2070
2068
2065
2062
2060
2057
2054
2052
2050
2048
2046
2045
2043
2042
2041
2041
2041
2040
2041
2041
2041
2040
2040
2040
2040
2040
2041
2041
2042
2042
2042
2042
2042
2041
2041
2041
2042
2042
2043
2043
2043
2043
2042
2041
2041
2041
2042
2042
2042
2042
2041
2041
2041
2040
2040
2041
2041
2041
2042
2041
2041
2040
2039
2038
2038
2039
2039
2039
2040
2040
2039
2039
2039
2039
2039
2039
2040
2040
2041
2041
2041
2041
2041
2040
2041
2041
2042
2042
2042
2042
2042
2041
2041
2041
2041
2040
2040
2040
2040
2040
2040
2041
2041
2042
2044
2045
2046
2046
2046
2044
2042
2041
2040
2040
2040
2040
2041
2042
2043
2043
2042
2042
2041
2040
2041
2046
2055
2071
2094
2119
2145
2164
2168
2152
2119
2076
2037
2012
2004
2012
2025
2035
2040
2040
2039
2039
2039
2040
2040
2040
2040
2041
2040
2040
2040
2041
2042
2043
2043
2043
2043
2043
2044
2044
2045
2045
2045
2044
2044
2043
2043
2043
2044
2044
2045
2047
2048
2049
2050
2052
2053
2053
2054
2056
2057
2059
2060
2061
2061
2062
2062
2061
2061
2060
2059
2057
2055
2052
2049
2047
2044
2042
2039
2037
2035
2034
2033
2032
2032
2032
2031
2030
2029
2029
2029
2029
2030
2030
2030
2030
2030
2030
2029
2029
2029
2029
2029
2030
2031
2031
2031
2030
2030
2030
2030
2030
2031
2031
2032
2032
2032
2031
2031
2031
2030
2029
2029
2030
2030
2031
2031
2031
2030
2030
2030
2030
2031
2031
2032
2032
2033
2032
2032
2032
2033
2033
2034
2035
2036
2036
2036
2036
2035
2036
2036
2037
2037
2038
2038
2038
2038
2037
2036
2036
2036
2036
2037
2038
2039
2039
2039
2037
2036
2034
2034
2033
2033
2034
2034
2034
2033
2033
2032
2031
2031
2031
2031
2032
2033
2035
2036
2037
2038
2038
2038
2036
2035
2035
2035
2035
2036
2037
2037
2037
2038
2039
2040
2040
2040
2040
2041
2044
2051
2065
2085
2111
2139
2163
2175
2168
2141
2099
2054
2021
2004
2006
2018
2032
2040
2043
2043
2043
2042
2042
2042
2043
2043
2044
2045
2045
2045
2045
2045
2046
2047
2048
2048
2049
2050
2051
2052
2051
2050
2049
2048
2048
2048
2048
2050
2050
2051
2051
2051
2051
2051
2053
2054
2056
2058
2060
2062
2063
2064
2065
2065
2065
2066
2067
2068
2068
2067
2064
2061
2057
2054
2051
2048
2047
2044
2041
2038
2036
2033
2031
2030
2028
2027
2027
2027
2027
2026
2026
2025
2025
2025
2025
2026
2027
2028
2028
2029
2030
2030
2030
2030
2030
2030
2030
2031
2031
2032
2032
2033
2033
2033
2033
2033
2032
2032
2032
2032
2033
2033
2033
2033
2032
2032
2031
2032
2032
2033
2034
2035
2034
2034
2033
2033
2033
2033
2033
2033
2033
2033
2032
2032
2033
2034
2035
2037
2037
2037
2037
2036
2036
2037
2037
2038
2038
2039
2039
2039
2039
2039
2039
2039
2039
2039
2040
2040
2040
2041
2041
2041
2041
2041
2042
2042
2042
2041
2041
2041
2042
2043
2044
2045
2047
2048
2048
2048
2048
2046
2044
2042
2042
2042
2042
2043
2044
2045
2045
2044
2043
2041
2040
2040
2043
2050
2064
2085
2111
2139
2165
2178
2172
2145
2101
2055
2018
1999
1998
2008
2021
2030
2033
2034
2034
2034
2035
2036
2036
2036
2035
2035
2035
2036
2036
2037
2038
2038
2039
2039
2039
2038
2038
2038
2039
2040
2042
2043
2043
2043
2043
2043
2043
2044
2045
2047
2048
2049
2050
2052
2053
2054
2056
2057
2058
2060
2061
2062
2062
2063
2062
2062
2061
2060
2058
2056
2053
2050
2047
2043
2040
2036
2034
2031
2030
2028
2028
2027
2026
2025
2024
2024
2024
2024
2025
2026
2026
2026
2026
2027
2027
2027
2027
2028
2028
2029
2030
2030
2031
2031
2031
2031
2031
2032
2032
2033
2033
2034
2035
2035
2035
2035
2035
2035
2035
2036
2036
2037
2037
2037
2037
2037
2037
2037
2037
2038
2038
2039
2040
2040
2039
2039
2039
2039
2039
2040
2040
2040
2041
2040
2040
2040
2040
2040
2040
2040
2040
2040
2041
2041
2041
2040
2039
2039
2038
2039
2040
2040
2040
2040
2039
2039
2038
2038
2038
2038
2038
2039
2039
2039
2039
2038
2038
2037
2037
2037
2037
2037
2036
2036
2036
2036
2036
2037
2038
2039
2041
2042
2042
2041
2040
2038
2037
2036
2035
2035
2036
2036
2036
2036
2036
2036
2036
2035
2034
2033
2034
2038
2047
2060
2081
2105
2132
2157
2170
2166
2142
2101
2057
2023
2006
2007
2019
2032
2040
2043
2043
2042
2042
2042
2042
2042
2042
2043
2043
2044
2045
2046
2047
2048
2048
2048
2048
2048
2049
2050
2051
2052
2052
2053
2053
2053
2054
2054
2055
2056
2057
2058
2059
2060
2061
2062
2063
2065
2066
2068
2069
2071
2072
2073
2073
2074
2074
2074
2074
2074
2073
2072
2070
2067
2064
2061
2058
2056
2053
2051
2050
2049
2048
2047
2046
2045
2044
2044
2045
2046
2046
2048
2048
2048
2048
2048
2048
2047
2048
2048
2048
2048
2048
2048
2048
2048
2048
2048
2049
2050
2050
2051
2051
2051
2051
2051
2051
2051
2051
2051
2051
2051
2051
2051
2051
2051
2050
2050
2050
2051
2051
2052
2052
2051
2051
2051
2050
2050
2051
2051
2052
2053
2053
2053
2053
2052
2052
2052
2052
2052
2053
2053
2053
2053
2053
2052
2052
2052
2051
2052
2052
2053
2053
2053
2052
2052
2051
2051
2052
2052
2052
2052
2052
2052
2052
2052
2052
2052
2052
2053
2053
2053
2053
2053
2052
2052
2052
2052
2052
2053
2053
2052
2052
2052
2052
2052
2052
2052
2052
2052
2053
2055
2056
2057
2058
2057
2056
2055
2054
2054
2054
2053
2052
2052
2051
2051
2051
2052
2052
2052
2052
2052
2051
2052
2054
2059
2071
2088
2111
2137
2162
2179
2182
2164
2128
2085
2047
2024
2019
2029
2042
2051
2055
2054
2052
2050
2050
2050
2051
2052
2053
2053
2054
2054
2054
2054
2054
2055
2055
2056
2056
2057
2057
2057
2057
2057
2057
2057
2058
2059
2060
2061
2062
2062
2062
2063
2064
2065
2067
2068
2070
2071
2072
2073
2074
2075
2076
2077
2078
2078
2079
2079
2079
2078
2076
2074
2071
2067
2064
2061
2058
2055
2052
2050
2048
2046
2044
2042
2041
2041
2041
2041
2041
2040
2040
2040
2039
2039
2040
2040
2041
2041
2041
2041
2041
2040
2040
2040
2040
2040
2041
2041
2041
2041
2041
2041
2041
2041
2041
2042
2042
2042
2042
2042
2042
2041
2041
2041
2041
2041
2041
2041
2041
2041
2041
2041
2041
2041
2041
2042
2042
2042
2042
2042
2042
2042
2041
2041
2041
2041
2042
2042
2043
2043
2043
2042
2042
2042
2042
2043
2043
2044
2044
2044
2044
2044
2044
2044
2044
2044
2045
2045
2045
2045
2045
2045
2045
2045
2045
2045
2046
2046
2046
2045
2045
2045
2045
2045
2045
2045
2046
2046
2046
2046
2046
2046
2046
2046
2047
2047
2048
2048
2048
2048
2047
2047
2047
2047
2047
2048
2048
2049
2050
2051
2052
2053
2052
2052
2052
2051
2051
2051
2051
2050
2049
2048
2048
2049
2049
2051
2051
2051
2050
2050
2050
2052
2059
2071
2090
2114
2140
2165
2181
2181
2161
2124
2081
2045
2024
2021
2031
2044
2052
2056
2055
2054
2053
2054
2054
2055
2055
2056
2057
2057
2057
2057
2057
2058
2058
2059
2060
2061
2061
2061
2062
2062
2062
2062
2063
2064
2065
2065
2066
2066
2067
2067
2067
2068
2069
2071
2073
2074
2075
2077
2078
2079
2080
2081
2083
2084
2085
2086
2086
2085
2084
2082
2080
2077
2075
2072
2069
2066
2063
2060
2057
2054
2051
2050
2049
2049
2049
2048
2048
2048
2047
2047
2046
2047
2047
2048
2048
2048
2048
2048
2048
2048
2049
2049
2049
2049
2050
2050
2051
2051
2051
2050
2050
2050
2050
2051
2052
2053
2053
2054
2053
2052
2051
2050
2049
2050
2050
2051
2051
2051
2050
2049
2048
2048
2048
2048
2049
2049
2050
2050
2050
2049
2048
2047
2047
2047
2047
2047
2047
2046
2045
2045
2045
2045
2045
2046
2046
2046
2046
2046
2046
2046
2047
2047
2047
2048
2048
2048
2048
2048
2048
2048
2048
2048
2048
2049
2050
2050
2050
2051
2050
2050
2050
2050
2050
2051
2051
2051
2051
2051
2051
2051
2050
2050
2050
2050
2051
2051
2052
2052
2052
2052
2052
2053
2054
2056
2057
2057
2056
2055
2054
2053
2052
2051
2051
2050
2051
2051
2052
2052
2052
2051
2050
2049
2049
2052
2058
2070
2089
2112
2139
2166
2184
2185
2166
2128
2081
2040
2014
2007
2015
2027
2037
2042
2043
2043
2043
2043
2043
2043
2043
2043
2043
2043
2044
2045
2045
2046
2047
2048
2048
2047
2047
2047
2048
2048
2048
2049
2049
2050
2050
2050
2051
2051
2052
2053
2055
2056
2057
2058
2058
2059
2060
2061
2063
2065
2066
2068
2069
2069
2069
2069
2068
2068
2067
2066
2064
2061
2057
2053
2048
2045
2041
2037
2035
2032
2031
2029
2028
2027
2026
2024
2024
2023
2023
2023
2024
2024
2024
2024
2024
2023
2023
2023
2023
2024
2025
2025
2025
2025
2025
2024
2024
2024
2024
2024
2024
2025
2025
2025
2025
2026
2026
2026
2026
2027
2027
2028
2028
2028
2029
2028
2028
2028
2028
2029
2029
2030
2030
2030
2031
2031
2032
2033
2033
2034
2034
2034
2035
2034
2034
2033
2033
2033
2032
2033
2033
2034
2034
2034
2034
2033
2033
2033
2034
2034
2034
2034
2034
2034
2034
2034
2034
2034
2034
2034
2034
2035
2035
2034
2034
2034
2034
2033
2033
2034
2034
2034
2035
2034
2034
2034
2034
2034
2034
2035
2035
2036
2036
2036
2035
2034
2034
2033
2033
2034
2035
2035
2035
2035
2035
2035
2036
2038
2039
2039
2039
2039
2038
2038
2037
2036
2035
2034
2034
2034
2035
2036
2036
2036
2036
2035
2034
2033
2036
2042
2052
2069
2091
2116
2142
2161
2166
2152
2119
2077
2038
2011
2004
2011
2024
2034
2038
2038
2036
2036
2037
2037
2038
2038
2038
2038
2038
2038
2039
2040
2040
2041
2041
2042
2042
2042
2042
2042
2043
2044
2045
2046
2046
2047
2047
2047
2048
2048
2048
2049
2050
2052
2053
2054
2055
2056
2058
2059
2060
2062
2063
2064
2065
2066
2066
2065
2065
2064
2063
2061
2059
2057
2053
2049
2046
2043
2040
2038
2036
2034
2033
2032
2030
2029
2029
2028
2027
2027
2028
2028
2029
2029
2030
2030
2030
2029
2029
2029
2030
2031
2031
2031
2031
2031
2030
2030
2030
2030
2030
2031
2031
2032
2032
2032
2032
2031
2031
2031
2032
2032
2032
2033
2033
2033
2033
2032
2032
2032
2033
2033
2034
2034
2035
2034
2034
2033
2033
2033
2034
2034
2035
2035
2035
2035
2035
2035
2035
2035
2035
2035
2036
2036
2037
2037
2037
2036
2036
2036
2037
2037
2038
2038
2039
2038
2038
2038
2038
2038
2038
2039
2039
2039
2039
2039
2039
2039
2039
2039
2039
2039
2040
2040
2040
2040
2040
2040
2039
2039
2039
2040
2041
2042
2042
2042
2042
2041
2041
2041
2042
2042
2042
2043
2043
2043
2043
2042
2042
2042
2043
2043
2043
2043
2044
2044
2044
2043
2042
2042
2043
2045
2047
2048
2048
2048
2046
2045
2044
2044
2044
2043
2043
2043
2043
2043
2043
2044
2043
2043
2042
2042
2043
2046
2052
2064
2081
2103
2129
2153
2170
2173
2155
2119
2076
2039
2016
2012
2021
2034
2043
2047
2046
2045
2045
2045
2045
2045
2046
2046
2046
2047
2048
2049
2050
2050
2050
2051
2051
2051
2052
2053
2054
2055
2055
2056
2056
2057
2057
2058
2058
2059
2060
2062
2063
2064
2065
2065
2066
2068
2069
2071
2073
2074
2076
2077
2078
2078
2079
2078
2078
2078
2077
2077
2075
2073
2070
2066
2062
2059
2056
2053
2051
2049
2048
2046
2044
2043
2042
2041
2041
2040
2041
2041
2041
2041
2040
2040
2040
2040
2040
2040
2041
2041
2041
2041
2041
2041
2041
2041
2041
2041
2042
2042
2042
2042
2042
2042
2042
2041
2042
2042
2043
2043
2044
2043
2043
2043
2043
2043
2043
2044
2044
2044
2044
2044
2044
2043
2043
2043
2043
2043
2044
2044
2045
2045
2044
2044
2044
2044
2044
2044
2044
2045
2045
2045
2045
2045
2045
2046
2046
2047
2047
2048
2048
2048
2047
2047
2047
2047
2048
2048
2048
2048
2048
2048
2048
2048
2048
2048
2048
2048
2048
2048
2049
2049
2049
2049
2049
2049
2049
2050
2050
2051
2051
2051
2051
2051
2051
2050
2051
2051
2053
2054
2055
2055
2055
2055
2054
2054
2055
2056
2057
2057
2057
2058
2058
2059
2060
2062
2062
2062
2062
2062
2062
2062
2061
2060
2059
2058
2058
2059
2060
2061
2062
2062
2061
2060
2059
2061
2067
2077
2094
2116
2141
2167
2187
2194
2183
2152
2110
2068
2040
2028
2033
2045
2055
2061
2062
2061
2060
2060
2061
2062
2062
2063
2064
2064
2064
2064
2064
2065
2066
2067
2067
2068
2068
2068
2068
2070
2071
2072
2073
2074
2074
2074
2074
2074
2074
2074
2075
2076
2077
2079
2080
2081
2082
2083
2084
2086
2088
2090
2091
2091
2091
2091
2090
2089
2088
2087
2085
2083
2080
2078
2074
2071
2068
2065
2063
2061
2059
2057
2056
2054
2053
2053
2052
2052
2052
2052
2053
2054
2055
2056
2056
2056
2056
2058
2059
2061
2062
2063
2064
2066
2067
2068
2069
2070
2070
2071
2072
2072
2073
2074
2075
2076
2076
2078
2079
2081
2084
2087
2089
2091
2093
2095
2096
2097
2097
2098
2100
2102
2105
2107
2109
2109
2109
2108
2106
2105
2105
2105
2106
2107
2108
2107
2106
2105
2105
2106
2107
2108
2108
2108
2108
2108
2108
2108
2108
2109
2110
2111
2112
2113
2114
2115
2116
2116
2117
2117
2117
2119
2120
2121
2121
2121
2121
2121
2123
2125
2128
2130
2132
2134
2134
2135
2135
2136
2137
2138
2138
2138
2140
2143
2146
2150
2152
2152
2152
2152
2152
2152
2153
2153
2154
2154
2154
2153
2153
2153
2154
2154
2154
2154
2152
2153
2159
2170
2187
2209
2234
2259
2279
2284
2270
2236
2190
2145
2113
2101
2106
2117
2128
2135
2136
2135
2133
2130
2128
2127
2126
2125
2125
2125
2124
2123
2120
2118
2116
2115
2114
2115
2116
2116
2115
2114
2112
2110
2108
2108
2108
2109
2109
2109
2109
2109
2108
2107
2105
2104
2104
2104
2105
2106
2106
2105
2104
2103
2102
2102
2102
2101
2101
2099
2097
2093
2088
2082
2076
2070
2064
2059
2055
2052
2048
2045
2041
2036
2033
2030
2028
2027
2026
2025
2023
2022
2020
2019
2019
2019
2019
2018
2017
2016
2016
2016
2016
2016
2016
2015
2014
2014
2013
2012
2010
2008
2007
2004
2001
1998
1993
1988
1984
1979
1976
1973
1971
1969
1967
1966
1965
1965
1964
1963
1963
1962
1962
1961
1961
1961
1960
1960
1959
1958
1957
1956
1956
1956
1956
1956
1956
1958
1959
1960
1960
1960
1960
1959
1959
1960
1961
1962
1963
1964
1964
1965
1965
1965
1964
1963
1964
1965
1966
1968
1970
1972
1973
1975
1977
1979
1980
1981
1981
1981
1981
1981
1983
1985
1987
1990
1991
1993
1995
1996
1997
1999
2001
2006
2016
2034
2058
2088
2122
2152
2171
2170
2146
2104
2055
2015
1993
1990
2002
2017
2030
2037
2040
2041
2041
2041
2043
2044
2046
2047
2048
2048
2049
2050
2050
2051
2051
2051
2052
2053
2053
2054
2054
2054
2054
2054
2054
2055
2056
2057
2058
2059
2059
2060
2062
2064
2066
2068
2070
2072
2075
2077
2079
2080
2081
2083
2085
2087
2090
2092
2092
2092
2091
2089
2087
2085
2083
2081
2078
2075
2073
2070
2068
2066
2064
2062
2061
2061
2062
2062
2061
2061
2060
2059
2059
2059
2059
2060
2061
2061
2061
2061
2061
2060
2060
2060
2061
2061
2062
2062
2063
2063
2063
2063
2063
2063
2062
2062
2063
2063
2064
2065
2065
2066
2066
2067
2067
2067
2067
2068
2068
2068
2068
2068
2069
2070
2072
2074
2076
2078
2078
2078
2077
2077
2076
2076
2076
2076
2076
2077
2077
2078
2078
2077
2077
2077
2077
2078
2079
2080
2080
2081
2081
2080
2080
2079
2079
2079
2079
2078
2078
2076
2074
2070
2067
2064
2063
2063
2064
2065
2065
2065
2066
2066
2066
2064
2063
2061
2059
2058
2057
2056
2055
2054
2054
2054
2053
2053
2052
2050
2049
2049
2054
2063
2079
2100
2124
2150
2169
2176
2164
2131
2086
2042
2011
2000
2006
2020
2032
2038
2038
2036
2034
2033
2033
2033
2033
2033
2033
2033
2034
2034
2034
2033
2033
2033
2033
2034
2035
2035
2036
2036
2036
2036
2035
2035
2034
2034
2033
2033
2034
2034
2035
2036
2037
2039
2040
2042
2043
2045
2047
2048
2050
2051
2053
2054
2054
2055
2055
2055
2054
2052
2050
2048
2045
2041
2038
2035
2032
2030
2028
2025
2023
2021
2019
2018
2017
2017
2017
2018
2018
2018
2018
2018
2018
2018
2018
2019
2020
2020
2020
2020
2020
2020
2020
2020
2020
2021
2022
2023
2023
2022
2021
2021
2020
2020
2021
2021
2022
2022
2022
2022
2021
2021
2021
2021
2022
2023
2023
2023
2023
2023
2022
2021
2021
2021
2021
2022
2022
2022
2023
2022
2022
2022
2022
2023
2023
2023
2024
2025
2025
2025
2025
2025
2025
2025
2025
2026
2027
2027
2028
2028
2028
2028
2027
2027
2027
2027
2028
2028
2029
2029
2029
2029
2029
2028
2028
2029
2029
2029
2029
2028
2028
2028
2028
2028
2029
2029
2030
2030
2030
2030
2029
2029
2028
2028
2028
2029
2030
2031
2033
2034
2035
2036
2035
2034
2033
2033
2032
2032
2032
2032
2032
2032
2032
2032
2032
2032
2032
2033
2032
2032
2035
2042
2055
2074
2097
2123
2146
2161
2160
2140
2103
2060
2025
2005
2004
2015
2028
2037
2039
2038
2036
2035
2035
2035
2036
2037
2038
2038
2039
2039
2039
2039
2039
2040
2040
2040
2041
2042
2042
2043
2043
2043
2044
2044
2045
2046
2047
2048
2048
2049
2050
2051
2052
2053
2054
2056
2057
2059
2060
2061
2062
2063
2064
2065
2066
2066
2067
2067
2066
2065
2063
2061
2058
2055
2052
2049
2047
2044
2042
2039
2036
2034
2032
2031
2030
2031
2032
2032
2032
2032
2032
2032
2031
2031
2031
2031
2032
2032
2032
2032
2032
2032
2032
2032
2032
2033
2034
2034
2034
2034
2034
2033
2033
2033
2033
2033
2033
2033
2033
2033
2033
2033
2032
2032
2032
2033
2033
2034
2034
2034
2034
2034
2033
2033
2033
2034
2034
2035
2035
2035
2035
2034
2034
2034
2035
2035
2036
2036
2036
2036
2036
2035
2035
2035
2036
2036
2037
2038
2038
2038
2038
2038
2038
2037
2037
2038
2038
2039
2039
2039
2039
2039
2039
2039
2039
2040
2040
2040
2041
2041
2040
2040
2039
2040
2040
2040
2041
2041
2041
2041
2041
2041
2041
2041
2041
2042
2042
2043
2043
2043
2042
2042
2042
2042
2042
2043
2043
2043
2043
2043
2044
2045
2046
2047
2047
2047
2046
2045
2045
2043
2042
2042
2041
2041
2041
2042
2042
2043
2043
2042
2042
2041
2042
2045
2052
2065
2085
2108
2133
2156
2168
2166
2144
2107
2065
2031
2012
2012
2023
2035
2043
2045
2043
2042
2041
2042
2043
2043
2044
2044
2044
2044
2044
2044
2045
2045
2046
2047
2048
2048
2048
2048
2048
2049
2050
2051
2052
2053
2054
2054
2055
2055
2055
2056
2057
2058
2060
2061
2063
2064
2066
2067
2068
2070
2071
2072
2073
2074
2075
2075
2075
2074
2073
2071
2069
2067
2065
2062
2059
2055
2052
2049
2047
2045
2043
2042
2041
2040
2039
2038
2037
2037
2037
2037
2037
2038
2038
2039
2039
2039
2039
2039
2038
2038
2038
2039
2040
2040
2040
2040
2040
2039
2039
2039
2039
2040
2040
2040
2040
2040
2040
2040
2039
2039
2039
2040
2040
2040
2040
2040
2040
2039
2039
2039
2039
2039
2040
2040
2040
2040
2039
2039
2039
2039
2039
2040
2040
2041
2041
2041
2040
2040
2040
2040
2040
2041
2041
2041
2042
2042
2042
2042
2042
2042
2042
2042
2043
2043
2044
2044
2044
2044
2044
2044
2044
2044
2044
2045
2045
2045
2045
2044
2044
2044
2045
2045
2046
2046
2047
2047
2046
2046
2046
2046
2046
2046
2046
2046
2047
2047
2047
2046
2046
2046
2045
2046
2046
2047
2047
2047
2046
2046
2046
2046
2048
2049
2051
2051
2051
2050
2049
2048
2048
2047
2046
2046
2047
2047
2048
2048
2048
2047
2046
2046
2045
2046
2048
2054
2066
2084
2106
2131
2155
2172
2175
2158
2124
2082
2044
2020
2015
2023
2036
2046
2049
2049
2048
2048
2048
2049
2049
2048
2049
2049
2049
2050
2050
2051
2052
2052
2052
2052
2053
2053
2054
2054
2055
2056
2057
2057
2058
2058
2058
2059
2060
2061
2062
2063
2064
2065
2066
2067
2068
2070
2071
2073
2074
2076
2077
2078
2078
2078
2078
2078
2078
2078
2077
2076
2073
2070
2066
2063
2060
2056
2054
2052
2050
2048
2047
2045
2044
2043
2042
2042
2042
2042
2042
2042
2042
2042
2042
2042
2041
2042
2042
2042
2043
2043
2044
2044
2043
2043
2043
2043
2043
2043
2044
2044
2044
2044
2044
2044
2044
2044
2044
2044
2044
2044
2044
2044
2043
2043
2043
2043
2044
2044
2045
2045
2045
2044
2044
2044
2043
2043
2044
2044
2045
2045
2045
2045
2045
2045
2045
2045
2045
2045
2046
2046
2047
2047
2047
2047
2047
2047
2047
2048
2048
2048
2049
2049
2048
2048
2048
2048
2048
2049
2049
2050
2050
2050
2050
2049
2049
2050
2050
2051
2052
2052
2052
2052
2052
2052
2052
2053
2054
2055
2056
2057
2057
2057
2057
2057
2057
2057
2058
2058
2059
2060
2060
2060
2061
2061
2062
2062
2062
2063
2064
2065
2067
2068
2068
2068
2068
2067
2067
2067
2067
2067
2066
2066
2065
2065
2066
2067
2068
2069
2070
2070
2070
2070
2074
2082
2097
2118
2144
2171
2194
2205
2198
2172
2130
2087
2053
2038
2040
2050
2064
2073
2076
2076
2074
2073
2072
2072
2073
2074
2075
2075
2076
2076
2076
2076
2076
2076
2077
2078
2078
2079
2080
2080
2080
2080
2080
2080
2081
2082
2084
2086
2086
2087
2087
2087
2088
2089
2090
2092
2093
2095
2096
2098
2099
2100
2100
2101
2101
2102
2103
2103
2103
2101
2099
2097
2094
2091
2088
2085
2081
2078
2075
2072
2068
2066
2063
2062
2061
2061
2060
2060
2059
2058
2057
2056
2056
2055
2055
2055
2056
2056
2056
2056
2055
2055
2054
2055
2055
2056
2056
2056
2056
2056
2055
2054
2054
2054
2054
2055
2056
2057
2057
2057
2056
2055
2054
2054
2054
2055
2056
2056
2055
2055
2055
2055
2055
2054
2054
2054
2054
2054
2055
2054
2054
2054
2053
2053
2052
2052
2052
2052
2052
2051
2051
2050
2050
2050
2050
2050
2049
2049
2049
2050
2049
2049
2048
2048
2046
2046
2046
2045
2045
2044
2044
2043
2043
2043
2044
2044
2044
2044
2043
2043
2042
2041
2041
2040
2040
2041
2042
2043
2043
2042
2042
2042
2043
2044
2043
2043
2043
2042
2042
2042
2041
2040
2039
2039
2039
2040
2041
2041
2041
2041
2040
2039
2039
2044
2053
2068
2090
2115
2143
2166
2178
2170
2142
2098
2051
2016
1999
1999
2011
2024
2034
2038
2039
2039
2039
2039
2040
2040
2041
2041
2042
2042
2042
2043
2043
2044
2045
2045
2046
2046
2046
2045
2045
2046
2047
2048
2049
2051
2052
2052
2053
2053
2054
2055
2055
2057
2058
2060
2061
2063
2064
2065
2066
2068
2069
2071
2072
2072
2072
2073
2073
2072
2071
2069
2066
2063
2060
2057
2053
2049
2046
2043
2040
2038
2036
2035
2035
2034
2033
2032
2031
2030
2030
2030
2030
2031
2032
2032
2032
2032
2032
2032
2032
2033
2033
2034
2034
2035
2035
2035
2035
2035
2035
2035
2035
2036
2037
2038
2038
2038
2038
2037
2037
2037
2037
2038
2038
2039
2039
2039
2038
2038
2038
2037
2037
2037
2038
2038
2039
2039
2039
2038
2038
2038
2038
2038
2039
2039
2039
2039
2040
2040
2040
2040
2040
2040
2040
2040
2041
2041
2041
2041
2041
2041
2042
2042
2042
2042
2042
2042
2042
2041
2040
2040
2039
2040
2041
2042
2044
2045
2046
2047
2046
2046
2044
2043
2043
2042
2042
2042
2043
2043
2043
2044
2044
2045
2044
2044
2043
2044
2047
2054
2067
2087
2111
2138
2164
2181
2180
2158
2118
2071
2031
2008
2005
2016
2030
2042
2047
2047
2046
2045
2045
2046
2047
2048
2048
2049
2049
2049
2049
2049
2049
2050
2051
2052
2052
2053
2053
2053
2053
2053
2054
2055
2056
2057
2058
2059
2059
2060
2060
2061
2062
2063
2065
2066
2068
2070
2071
2072
2073
2074
2074
2075
2075
2076
2077
2077
2076
2074
2072
2069
2066
2063
2059
2056
2053
2050
2048
2045
2043
2041
2039
2038
2037
2037
2037
2037
2037
2037
2036
2036
2036
2037
2037
2038
2038
2039
2039
2039
2039
2039
2039
2039
2039
2040
2041
2041
2042
2042
2042
2042
2042
2041
2041
2042
2042
2043
2043
2043
2043
2042
2042
2042
2041
2042
2042
2042
2042
2041
2041
2040
2040
2040
2040
2040
2040
2040
2041
2041
2041
2040
2040
2040
2040
2040
2041
2041
2042
2042
2042
2041
2041
2041
2041
2041
2042
2043
2043
2042
2041
2041
2041
2042
2042
2043
2042
2041
2040
2040
2039
2040
2042
2044
2047
2048
2049
2049
2048
2048
2046
2044
2044
2044
2044
2044
2045
2046
2047
2048
2048
2048
2047
2047
2048
2054
2066
2083
2105
2130
2157
2178
2186
2175
2142
2096
2052
2023
2014
2022
2036
2048
2052
2051
2050
2049
2049
2050
2051
2051
2051
2051
2052
2052
2053
2054
2055
2056
2056
2056
2056
2056
2056
2057
2058
2059
2060
2060
2060
2060
2060
2060
2060
2061
2062
2063
2063
2064
2065
2065
2066
2066
2067
2068
2069
2071
2072
2073
2074
2074
2074
2074
2073
2072
2070
2068
2066
2063
2060
2056
2052
2048
2046
2043
2041
2040
2039
2039
2038
2038
2037
2036
2035
2035
2035
2036
2037
2037
2037
2037
2036
2036
2036
2036
2036
2036
2037
2038
2038
2038
2038
2038
2038
2038
2037
2037
2036
2035
2035
2034
2034
2033
2033
2033
2033
2033
2033
2033
2033
2033
2033
2032
2032
2032
2032
2033
2034
2034
2035
2035
2034
2034
2034
2034
2034
2035
2037
2038
2040
2041
2041
2042
2042
2042
2043
2043
2044
2044
2044
2044
2044
2043
2042
2042
2042
2043
2045
2047
2048
2048
2050
2050
2051
2050
2049
2048
2048
2048
2048
2049
2050
2051
2052
2052
2052
2052
2052
2052
2053
2056
2064
2077
2097
2123
2151
2176
2191
2187
2163
2122
2076
2039
2020
2020
2032
2047
2056
2060
2060
2060
2059
2059
2060
2060
2061
2063
2064
2065
2065
2066
2066
2066
2067
2067
2068
2069
2070
2071
2072
2072
2072
2072
2073
2073
2074
2075
2076
2077
2078
2079
2080
2081
2082
2084
2085
2087
2089
2091
2092
2093
2094
2095
2096
2096
2097
2097
2097
2097
2095
2093
2090
2087
2083
2079
2076
2073
2070
2068
2066
2064
2062
2060
2059
2058
2058
2058
2058
2058
2058
2058
2058
2057
2057
2056
2056
2056
2057
2057
2057
2057
2057
2057
2057
2057
2057
2058
2058
2058
2058
2057
2057
2056
2056
2056
2055
2056
2056
2057
2057
2057
2057
2056
2056
2056
2056
2056
2056
2057
2057
2056
2056
2056
2056
2056
2056
2056
2056
2056
2057
2056
2056
2056
2055
2055
2055
2055
2056
2056
2056
2056
2055
2055
2055
2055
2055
2056
2056
2056
2056
2056
2056
2056
2056
2056
2057
2057
2057
2058
2058
2057
2057
2056
2055
2054
2053
2054
2055
2056
2057
2058
2059
2060
2060
2059
2058
2056
2055
2055
2055
2055
2055
2055
2055
2055
2055
2056
2055
2055
2054
2054
2057
2065
2079
2099
2123
2149
2171
2183
2177
2151
2110
2066
2033
2017
2020
2032
2045
2052
2054
2052
2050
2050
2049
2050
2050
2051
2052
2053
2053
2053
2052
2052
2053
2053
2054
2055
2055
2056
2057
2057
2057
2057
2057
2058
2058
2059
2060
2060
2061
2061
2062
2063
2064
2065
2066
2068
2070
2071
2072
2073
2073
2073
2073
2074
2074
2075
2075
2075
2075
2073
2071
2068
2065
2062
2058
2055
2053
2050
2048
2046
2043
2041
2040
2039
2038
2038
2038
2038
2037
2037
2037
2037
2036
2037
2037
2037
2038
2038
2038
2038
2038
2038
2037
2037
2037
2038
2038
2038
2038
2038
2038
2037
2037
2037
2036
2036
2036
2037
2037
2038
2038
2038
2037
2037
2037
2037
2038
2038
2038
2038
2038
2037
2037
2037
2037
2038
2038
2038
2038
2038
2037
2037
2037
2037
2037
2038
2038
2039
2039
2039
2039
2039
2039
2039
2039
2039
2040
2040
2040
2040
2039
2039
2039
2039
2039
2040
2040
2041
2041
2041
2040
2040
2040
2039
2039
2039
2040
2041
2041
2040
2039
2038
2037
2037
2038
2040
2041
2043
2044
2045
2045
2044
2042
2040
2039
2039
2039
2040
2041
2041
2042
2042
2042
2041
2041
2041
2041
2042
2045
2052
2066
2086
2111
2137
2159
2170
2163
2137
2097
2054
2022
2007
2009
2021
2034
2042
2045
2044
2043
2042
2042
2042
2043
2044
2044
2045
2046
2047
2048
2048
2048
2048
2048
2048
2048
2049
2050
2050
2051
2052
2052
2053
2053
2054
2054
2055
2056
2057
2058
2059
2060
2061
2062
2063
2064
2066
2067
2069
2070
2071
2071
2071
2071
2071
2071
2071
2070
2070
2068
2066
2063
2059
2056
2052
2049
2047
2044
2042
2040
2039
2037
2035
2034
2033
2033
2033
2033
2034
2034
2033
2033
2033
2033
2033
2033
2034
2034
2035
2035
2035
2035
2034
2034
2033
2033
2034
2034
2035
2035
2034
2034
2033
2033
2033
2033
2034
2034
2035
2035
2034
2033
2032
2032
2031
2031
2031
2032
2033
2034
2035
2035
2036
2036
2036
2036
2037
2037
2038
2038
2038
2037
2037
2037
2038
2040
2041
2041
2042
2042
2042
2042
2042
2043
2043
2044
2044
2045
2045
2045
2045
2045
2045
2045
2045
2045
2046
2046
2047
2047
2047
2048
2048
2048
2050
2050
2051
2051
2051
2051
2050
2050
2049
2049
2049
2049
2051
2052
2054
2055
2056
2057
2059
2059
2059
2057
2055
2054
2053
2054
2054
2054
2054
2053
2054
2055
2055
2056
2056
2056
2056
2059
2065
2077
2095
2119
2145
2171
2188
2187
2166
2128
2082
2043
2020
2017
2027
2041
2050
2055
2055
2055
2054
2053
2054
2054
2055
2055
2057
2058
2058
2058
2058
2058
2058
2059
2060
2061
2062
2062
2062
2062
2062
2062
2063
2064
2064
2064
2063
2063
2063
2063
2064
2065
2066
2067
2068
2069
2070
2072
2073
2074
2075
2075
2076
2076
2077
2078
2078
2078
2077
2076
2073
2070
2067
2063
2060
2057
2053
2050
2048
2047
2045
2043
2041
2040
2039
2039
2039
2039
2039
2039
2038
2038
2037
2037
2038
2039
2039
2039
2038
2038
2037
2036
2036
2036
2037
2038
2038
2038
2038
2037
2036
2035
2034
2034
2033
2033
2033
2032
2032
2032
2031
2031
2031
2031
2031
2030
2030
2029
2029
2028
2028
2028
2028
2028
2029
2029
2029
2029
2029
2029
2028
2028
2027
2027
2028
2028
2028
2029
2029
2028
2028
2028
2028
2028
2028
2029
2029
2029
2029
2029
2029
2029
2030
2030
2031
2031
2031
2031
2031
2031
2030
2029
2029
2028
2028
2029
2030
2031
2033
2034
2035
2035
2036
2035
2035
2033
2032
2032
2032
2032
2032
2032
2033
2033
2034
2034
2034
2034
2033
2033
2036
2044
2057
2077
2103
2131
2155
2166
2159
2132
2090
2046
2012
1995
1997
2009
2023
2032
2035
2035
2035
2034
2034
2035
2036
2036
2037
2037
2038
2038
2038
2038
2038
2039
2040
2041
2041
2042
2042
2042
2042
2043
2044
2044
2045
2046
2047
2048
2048
2048
2049
2050
2051
2052
2054
2055
2057
2058
2059
2060
2061
2062
2062
2062
2063
2063
2063
2063
2063
2062
2060
2057
2054
2051
2048
2046
2043
2040
2037
2034
2032
2031
2030
2029
2029
2029
2028
2028
2028
2028
2027
2027
2027
2027
2028
2028
2029
2030
2030
2030
2030
2030
2031
2031
2032
2032
2033
2033
2033
2033
2033
2033
2033
2034
2034
2034
2035
2035
2035
2034
2034
2033
2033
2033
2033
2034
2034
2034
2034
2034
2034
2034
2034
2034
2035
2035
2036
2036
2037
2037
2036
2036
2036
2037
2038
2038
2039
2040
2040
2040
2039
2039
2039
2039
2040
2040
2041
2042
2042
2042
2042
2041
2041
2041
2042
2042
2043
2043
2043
2042
2042
2042
2042
2042
2043
2043
2044
2044
2043
2043
2043
2043
2043
2043
2042
2042
2042
2043
2043
2044
2045
2046
2048
2048
2049
2049
2048
2047
2046
2045
2044
2044
2045
2045
2046
2047
2048
2048
2048
2047
2046
2046
2048
2053
2065
2083
2106
2132
2156
2173
2174
2156
2122
2079
2042
2020
2015
2025
2038
2048
2051
2051
2050
2049
2050
2050
2051
2052
2052
2052
2052
2052
2053
2053
2054
2055
2056
2057
2057
2058
2058
2058
2058
2059
2060
2061
2062
2062
2063
2063
2064
2065
2066
2067
2069
2071
2072
2073
2074
2075
2076
2077
2078
2079
2081
2082
2082
2082
2082
2081
2080
2079
2078
2076
2074
2072
2069
2066
2063
2059
2056
2054
2052
2050
2049
2048
2048
2047
2047
2046
2045
2045
2045
2045
2046
2046
2047
2047
2047
2047
2047
2047
2047
2047
2047
2048
2048
2048
2048
2048
2048
2048
2048
2048
2048
2048
2048
2048
2048
2048
2048
2048
2048
2048
2048
2048
2048
2048
2048
2048
2048
2048
2048
2048
2048
2048
2048
2048
2048
2048
2048
2047
2047
2047
2048
2048
2048
2048
2048
2048
2048
2048
2048
2048
2049
2049
2050
2050
2050
2050
2050
2050
2050
2050
2050
2051
2051
2052
2052
2052
2051
2051
2051
2051
2052
2052
2052
2052
2052
2052
2052
2052
2052
2052
2052
2052
2053
2053
2053
2052
2052
2052
2052
2052
2052
2051
2051
2051
2052
2052
2053
2054
2055
2057
2058
2059
2058
2057
2056
2055
2053
2053
2053
2053
2054
2055
2055
2056
2055
2055
2054
2053
2053
2055
2061
2073
2091
2114
2140
2164
2180
2181
2163
2127
2084
2048
2025
2021
2031
2044
2053
2057
2057
2055
2055
2055
2056
2056
2057
2057
2058
2058
2058
2059
2060
2061
2061
2062
2063
2063
2064
2065
2066
2067
2068
2069
2070
2071
2071
2072
2072
2073
2074
2074
2075
2077
2078
2080
2081
2082
2083
2084
2085
2086
2087
2089
2089
2090
2089
2088
2087
2087
2086
2085
2085
2083
2081
2078
2074
2070
2067
2063
2061
2059
2057
2056
2055
2054
2052
2051
2051
2050
2051
2051
2052
2052
2053
2053
2053
2053
2052
2052
2052
2052
2053
2053
2054
2054
2054
2054
2054
2055
2056
2056
2056
2056
2056
2056
2056
2056
2057
2057
2057
2057
2056
2056
2056
2057
2056
2056
2056
2057
2057
2058
2059
2059
2059
2059
2058
2058
2058
2058
2058
2058
2059
2059
2060
2060
2061
2061
2060
2060
2059
2059
2059
2059
2060
2061
2061
2061
2060
2060
2060
2060
2061
2062
2062
2062
2062
2062
2062
2062
2063
2063
2063
2063
2063
2062
2062
2062
2062
2062
2062
2062
2062
2063
2064
2064
2064
2064
2064
2063
2063
2063
2063
2063
2063
2063
2063
2063
2063
2064
2065
2066
2067
2069
2070
2070
2069
2068
2066
2064
2064
2064
2064
2065
2066
2066
2066
2066
2065
2065
2065
2064
2065
2067
2072
2083
2100
2124
2150
2177
2195
2197
2178
2141
2095
2053
2028
2021
2028
2041
2051
2058
2059
2060
2060
2059
2059
2059
2059
2059
2060
2060
2061
2061
2061
2061
2061
2061
2061
2061
2062
2062
2062
2062
2062
2062
2062
2062
2061
2061
2061
2061
2062
2063
2064
2065
2065
2066
2067
2068
2069
2071
2072
2074
2075
2076
2076
2076
2076
2076
2076
2076
2075
2074
2072
2070
2067
2064
2060
2056
2053
2049
2047
2045
2044
2042
2041
2040
2039
2037
2037
2036
2036
2037
2037
2037
2037
2037
2037
2037
2037
2037
2037
2038
2038
2038
2038
2038
2038
2038
2038
2038
2039
2039
2039
2039
2039
2039
2039
2039
2039
2039
2039
2040
2040
2040
2040
2040
2039
2039
2038
2038
2039
2039
2039
2039
2039
2038
2038
2038
2038
2038
2038
2038
2039
2039
2039
2038
2038
2038
2038
2038
2039
2040
2040
2041
2041
2042
2042
2042
2042
2042
2042
2043
2044
2044
2044
2044
2044
2044
2044
2044
2044
2045
2046
2046
2046
2046
2045
2045
2045
2045
2046
2047
2047
2048
2048
2047
2046
2046
2046
2046
2046
2046
2046
2046
2046
2047
2047
2048
2048
2050
2051
2052
2052
2051
2049
2048
2047
2046
2046
2047
2048
2048
2049
2049
2049
2048
2048
2048
2048
2048
2052
2061
2076
2097
2121
2147
2168
2177
2169
2141
2100
2058
2028
2014
2018
2031
2043
2050
2051
2050
2050
2050
2051
2051
2052
2052
2052
2052
2052
2053
2055
2056
2057
2058
2058
2059
2059
2059
2059
2060
2061
2062
2063
2064
2065
2065
2066
2066
2067
2068
2069
2071
2072
2073
2074
2075
2076
2077
2078
2079
2081
2082
2083
2084
2084
2084
2083
2083
2082
2081
2079
2077
2075
2072
2069
2066
2062
2059
2056
2054
2052
2051
2051
2051
2050
2050
2049
2049
2049
2049
2050
2050
2051
2051
2051
2051
2051
2051
2051
2051
2052
2052
2053
2053
2052
2052
2051
2051
2051
2051
2051
2052
2052
2052
2052
2052
2051
2051
2051
2050
2051
2051
2051
2051
2050
2050
2049
2048
2048
2048
2048
2049
2049
2049
2048
2048
2048
2047
2047
2047
2048
2048
2048
2047
2046
2045
2044
2044
2044
2044
2044
2044
2044
2045
2044
2044
2043
2043
2043
2043
2043
2044
2044
2044
2044
2044
2043
2043
2043
2044
2044
2045
2045
2045
2044
2043
2042
2042
2042
2042
2043
2043
2043
2044
2044
2043
2043
2043
2042
2042
2043
2043
2044
2044
2043
2043
2042
2043
2044
2045
2047
2048
2048
2048
2048
2047
2046
2045
2044
2044
2044
2045
2045
2046
2047
2047
2046
2045
2045
2045
2045
2047
2052
2062
2077
2098
2124
2150
2171
2179
2169
2140
2098
2057
2027
2016
2021
2034
2046
2053
2054
2054
2054
2055
2056
2057
2058
2059
2059
2060
2061
2062
2063
2063
2064
2065
2065
2066
2066
2067
2068
2069
2070
2070
2070
2071
2071
2071
2072
2073
2074
2076
2077
2078
2079
2080
2080
2081
2083
2084
2086
2088
2090
2091
2092
2092
2093
2093
2093
2094
2093
2093
2092
2090
2088
2084
2081
2077
2074
2071
2069
2067
2065
2064
2062
2061
2060
2059
2059
2059
2059
2059
2059
2059
2059
2059
2059
2059
2058
2059
2059
2059
2060
2060
2060
2060
2059
2059
2059
2060
2060
2061
2061
2061
2060
2060
2059
2059
2059
2059
2059
2059
2059
2059
2059
2058
2058
2057
2057
2057
2058
2058
2058
2058
2058
2058
2057
2057
2057
2057
2057
2058
2058
2059
2059
2058
2058
2057
2057
2057
2058
2059
2060
2060
2060
2059
2059
2058
2058
2059
2060
2060
2060
2060
2059
2059
2058
2058
2058
2058
2059
2060
2061
2061
2061
2061
2060
2060
2060
2060
2060
2061
2061
2062
2061
2061
2059
2059
2059
2059
2059
2060
2059
2059
2058
2058
2059
2060
2062
2064
2066
2067
2066
2065
2064
2062
2061
2060
2060
2060
2061
2061
2062
2062
2062
2061
2061
2060
2060
2060
2064
2074
2089
2111
2136
2163
2186
2195
2187
2158
2116
2072
2039
2023
2025
2036
2048
2056
2058
2058
2058
2057
2057
2057
2057
2056
2056
2055
2055
2055
2055
2056
2056
2056
2056
2056
2056
2056
2056
2057
2057
2058
2058
2057
2057
2058
2058
2059
2060
2060
2061
2061
2061
2062
2062
2063
2064
2064
2065
2066
2067
2068
2069
2070
2070
2071
2070
2069
2068
2067
2065
2063
2060
2057
2054
2050
2048
2044
2041
2039
2037
2036
2034
2033
2031
2030
2029
2028
2028
2028
2028
2028
2028
2028
2028
2028
2028
2029
2029
2029
2030
2030
2029
2029
2030
2030
2031
2032
2033
2033
2033
2033
2033
2034
2034
2034
2034
2034
2034
2034
2035
2036
2036
2036
2035
2035
2034
2033
2033
2033
2033
2034
2034
2035
2034
2033
2032
2032
2032
2033
2033
2034
2034
2034
2033
2033
2032
2031
2032
2032
2032
2033
2032
2032
2032
2032
2032
2032
2033
2033
2034
2034
2035
2034
2034
2033
2032
2032
2032
2032
2033
2033
2033
2033
2032
2032
2031
2031
2031
2031
2032
2034
2036
2037
2036
2034
2031
2030
2029
2030
2031
2032
2032
2032
2032
2031
2031
2030
2030
2030
2031
2035
2042
2055
2075
2100
2128
2155
2170
2167
2144
2103
2056
2017
1994
1991
2001
2015
2026
2032
2033
2033
2033
2033
2034
2034
2035
2035
2036
2037
2038
2039
2039
2040
2040
2040
2040
2041
2041
2042
2043
2044
2045
2045
2046
2046
2046
2047
2048
2048
2049
2051
2052
2053
2054
2054
2055
2056
2057
2059
2061
2063
2065
2066
2067
2067
2067
2067
2066
2066
2065
2064
2061
2058
2054
2050
2047
2043
2040
2038
2035
2033
2032
2030
2029
2028
2027
2027
2026
2026
2026
2026
2027
2027
2028
2028
2028
2028
2028
2029
2029
2030
2031
2032
2032
2032
2033
2033
2033
2033
2033
2034
2034
2034
2034
2034
2033
2033
2033
2033
2033
2033
2034
2034
2034
2034
2033
2033
2032
2033
2033
2034
2034
2034
2033
2033
2032
2032
2032
2032
2032
2033
2033
2033
2032
2032
2031
2031
2032
2032
2032
2033
2033
2034
2034
2034
2034
2035
2036
2037
2038
2039
2040
2040
2040
2040
2039
2039
2039
2038
2038
2038
2038
2038
2039
2040
2041
2042
2043
2044
2045
2045
2044
2042
2041
2040
2040
2040
2041
2041
2042
2043
2044
2044
2044
2044
2044
2045
2048
2058
2074
2096
2122
2149
2170
2177
2165
2134
2090
2048
2018
2007
2013
2027
2039
2046
2048
2046
2045
2045
2046
2047
2047
2048
2048
2048
2048
2048
2049
2049
2051
2052
2053
2054
2055
2055
2055
2055
2056
2057
2058
2059
2060
2060
2061
2061
2062
2063
2064
2065
2067
2069
2071
2072
2074
2075
2076
2077
2078
2079
2080
2081
2081
2082
2081
2080
2079
2077
2074
2072
2069
2065
2062
2058
2054
2051
2048
2046
2043
2042
2040
2040
2039
2039
2039
2039
2038
2038
2038
2038
2039
2039
2040
2041
2041
2041
2040
2040
2040
2041
2041
2042
2042
2042
2042
2042
2042
2042
2042
2042
2043
2043
2043
2044
2043
2043
2043
2043
2042
2043
2043
2043
2043
2043
2043
2042
2042
2042
2042
2042
2042
2043
2043
2043
2044
2043
2043
2043
2043
2043
2043
2043
2044
2044
2044
2044
2044
2044
2044
2044
2044
2044
2045
2045
2045
2044
2044
2044
2044
2044
2045
2046
2046
2046
2046
2045
2045
2045
2044
2043
2043
2043
2044
2045
2046
2047
2048
2048
2050
2051
2051
2051
2049
2048
2047
2046
2046
2047
2048
2048
2049
2049
2050
2049
2049
2048
2048
2050
2055
2066
2084
2107
2133
2158
2175
2177
2160
2124
2080
2043
2019
2014
2024
2038
2048
2052
2051
2050
2049
2049
2050
2050
2051
2052
2052
2052
2052
2053
2053
2054
2054
2055
2056
2057
2057
2058
2058
2058
2058
2059
2059
2061
2062
2063
2063
2064
2065
2066
2067
2068
2070
2071
2073
2074
2075
2077
2077
2078
2079
2080
2081
2081
2082
2082
2081
2081
2079
2078
2075
2072
2069
2066
2063
2060
2057
2054
2051
2048
2047
2045
2044
2044
2043
2043
2042
2042
2041
2041
2040
2040
2040
2041
2041
2042
2042
2042
2042
2042
2041
2042
2042
2042
2043
2043
2043
2042
2042
2042
2042
2042
2043
2043
2044
2044
2044
2044
2043
2043
2043
2042
2043
2043
2044
2044
2044
2043
2043
2043
2043
2043
2044
2044
2044
2044
2044
2044
2043
2043
2043
2043
2044
2044
2045
2045
2045
2044
2044
2044
2044
2044
2045
2046
2046
2047
2047
2048
2048
2048
2048
2048
2048
2048
2049
2049
2049
2049
2050
2050
2050
2049
2050
2050
2050
2051
2050
2050
2050
2049
2049
2049
2050
2050
2051
2051
2052
2052
2053
2054
2055
2057
2058
2058
2058
2057
2056
2054
2053
2053
2053
2053
2054
2055
2056
2057
2056
2055
2055
2055
2057
2062
2072
2088
2110
2136
2162
2181
2188
2176
2145
2102
2061
2033
2022
2028
2040
2051
2057
2059
2058
2058
2058
2058
2059
2059
2059
2060
2060
2060
2060
2061
2062
2063
2063
2064
2064
2064
2065
2065
2066
2066
2066
2066
2066
2066
2066
2065
2065
2065
2065
2066
2068
2069
2070
2071
2072
2073
2074
2075
2077
2078
2080
2081
2082
2082
2082
2082
2082
2080
2079
2076
2074
2071
2068
2065
2062
2058
2054
2051
2048
2047
2045
2044
2044
2043
2042
2041
2040
2039
2039
2039
2039
2039
2039
2039
2039
2038
2037
2037
2037
2037
2038
2038
2038
2038
2037
2037
2037
2037
2037
2037
2037
2038
2038
2037
2037
2037
2036
2036
2035
2035
2035
2036
2036
2036
2036
2035
2035
2034
2034
2035
2035
2035
2036
2035
2035
2034
2034
2034
2034
2034
2035
2035
2035
2035
2034
2034
2034
2034
2034
2034
2035
2035
2035
2036
2036
2036
2035
2035
2035
2035
2036
2036
2037
2036
2036
2036
2036
2036
2036
2036
2036
2036
2036
2036
2035
2034
2034
2033
2033
2034
2036
2038
2039
2041
2041
2041
2040
2038
2036
2035
2035
2035
2035
2036
2036
2036
2036
2037
2037
2037
2037
2037
2038
2039
2045
2054
2071
2094
2121
2147
2167
2172
2156
2122
2077
2036
2008
2000
2008
2022
2034
2041
2043
2042
2042
2042
2042
2042
2043
2043
2044
2045
2046
2047
2047
2047
2048
2048
2048
2049
2050
2051
2052
2052
2052
2052
2053
2053
2054
2055
2056
2057
2058
2059
2060
2061
2062
2063
2064
2066
2068
2069
2071
2072
2073
2074
2074
2074
2075
2075
2076
2076
2076
2074
2072
2069
2066
2062
2059
2055
2053
2050
2048
2047
2045
2043
2041
2040
2039
2039
2039
2039
2039
2039
2039
2039
2039
2039
2039
2039
2040
2040
2041
2041
2041
2040
2040
2040
2040
2040
2041
2042
2042
2043
2043
2043
2042
2042
2043
2043
2043
2043
2043
2043
2043
2044
2043
2043
2043
2043
2044
2044
2045
2045
2045
2045
2045
2045
2045
2046
2046
2047
2047
2047
2047
2046
2046
2046
2046
2046
2046
2046
2047
2047
2047
2047
2047
2047
2047
2047
2047
2048
2048
2048
2048
2048
2048
2047
2047
2047
2048
2048
2048
2048
2048
2048
2048
2048
2048
2048
2048
2049
2049
2049
2049
2048
2048
2048
2048
2048
2048
2048
2048
2048
2049
2049
2050
2051
2052
2053
2054
2054
2054
2052
2051
2049
2048
2048
2048
2048
2049
2050
2050
2051
2051
2050
2049
2049
2048
2050
2055
2065
2081
2104
2129
2155
2174
2180
2168
2137
2095
2054
2027
2017
2023
2036
2048
2053
2053
2052
2051
2051
2052
2052
2053
2053
2053
2053
2054
2054
2055
2056
2057
2057
2058
2058
2058
2058
2059
2059
2060
2061
2062
2063
2064
2064
2065
2065
2066
2067
2068
2070
2071
2073
2074
2075
2076
2077
2078
2079
2081
2082
2083
2084
2084
2084
2083
2083
2082
2080
2079
2077
2074
2070
2067
2063
2060
2057
2054
2052
2050
2049
2048
2048
2047
2046
2045
2045
2044
2044
2044
2045
2045
2045
2045
2045
2044
2044
2044
2045
2045
2046
2046
2046
2046
2045
2045
2045
2045
2045
2046
2046
2047
2047
2047
2047
2047
2046
2046
2046
2046
2046
2046
2047
2046
2046
2046
2045
2045
2045
2046
2046
2046
2046
2046
2046
2045
2045
2045
2045
2046
2046
2046
2046
2046
2046
2046
2046
2046
2046
2047
2047
2047
2047
2047
2047
2047
2047
2047
2048
2048
2048
2048
2048
2048
2048
2048
2048
2048
2048
2048
2048
2049
2049
2049
2049
2048
2048
2049
2049
2049
2049
2049
2049
2049
2049
2048
2048
2048
2049
2049
2050
2050
2050
2049
2049
2049
2048
2049
2049
2051
2053
2054
2056
2056
2056
2055
2054
2053
2051
2051
2050
2051
2051
2051
2051
2051
2051
2051
2051
2051
2051
2051
2052
2055
2062
2074
2094
2118
2144
2168
2183
2181
2159
2120
2076
2040
2020
2018
2028
2041
2049
2052
2052
2052
2051
2051
2051
2051
2051
2051
2052
2053
2054
2054
2055
2055
2056
2056
2057
2058
2058
2059
2060
2061
2062
2062
2062
2063
2063
2065
2066
2067
2068
2069
2069
2070
2071
2072
2074
2076
2078
2080
2081
2082
2083
2084
2084
2085
2085
2085
2086
2086
2085
2084
2081
2078
2074
2071
2068
2066
2063
2060
2057
2055
2053
2051
2050
2048
2048
2047
2048
2048
2048
2048
2048
2048
2047
2047
2047
2048
2048
2049
2049
2050
2050
2050
2050
2050
2050
2050
2050
2051
2051
2052
2053
2053
2052
2051
2051
2051
2051
2051
2052
2051
2051
2051
2050
2050
2051
2051
2051
2051
2051
2051
2050
2050
2050
2051
2051
2051
2051
2051
2050
2050
2050
2049
2049
2050
2050
2050
2050
2050
2050
2050
2050
2050
2050
2050
2050
2050
2051
2051
2051
2050
2050
2050
2050
2049
2049
2049
2049
2049
2049
2049
2049
2049
2049
2049
2050
2050
2051
2051
2051
2050
2050
2049
2049
2049
2049
2050
2050
2050
2051
2052
2054
2055
2055
2055
2056
2055
2055
2054
2053
2051
2050
2049
2049
2050
2050
2050
2051
2051
2050
2050
2049
2048
2050
2056
2068
2087
2111
2138
2165
2183
2184
2165
2127
2080
2038
2012
2005
2013
2027
2038
2043
2044
2043
2042
2042
2043
2043
2044
2045
2045
2045
2044
2044
2044
2044
2044
2045
2045
2046
2046
2046
2046
2046
2047
2047
2048
2048
2048
2049
2049
2049
2050
2050
2051
2052
2054
2055
2057
2059
2060
2061
2062
2063
2065
2066
2067
2068
2069
2069
2069
2068
2066
2064
2061
2058
2054
2051
2048
2044
2041
2038
2034
2032
2030
2029
2029
2028
2028
2028
2027
2027
2026
2026
2026
2026
2027
2027
2028
2028
2028
2028
2028
2028
2029
2029
2029
2030
2031
2032
2032
2032
2032
2032
2032
2031
2031
2031
2032
2032
2032
2032
2031
2030
2030
2030
2030
2031
2031
2031
2031
2030
2030
2030
2030
2030
2030
2030
2030
2030
2029
2029
2029
2029
2029
2029
2029
2030
2030
2030
2030
2030
2029
2029
2029
2030
2031
2031
2031
2031
2031
2030
2030
2030
2031
2031
2032
2032
2033
2033
2033
2032
2032
2032
2032
2032
2033
2033
2034
2033
2033
2032
2031
2031
2030
2030
2030
2031
2032
2033
2034
2035
2036
2037
2038
2038
2039
2038
2037
2036
2036
2035
2035
2035
2036
2036
2038
2038
2039
2039
2038
2037
2037
2039
2045
2055
2071
2092
2116
2140
2160
2168
2158
2129
2088
2048
2018
2007
2013
2026
2038
2044
2044
2043
2042
2042
2042
2043
2044
2045
2046
2046
2046
2046
2046
2047
2048
2048
2049
2049
2050
2050
2050
2051
2052
2052
2054
2055
2056
2057
2057
2058
2058
2059
2060
2062
2063
2065
2067
2068
2069
2070
2072
2073
2075
2076
2076
2077
2076
2076
2075
2075
2073
2071
2068
2066
2064
2062
2060
2057
2055
2052
2048
2047
2045
2044
2043
2043
2042
2042
2041
2040
2039
2039
2039
2039
2039
2040
2041
2041
2041
2041
2040
2040
2040
2040
2041
2042
2042
2043
2043
2043
2044
2045
2045
2046
2047
2047
2048
2048
2048
2048
2047
2047
2047
2047
2048
2048
2048
2048
2048
2048
2047
2047
2047
2048
2048
2048
2048
2048
2048
2048
2048
2048
2049
2049
2049
2050
2050
2051
2050
2050
2050
2050
2050
2050
2051
2051
2050
2050
2049
2049
2048
2048
2049
2049
2051
2051
2052
2053
2053
2053
2053
2053
2054
2055
2056
2057
2057
2058
2058
2059
2059
2059
2060
2060
2061
2062
2063
2064
2064
2064
2065
2066
2068
2071
2074
2077
2078
2078
2078
2076
2074
2072
2072
2071
2072
2072
2072
2071
2071
2070
2070
2069
2069
2068
2069
2070
2073
2081
2092
2109
2131
2154
2176
2190
2191
2173
2139
2098
2062
2042
2038
2048
2060
2070
2075
2075
2074
2073
2073
2073
2073
2074
2075
2076
2077
2077
2077
2077
2078
2078
2078
2078
2078
2078
2079
2079
2080
2081
2081
2081
2082
2082
2082
2082
2083
2084
2085
2086
2086
2087
2087
2088
2090
2091
2093
2095
2096
2097
2098
2098
2098
2098
2098
2097
2097
2096
2095
2093
2090
2087
2083
2079
2076
2073
2071
2068
2066
2064
2063
2061
2060
2059
2058
2058
2058
2058
2058
2058
2058
2057
2057
2057
2057
2057
2059
2060
2062
2063
2063
2064
2064
2065
2065
2065
2065
2065
2065
2065
2065
2065
2064
2064
2064
2064
2064
2064
2064
2064
2063
2063
2062
2061
2061
2061
2061
2061
2062
2062
2061
2061
2060
2060
2060
2060
2061
2061
2062
2062
2063
2063
2063
2063
2064
2064
2065
2066
2066
2066
2066
2066
2066
2066
2066
2066
2067
2067
2067
2067
2067
2067
2066
2067
2067
2067
2068
2069
2069
2069
2068
2068
2067
2067
2067
2067
2068
2069
2071
2072
2073
2073
2073
2073
2073
2074
2074
2075
2075
2075
2075
2076
2077
2078
2080
2081
2082
2082
2081
2080
2079
2078
2076
2075
2075
2075
2075
2076
2076
2076
2076
2075
2075
2074
2075
2076
2081
2090
2105
2124
2146
2170
2188
2196
2187
2160
2121
2082
2054
2043
2047
2057
2068
2075
2076
2075
2074
2074
2074
2074
2074
2073
2073
2073
2073
2073
2073
2073
2073
2073
2073
2074
2074
2074
2074
2074
2075
2075
2076
2077
2077
2078
2077
2077
2076
2076
2077
2078
2080
2080
2081
2081
2081
2081
2082
2083
2084
2084
2085
2085
2085
2084
2083
2082
2081
2080
2078
2076
2074
2071
2067
2064
2060
2057
2053
2051
2048
2047
2046
2045
2045
2045
2045
2044
2044
2044
2044
2044
2044
2044
2044
2043
2043
2043
2042
2042
2042
2042
2043
2043
2043
2043
2043
2043
2043
2043
2043
2043
2043
2043
2043
2043
2043
2043
2041
2040
2040
2040
2040
2041
2041
2040
2039
2038
2036
2036
2036
2036
2036
2036
2036
2035
2035
2034
2034
2034
2034
2034
2034
2034
2034
2034
2034
2033
2033
2034
2034
2034
2035
2036
2036
2036
2035
2034
2034
2034
2034
2035
2035
2035
2035
2035
2034
2034
2034
2034
2035
2035
2035
2035
2035
2034
2034
2033
2033
2033
2033
2033
2033
2033
2033
2034
2035
2036
2037
2038
2038
2038
2037
2036
2035
2034
2032
2032
2032
2032
2032
2033
2034
2034
2034
2034
2033
2032
2032
2034
2042
2053
2072
2096
2122
2147
2164
2165
2145
2107
2062
2023
1999
1994
2004
2018
2030
2036
2037
2037
2036
2037
2037
2038
2039
2040
2040
2040
2040
2041
2041
2042
2043
2044
2044
2044
2045
2045
2046
2046
2047
2048
2049
2049
2050
2051
2051
2052
2052
2053
2054
2056
2057
2059
2060
2061
2061
2062
2063
2065
2066
2067
2068
2069
2069
2068
2068
2067
2066
2064
2063
2061
2058
2055
2051
2048
2045
2042
2040
2038
2036
2034
2033
2032
2032
2031
2030
2030
2030
2030
2030
2031
2031
2031
2031
2032
2032
2032
2032
2033
2033
2034
2034
2035
2035
2035
2035
2035
2035
2035
2036
2036
2036
2036
2036
2036
2036
2036
2035
2035
2035
2036
2037
2037
2037
2036
2036
2035
2035
2035
2036
2036
2037
2037
2037
2036
2036
2036
2036
2036
2037
2037
2038
2038
2038
2038
2038
2038
2038
2038
2039
2039
2040
2040
2041
2041
2040
2040
2040
2040
2040
2041
2041
2042
2041
2040
2039
2039
2039
2040
2041
2043
2045
2047
2047
2046
2045
2044
2042
2042
2042
2043
2043
2043
2043
2043
2043
2043
2043
2042
2041
2041
2042
2047
2054
2068
2087
2109
2134
2158
2173
2171
2148
2107
2061
2025
2006
2006
2019
2034
2043
2047
2046
2045
2045
2045
2045
2045
2045
2046
2047
2047
2048
2048
2048
2048
2048
2048
2049
2049
2050
2051
2052
2053
2054
2055
2055
2055
2056
2057
2058
2059
2060
2061
2061
2062
2063
2063
2065
2066
2068
2070
2072
2073
2074
2074
2075
2075
2075
2074
2074
2074
2073
2071
2068
2065
2062
2058
2054
2051
2049
2048
2046
2044
2042
2041
2040
2039
2038
2038
2038
2038
2038
2038
2039
2039
2039
2039
2039
2040
2041
2041
2042
2042
2042
2042
2042
2042
2043
2043
2044
2046
2047
2048
2049
2050
2053
2058
2066
2074
2083
2091
2098
2105
2110
2113
2112
2108
2102
2094
2087
2079
2070
2059
2048
2038
2028
2019
2012
2005
1999
1993
1987
1980
1974
1969
1963
1958
1954
1950
1947
1944
1942
1941
1939
1938
1937
1936
1936
1936
1937
1937
1938
1940
1941
1942
1943
1944
1945
1946
1947
1949
1952
1955
1959
1964
1968
1972
1975
1978
1982
1987
1993
2001
2011
2020
2029
2037
2044
2050
2055
2061
2065
2070
2073
2077
2082
2091
2105
2124
2148
2174
2197
2210
2208
2188
2154
2114
2081
2063
2062
2073
2088
2099
2104
2105
2104
2104
2106
2108
2111
2113
2115
2116
2116
2116
2115
2115
2115
2116
2117
2119
2120
2121
2122
2122
2123
2124
2125
2126
2127
2128
2129
2129
2130
2131
2131
2131
2132
2132
2133
2134
2135
2135
2136
2136
2136
2136
2137
2137
2138
2138
2138
2137
2135
2134
2132
2130
2127
2125
2122
2118
2114
2110
2107
2104
2102
2100
2099
2098
2097
2096
2095
2094
2093
2093
2092
2091
2090
2090
2089
2089
2090
2090
2090
2089
2088
2087
2086
2086
2085
2085
2085
2084
2084
2083
2083
2082
2082
2081
2081
2080
2080
2080
2080
2079
2078
2077
2076
2076
2076
2076
2077
2076
2076
2074
2073
2072
2071
2070
2070
2070
2070
2069
2068
2067
2066
2066
2065
2065
2065
2065
2065
2065
2064
2063
2062
2062
2061
2061
2061
2061
2061
2060
2060
2059
2059
2058
2058
2057
2056
2055
2055
2054
2055
2056
2057
2058
2058
2058
2058
2056
2054
2052
2050
2049
2049
2049
2049
2049
2049
2050
2050
2049
2048
2048
2048
2050
2058
2072
2092
2117
2145
2169
2181
2176
2149
2108
2062
2026
2007
2006
2018
2031
2041
2046
2047
2047
2046
2046
2047
2048
2048
2048
2049
2049
2049
2049
2049
2050
2050
2051
2051
2052
2052
2053
2053
2053
2054
2054
2055
2056
2057
2058
2058
2059
2059
2059
2060
2061
2062
2064
2066
2068
2069
2070
2071
2072
2072
2073
2074
2074
2075
2075
2074
2073
2071
2069
2066
2063
2060
2056
2052
2049
2046
2043
2040
2038
2035
2034
2032
2031
2030
2029
2028
2027
2026
2025
2025
2025
2025
2025
2025
2025
2024
2024
2023
2022
2022
2022
2022
2023
2023
2023
2022
2022
2021
2021
2021
2021
2022
2022
2022
2022
2022
2023
2023
2023
2023
2023
2023
2024
2024
2025
2025
2026
2025
2025
2025
2026
2026
2026
2027
2027
2028
2028
2028
2028
2028
2028
2029
2030
2031
2031
2031
2032
2032
2033
2034
2036
2037
2038
2039
2041
2043
2046
2048
2052
2056
2061
2067
2072
2077
2080
2082
2084
2086
2089
2093
2097
2101
2103
2104
2103
2102
2099
2095
2088
2078
2066
2053
2042
2032
2022
2012
2002
1991
1979
1967
1956
1948
1943
1941
1944
1951
1964
1982
2004
2026
2043
2047
2033
2002
1962
1925
1899
1891
1897
1909
1921
1929
1933
1936
1938
1940
1942
1945
1948
1952
1955
1957
1959
1960
1962
1965
1968
1970
1972
1974
1977
1981
1986
1991
1994
1995
1994
1992
1990
1990
1991
1991
1991
1989
1988
1989
1991
1995
1998
2001
2003
2004
2005
2007
2009
2011
2012
2011
2009
2007
2005
2003
2002
2000
1997
1995
1992
1989
1986
1983
1981
1980
1978
1977
1975
1974
1974
1973
1975
1977
1980
1984
1988
1991
1995
1998
2000
2002
2005
2006
2008
2010
2012
2013
2015
2016
2017
2018
2019
2019
2021
2023
2026
2029
2031
2033
2035
2038
2040
2043
2045
2048
2050
2053
2055
2057
2058
2059
2059
2060
2061
2063
2065
2068
2070
2072
2073
2074
2075
2075
2076
2079
2082
2086
2089
2092
2093
2095
2098
2101
2104
2107
2110
2111
2112
2112
2111
2111
2112
2113
2114
2116
2117
2118
2119
2120
2121
2121
2120
2119
2119
2120
2123
2126
2129
2131
2133
2135
2136
2136
2134
2133
2131
2131
2131
2132
2133
2133
2134
2134
2134
2134
2134
2134
2133
2134
2137
2145
2159
2179
2202
2227
2247
2255
2246
2218
2177
2135
2103
2089
2090
2102
2114
2123
2125
2124
2122
2120
2119
2119
2119
2120
2120
2120
2120
2120
2119
2119
2118
2118
2118
2118
2119
2119
2119
2118
2118
2117
2116
2116
2117
2117
2117
2117
2117
2116
2115
2114
2114
2114
2114
2115
2117
2117
2118
2118
2118
2118
2118
2117
2117
2117
2116
2116
2114
2112
2109
2106
2102
2098
2094
2091
2087
2084
2082
2079
2077
2074
2072
2070
2069
2068
2067
2066
2066
2065
2065
2064
2064
2063
2063
2064
2064
2064
2064
2064
2063
2063
2062
2062
2062
2062
2062
2062
2062
2061
2060
2060
2059
2058
2058
2058
2058
2058
2057
2057
2056
2056
2056
2055
2055
2055
2055
2055
2055
2055
2054
2053
2053
2052
2052
2052
2053
2053
2052
2052
2052
2051
2051
2051
2051
2051
2051
2051
2051
2051
2051
2050
2050
2049
2049
2048
2049
2049
2050
2051
2052
2053
2054
2055
2055
2054
2052
2051
2050
2049
2050
2050
2050
2050
2051
2051
2052
2052
2052
2051
2051
2054
2061
2074
2093
2117
2143
2167
2182
2182
2161
2124
2079
2043
2021
2019
2030
2045
2055
2060
2061
2060
2060
2060
2060
2061
2062
2063
2063
2063
2063
2062
2062
2063
2064
2065
2066
2067
2067
2067
2067
2067
2067
2067
2068
2069
2069
2070
2070
2070
2070
2069
2069
2070
2071
2073
2074
2075
2076
2077
2077
2077
2077
2077
2077
2078
2079
2079
2078
2077
2075
2073
2071
2068
2065
2063
2060
2058
2056
2053
2051
2048
2047
2046
2045
2045
2045
2045
2046
2046
2045
2045
2045
2045
2045
2046
2047
2048
2048
2048
2048
2048
2048
2048
2049
2050
2051
2052
2053
2054
2054
2055
2056
2057
2058
2059
2061
2062
2064
2064
2065
2065
2065
2066
2066
2067
2068
2069
2071
2072
2074
2076
2079
2081
2084
2086
2088
2090
2092
2093
2094
2094
2095
2095
2095
2095
2095
2095
2095
2094
2094
2093
2093
2092
2092
2091
2091
2090
2089
2089
2088
2088
2086
2085
2084
2084
2084
2085
2085
2086
2087
2087
2087
2086
2084
2083
2082
2082
2082
2082
2082
2082
2082
2082
2082
2082
2081
2081
2081
2082
2085
2092
2105
2123
2146
2171
2192
2203
2196
2170
2131
2089
2057
2043
2046
2056
2069
2076
2079
2077
2076
2074
2074
2073
2073
2074
2074
2074
2074
2074
2073
2072
2071
2071
2070
2070
2070
2070
2070
2070
2069
2069
2068
2068
2068
2068
2069
2069
2069
2069
2069
2068
2068
2068
2069
2070
2071
2072
2072
2072
2072
2071
2071
2071
2071
2070
2070
2069
2068
2067
2064
2061
2056
2052
2048
2046
2044
2042
2040
2037
2035
2033
2031
2029
2028
2027
2027
2026
2025
2024
2023
2022
2021
2022
2022
2022
2023
2023
2023
2023
2023
2023
2024
2024
2024
2024
2024
2024
2024
2024
2023
2023
2023
2024
2025
2025
2026
2025
2025
2025
2025
2025
2025
2025
2026
2026
2026
2026
2026
2026
2026
2027
2027
2028
2028
2029
2029
2028
2028
2027
2026
2026
2026
2026
2027
2028
2029
2029
2029
2029
2029
2029
2029
2028
2028
2029
2029
2029
2029
2028
2027
2026
2026
2026
2026
2025
2025
2024
2024
2025
2026
2028
2029
2030
2031
2031
2030
2029
2028
2027
2027
2027
2026
2027
2027
2028
2029
2030
2030
2031
2031
2032
2035
2043
2054
2074
2098
2124
2149
2163
2161
2138
2099
2054
2017
1997
1994
2005
2019
2030
2035
2036
2036
2036
2037
2038
2039
2040
2040
2040
2041
2042
2043
2044
2044
2045
2046
2046
2047
2047
2047
2047
2048
2048
2048
2049
2050
2051
2051
2051
2051
2051
2051
2052
2052
2053
2054
2055
2056
2057
2059
2060
2060
2061
2062
2062
2063
2064
2063
2063
2062
2060
2058
2055
2052
2049
2046
2043
2040
2037
2034
2030
2028
2025
2024
2023
2022
2022
2022
2022
2021
2021
2021
2021
2020
2021
2022
2022
2022
2023
2023
2023
2023
2023
2024
2024
2024
2025
2025
2025
2025
2025
2025
2025
2025
2026
2026
2027
2027
2026
2026
2025
2025
2025
2025
2026
2026
2026
2026
2025
2025
2025
2025
2025
2025
2025
2026
2026
2027
2027
2026
2026
2026
2026
2026
2026
2027
2027
2027
2027
2027
2026
2026
2026
2026
2027
2027
2027
2027
2027
2027
2028
2029
2030
2032
2033
2035
2037
2037
2036
2034
2033
2032
2032
2032
2033
2034
2034
2035
2035
2035
2034
2034
2033
2034
2038
2048
2061
2081
2105
2130
2153
2165
2159
2134
2094
2050
2016
1999
2000
2012
2026
2036
2040
2040
2040
2040
2041
2041
2042
2043
2043
2044
2044
2045
2046
2047
2048
2048
2049
2049
2050
2050
2051
2052
2053
2054
2054
2055
2056
2056
2057
2057
2058
2059
2061
2062
2064
2065
2066
2067
2068
2070
2071
2072
2073
2075
2075
2076
2076
2076
2075
2075
2074
2072
2070
2068
2065
2062
2059
2056
2053
2050
2048
2047
2045
2045
2044
2043
2043
2042
2041
2041
2041
2041
2042
2042
2043
2043
2043
2043
2042
2042
2042
2042
2043
2044
2045
2045
2046
2045
2045
2045
2045
2045
2046
2046
2047
2047
2047
2046
2046
2046
2046
2046
2046
2046
2046
2046
2046
2045
2045
2045
2044
2045
2045
2045
2046
2046
2046
2045
2045
2044
2044
2044
2045
2045
2045
2045
2045
2045
2045
2044
2044
2044
2045
2045
2045
2046
2046
2045
2045
2045
2045
2046
2046
2047
2047
2047
2046
2046
2046
2046
2046
2046
2046
2047
2047
2047
2046
2045
2044
2043
2043
2044
2045
2046
2048
2048
2049
2050
2050
2049
2048
2047
2046
2045
2046
2047
2047
2047
2048
2048
2048
2047
2047
2047
2047
2048
2052
2060
2075
2094
2117
2142
2163
2173
2167
2141
2101
2059
2027
2012
2015
2027
2040
2048
2050
2050
2049
2048
2048
2048
2048
2049
2050
2051
2052
2052
2052
2052
2052
2052
2053
2053
2054
2055
2056
2057
2057
2058
2058
2058
2059
2060
2061
2062
2063
2064
2065
2066
2067
2068
2069
2070
2071
2072
2074
2075
2076
2076
2076
2076
2076
2076
2076
2076
2075
2074
2072
2069
2066
2063
2060
2056
2054
2051
2049
2048
2047
2045
2043
2042
2041
2040
2040
2040
2040
2040
2040
2040
2039
2039
2040
2040
2041
2041
2042
2042
2042
2041
2041
2041
2041
2041
2041
2042
2042
2042
2042
2042
2042
2042
2042
2042
2041
2042
2042
2041
2041
2041
2041
2040
2040
2040
2040
2040
2041
2041
2041
2041
2041
2040
2040
2040
2041
2042
2042
2042
2042
2041
2041
2041
2041
2041
2042
2043
2043
2043
2043
2042
2042
2042
2042
2042
2042
2042
2042
2042
2042
2042
2042
2042
2042
2042
2042
2042
2042
2042
2041
2041
2041
2042
2042
2042
2042
2042
2043
2043
2042
2042
2042
2043
2044
2045
2047
2048
2049
2050
2051
2051
2050
2050
2050
2050
2049
2049
2048
2048
2047
2047
2046
2047
2048
2048
2048
2049
2049
2048
2048
2046
2045
2044
2043
2044
2045
2046
2047
2048
2048
2048
2048
2049
2049
2050
2053
2061
2074
2092
2115
2141
2166
2184
2187
2170
2135
2092
2053
2030
2024
2032
2045
2054
2059
2060
2060
2059
2059
2059
2057
2056
2055
2054
2054
2054
2054
2054
2054
2054
2054
2054
2054
2055
2057
2059
2061
2063
2065
2067
2068
2070
2071
2072
2074
2075
2078
2080
2083
2085
2087
2089
2090
2091
2092
2093
2095
2097
2098
2099
2100
2100
2100
2100
2099
2098
2098
2096
2094
2092
2089
2085
2081
2077
2073
2069
2065
2062
2059
2055
2051
2048
2045
2043
2042
2041
2040
2040
2039
2039
2039
2038
2038
2038
2038
2038
2039
2040
2041
2042
2042
2043
2043
2044
2044
2045
2046
2046
2047
2047
2048
2048
2047
2047
2046
2046
2046
2047
2047
2046
2046
2045
2044
2044
2044
2044
2044
2044
2043
2042
2040
2038
2036
2035
2033
2032
2032
2032
2032
2032
2031
2031
2030
2029
2029
2029
2030
2030
2031
2031
2030
2030
2030
2030
2031
2031
2032
2032
2033
2033
2033
2033
2033
2033
2033
2034
2034
2035
2035
2036
2036
2035
2035
2036
2036
2036
2036
2037
2037
2037
2037
2037
2037
2036
2036
2036
2036
2036
2037
2037
2037
2037
2037
2036
2036
2036
2036
2036
2037
2037
2037
2037
2038
2039
2041
2042
2043
2044
2043
2042
2042
2041
2040
2039
2039
2039
2039
2039
2040
2040
2040
2039
2039
2038
2038
2039
2045
2053
2069
2088
2111
2135
2156
2167
2161
2136
2096
2053
2021
2006
2007
2019
2031
2040
2042
2042
2041
2040
2041
2041
2042
2043
2043
2044
2044
2044
2045
2046
2047
2048
2048
2048
2048
2048
2048
2049
2049
2050
2051
2052
2053
2054
2054
2055
2055
2056
2057
2058
2060
2061
2063
2064
2065
2066
2067
2068
2069
2071
2072
2073
2073
2073
2072
2072
2071
2070
2069
2067
2065
2062
2059
2055
2052
2049
2047
2045
2043
2042
2040
2039
2038
2037
2036
2036
2036
2036
2036
2036
2036
2036
2036
2036
2036
2036
2036
2036
2036
2037
2037
2037
2038
2038
2038
2038
2038
2038
2039
2039
2040
2040
2040
2039
2038
2038
2038
2038
2038
2039
2039
2039
2039
2038
2038
2038
2038
2038
2038
2039
2039
2039
2039
2038
2038
2038
2038
2038
2039
2039
2039
2040
2039
2039
2039
2039
2040
2040
2041
2042
2043
2043
2044
2044
2044
2044
2044
2045
2046
2046
2047
2047
2046
2045
2044
2043
2041
2041
2040
2040
2040
2040
2039
2039
2038
2037
2037
2037
2038
2038
2039
2039
2039
2039
2038
2038
2039
2039
2039
2040
2040
2041
2041
2041
2041
2041
2041
2042
2043
2043
2044
2044
2044
2044
2044
2044
2045
2045
2045
2046
2048
2049
2051
2052
2053
2053
2052
2052
2052
2053
2053
2053
2052
2052
2051
2051
2052
2053
2054
2054
2054
2054
2054
2055
2058
2066
2079
2097
2119
2144
2168
2183
2183
2163
2126
2083
2047
2027
2026
2037
2050
2059
2062
2061
2060
2060
2060
2061
2061
2063
2064
2064
2064
2064
2064
2064
2065
2065
2066
2067
2068
2069
2070
2071
2071
2071
2072
2072
2073
2074
2075
2076
2077
2077
2078
2079
2080
2081
2083
2085
2087
2088
2090
2091
2092
2093
2093
2094
2094
2094
2094
2093
2093
2091
2089
2087
2085
2082
2079
2077
2074
2070
2067
2064
2062
2060
2058
2057
2056
2056
2055
2054
2054
2053
2053
2053
2053
2053
2053
2054
2054
2054
2053
2053
2053
2052
2052
2052
2053
2053
2053
2053
2052
2051
2051
2050
2050
2050
2050
2050
2050
2049
2048
2048
2046
2045
2044
2043
2043
2043
2042
2042
2041
2040
2039
2039
2038
2038
2039
2039
2039
2039
2038
2038
2037
2037
2037
2036
2036
2037
2037
2037
2037
2036
2036
2036
2036
2036
2036
2036
2037
2037
2036
2036
2035
2035
2035
2035
2035
2036
2036
2036
2035
2035
2035
2035
2035
2035
2035
2035
2035
2035
2034
2033
2033
2032
2032
2032
2032
2032
2033
2033
2033
2033
2033
2033
2033
2033
2034
2035
2036
2036
2037
2037
2037
2037
2037
2037
2037
2038
2038
2038
2038
2038
2038
2039
2040
2042
2043
2044
2045
2044
2043
2042
2041
2040
2039
2039
2039
2040
2041
2041
2042
2041
2041
2040
2040
2040
2042
2047
2055
2070
2089
2113
2137
2158
2168
2162
2137
2097
2055
2024
2010
2012
2024
2037
2045
2047
2046
2046
2046
2046
2046
2047
2048
2048
2049
2049
2050
2051
2052
2053
2053
2053
2053
2053
2054
2054
2055
2056
2057
2058
2059
2059
2060
2060
2061
2062
2063
2065
2066
2067
2068
2069
2070
2070
2071
2073
2074
2076
2077
2078
2079
2079
2079
2078
2078
2077
2076
2075
2073
2070
2067
2063
2059
2056
2053
2051
2049
2048
2046
2044
2042
2041
2040
2039
2039
2038
2038
2038
2039
2039
2038
2038
2037
2036
2036
2036
2036
2037
2037
2037
2037
2036
2036
2036
2036
2036
2036
2037
2037
2036
2036
2035
2035
2035
2035
2035
2035
2036
2035
2035
2034
2034
2033
2033
2033
2033
2033
2033
2033
2033
2033
2033
2033
2032
2032
2032
2032
2032
2033
2033
2033
2032
2032
2031
2031
2032
2032
2032
2033
2033
2032
2032
2032
2032
2032
2033
2033
2033
2034
2034
2034
2034
2033
2033
2033
2033
2033
2033
2034
2034
2034
2034
2034
2033
2033
2034
2034
2034
2034
2034
2034
2034
2034
2034
2034
2035
2035
2035
2035
2035
2035
2035
2034
2034
2034
2035
2036
2038
2040
2041
2041
2040
2039
2038
2037
2036
2036
2036
2035
2035
2036
2036
2036
2036
2036
2036
2036
2036
2037
2039
2046
2058
2076
2099
2124
2149
2165
2166
2147
2111
2066
2027
2004
1999
2009
2023
2034
2039
2040
2040
2039
2039
2039
2039
2040
2041
2042
2043
2044
2044
2044
2044
2044
2045
2045
2046
2047
2048
2048
2048
2049
2050
2050
2051
2051
2052
2053
2054
2055
2056
2058
2059
2060
2061
2062
2064
2065
2067
2068
2070
2071
2071
2072
2072
2072
2072
2072
2072
2071
2070
2067
2065
2061
2058
2054
2051
2048
2046
2044
2042
2041
2039
2037
2035
2034
2034
2034
2034
2034
2034
2034
2034
2034
2033
2033
2033
2034
2034
2035
2035
2035
2035
2035
2035
2035
2036
2036
2036
2036
2036
2036
2035
2035
2035
2035
2035
2035
2036
2036
2036
2036
2036
2035
2035
2035
2035
2035
2036
2036
2036
2036
2036
2035
2035
2035
2035
2036
2036
2037
2037
2036
2036
2036
2035
2036
2036
2036
2037
2037
2037
2037
2037
2037
2037
2037
2037
2037
2038
2039
2040
2041
2042
2043
2044
2045
2046
2048
2048
2049
2049
2050
2050
2051
2052
2054
2056
2058
2060
2062
2064
2066
2066
2067
2068
2068
2069
2069
2070
2070
2070
2069
2069
2068
2068
2068
2069
2071
2073
2075
2076
2075
2074
2072
2070
2069
2068
2068
2068
2068
2068
2068
2068
2068
2068
2067
2067
2066
2067
2070
2076
2087
2104
2126
2151
2175
2191
2192
2174
2139
2097
2060
2039
2035
2044
2056
2067
2072
2072
2072
2071
2071
2071
2071
2072
2072
2073
2074
2075
2075
2075
2075
2075
2075
2075
2075
2075
2076
2076
2076
2077
2076
2076
2076
2075
2075
2075
2076
2076
2077
2078
2078
2079
2079
2080
2081
2082
2083
2084
2085
2086
2087
2087
2087
2088
2088
2087
2087
2086
2085
2083
2080
2077
2073
2070
2066
2063
2060
2058
2055
2053
2051
2049
2048
2047
2046
2045
2045
2045
2046
2045
2045
2044
2043
2043
2043
2043
2043
2043
2043
2042
2042
2041
2041
2040
2040
2040
2040
2040
2040
2039
2038
2037
2036
2036
2035
2035
2034
2034
2034
2033
2032
2031
2031
2030
2029
2029
2029
2029
2029
2029
2029
2029
2029
2028
2028
2028
2028
2029
2029
2029
2029
2029
2028
2028
2029
2029
2030
2031
2031
2032
2032
2031
2031
2031
2032
2032
2033
2034
2034
2034
2034
2034
2034
2034
2034
2035
2036
2036
2036
2037
2037
2037
2037
2037
2037
2037
2038
2039
2039
2039
2039
2039
2039
2038
2038
2038
2039
2039
2040
2041
2041
2042
2043
2043
2043
2043
2042
2041
2040
2039
2038
2037
2036
2036
2036
2036
2037
2038
2038
2037
2036
2035
2036
2040
2048
2061
2081
2106
2132
2154
2165
2159
2133
2092
2048
2015
1998
1999
2011
2024
2033
2036
2036
2035
2035
2035
2036
2036
2037
2038
2039
2039
2039
2039
2040
2040
2041
2042
2043
2044
2044
2044
2044
2044
2045
2045
2046
2047
2047
2047
2047
2048
2048
2049
2050
2051
2052
2053
2055
2057
2059
2060
2060
2061
2062
2062
2064
2065
2065
2065
2065
2064
2063
2061
2059
2056
2053
2049
2047
2043
2040
2038
2035
2033
2032
2030
2030
2029
2029
2029
2028
2028
2028
2028
2028
2028
2029
2029
2030
2030
2031
2031
2030
2030
2030
2030
2031
2032
2033
2034
2034
2034
2033
2033
2033
2034
2034
2035
2035
2035
2034
2034
2034
2033
2033
2034
2034
2034
2035
2035
2035
2034
2034
2033
2033
2033
2034
2035
2036
2036
2035
2035
2035
2035
2035
2036
2036
2036
2037
2037
2036
2036
2036
2036
2036
2036
2037
2038
2038
2038
2038
2037
2037
2037
2037
2037
2037
2037
2037
2037
2037
2037
2036
2035
2035
2034
2034
2033
2033
2034
2034
2035
2036
2037
2038
2039
2039
2038
2038
2036
2034
2033
2032
2032
2033
2033
2034
2035
2035
2035
2034
2033
2033
2036
2043
2056
2075
2100
2126
2151
2166
2164
2142
2103
2056
2018
1995
1991
2001
2015
2027
2032
2033
2033
2033
2033
2034
2035
2036
2037
2037
2038
2037
2037
2037
2038
2039
2040
2041
2041
2041
2042
2042
2042
2043
2044
2045
2046
2047
2048
2048
2048
2048
2049
2050
2051
2053
2055
2056
2058
2059
2060
2061
2062
2063
2064
2065
2065
2066
2065
2065
2064
2062
2060
2058
2055
2052
2049
2046
2043
2040
2038
2035
2033
2031
2029
2029
2028
2028
2027
2027
2026
2026
2025
2025
2026
2026
2027
2028
2028
2028
2028
2028
2028
2028
2029
2029
2030
2030
2030
2030
2030
2030
2030
2030
2030
2031
2032
2032
2032
2031
2031
2030
2030
2030
2030
2031
2031
2031
2031
2031
2031
2030
2030
2030
2031
2031
2031
2031
2031
2032
2032
2032
2031
2031
2030
2031
2031
2032
2032
2032
2032
2032
2032
2032
2032
2033
2034
2034
2035
2035
2034
2034
2033
2033
2033
2034
2035
2036
2036
2036
2035
2034
2034
2034
2033
2033
2033
2033
2034
2035
2036
2037
2038
2039
2040
2041
2041
2040
2039
2037
2036
2036
2036
2036
2037
2038
2038
2039
2038
2038
2038
2037
2040
2046
2057
2074
2097
2121
2146
2164
2168
2153
2119
2075
2036
2010
2003
2011
2025
2036
2042
2042
2041
2041
2041
2042
2043
2044
2044
2045
2044
2044
2045
2045
2046
2047
2048
2048
2049
2049
2050
2051
2051
2052
2052
2053
2054
2055
2056
2057
2057
2058
2059
2060
2061
2063
2064
2066
2067
2069
2070
2071
2072
2073
2073
2075
2075
2076
2076
2075
2074
2073
2071
2069
2066
2063
2060
2057
2053
2050
2048
2045
2043
2041
2040
2039
2038
2038
2038
2037
2037
2036
2036
2036
2036
2036
2037
2038
2038
2038
2038
2037
2037
2037
2037
2038
2039
2039
2039
2039
2039
2038
2038
2038
2038
2039
2039
2040
2040
2040
2040
2039
2039
2039
2039
2039
2039
2039
2039
2039
2039
2039
2039
2038
2038
2039
2039
2039
2040
2039
2039
2039
2039
2039
2039
2039
2039
2039
2040
2040
2040
2039
2039
2039
2039
2040
2040
2041
2041
2041
2040
2040
2040
2040
2041
2042
2042
2042
2043
2042
2042
2041
2041
2041
2041
2042
2042
2042
2042
2041
2040
2039
2039
2040
2041
2042
2044
2046
2047
2048
2048
2046
2044
2042
2041
2041
2041
2042
2043
2044
2044
2044
2044
2043
2043
2043
2044
2048
2056
2070
2090
2113
2139
2161
2173
2167
2142
2102
2058
2025
2008
2010
2021
2035
2043
2046
2046
2045
2045
2045
2045
2046
2046
2047
2047
2048
2048
2049
2050
2050
2050
2050
2050
2051
2052
2053
2053
2054
2055
2055
2056
2056
2056
2057
2058
2059
2060
2062
2063
2064
2065
2066
2067
2068
2070
2072
2073
2075
2076
2076
2077
2077
2077
2077
2076
2076
2075
2074
2071
2068
2064
2060
2057
2054
2051
2049
2048
2046
2044
2043
2041
2040
2039
2039
2038
2039
2039
2038
2038
2038
2038
2038
2038
2038
2039
2039
2040
2040
2040
2040
2039
2039
2039
2040
2040
2040
2041
2041
2041
2041
2041
2040
2040
2040
2039
2040
2040
2040
2040
2040
2040
2040
2040
2039
2039
2039
2039
2039
2040
2040
2039
2039
2039
2039
2039
2039
2039
2040
2040
2040
2040
2040
2040
2040
2040
2040
2041
2041
2041
2041
2041
2041
2041
2041
2041
2042
2042
2042
2043
2043
2043
2043
2043
2043
2043
2043
2043
2043
2043
2043
2043
2043
2043
2043
2042
2042
2041
2041
2042
2042
2043
2044
2045
2046
2047
2048
2048
2048
2046
2045
2044
2044
2044
2044
2045
2046
2046
2047
2046
2046
2046
2046
2048
2056
2070
2089
2113
2140
2164
2180
2180
2159
2121
2076
2038
2015
2011
2020
2034
2044
2048
2049
2049
2049
2049
2050
2051
2051
2052
2053
2053
2054
2053
2053
2054
2054
2055
2057
2058
2059
2059
2059
2059
2059
2060
2061
2063
2064
2065
2065
2065
2065
2065
2066
2068
2070
2071
2073
2075
2076
2077
2078
2079
2080
2081
2082
2083
2084
2084
2084
2083
2082
2080
2078
2075
2072
2068
2065
2061
2058
2055
2052
2049
2048
2047
2046
2045
2045
2044
2043
2043
2043
2042
2042
2041
2041
2042
2043
2043
2043
2042
2042
2041
2041
2041
2042
2043
2043
2043
2043
2042
2041
2041
2041
2041
2041
2042
2042
2042
2041
2041
2040
2039
2039
2039
2039
2039
2039
2039
2039
2039
2038
2038
2038
2037
2037
2037
2037
2038
2038
2037
2037
2036
2036
2036
2036
2037
2038
2038
2038
2037
2036
2036
2036
2037
2037
2038
2038
2038
2038
2037
2037
2036
2036
2037
2037
2038
2038
2038
2038
2037
2037
2037
2036
2036
2035
2035
2035
2036
2037
2038
2040
2041
2042
2042
2042
2041
2040
2038
2037
2037
2037
2037
2038
2038
2039
2039
2040
2039
2039
2038
2038
2040
2047
2058
2076
2099
2125
2150
2167
2169
2152
2116
2071
2032
2006
1999
2008
2022
2034
2039
2040
2039
2038
2037
2038
2039
2040
2041
2042
2042
2042
2043
2043
2043
2044
2044
2045
2046
2046
2046
2046
2046
2047
2048
2048
2050
2051
2052
2052
2052
2053
2054
2055
2057
2059
2061
2063
2064
2065
2066
2067
2068
2069
2070
2071
2072
2072
2073
2072
2071
2070
2068
2066
2063
2060
2056
2053
2050
2048
2045
2042
2040
2038
2037
2036
2035
2035
2034
2033
2033
2032
2032
2032
2032
2033
2033
2034
2035
2036
2036
2035
2035
2034
2034
2035
2036
2037
2037
2037
2037
2037
2036
2036
2036
2036
2037
2037
2038
2039
2039
2038
2038
2038
2038
2038
2038
2038
2038
2038
2037
2037
2037
2037
2037
2038
2039
2039
2039
2038
2038
2037
2036
2036
2036
2037
2037
2038
2039
2039
2040
2040
2040
2041
2041
2043
2044
2045
2046
2047
2048
2048
2049
2049
2050
2050
2051
2052
2053
2053
2053
2053
2054
2054
2055
2056
2057
2057
2057
2057
2057
2056
2056
2056
2055
2055
2055
2056
2056
2057
2058
2059
2061
2062
2063
2064
2064
2063
2061
2060
2059
2059
2059
2059
2060
2060
2060
2060
2060
2059
2058
2057
2058
2061
2068
2080
2098
2119
2144
2166
2181
2180
2160
2125
2082
2047
2027
2024
2033
2045
2053
2056
2056
2055
2054
2055
2055
2056
2056
2057
2057
2056
2056
2057
2058
2059
2060
2060
2061
2060
2060
2060
2061
2061
2062
2063
2064
2065
2066
2066
2067
2067
2067
2069
2070
2072
2073
2074
2075
2076
2077
2078
2079
2080
2081
2082
2083
2084
2084
2084
2083
2083
2082
2080
2078
2076
2073
2070
2067
2063
2060
2056
2053
2051
2050
2049
2048
2048
2047
2046
2045
2045
2044
2044
2044
2044
2044
2044
2044
2044
2044
2044
2044
2044
2044
2045
2045
2046
2046
2046
2045
2045
2044
2044
2044
2044
2044
2044
2043
2042
2041
2040
2040
2040
2040
2040
2040
2040
2039
2039
2038
2037
2037
2037
2037
2037
2037
2037
2037
2037
2037
2036
2036
2035
2036
2036
2037
2037
2037
2037
2038
2037
2037
2037
2037
2037
2038
2038
2039
2039
2039
2038
2038
2038
2039
2039
2040
2040
2040
2040
2039
2039
2039
2039
2038
2039
2039
2039
2039
2039
2039
2039
2038
2038
2038
2038
2037
2037
2036
2036
2035
2036
2036
2038
2039
2041
2042
2043
2042
2041
2040
2038
2038
2037
2038
2038
2039
2040
2041
2042
2043
2043
2043
2044
2044
2047
2052
2063
2078
2099
2122
2147
2169
2180
2173
2147
2107
2064
2032
2016
2018
2029
2042
2049
2052
2053
2053
2053
2053
2053
2054
2054
2055
2055
2056
2057
2058
2059
2059
2060
2060
2060
2061
2062
2063
2065
2067
2069
2070
2071
2071
2071
2072
2072
2074
2075
2077
2079
2080
2082
2083
2084
2085
2086
2087
2088
2090
2091
2093
2094
2095
2096
2096
2096
2096
2096
2094
2093
2090
2087
2084
2081
2079
2077
2074
2072
2071
2070
2068
2067
2066
2064
2064
2063
2063
2063
2064
2065
2065
2065
2065
2065
2064
2064
2065
2065
2066
2066
2067
2066
2066
2066
2066
2066
2066
2066
2067
2067
2067
2067
2066
2066
2066
2065
2065
2066
2066
2066
2066
2066
2065
2065
2064
2064
2064
2064
2063
2063
2062
2061
2060
2060
2060
2060
2061
2061
2062
2062
2061
2061
2060
2060
2059
2059
2059
2059
2059
2059
2059
2058
2058
2057
2057
2056
2056
2056
2056
2057
2057
2057
2057
2056
2055
2055
2054
2055
2055
2055
2055
2054
2053
2052
2052
2051
2051
2052
2051
2051
2051
2051
2051
2050
2050
2049
2049
2049
2050
2050
2050
2050
2050
2049
2049
2048
2048
2049
2051
2053
2054
2055
2054
2054
2053
2052
2051
2051
2051
2050
2050
2049
2049
2048
2048
2049
2049
2048
2048
2048
2049
2052
2059
2070
2086
2107
2131
2154
2170
2171
2154
2120
2079
2043
2021
2016
2024
2037
2047
2050
2050
2049
2048
2048
2048
2048
2048
2049
2050
2050
2050
2049
2049
2048
2048
2049
2050
2051
2053
2054
2055
2055
2055
2054
2054
2054
2054
2055
2056
2057
2057
2058
2058
2058
2058
2059
2060
2062
2064
2065
2067
2068
2068
2069
2069
2070
2071
2071
2071
2071
2070
2068
2066
2063
2059
2056
2054
2051
2049
2047
2045
2042
2040
2038
2036
2035
2034
2034
2034
2034
2034
2034
2034
2034
2035
2035
2036
2036
2036
2036
2036
2036
2036
2036
2036
2036
2036
2037
2037
2037
2037
2037
2037
2036
2036
2035
2035
2035
2035
2035
2035
2035
2034
2034
2034
2034
2034
2034
2034
2034
2034
2033
2033
2033
2033
2033
2033
2033
2034
2034
2034
2034
2034
2034
2033
2034
2034
2035
2036
2036
2036
2036
2035
2035
2035
2035
2035
2036
2037
2037
2037
2037
2037
2036
2036
2037
2037
2037
2037
2037
2038
2037
2037
2037
2037
2037
2037
2036
2037
2037
2037
2037
2037
2037
2037
2036
2037
2037
2037
2037
2037
2038
2039
2040
2041
2041
2041
2041
2040
2039
2038
2037
2037
2036
2036
2036
2036
2037
2037
2037
2037
2037
2036
2036
2038
2045
2056
2075
2098
2124
2149
2167
2169
2152
2116
2070
2030
2003
1996
2004
2017
2029
2036
2037
2037
2036
2036
2037
2037
2038
2039
2039
2040
2040
2040
2041
2041
2042
2042
2043
2044
2044
2044
2045
2045
2045
2046
2047
2048
2048
2049
2049
2050
2051
2052
2053
2054
2055
2057
2059
2060
2062
2063
2064
2065
2065
2066
2067
2068
2069
2070
2069
2069
2067
2065
2063
2061
2058
2055
2051
2048
2045
2042
2039
2037
2035
2034
2033
2032
2031
2031
2030
2030
2029
2029
2028
2029
2029
2030
2030
2030
2030
2030
2030
2031
2031
2031
2032
2032
2033
2034
2034
2034
2033
2033
2033
2033
2033
2034
2034
2034
2034
2033
2033
2032
2032
2032
2033
2034
2034
2034
2033
2033
2032
2032
2032
2032
2032
2033
2033
2034
2034
2034
2034
2034
2034
2034
2034
2035
2036
2036
2036
2036
2035
2035
2035
2035
2036
2036
2037
2037
2037
2037
2037
2037
2037
2037
2037
2038
2038
2038
2038
2038
2038
2037
2038
2038
2039
2039
2040
2040
2040
2040
2040
2040
2040
2039
2040
2040
2040
2040
2040
2040
2040
2040
2041
2043
2045
2046
2047
2047
2047
2045
2044
2043
2042
2042
2042
2043
2044
2044
2045
2045
2044
2044
2043
2043
2043
2045
2049
2059
2074
2093
2116
2141
2162
2172
2165
2138
2098
2055
2023
2008
2010
2022
2035
2043
2046
2045
2045
2044
2044
2044
2044
2044
2044
2045
2046
2047
2048
2048
2048
2048
2048
2049
2049
2050
2050
2052
2053
2054
2055
2055
2055
2055
2055
2056
2057
2059
2060
2062
2063
2064
2065
2066
2068
2069
2071
2072
2074
2074
2075
2075
2075
2075
2075
2075
2074
2073
2072
2069
2066
2062
2058
2054
2051
2048
2046
2044
2042
2040
2038
2037
2035
2034
2033
2033
2033
2033
2033
2033
2033
2033
2033
2032
2032
2032
2032
2033
2033
2033
2033
2033
2033
2032
2032
2032
2033
2033
2033
2033
2033
2032
2032
2031
2031
2031
2032
2032
2033
2033
2033
2033
2032
2031
2031
2031
2032
2033
2033
2033
2034
2033
2033
2033
2033
2033
2033
2034
2034
2034
2034
2034
2034
2034
2035
2035
2036
2036
2036
2037
2036
2036
2035
2035
2035
2036
2037
2038
2038
2038
2038
2038
2038
2039
2039
2039
2040
2040
2041
2041
2041
2041
2040
2040
2041
2041
2042
2042
2043
2043
2043
2043
2042
2042
2042
2042
2043
2043
2044
2044
2045
2045
2046
2048
2048
2049
