Time,EcgWaveform
01/10/2019 14:23:07.451,3916
01/10/2019 14:23:07.455,3916
01/10/2019 14:23:07.459,3916
01/10/2019 14:23:07.463,3916
01/10/2019 14:23:07.467,3916
01/10/2019 14:23:07.471,3916
01/10/2019 14:23:07.475,3916
01/10/2019 14:23:07.479,3916
01/10/2019 14:23:07.483,3916
01/10/2019 14:23:07.487,3916
01/10/2019 14:23:07.491,3916
01/10/2019 14:23:07.495,3916
01/10/2019 14:23:07.499,3916
01/10/2019 14:23:07.503,3916
01/10/2019 14:23:07.507,3916
01/10/2019 14:23:07.511,3916
01/10/2019 14:23:07.515,3916
01/10/2019 14:23:07.519,3916
01/10/2019 14:23:07.523,3916
01/10/2019 14:23:07.527,3916
01/10/2019 14:23:07.531,3916
01/10/2019 14:23:07.535,3916
01/10/2019 14:23:07.539,3916
01/10/2019 14:23:07.543,3916
01/10/2019 14:23:07.547,3916
01/10/2019 14:23:07.551,3916
01/10/2019 14:23:07.555,3916
01/10/2019 14:23:07.559,3916
01/10/2019 14:23:07.563,3916
01/10/2019 14:23:07.567,3916
01/10/2019 14:23:07.571,3916
01/10/2019 14:23:07.575,3916
01/10/2019 14:23:07.579,3916
01/10/2019 14:23:07.583,3916
01/10/2019 14:23:07.587,3916
01/10/2019 14:23:07.591,3916
01/10/2019 14:23:07.595,3916
01/10/2019 14:23:07.599,3916
01/10/2019 14:23:07.603,3916
01/10/2019 14:23:07.607,3916
01/10/2019 14:23:07.611,3916
01/10/2019 14:23:07.615,3916
01/10/2019 14:23:07.619,3916
01/10/2019 14:23:07.623,3916
01/10/2019 14:23:07.627,3916
01/10/2019 14:23:07.631,3916
01/10/2019 14:23:07.635,3916
01/10/2019 14:23:07.639,3916
01/10/2019 14:23:07.643,3916
01/10/2019 14:23:07.647,3916
01/10/2019 14:23:07.651,3916
01/10/2019 14:23:07.655,3916
01/10/2019 14:23:07.659,3916
01/10/2019 14:23:07.663,3916
01/10/2019 14:23:07.667,3916
01/10/2019 14:23:07.671,3916
01/10/2019 14:23:07.675,3916
01/10/2019 14:23:07.679,3916
01/10/2019 14:23:07.683,3916
01/10/2019 14:23:07.687,3916
01/10/2019 14:23:07.691,3916
01/10/2019 14:23:07.695,3916
01/10/2019 14:23:07.699,3916
01/10/2019 14:23:07.703,3916
01/10/2019 14:23:07.707,3916
01/10/2019 14:23:07.711,3916
01/10/2019 14:23:07.715,3916
01/10/2019 14:23:07.719,3916
01/10/2019 14:23:07.723,3916
01/10/2019 14:23:07.727,3916
01/10/2019 14:23:07.731,3916
01/10/2019 14:23:07.735,3916
01/10/2019 14:23:07.739,3916
01/10/2019 14:23:07.743,3916
01/10/2019 14:23:07.747,3916
01/10/2019 14:23:07.751,3916
01/10/2019 14:23:07.755,3916
01/10/2019 14:23:07.759,3916
01/10/2019 14:23:07.763,3916
01/10/2019 14:23:07.767,3916
01/10/2019 14:23:07.771,3916
01/10/2019 14:23:07.775,3916
01/10/2019 14:23:07.779,3916
01/10/2019 14:23:07.783,3916
01/10/2019 14:23:07.787,3916
01/10/2019 14:23:07.791,3916
01/10/2019 14:23:07.795,3916
01/10/2019 14:23:07.799,3916
01/10/2019 14:23:07.803,3916
01/10/2019 14:23:07.807,3916
01/10/2019 14:23:07.811,3916
01/10/2019 14:23:07.815,3916
01/10/2019 14:23:07.819,3916
01/10/2019 14:23:07.823,3916
01/10/2019 14:23:07.827,3916
01/10/2019 14:23:07.831,3916
01/10/2019 14:23:07.835,3916
01/10/2019 14:23:07.839,3916
01/10/2019 14:23:07.843,3916
01/10/2019 14:23:07.847,3916
01/10/2019 14:23:07.851,3916
01/10/2019 14:23:07.855,3916
01/10/2019 14:23:07.859,3916
01/10/2019 14:23:07.863,3916
01/10/2019 14:23:07.867,3916
01/10/2019 14:23:07.871,3916
01/10/2019 14:23:07.875,3916
01/10/2019 14:23:07.879,3916
01/10/2019 14:23:07.883,3916
01/10/2019 14:23:07.887,3916
01/10/2019 14:23:07.891,3916
01/10/2019 14:23:07.895,3916
01/10/2019 14:23:07.899,3916
01/10/2019 14:23:07.903,3916
01/10/2019 14:23:07.907,3916
01/10/2019 14:23:07.911,3916
01/10/2019 14:23:07.915,3916
01/10/2019 14:23:07.919,3916
01/10/2019 14:23:07.923,3916
01/10/2019 14:23:07.927,3916
01/10/2019 14:23:07.931,3916
01/10/2019 14:23:07.935,3916
01/10/2019 14:23:07.939,3916
01/10/2019 14:23:07.943,3916
01/10/2019 14:23:07.947,3916
01/10/2019 14:23:07.951,3916
01/10/2019 14:23:07.955,3916
01/10/2019 14:23:07.959,3916
01/10/2019 14:23:07.963,3916
01/10/2019 14:23:07.967,3916
01/10/2019 14:23:07.971,3916
01/10/2019 14:23:07.975,3916
01/10/2019 14:23:07.979,3916
01/10/2019 14:23:07.983,3916
01/10/2019 14:23:07.987,3916
01/10/2019 14:23:07.991,3916
01/10/2019 14:23:07.995,3916
01/10/2019 14:23:07.999,3916
01/10/2019 14:23:08.003,3916
01/10/2019 14:23:08.007,3916
01/10/2019 14:23:08.011,3916
01/10/2019 14:23:08.015,3916
01/10/2019 14:23:08.019,3916
01/10/2019 14:23:08.023,3916
01/10/2019 14:23:08.027,3916
01/10/2019 14:23:08.031,3916
01/10/2019 14:23:08.035,3916
01/10/2019 14:23:08.039,3916
01/10/2019 14:23:08.043,3916
01/10/2019 14:23:08.047,3916
01/10/2019 14:23:08.051,3916
01/10/2019 14:23:08.055,3916
01/10/2019 14:23:08.059,3916
01/10/2019 14:23:08.063,3916
01/10/2019 14:23:08.067,3916
01/10/2019 14:23:08.071,3916
01/10/2019 14:23:08.075,3916
01/10/2019 14:23:08.079,3916
01/10/2019 14:23:08.083,3916
01/10/2019 14:23:08.087,3916
01/10/2019 14:23:08.091,3916
01/10/2019 14:23:08.095,3916
01/10/2019 14:23:08.099,3916
01/10/2019 14:23:08.103,3916
01/10/2019 14:23:08.107,3916
01/10/2019 14:23:08.111,3916
01/10/2019 14:23:08.115,3916
01/10/2019 14:23:08.119,3916
01/10/2019 14:23:08.123,3916
01/10/2019 14:23:08.127,3916
01/10/2019 14:23:08.131,3916
01/10/2019 14:23:08.135,3916
01/10/2019 14:23:08.139,3916
01/10/2019 14:23:08.143,3916
01/10/2019 14:23:08.147,3916
01/10/2019 14:23:08.151,3916
01/10/2019 14:23:08.155,3916
01/10/2019 14:23:08.159,3916
01/10/2019 14:23:08.163,3916
01/10/2019 14:23:08.167,3916
01/10/2019 14:23:08.171,3916
01/10/2019 14:23:08.175,3916
01/10/2019 14:23:08.179,3916
01/10/2019 14:23:08.183,3916
01/10/2019 14:23:08.187,3916
01/10/2019 14:23:08.191,3916
01/10/2019 14:23:08.195,3916
01/10/2019 14:23:08.199,3916
01/10/2019 14:23:08.203,3916
01/10/2019 14:23:08.207,3916
01/10/2019 14:23:08.211,3916
01/10/2019 14:23:08.215,3916
01/10/2019 14:23:08.219,3916
01/10/2019 14:23:08.223,3916
01/10/2019 14:23:08.227,3916
01/10/2019 14:23:08.231,3916
01/10/2019 14:23:08.235,3916
01/10/2019 14:23:08.239,3916
01/10/2019 14:23:08.243,3916
01/10/2019 14:23:08.247,3916
01/10/2019 14:23:08.251,3916
01/10/2019 14:23:08.255,3916
01/10/2019 14:23:08.259,3916
01/10/2019 14:23:08.263,3916
01/10/2019 14:23:08.267,3916
01/10/2019 14:23:08.271,3916
01/10/2019 14:23:08.275,3916
01/10/2019 14:23:08.279,3916
01/10/2019 14:23:08.283,3916
01/10/2019 14:23:08.287,3916
01/10/2019 14:23:08.291,3916
01/10/2019 14:23:08.295,3916
01/10/2019 14:23:08.299,3916
01/10/2019 14:23:08.303,3916
01/10/2019 14:23:08.307,3916
01/10/2019 14:23:08.311,3916
01/10/2019 14:23:08.315,3916
01/10/2019 14:23:08.319,3916
01/10/2019 14:23:08.323,3916
01/10/2019 14:23:08.327,3916
01/10/2019 14:23:08.331,3916
01/10/2019 14:23:08.335,3916
01/10/2019 14:23:08.339,3916
01/10/2019 14:23:08.343,3916
01/10/2019 14:23:08.347,3916
01/10/2019 14:23:08.351,3916
01/10/2019 14:23:08.355,3916
01/10/2019 14:23:08.359,3916
01/10/2019 14:23:08.363,3916
01/10/2019 14:23:08.367,3916
01/10/2019 14:23:08.371,3916
01/10/2019 14:23:08.375,3916
01/10/2019 14:23:08.379,3916
01/10/2019 14:23:08.383,3916
01/10/2019 14:23:08.387,3916
01/10/2019 14:23:08.391,3916
01/10/2019 14:23:08.395,3916
01/10/2019 14:23:08.399,3916
01/10/2019 14:23:08.403,3916
01/10/2019 14:23:08.407,3916
01/10/2019 14:23:08.411,3916
01/10/2019 14:23:08.415,3916
01/10/2019 14:23:08.419,3916
01/10/2019 14:23:08.423,3916
01/10/2019 14:23:08.427,3916
01/10/2019 14:23:08.431,3916
01/10/2019 14:23:08.435,3916
01/10/2019 14:23:08.439,3916
01/10/2019 14:23:08.443,3916
01/10/2019 14:23:08.447,3916
01/10/2019 14:23:08.451,3916
01/10/2019 14:23:08.455,3916
01/10/2019 14:23:08.459,3916
01/10/2019 14:23:08.463,3916
01/10/2019 14:23:08.467,3916
01/10/2019 14:23:08.471,3916
01/10/2019 14:23:08.475,3916
01/10/2019 14:23:08.479,3916
01/10/2019 14:23:08.483,3916
01/10/2019 14:23:08.487,3916
01/10/2019 14:23:08.491,3916
01/10/2019 14:23:08.495,3916
01/10/2019 14:23:08.499,3916
01/10/2019 14:23:08.503,3916
01/10/2019 14:23:08.507,3916
01/10/2019 14:23:08.511,3916
01/10/2019 14:23:08.515,3916
01/10/2019 14:23:08.519,3916
01/10/2019 14:23:08.523,3916
01/10/2019 14:23:08.527,3916
01/10/2019 14:23:08.531,3916
01/10/2019 14:23:08.535,3916
01/10/2019 14:23:08.539,3916
01/10/2019 14:23:08.543,3916
01/10/2019 14:23:08.547,3915
01/10/2019 14:23:08.551,3914
01/10/2019 14:23:08.555,3919
01/10/2019 14:23:08.559,3921
01/10/2019 14:23:08.563,3920
01/10/2019 14:23:08.567,3912
01/10/2019 14:23:08.571,3903
01/10/2019 14:23:08.575,3894
01/10/2019 14:23:08.579,3880
01/10/2019 14:23:08.583,3869
01/10/2019 14:23:08.587,3860
01/10/2019 14:23:08.591,3851
01/10/2019 14:23:08.595,3842
01/10/2019 14:23:08.599,3832
01/10/2019 14:23:08.603,3831
01/10/2019 14:23:08.607,3833
01/10/2019 14:23:08.611,3835
01/10/2019 14:23:08.615,3835
01/10/2019 14:23:08.619,3838
01/10/2019 14:23:08.623,3846
01/10/2019 14:23:08.627,3847
01/10/2019 14:23:08.631,3839
01/10/2019 14:23:08.635,3819
01/10/2019 14:23:08.639,3791
01/10/2019 14:23:08.643,3762
01/10/2019 14:23:08.647,3732
01/10/2019 14:23:08.651,3709
01/10/2019 14:23:08.655,3694
01/10/2019 14:23:08.659,3680
01/10/2019 14:23:08.663,3663
01/10/2019 14:23:08.667,3637
01/10/2019 14:23:08.671,3613
01/10/2019 14:23:08.675,3591
01/10/2019 14:23:08.679,3571
01/10/2019 14:23:08.683,3550
01/10/2019 14:23:08.687,3527
01/10/2019 14:23:08.691,3509
01/10/2019 14:23:08.695,3488
01/10/2019 14:23:08.699,3464
01/10/2019 14:23:08.703,3441
01/10/2019 14:23:08.707,3417
01/10/2019 14:23:08.711,3387
01/10/2019 14:23:08.715,3340
01/10/2019 14:23:08.719,3286
01/10/2019 14:23:08.723,3235
01/10/2019 14:23:08.727,3185
01/10/2019 14:23:08.731,3139
01/10/2019 14:23:08.735,3100
01/10/2019 14:23:08.739,3069
01/10/2019 14:23:08.743,3043
01/10/2019 14:23:08.747,3014
01/10/2019 14:23:08.751,2990
01/10/2019 14:23:08.755,2971
01/10/2019 14:23:08.759,2958
01/10/2019 14:23:08.763,2946
01/10/2019 14:23:08.767,2931
01/10/2019 14:23:08.771,2922
01/10/2019 14:23:08.775,2917
01/10/2019 14:23:08.779,2912
01/10/2019 14:23:08.783,2904
01/10/2019 14:23:08.787,2898
01/10/2019 14:23:08.791,2903
01/10/2019 14:23:08.795,2906
01/10/2019 14:23:08.799,2904
01/10/2019 14:23:08.803,2906
01/10/2019 14:23:08.807,2914
01/10/2019 14:23:08.811,2922
01/10/2019 14:23:08.815,2922
01/10/2019 14:23:08.819,2923
01/10/2019 14:23:08.823,2932
01/10/2019 14:23:08.827,2936
01/10/2019 14:23:08.831,2934
01/10/2019 14:23:08.835,2929
01/10/2019 14:23:08.839,2928
01/10/2019 14:23:08.843,2926
01/10/2019 14:23:08.847,2916
01/10/2019 14:23:08.851,2900
01/10/2019 14:23:08.855,2881
01/10/2019 14:23:08.859,2861
01/10/2019 14:23:08.863,2835
01/10/2019 14:23:08.867,2800
01/10/2019 14:23:08.871,2768
01/10/2019 14:23:08.875,2739
01/10/2019 14:23:08.879,2703
01/10/2019 14:23:08.883,2657
01/10/2019 14:23:08.887,2608
01/10/2019 14:23:08.891,2568
01/10/2019 14:23:08.895,2526
01/10/2019 14:23:08.899,2478
01/10/2019 14:23:08.903,2441
01/10/2019 14:23:08.907,2422
01/10/2019 14:23:08.911,2411
01/10/2019 14:23:08.915,2394
01/10/2019 14:23:08.919,2385
01/10/2019 14:23:08.923,2394
01/10/2019 14:23:08.927,2402
01/10/2019 14:23:08.931,2394
01/10/2019 14:23:08.935,2359
01/10/2019 14:23:08.939,2294
01/10/2019 14:23:08.943,2194
01/10/2019 14:23:08.947,2069
01/10/2019 14:23:08.951,1957
01/10/2019 14:23:08.955,1884
01/10/2019 14:23:08.959,1855
01/10/2019 14:23:08.963,1860
01/10/2019 14:23:08.967,1876
01/10/2019 14:23:08.971,1907
01/10/2019 14:23:08.975,1947
01/10/2019 14:23:08.979,1982
01/10/2019 14:23:08.983,2026
01/10/2019 14:23:08.987,2083
01/10/2019 14:23:08.991,2111
01/10/2019 14:23:08.995,2059
01/10/2019 14:23:08.999,1922
01/10/2019 14:23:09.003,1765
01/10/2019 14:23:09.007,1678
01/10/2019 14:23:09.011,1711
01/10/2019 14:23:09.015,1852
01/10/2019 14:23:09.019,2059
01/10/2019 14:23:09.023,2270
01/10/2019 14:23:09.027,2423
01/10/2019 14:23:09.031,2514
01/10/2019 14:23:09.035,2571
01/10/2019 14:23:09.039,2640
01/10/2019 14:23:09.043,2724
01/10/2019 14:23:09.047,2788
01/10/2019 14:23:09.051,2864
01/10/2019 14:23:09.055,2936
01/10/2019 14:23:09.059,2974
01/10/2019 14:23:09.063,2924
01/10/2019 14:23:09.067,2758
01/10/2019 14:23:09.071,2537
01/10/2019 14:23:09.075,2342
01/10/2019 14:23:09.079,2226
01/10/2019 14:23:09.083,2207
01/10/2019 14:23:09.087,2280
01/10/2019 14:23:09.091,2413
01/10/2019 14:23:09.095,2544
01/10/2019 14:23:09.099,2643
01/10/2019 14:23:09.103,2729
01/10/2019 14:23:09.107,2841
01/10/2019 14:23:09.111,2942
01/10/2019 14:23:09.115,3012
01/10/2019 14:23:09.119,3079
01/10/2019 14:23:09.123,3164
01/10/2019 14:23:09.127,3250
01/10/2019 14:23:09.131,3322
01/10/2019 14:23:09.135,3374
01/10/2019 14:23:09.139,3414
01/10/2019 14:23:09.143,3435
01/10/2019 14:23:09.147,3432
01/10/2019 14:23:09.151,3416
01/10/2019 14:23:09.155,3414
01/10/2019 14:23:09.159,3432
01/10/2019 14:23:09.163,3476
01/10/2019 14:23:09.167,3505
01/10/2019 14:23:09.171,3547
01/10/2019 14:23:09.175,3608
01/10/2019 14:23:09.179,3679
01/10/2019 14:23:09.183,3730
01/10/2019 14:23:09.187,3768
01/10/2019 14:23:09.191,3791
01/10/2019 14:23:09.195,3800
01/10/2019 14:23:09.199,3779
01/10/2019 14:23:09.203,3751
01/10/2019 14:23:09.207,3738
01/10/2019 14:23:09.211,3764
01/10/2019 14:23:09.215,3782
01/10/2019 14:23:09.219,3824
01/10/2019 14:23:09.223,3884
01/10/2019 14:23:09.227,3925
01/10/2019 14:23:09.231,3918
01/10/2019 14:23:09.235,3866
01/10/2019 14:23:09.239,3784
01/10/2019 14:23:09.243,3685
01/10/2019 14:23:09.247,3554
01/10/2019 14:23:09.251,3428
01/10/2019 14:23:09.255,3328
01/10/2019 14:23:09.259,3250
01/10/2019 14:23:09.263,3180
01/10/2019 14:23:09.267,3140
01/10/2019 14:23:09.271,3121
01/10/2019 14:23:09.275,3115
01/10/2019 14:23:09.279,3111
01/10/2019 14:23:09.283,3097
01/10/2019 14:23:09.287,3093
01/10/2019 14:23:09.291,3120
01/10/2019 14:23:09.295,3161
01/10/2019 14:23:09.299,3190
01/10/2019 14:23:09.303,3218
01/10/2019 14:23:09.307,3238
01/10/2019 14:23:09.311,3227
01/10/2019 14:23:09.315,3167
01/10/2019 14:23:09.319,3093
01/10/2019 14:23:09.323,3046
01/10/2019 14:23:09.327,3029
01/10/2019 14:23:09.331,3032
01/10/2019 14:23:09.335,3056
01/10/2019 14:23:09.339,3095
01/10/2019 14:23:09.343,3131
01/10/2019 14:23:09.347,3138
01/10/2019 14:23:09.351,3119
01/10/2019 14:23:09.355,3091
01/10/2019 14:23:09.359,3071
01/10/2019 14:23:09.363,3054
01/10/2019 14:23:09.367,3026
01/10/2019 14:23:09.371,3007
01/10/2019 14:23:09.375,3000
01/10/2019 14:23:09.379,2988
01/10/2019 14:23:09.383,2955
01/10/2019 14:23:09.387,2918
01/10/2019 14:23:09.391,2902
01/10/2019 14:23:09.395,2884
01/10/2019 14:23:09.399,2847
01/10/2019 14:23:09.403,2812
01/10/2019 14:23:09.407,2793
01/10/2019 14:23:09.411,2778
01/10/2019 14:23:09.415,2747
01/10/2019 14:23:09.419,2715
01/10/2019 14:23:09.423,2702
01/10/2019 14:23:09.427,2690
01/10/2019 14:23:09.431,2672
01/10/2019 14:23:09.435,2649
01/10/2019 14:23:09.439,2638
01/10/2019 14:23:09.443,2636
01/10/2019 14:23:09.447,2629
01/10/2019 14:23:09.451,2617
01/10/2019 14:23:09.455,2611
01/10/2019 14:23:09.459,2615
01/10/2019 14:23:09.463,2616
01/10/2019 14:23:09.467,2602
01/10/2019 14:23:09.471,2595
01/10/2019 14:23:09.475,2603
01/10/2019 14:23:09.479,2610
01/10/2019 14:23:09.483,2594
01/10/2019 14:23:09.487,2573
01/10/2019 14:23:09.491,2567
01/10/2019 14:23:09.495,2555
01/10/2019 14:23:09.499,2524
01/10/2019 14:23:09.503,2493
01/10/2019 14:23:09.507,2477
01/10/2019 14:23:09.511,2470
01/10/2019 14:23:09.515,2449
01/10/2019 14:23:09.519,2426
01/10/2019 14:23:09.523,2418
01/10/2019 14:23:09.527,2416
01/10/2019 14:23:09.531,2407
01/10/2019 14:23:09.535,2398
01/10/2019 14:23:09.539,2399
01/10/2019 14:23:09.543,2417
01/10/2019 14:23:09.547,2442
01/10/2019 14:23:09.551,2472
01/10/2019 14:23:09.555,2511
01/10/2019 14:23:09.559,2563
01/10/2019 14:23:09.563,2615
01/10/2019 14:23:09.567,2645
01/10/2019 14:23:09.571,2665
01/10/2019 14:23:09.575,2694
01/10/2019 14:23:09.579,2732
01/10/2019 14:23:09.583,2772
01/10/2019 14:23:09.587,2819
01/10/2019 14:23:09.591,2888
01/10/2019 14:23:09.595,2964
01/10/2019 14:23:09.599,3022
01/10/2019 14:23:09.603,3063
01/10/2019 14:23:09.607,3098
01/10/2019 14:23:09.611,3123
01/10/2019 14:23:09.615,3119
01/10/2019 14:23:09.619,3095
01/10/2019 14:23:09.623,3057
01/10/2019 14:23:09.627,3006
01/10/2019 14:23:09.631,2948
01/10/2019 14:23:09.635,2895
01/10/2019 14:23:09.639,2863
01/10/2019 14:23:09.643,2803
01/10/2019 14:23:09.647,2787
01/10/2019 14:23:09.651,2824
01/10/2019 14:23:09.655,2934
01/10/2019 14:23:09.659,3110
01/10/2019 14:23:09.663,3263
01/10/2019 14:23:09.667,3298
01/10/2019 14:23:09.671,3172
01/10/2019 14:23:09.675,2920
01/10/2019 14:23:09.679,2623
01/10/2019 14:23:09.683,2368
01/10/2019 14:23:09.687,2206
01/10/2019 14:23:09.691,2156
01/10/2019 14:23:09.695,2134
01/10/2019 14:23:09.699,2097
01/10/2019 14:23:09.703,2117
01/10/2019 14:23:09.707,2193
01/10/2019 14:23:09.711,2265
01/10/2019 14:23:09.715,2311
01/10/2019 14:23:09.719,2275
01/10/2019 14:23:09.723,2162
01/10/2019 14:23:09.727,2027
01/10/2019 14:23:09.731,1932
01/10/2019 14:23:09.735,1924
01/10/2019 14:23:09.739,1997
01/10/2019 14:23:09.743,2100
01/10/2019 14:23:09.747,2202
01/10/2019 14:23:09.751,2253
01/10/2019 14:23:09.755,2276
01/10/2019 14:23:09.759,2293
01/10/2019 14:23:09.763,2286
01/10/2019 14:23:09.767,2224
01/10/2019 14:23:09.771,2137
01/10/2019 14:23:09.775,2036
01/10/2019 14:23:09.779,1935
01/10/2019 14:23:09.783,1847
01/10/2019 14:23:09.787,1779
01/10/2019 14:23:09.791,1738
01/10/2019 14:23:09.795,1717
01/10/2019 14:23:09.799,1699
01/10/2019 14:23:09.803,1683
01/10/2019 14:23:09.807,1680
01/10/2019 14:23:09.811,1692
01/10/2019 14:23:09.815,1711
01/10/2019 14:23:09.819,1734
01/10/2019 14:23:09.823,1761
01/10/2019 14:23:09.827,1786
01/10/2019 14:23:09.831,1807
01/10/2019 14:23:09.835,1828
01/10/2019 14:23:09.839,1855
01/10/2019 14:23:09.843,1884
01/10/2019 14:23:09.847,1909
01/10/2019 14:23:09.851,1932
01/10/2019 14:23:09.855,1954
01/10/2019 14:23:09.859,1972
01/10/2019 14:23:09.863,1987
01/10/2019 14:23:09.867,1994
01/10/2019 14:23:09.871,2001
01/10/2019 14:23:09.875,2006
01/10/2019 14:23:09.879,2009
01/10/2019 14:23:09.883,2008
01/10/2019 14:23:09.887,2002
01/10/2019 14:23:09.891,1997
01/10/2019 14:23:09.895,1991
01/10/2019 14:23:09.899,1980
01/10/2019 14:23:09.903,1971
01/10/2019 14:23:09.907,1963
01/10/2019 14:23:09.911,1958
01/10/2019 14:23:09.915,1951
01/10/2019 14:23:09.919,1947
01/10/2019 14:23:09.923,1945
01/10/2019 14:23:09.927,1943
01/10/2019 14:23:09.931,1940
01/10/2019 14:23:09.935,1938
01/10/2019 14:23:09.939,1937
01/10/2019 14:23:09.943,1938
01/10/2019 14:23:09.947,1935
01/10/2019 14:23:09.951,1935
01/10/2019 14:23:09.955,1936
01/10/2019 14:23:09.959,1939
01/10/2019 14:23:09.963,1941
01/10/2019 14:23:09.967,1941
01/10/2019 14:23:09.971,1943
01/10/2019 14:23:09.975,1947
01/10/2019 14:23:09.979,1949
01/10/2019 14:23:09.983,1951
01/10/2019 14:23:09.987,1950
01/10/2019 14:23:09.991,1953
01/10/2019 14:23:09.995,1956
01/10/2019 14:23:09.999,1960
01/10/2019 14:23:10.003,1964
01/10/2019 14:23:10.007,1968
01/10/2019 14:23:10.011,1973
01/10/2019 14:23:10.015,1974
01/10/2019 14:23:10.019,1975
01/10/2019 14:23:10.023,1979
01/10/2019 14:23:10.027,1981
01/10/2019 14:23:10.031,1984
01/10/2019 14:23:10.035,1987
01/10/2019 14:23:10.039,1993
01/10/2019 14:23:10.043,1998
01/10/2019 14:23:10.047,2001
01/10/2019 14:23:10.051,2004
01/10/2019 14:23:10.055,2007
01/10/2019 14:23:10.059,2010
01/10/2019 14:23:10.063,2012
01/10/2019 14:23:10.067,2011
01/10/2019 14:23:10.071,2013
01/10/2019 14:23:10.075,2016
01/10/2019 14:23:10.079,2019
01/10/2019 14:23:10.083,2021
01/10/2019 14:23:10.087,2023
01/10/2019 14:23:10.091,2025
01/10/2019 14:23:10.095,2028
01/10/2019 14:23:10.099,2028
01/10/2019 14:23:10.103,2030
01/10/2019 14:23:10.107,2030
01/10/2019 14:23:10.111,2028
01/10/2019 14:23:10.115,2025
01/10/2019 14:23:10.119,2023
01/10/2019 14:23:10.123,2027
01/10/2019 14:23:10.127,2032
01/10/2019 14:23:10.131,2033
01/10/2019 14:23:10.135,2033
01/10/2019 14:23:10.139,2032
01/10/2019 14:23:10.143,2034
01/10/2019 14:23:10.147,2033
01/10/2019 14:23:10.151,2033
01/10/2019 14:23:10.155,2034
01/10/2019 14:23:10.159,2035
01/10/2019 14:23:10.163,2038
01/10/2019 14:23:10.167,2039
01/10/2019 14:23:10.171,2041
01/10/2019 14:23:10.175,2042
01/10/2019 14:23:10.179,2041
01/10/2019 14:23:10.183,2040
01/10/2019 14:23:10.187,2038
01/10/2019 14:23:10.191,2040
01/10/2019 14:23:10.195,2042
01/10/2019 14:23:10.199,2041
01/10/2019 14:23:10.203,2042
01/10/2019 14:23:10.207,2044
01/10/2019 14:23:10.211,2044
01/10/2019 14:23:10.215,2041
01/10/2019 14:23:10.219,2040
01/10/2019 14:23:10.223,2043
01/10/2019 14:23:10.227,2046
01/10/2019 14:23:10.231,2051
01/10/2019 14:23:10.235,2054
01/10/2019 14:23:10.239,2055
01/10/2019 14:23:10.243,2054
01/10/2019 14:23:10.247,2050
01/10/2019 14:23:10.251,2049
01/10/2019 14:23:10.255,2050
01/10/2019 14:23:10.259,2051
01/10/2019 14:23:10.263,2056
01/10/2019 14:23:10.267,2054
01/10/2019 14:23:10.271,2057
01/10/2019 14:23:10.275,2060
01/10/2019 14:23:10.279,2063
01/10/2019 14:23:10.283,2065
01/10/2019 14:23:10.287,2066
01/10/2019 14:23:10.291,2069
01/10/2019 14:23:10.295,2070
01/10/2019 14:23:10.299,2069
01/10/2019 14:23:10.303,2070
01/10/2019 14:23:10.307,2070
01/10/2019 14:23:10.311,2073
01/10/2019 14:23:10.315,2072
01/10/2019 14:23:10.319,2071
01/10/2019 14:23:10.323,2074
01/10/2019 14:23:10.327,2075
01/10/2019 14:23:10.331,2074
01/10/2019 14:23:10.335,2074
01/10/2019 14:23:10.339,2076
01/10/2019 14:23:10.343,2078
01/10/2019 14:23:10.347,2074
01/10/2019 14:23:10.351,2070
01/10/2019 14:23:10.355,2067
01/10/2019 14:23:10.359,2067
01/10/2019 14:23:10.363,2071
01/10/2019 14:23:10.367,2075
01/10/2019 14:23:10.371,2082
01/10/2019 14:23:10.375,2085
01/10/2019 14:23:10.379,2086
01/10/2019 14:23:10.383,2084
01/10/2019 14:23:10.387,2080
01/10/2019 14:23:10.391,2082
01/10/2019 14:23:10.395,2084
01/10/2019 14:23:10.399,2083
01/10/2019 14:23:10.403,2085
01/10/2019 14:23:10.407,2086
01/10/2019 14:23:10.411,2089
01/10/2019 14:23:10.415,2088
01/10/2019 14:23:10.419,2085
01/10/2019 14:23:10.423,2086
01/10/2019 14:23:10.427,2085
01/10/2019 14:23:10.431,2086
01/10/2019 14:23:10.435,2086
01/10/2019 14:23:10.439,2088
01/10/2019 14:23:10.443,2092
01/10/2019 14:23:10.447,2091
01/10/2019 14:23:10.451,2092
01/10/2019 14:23:10.455,2092
01/10/2019 14:23:10.459,2092
01/10/2019 14:23:10.463,2093
01/10/2019 14:23:10.467,2090
01/10/2019 14:23:10.471,2091
01/10/2019 14:23:10.475,2093
01/10/2019 14:23:10.479,2094
01/10/2019 14:23:10.483,2095
01/10/2019 14:23:10.487,2094
01/10/2019 14:23:10.491,2096
01/10/2019 14:23:10.495,2096
01/10/2019 14:23:10.499,2094
01/10/2019 14:23:10.503,2093
01/10/2019 14:23:10.507,2091
01/10/2019 14:23:10.511,2091
01/10/2019 14:23:10.515,2089
01/10/2019 14:23:10.519,2087
01/10/2019 14:23:10.523,2090
01/10/2019 14:23:10.527,2091
01/10/2019 14:23:10.531,2091
01/10/2019 14:23:10.535,2088
01/10/2019 14:23:10.539,2087
01/10/2019 14:23:10.543,2086
01/10/2019 14:23:10.547,2083
01/10/2019 14:23:10.551,2083
01/10/2019 14:23:10.555,2083
01/10/2019 14:23:10.559,2083
01/10/2019 14:23:10.563,2084
01/10/2019 14:23:10.567,2081
01/10/2019 14:23:10.571,2081
01/10/2019 14:23:10.575,2080
01/10/2019 14:23:10.579,2081
01/10/2019 14:23:10.583,2080
01/10/2019 14:23:10.587,2078
01/10/2019 14:23:10.591,2080
01/10/2019 14:23:10.595,2080
01/10/2019 14:23:10.599,2079
01/10/2019 14:23:10.603,2080
01/10/2019 14:23:10.607,2081
01/10/2019 14:23:10.611,2084
01/10/2019 14:23:10.615,2082
01/10/2019 14:23:10.619,2078
01/10/2019 14:23:10.623,2078
01/10/2019 14:23:10.627,2075
01/10/2019 14:23:10.631,2075
01/10/2019 14:23:10.635,2074
01/10/2019 14:23:10.639,2075
01/10/2019 14:23:10.643,2077
01/10/2019 14:23:10.647,2075
01/10/2019 14:23:10.651,2074
01/10/2019 14:23:10.655,2073
01/10/2019 14:23:10.659,2071
01/10/2019 14:23:10.663,2070
01/10/2019 14:23:10.667,2065
01/10/2019 14:23:10.671,2065
01/10/2019 14:23:10.675,2064
01/10/2019 14:23:10.679,2064
01/10/2019 14:23:10.683,2064
01/10/2019 14:23:10.687,2063
01/10/2019 14:23:10.691,2065
01/10/2019 14:23:10.695,2065
01/10/2019 14:23:10.699,2063
01/10/2019 14:23:10.703,2063
01/10/2019 14:23:10.707,2063
01/10/2019 14:23:10.711,2065
01/10/2019 14:23:10.715,2065
01/10/2019 14:23:10.719,2065
01/10/2019 14:23:10.723,2069
01/10/2019 14:23:10.727,2071
01/10/2019 14:23:10.731,2072
01/10/2019 14:23:10.735,2071
01/10/2019 14:23:10.739,2071
01/10/2019 14:23:10.743,2071
01/10/2019 14:23:10.747,2069
01/10/2019 14:23:10.751,2069
01/10/2019 14:23:10.755,2069
01/10/2019 14:23:10.759,2071
01/10/2019 14:23:10.763,2073
01/10/2019 14:23:10.767,2071
01/10/2019 14:23:10.771,2072
01/10/2019 14:23:10.775,2072
01/10/2019 14:23:10.779,2070
01/10/2019 14:23:10.783,2068
01/10/2019 14:23:10.787,2066
01/10/2019 14:23:10.791,2067
01/10/2019 14:23:10.795,2067
01/10/2019 14:23:10.799,2064
01/10/2019 14:23:10.803,2063
01/10/2019 14:23:10.807,2062
01/10/2019 14:23:10.811,2063
01/10/2019 14:23:10.815,2060
01/10/2019 14:23:10.819,2057
01/10/2019 14:23:10.823,2056
01/10/2019 14:23:10.827,2054
01/10/2019 14:23:10.831,2052
01/10/2019 14:23:10.835,2050
01/10/2019 14:23:10.839,2051
01/10/2019 14:23:10.843,2054
01/10/2019 14:23:10.847,2054
01/10/2019 14:23:10.851,2054
01/10/2019 14:23:10.855,2054
01/10/2019 14:23:10.859,2054
01/10/2019 14:23:10.863,2055
01/10/2019 14:23:10.867,2054
01/10/2019 14:23:10.871,2057
01/10/2019 14:23:10.875,2061
01/10/2019 14:23:10.879,2064
01/10/2019 14:23:10.883,2067
01/10/2019 14:23:10.887,2068
01/10/2019 14:23:10.891,2072
01/10/2019 14:23:10.895,2075
01/10/2019 14:23:10.899,2074
01/10/2019 14:23:10.903,2075
01/10/2019 14:23:10.907,2076
01/10/2019 14:23:10.911,2079
01/10/2019 14:23:10.915,2080
01/10/2019 14:23:10.919,2080
01/10/2019 14:23:10.923,2084
01/10/2019 14:23:10.927,2085
01/10/2019 14:23:10.931,2086
01/10/2019 14:23:10.935,2085
01/10/2019 14:23:10.939,2086
01/10/2019 14:23:10.943,2088
01/10/2019 14:23:10.947,2086
01/10/2019 14:23:10.951,2086
01/10/2019 14:23:10.955,2086
01/10/2019 14:23:10.959,2086
01/10/2019 14:23:10.963,2088
01/10/2019 14:23:10.967,2087
01/10/2019 14:23:10.971,2089
01/10/2019 14:23:10.975,2090
01/10/2019 14:23:10.979,2089
01/10/2019 14:23:10.983,2088
01/10/2019 14:23:10.987,2085
01/10/2019 14:23:10.991,2086
01/10/2019 14:23:10.995,2087
01/10/2019 14:23:10.999,2087
01/10/2019 14:23:11.003,2088
01/10/2019 14:23:11.007,2089
01/10/2019 14:23:11.011,2092
01/10/2019 14:23:11.015,2090
01/10/2019 14:23:11.019,2087
01/10/2019 14:23:11.023,2088
01/10/2019 14:23:11.027,2087
01/10/2019 14:23:11.031,2087
01/10/2019 14:23:11.035,2087
01/10/2019 14:23:11.039,2088
01/10/2019 14:23:11.043,2091
01/10/2019 14:23:11.047,2089
01/10/2019 14:23:11.051,2089
01/10/2019 14:23:11.055,2089
01/10/2019 14:23:11.059,2089
01/10/2019 14:23:11.063,2089
01/10/2019 14:23:11.067,2086
01/10/2019 14:23:11.071,2086
01/10/2019 14:23:11.075,2087
01/10/2019 14:23:11.079,2086
01/10/2019 14:23:11.083,2087
01/10/2019 14:23:11.087,2087
01/10/2019 14:23:11.091,2091
01/10/2019 14:23:11.095,2090
01/10/2019 14:23:11.099,2088
01/10/2019 14:23:11.103,2088
01/10/2019 14:23:11.107,2087
01/10/2019 14:23:11.111,2090
01/10/2019 14:23:11.115,2090
01/10/2019 14:23:11.119,2088
01/10/2019 14:23:11.123,2089
01/10/2019 14:23:11.127,2087
01/10/2019 14:23:11.131,2087
01/10/2019 14:23:11.135,2086
01/10/2019 14:23:11.139,2088
01/10/2019 14:23:11.143,2089
01/10/2019 14:23:11.147,2087
01/10/2019 14:23:11.151,2085
01/10/2019 14:23:11.155,2085
01/10/2019 14:23:11.159,2085
01/10/2019 14:23:11.163,2085
01/10/2019 14:23:11.167,2083
01/10/2019 14:23:11.171,2084
01/10/2019 14:23:11.175,2083
01/10/2019 14:23:11.179,2083
01/10/2019 14:23:11.183,2081
01/10/2019 14:23:11.187,2078
01/10/2019 14:23:11.191,2080
01/10/2019 14:23:11.195,2080
01/10/2019 14:23:11.199,2079
01/10/2019 14:23:11.203,2079
01/10/2019 14:23:11.207,2081
01/10/2019 14:23:11.211,2081
01/10/2019 14:23:11.215,2077
01/10/2019 14:23:11.219,2074
01/10/2019 14:23:11.223,2076
01/10/2019 14:23:11.227,2078
01/10/2019 14:23:11.231,2082
01/10/2019 14:23:11.235,2085
01/10/2019 14:23:11.239,2085
01/10/2019 14:23:11.243,2083
01/10/2019 14:23:11.247,2077
01/10/2019 14:23:11.251,2073
01/10/2019 14:23:11.255,2072
01/10/2019 14:23:11.259,2072
01/10/2019 14:23:11.263,2074
01/10/2019 14:23:11.267,2071
01/10/2019 14:23:11.271,2072
01/10/2019 14:23:11.275,2074
01/10/2019 14:23:11.279,2075
01/10/2019 14:23:11.283,2077
01/10/2019 14:23:11.287,2077
01/10/2019 14:23:11.291,2080
01/10/2019 14:23:11.295,2080
01/10/2019 14:23:11.299,2079
01/10/2019 14:23:11.303,2078
01/10/2019 14:23:11.307,2077
01/10/2019 14:23:11.311,2078
01/10/2019 14:23:11.315,2076
01/10/2019 14:23:11.319,2074
01/10/2019 14:23:11.323,2077
01/10/2019 14:23:11.327,2077
01/10/2019 14:23:11.331,2075
01/10/2019 14:23:11.335,2074
01/10/2019 14:23:11.339,2073
01/10/2019 14:23:11.343,2072
01/10/2019 14:23:11.347,2064
01/10/2019 14:23:11.351,2058
01/10/2019 14:23:11.355,2052
01/10/2019 14:23:11.359,2050
01/10/2019 14:23:11.363,2054
01/10/2019 14:23:11.367,2057
01/10/2019 14:23:11.371,2063
01/10/2019 14:23:11.375,2065
01/10/2019 14:23:11.379,2063
01/10/2019 14:23:11.383,2059
01/10/2019 14:23:11.387,2053
01/10/2019 14:23:11.391,2054
01/10/2019 14:23:11.395,2055
01/10/2019 14:23:11.399,2053
01/10/2019 14:23:11.403,2053
01/10/2019 14:23:11.407,2053
01/10/2019 14:23:11.411,2055
01/10/2019 14:23:11.415,2052
01/10/2019 14:23:11.419,2049
01/10/2019 14:23:11.423,2049
01/10/2019 14:23:11.427,2047
01/10/2019 14:23:11.431,2045
01/10/2019 14:23:11.435,2042
01/10/2019 14:23:11.439,2042
01/10/2019 14:23:11.443,2044
01/10/2019 14:23:11.447,2043
01/10/2019 14:23:11.451,2043
01/10/2019 14:23:11.455,2043
01/10/2019 14:23:11.459,2042
01/10/2019 14:23:11.463,2038
01/10/2019 14:23:11.467,2034
01/10/2019 14:23:11.471,2035
01/10/2019 14:23:11.475,2037
01/10/2019 14:23:11.479,2041
01/10/2019 14:23:11.483,2041
01/10/2019 14:23:11.487,2042
01/10/2019 14:23:11.491,2048
01/10/2019 14:23:11.495,2048
01/10/2019 14:23:11.499,2047
01/10/2019 14:23:11.503,2044
01/10/2019 14:23:11.507,2041
01/10/2019 14:23:11.511,2044
01/10/2019 14:23:11.515,2046
01/10/2019 14:23:11.519,2048
01/10/2019 14:23:11.523,2053
01/10/2019 14:23:11.527,2054
01/10/2019 14:23:11.531,2052
01/10/2019 14:23:11.535,2052
01/10/2019 14:23:11.539,2051
01/10/2019 14:23:11.543,2052
01/10/2019 14:23:11.547,2049
01/10/2019 14:23:11.551,2048
01/10/2019 14:23:11.555,2048
01/10/2019 14:23:11.559,2051
01/10/2019 14:23:11.563,2053
01/10/2019 14:23:11.567,2053
01/10/2019 14:23:11.571,2054
01/10/2019 14:23:11.575,2056
01/10/2019 14:23:11.579,2055
01/10/2019 14:23:11.583,2053
01/10/2019 14:23:11.587,2051
01/10/2019 14:23:11.591,2053
01/10/2019 14:23:11.595,2054
01/10/2019 14:23:11.599,2056
01/10/2019 14:23:11.603,2057
01/10/2019 14:23:11.607,2059
01/10/2019 14:23:11.611,2061
01/10/2019 14:23:11.615,2060
01/10/2019 14:23:11.619,2059
01/10/2019 14:23:11.623,2061
01/10/2019 14:23:11.627,2062
01/10/2019 14:23:11.631,2061
01/10/2019 14:23:11.635,2062
01/10/2019 14:23:11.639,2065
01/10/2019 14:23:11.643,2068
01/10/2019 14:23:11.647,2067
01/10/2019 14:23:11.651,2068
01/10/2019 14:23:11.655,2069
01/10/2019 14:23:11.659,2070
01/10/2019 14:23:11.663,2070
01/10/2019 14:23:11.667,2067
01/10/2019 14:23:11.671,2067
01/10/2019 14:23:11.675,2068
01/10/2019 14:23:11.679,2070
01/10/2019 14:23:11.683,2070
01/10/2019 14:23:11.687,2070
01/10/2019 14:23:11.691,2071
01/10/2019 14:23:11.695,2072
01/10/2019 14:23:11.699,2069
01/10/2019 14:23:11.703,2068
01/10/2019 14:23:11.707,2067
01/10/2019 14:23:11.711,2067
01/10/2019 14:23:11.715,2066
01/10/2019 14:23:11.719,2067
01/10/2019 14:23:11.723,2069
01/10/2019 14:23:11.727,2070
01/10/2019 14:23:11.731,2069
01/10/2019 14:23:11.735,2067
01/10/2019 14:23:11.739,2066
01/10/2019 14:23:11.743,2067
01/10/2019 14:23:11.747,2063
01/10/2019 14:23:11.751,2062
01/10/2019 14:23:11.755,2062
01/10/2019 14:23:11.759,2064
01/10/2019 14:23:11.763,2064
01/10/2019 14:23:11.767,2063
01/10/2019 14:23:11.771,2064
01/10/2019 14:23:11.775,2064
01/10/2019 14:23:11.779,2063
01/10/2019 14:23:11.783,2062
01/10/2019 14:23:11.787,2058
01/10/2019 14:23:11.791,2058
01/10/2019 14:23:11.795,2059
01/10/2019 14:23:11.799,2059
01/10/2019 14:23:11.803,2060
01/10/2019 14:23:11.807,2061
01/10/2019 14:23:11.811,2064
01/10/2019 14:23:11.815,2063
01/10/2019 14:23:11.819,2061
01/10/2019 14:23:11.823,2062
01/10/2019 14:23:11.827,2061
01/10/2019 14:23:11.831,2059
01/10/2019 14:23:11.835,2058
01/10/2019 14:23:11.839,2061
01/10/2019 14:23:11.843,2063
01/10/2019 14:23:11.847,2062
01/10/2019 14:23:11.851,2062
01/10/2019 14:23:11.855,2062
01/10/2019 14:23:11.859,2061
01/10/2019 14:23:11.863,2060
01/10/2019 14:23:11.867,2056
01/10/2019 14:23:11.871,2055
01/10/2019 14:23:11.875,2055
01/10/2019 14:23:11.879,2056
01/10/2019 14:23:11.883,2055
01/10/2019 14:23:11.887,2054
01/10/2019 14:23:11.891,2055
01/10/2019 14:23:11.895,2055
01/10/2019 14:23:11.899,2052
01/10/2019 14:23:11.903,2050
01/10/2019 14:23:11.907,2049
01/10/2019 14:23:11.911,2049
01/10/2019 14:23:11.915,2048
01/10/2019 14:23:11.919,2049
01/10/2019 14:23:11.923,2052
01/10/2019 14:23:11.927,2053
01/10/2019 14:23:11.931,2052
01/10/2019 14:23:11.935,2050
01/10/2019 14:23:11.939,2050
01/10/2019 14:23:11.943,2051
01/10/2019 14:23:11.947,2048
01/10/2019 14:23:11.951,2048
01/10/2019 14:23:11.955,2049
01/10/2019 14:23:11.959,2052
01/10/2019 14:23:11.963,2053
01/10/2019 14:23:11.967,2053
01/10/2019 14:23:11.971,2054
01/10/2019 14:23:11.975,2055
01/10/2019 14:23:11.979,2055
01/10/2019 14:23:11.983,2054
01/10/2019 14:23:11.987,2052
01/10/2019 14:23:11.991,2053
01/10/2019 14:23:11.995,2054
01/10/2019 14:23:11.999,2055
01/10/2019 14:23:12.003,2056
01/10/2019 14:23:12.007,2057
01/10/2019 14:23:12.011,2059
01/10/2019 14:23:12.015,2059
01/10/2019 14:23:12.019,2057
01/10/2019 14:23:12.023,2059
01/10/2019 14:23:12.027,2058
01/10/2019 14:23:12.031,2057
01/10/2019 14:23:12.035,2057
01/10/2019 14:23:12.039,2060
01/10/2019 14:23:12.043,2064
01/10/2019 14:23:12.047,2063
01/10/2019 14:23:12.051,2064
01/10/2019 14:23:12.055,2064
01/10/2019 14:23:12.059,2064
01/10/2019 14:23:12.063,2064
01/10/2019 14:23:12.067,2061
01/10/2019 14:23:12.071,2061
01/10/2019 14:23:12.075,2063
01/10/2019 14:23:12.079,2065
01/10/2019 14:23:12.083,2065
01/10/2019 14:23:12.087,2065
01/10/2019 14:23:12.091,2065
01/10/2019 14:23:12.095,2066
01/10/2019 14:23:12.099,2065
01/10/2019 14:23:12.103,2066
01/10/2019 14:23:12.107,2066
01/10/2019 14:23:12.111,2063
01/10/2019 14:23:12.115,2058
01/10/2019 14:23:12.119,2054
01/10/2019 14:23:12.123,2058
01/10/2019 14:23:12.127,2061
01/10/2019 14:23:12.131,2061
01/10/2019 14:23:12.135,2059
01/10/2019 14:23:12.139,2057
01/10/2019 14:23:12.143,2058
01/10/2019 14:23:12.147,2055
01/10/2019 14:23:12.151,2055
01/10/2019 14:23:12.155,2055
01/10/2019 14:23:12.159,2056
01/10/2019 14:23:12.163,2057
01/10/2019 14:23:12.167,2055
01/10/2019 14:23:12.171,2055
01/10/2019 14:23:12.175,2055
01/10/2019 14:23:12.179,2054
01/10/2019 14:23:12.183,2052
01/10/2019 14:23:12.187,2049
01/10/2019 14:23:12.191,2051
01/10/2019 14:23:12.195,2051
01/10/2019 14:23:12.199,2049
01/10/2019 14:23:12.203,2049
01/10/2019 14:23:12.207,2051
01/10/2019 14:23:12.211,2051
01/10/2019 14:23:12.215,2048
01/10/2019 14:23:12.219,2046
01/10/2019 14:23:12.223,2048
01/10/2019 14:23:12.227,2051
01/10/2019 14:23:12.231,2054
01/10/2019 14:23:12.235,2056
01/10/2019 14:23:12.239,2055
01/10/2019 14:23:12.243,2053
01/10/2019 14:23:12.247,2047
01/10/2019 14:23:12.251,2044
01/10/2019 14:23:12.255,2042
01/10/2019 14:23:12.259,2042
01/10/2019 14:23:12.263,2043
01/10/2019 14:23:12.267,2040
01/10/2019 14:23:12.271,2041
01/10/2019 14:23:12.275,2043
01/10/2019 14:23:12.279,2044
01/10/2019 14:23:12.283,2045
01/10/2019 14:23:12.287,2045
01/10/2019 14:23:12.291,2048
01/10/2019 14:23:12.295,2048
01/10/2019 14:23:12.299,2046
01/10/2019 14:23:12.303,2045
01/10/2019 14:23:12.307,2045
01/10/2019 14:23:12.311,2046
01/10/2019 14:23:12.315,2044
01/10/2019 14:23:12.319,2043
01/10/2019 14:23:12.323,2047
01/10/2019 14:23:12.327,2048
01/10/2019 14:23:12.331,2048
01/10/2019 14:23:12.335,2048
01/10/2019 14:23:12.339,2048
01/10/2019 14:23:12.343,2048
01/10/2019 14:23:12.347,2043
01/10/2019 14:23:12.351,2038
01/10/2019 14:23:12.355,2035
01/10/2019 14:23:12.359,2035
01/10/2019 14:23:12.363,2039
01/10/2019 14:23:12.367,2043
01/10/2019 14:23:12.371,2049
01/10/2019 14:23:12.375,2052
01/10/2019 14:23:12.379,2052
01/10/2019 14:23:12.383,2051
01/10/2019 14:23:12.387,2047
01/10/2019 14:23:12.391,2050
01/10/2019 14:23:12.395,2051
01/10/2019 14:23:12.399,2050
01/10/2019 14:23:12.403,2051
01/10/2019 14:23:12.407,2052
01/10/2019 14:23:12.411,2054
01/10/2019 14:23:12.415,2051
01/10/2019 14:23:12.419,2050
01/10/2019 14:23:12.423,2051
01/10/2019 14:23:12.427,2050
01/10/2019 14:23:12.431,2049
01/10/2019 14:23:12.435,2048
01/10/2019 14:23:12.439,2050
01/10/2019 14:23:12.443,2053
01/10/2019 14:23:12.447,2053
01/10/2019 14:23:12.451,2053
01/10/2019 14:23:12.455,2052
01/10/2019 14:23:12.459,2052
01/10/2019 14:23:12.463,2051
01/10/2019 14:23:12.467,2048
01/10/2019 14:23:12.471,2049
01/10/2019 14:23:12.475,2048
01/10/2019 14:23:12.479,2045
01/10/2019 14:23:12.483,2043
01/10/2019 14:23:12.487,2042
01/10/2019 14:23:12.491,2047
01/10/2019 14:23:12.495,2049
01/10/2019 14:23:12.499,2050
01/10/2019 14:23:12.503,2050
01/10/2019 14:23:12.507,2049
01/10/2019 14:23:12.511,2049
01/10/2019 14:23:12.515,2048
01/10/2019 14:23:12.519,2048
01/10/2019 14:23:12.523,2050
01/10/2019 14:23:12.527,2051
01/10/2019 14:23:12.531,2051
01/10/2019 14:23:12.535,2050
01/10/2019 14:23:12.539,2050
01/10/2019 14:23:12.543,2052
01/10/2019 14:23:12.547,2049
01/10/2019 14:23:12.551,2049
01/10/2019 14:23:12.555,2051
01/10/2019 14:23:12.559,2053
01/10/2019 14:23:12.563,2055
01/10/2019 14:23:12.567,2053
01/10/2019 14:23:12.571,2054
01/10/2019 14:23:12.575,2055
01/10/2019 14:23:12.579,2055
01/10/2019 14:23:12.583,2055
01/10/2019 14:23:12.587,2053
01/10/2019 14:23:12.591,2056
01/10/2019 14:23:12.595,2057
01/10/2019 14:23:12.599,2056
01/10/2019 14:23:12.603,2057
01/10/2019 14:23:12.607,2057
01/10/2019 14:23:12.611,2059
01/10/2019 14:23:12.615,2057
01/10/2019 14:23:12.619,2056
01/10/2019 14:23:12.623,2057
01/10/2019 14:23:12.627,2056
01/10/2019 14:23:12.631,2057
01/10/2019 14:23:12.635,2056
01/10/2019 14:23:12.639,2058
01/10/2019 14:23:12.643,2060
01/10/2019 14:23:12.647,2059
01/10/2019 14:23:12.651,2059
01/10/2019 14:23:12.655,2060
01/10/2019 14:23:12.659,2060
01/10/2019 14:23:12.663,2060
01/10/2019 14:23:12.667,2057
01/10/2019 14:23:12.671,2058
01/10/2019 14:23:12.675,2059
01/10/2019 14:23:12.679,2059
01/10/2019 14:23:12.683,2059
01/10/2019 14:23:12.687,2058
01/10/2019 14:23:12.691,2060
01/10/2019 14:23:12.695,2059
01/10/2019 14:23:12.699,2058
01/10/2019 14:23:12.703,2057
01/10/2019 14:23:12.707,2056
01/10/2019 14:23:12.711,2057
01/10/2019 14:23:12.715,2054
01/10/2019 14:23:12.719,2053
01/10/2019 14:23:12.723,2056
01/10/2019 14:23:12.727,2057
01/10/2019 14:23:12.731,2056
01/10/2019 14:23:12.735,2052
01/10/2019 14:23:12.739,2052
01/10/2019 14:23:12.743,2051
01/10/2019 14:23:12.747,2048
01/10/2019 14:23:12.751,2048
01/10/2019 14:23:12.755,2049
01/10/2019 14:23:12.759,2050
01/10/2019 14:23:12.763,2050
01/10/2019 14:23:12.767,2049
01/10/2019 14:23:12.771,2050
01/10/2019 14:23:12.775,2050
01/10/2019 14:23:12.779,2049
01/10/2019 14:23:12.783,2048
01/10/2019 14:23:12.787,2046
01/10/2019 14:23:12.791,2048
01/10/2019 14:23:12.795,2048
01/10/2019 14:23:12.799,2047
01/10/2019 14:23:12.803,2048
01/10/2019 14:23:12.807,2048
01/10/2019 14:23:12.811,2049
01/10/2019 14:23:12.815,2048
01/10/2019 14:23:12.819,2047
01/10/2019 14:23:12.823,2047
01/10/2019 14:23:12.827,2046
01/10/2019 14:23:12.831,2045
01/10/2019 14:23:12.835,2043
01/10/2019 14:23:12.839,2045
01/10/2019 14:23:12.843,2048
01/10/2019 14:23:12.847,2047
01/10/2019 14:23:12.851,2047
01/10/2019 14:23:12.855,2047
01/10/2019 14:23:12.859,2046
01/10/2019 14:23:12.863,2045
01/10/2019 14:23:12.867,2043
01/10/2019 14:23:12.871,2044
01/10/2019 14:23:12.875,2045
01/10/2019 14:23:12.879,2045
01/10/2019 14:23:12.883,2046
01/10/2019 14:23:12.887,2045
01/10/2019 14:23:12.891,2048
01/10/2019 14:23:12.895,2048
01/10/2019 14:23:12.899,2046
01/10/2019 14:23:12.903,2045
01/10/2019 14:23:12.907,2044
01/10/2019 14:23:12.911,2045
01/10/2019 14:23:12.915,2045
01/10/2019 14:23:12.919,2044
01/10/2019 14:23:12.923,2048
01/10/2019 14:23:12.927,2048
01/10/2019 14:23:12.931,2048
01/10/2019 14:23:12.935,2048
01/10/2019 14:23:12.939,2047
01/10/2019 14:23:12.943,2048
01/10/2019 14:23:12.947,2044
01/10/2019 14:23:12.951,2043
01/10/2019 14:23:12.955,2044
01/10/2019 14:23:12.959,2044
01/10/2019 14:23:12.963,2046
01/10/2019 14:23:12.967,2044
01/10/2019 14:23:12.971,2046
01/10/2019 14:23:12.975,2046
01/10/2019 14:23:12.979,2045
01/10/2019 14:23:12.983,2043
01/10/2019 14:23:12.987,2040
01/10/2019 14:23:12.991,2042
01/10/2019 14:23:12.995,2042
01/10/2019 14:23:12.999,2040
01/10/2019 14:23:13.003,2041
01/10/2019 14:23:13.007,2041
01/10/2019 14:23:13.011,2043
01/10/2019 14:23:13.015,2041
01/10/2019 14:23:13.019,2039
01/10/2019 14:23:13.023,2040
01/10/2019 14:23:13.027,2038
01/10/2019 14:23:13.031,2036
01/10/2019 14:23:13.035,2035
01/10/2019 14:23:13.039,2036
01/10/2019 14:23:13.043,2039
01/10/2019 14:23:13.047,2039
01/10/2019 14:23:13.051,2040
01/10/2019 14:23:13.055,2040
01/10/2019 14:23:13.059,2040
01/10/2019 14:23:13.063,2039
01/10/2019 14:23:13.067,2036
01/10/2019 14:23:13.071,2037
01/10/2019 14:23:13.075,2039
01/10/2019 14:23:13.079,2039
01/10/2019 14:23:13.083,2040
01/10/2019 14:23:13.087,2040
01/10/2019 14:23:13.091,2044
01/10/2019 14:23:13.095,2043
01/10/2019 14:23:13.099,2041
01/10/2019 14:23:13.103,2041
01/10/2019 14:23:13.107,2041
01/10/2019 14:23:13.111,2046
01/10/2019 14:23:13.115,2045
01/10/2019 14:23:13.119,2043
01/10/2019 14:23:13.123,2042
01/10/2019 14:23:13.127,2039
01/10/2019 14:23:13.131,2041
01/10/2019 14:23:13.135,2042
01/10/2019 14:23:13.139,2045
01/10/2019 14:23:13.143,2046
01/10/2019 14:23:13.147,2041
01/10/2019 14:23:13.151,2039
01/10/2019 14:23:13.155,2040
01/10/2019 14:23:13.159,2044
01/10/2019 14:23:13.163,2044
01/10/2019 14:23:13.167,2043
01/10/2019 14:23:13.171,2044
01/10/2019 14:23:13.175,2045
01/10/2019 14:23:13.179,2044
01/10/2019 14:23:13.183,2043
01/10/2019 14:23:13.187,2041
01/10/2019 14:23:13.191,2042
01/10/2019 14:23:13.195,2042
01/10/2019 14:23:13.199,2043
01/10/2019 14:23:13.203,2044
01/10/2019 14:23:13.207,2045
01/10/2019 14:23:13.211,2045
01/10/2019 14:23:13.215,2043
01/10/2019 14:23:13.219,2042
01/10/2019 14:23:13.223,2046
01/10/2019 14:23:13.227,2049
01/10/2019 14:23:13.231,2051
01/10/2019 14:23:13.235,2051
01/10/2019 14:23:13.239,2051
01/10/2019 14:23:13.243,2048
01/10/2019 14:23:13.247,2044
01/10/2019 14:23:13.251,2042
01/10/2019 14:23:13.255,2043
01/10/2019 14:23:13.259,2044
01/10/2019 14:23:13.263,2045
01/10/2019 14:23:13.267,2041
01/10/2019 14:23:13.271,2041
01/10/2019 14:23:13.275,2043
01/10/2019 14:23:13.279,2045
01/10/2019 14:23:13.283,2045
01/10/2019 14:23:13.287,2044
01/10/2019 14:23:13.291,2045
01/10/2019 14:23:13.295,2046
01/10/2019 14:23:13.299,2044
01/10/2019 14:23:13.303,2043
01/10/2019 14:23:13.307,2041
01/10/2019 14:23:13.311,2041
01/10/2019 14:23:13.315,2039
01/10/2019 14:23:13.319,2040
01/10/2019 14:23:13.323,2042
01/10/2019 14:23:13.327,2044
01/10/2019 14:23:13.331,2043
01/10/2019 14:23:13.335,2041
01/10/2019 14:23:13.339,2041
01/10/2019 14:23:13.343,2042
01/10/2019 14:23:13.347,2040
01/10/2019 14:23:13.351,2038
01/10/2019 14:23:13.355,2037
01/10/2019 14:23:13.359,2036
01/10/2019 14:23:13.363,2034
01/10/2019 14:23:13.367,2033
01/10/2019 14:23:13.371,2037
01/10/2019 14:23:13.375,2044
01/10/2019 14:23:13.379,2048
01/10/2019 14:23:13.383,2048
01/10/2019 14:23:13.387,2047
01/10/2019 14:23:13.391,2047
01/10/2019 14:23:13.395,2047
01/10/2019 14:23:13.399,2048
01/10/2019 14:23:13.403,2049
01/10/2019 14:23:13.407,2051
01/10/2019 14:23:13.411,2052
01/10/2019 14:23:13.415,2051
01/10/2019 14:23:13.419,2049
01/10/2019 14:23:13.423,2050
01/10/2019 14:23:13.427,2049
01/10/2019 14:23:13.431,2048
01/10/2019 14:23:13.435,2048
01/10/2019 14:23:13.439,2049
01/10/2019 14:23:13.443,2051
01/10/2019 14:23:13.447,2051
01/10/2019 14:23:13.451,2051
01/10/2019 14:23:13.455,2052
01/10/2019 14:23:13.459,2052
01/10/2019 14:23:13.463,2050
01/10/2019 14:23:13.467,2047
01/10/2019 14:23:13.471,2047
01/10/2019 14:23:13.475,2047
01/10/2019 14:23:13.479,2050
01/10/2019 14:23:13.483,2052
01/10/2019 14:23:13.487,2053
01/10/2019 14:23:13.491,2055
01/10/2019 14:23:13.495,2054
01/10/2019 14:23:13.499,2048
01/10/2019 14:23:13.503,2047
01/10/2019 14:23:13.507,2046
01/10/2019 14:23:13.511,2046
01/10/2019 14:23:13.515,2045
01/10/2019 14:23:13.519,2045
01/10/2019 14:23:13.523,2048
01/10/2019 14:23:13.527,2050
01/10/2019 14:23:13.531,2051
01/10/2019 14:23:13.535,2051
01/10/2019 14:23:13.539,2051
01/10/2019 14:23:13.543,2051
01/10/2019 14:23:13.547,2048
01/10/2019 14:23:13.551,2047
01/10/2019 14:23:13.555,2048
01/10/2019 14:23:13.559,2050
01/10/2019 14:23:13.563,2050
01/10/2019 14:23:13.567,2050
01/10/2019 14:23:13.571,2051
01/10/2019 14:23:13.575,2053
01/10/2019 14:23:13.579,2052
01/10/2019 14:23:13.583,2050
01/10/2019 14:23:13.587,2048
01/10/2019 14:23:13.591,2049
01/10/2019 14:23:13.595,2050
01/10/2019 14:23:13.599,2051
01/10/2019 14:23:13.603,2051
01/10/2019 14:23:13.607,2052
01/10/2019 14:23:13.611,2053
01/10/2019 14:23:13.615,2051
01/10/2019 14:23:13.619,2049
01/10/2019 14:23:13.623,2050
01/10/2019 14:23:13.627,2049
01/10/2019 14:23:13.631,2048
01/10/2019 14:23:13.635,2048
01/10/2019 14:23:13.639,2049
01/10/2019 14:23:13.643,2052
01/10/2019 14:23:13.647,2051
01/10/2019 14:23:13.651,2051
01/10/2019 14:23:13.655,2051
01/10/2019 14:23:13.659,2051
01/10/2019 14:23:13.663,2051
01/10/2019 14:23:13.667,2048
01/10/2019 14:23:13.671,2048
01/10/2019 14:23:13.675,2048
01/10/2019 14:23:13.679,2049
01/10/2019 14:23:13.683,2049
01/10/2019 14:23:13.687,2049
01/10/2019 14:23:13.691,2051
01/10/2019 14:23:13.695,2052
01/10/2019 14:23:13.699,2050
01/10/2019 14:23:13.703,2049
01/10/2019 14:23:13.707,2048
01/10/2019 14:23:13.711,2048
01/10/2019 14:23:13.715,2048
01/10/2019 14:23:13.719,2048
01/10/2019 14:23:13.723,2051
01/10/2019 14:23:13.727,2052
01/10/2019 14:23:13.731,2051
01/10/2019 14:23:13.735,2050
01/10/2019 14:23:13.739,2049
01/10/2019 14:23:13.743,2050
01/10/2019 14:23:13.747,2048
01/10/2019 14:23:13.751,2047
01/10/2019 14:23:13.755,2048
01/10/2019 14:23:13.759,2050
01/10/2019 14:23:13.763,2051
01/10/2019 14:23:13.767,2050
01/10/2019 14:23:13.771,2051
01/10/2019 14:23:13.775,2052
01/10/2019 14:23:13.779,2051
01/10/2019 14:23:13.783,2049
01/10/2019 14:23:13.787,2048
01/10/2019 14:23:13.791,2048
01/10/2019 14:23:13.795,2048
01/10/2019 14:23:13.799,2048
01/10/2019 14:23:13.803,2048
01/10/2019 14:23:13.807,2050
01/10/2019 14:23:13.811,2052
01/10/2019 14:23:13.815,2051
01/10/2019 14:23:13.819,2049
01/10/2019 14:23:13.823,2050
01/10/2019 14:23:13.827,2049
01/10/2019 14:23:13.831,2048
01/10/2019 14:23:13.835,2048
01/10/2019 14:23:13.839,2051
01/10/2019 14:23:13.843,2054
01/10/2019 14:23:13.847,2053
01/10/2019 14:23:13.851,2053
01/10/2019 14:23:13.855,2054
01/10/2019 14:23:13.859,2054
01/10/2019 14:23:13.863,2053
01/10/2019 14:23:13.867,2050
01/10/2019 14:23:13.871,2050
01/10/2019 14:23:13.875,2051
01/10/2019 14:23:13.879,2053
01/10/2019 14:23:13.883,2054
01/10/2019 14:23:13.887,2054
01/10/2019 14:23:13.891,2055
01/10/2019 14:23:13.895,2056
01/10/2019 14:23:13.899,2054
01/10/2019 14:23:13.903,2054
01/10/2019 14:23:13.907,2053
01/10/2019 14:23:13.911,2054
01/10/2019 14:23:13.915,2053
01/10/2019 14:23:13.919,2054
01/10/2019 14:23:13.923,2056
01/10/2019 14:23:13.927,2058
01/10/2019 14:23:13.931,2057
01/10/2019 14:23:13.935,2057
01/10/2019 14:23:13.939,2057
01/10/2019 14:23:13.943,2057
01/10/2019 14:23:13.947,2053
01/10/2019 14:23:13.951,2051
01/10/2019 14:23:13.955,2052
01/10/2019 14:23:13.959,2055
01/10/2019 14:23:13.963,2055
01/10/2019 14:23:13.967,2054
01/10/2019 14:23:13.971,2055
01/10/2019 14:23:13.975,2056
01/10/2019 14:23:13.979,2054
01/10/2019 14:23:13.983,2052
01/10/2019 14:23:13.987,2049
01/10/2019 14:23:13.991,2050
01/10/2019 14:23:13.995,2051
01/10/2019 14:23:13.999,2052
01/10/2019 14:23:14.003,2053
01/10/2019 14:23:14.007,2054
01/10/2019 14:23:14.011,2055
01/10/2019 14:23:14.015,2053
01/10/2019 14:23:14.019,2051
01/10/2019 14:23:14.023,2053
01/10/2019 14:23:14.027,2052
01/10/2019 14:23:14.031,2050
01/10/2019 14:23:14.035,2049
01/10/2019 14:23:14.039,2052
01/10/2019 14:23:14.043,2054
01/10/2019 14:23:14.047,2055
01/10/2019 14:23:14.051,2055
01/10/2019 14:23:14.055,2057
01/10/2019 14:23:14.059,2057
01/10/2019 14:23:14.063,2056
01/10/2019 14:23:14.067,2052
01/10/2019 14:23:14.071,2052
01/10/2019 14:23:14.075,2054
01/10/2019 14:23:14.079,2056
01/10/2019 14:23:14.083,2057
01/10/2019 14:23:14.087,2058
01/10/2019 14:23:14.091,2059
01/10/2019 14:23:14.095,2060
01/10/2019 14:23:14.099,2060
01/10/2019 14:23:14.103,2063
01/10/2019 14:23:14.107,2063
01/10/2019 14:23:14.111,2061
01/10/2019 14:23:14.115,2056
01/10/2019 14:23:14.119,2053
01/10/2019 14:23:14.123,2058
01/10/2019 14:23:14.127,2064
01/10/2019 14:23:14.131,2065
01/10/2019 14:23:14.135,2064
01/10/2019 14:23:14.139,2063
01/10/2019 14:23:14.143,2064
01/10/2019 14:23:14.147,2061
01/10/2019 14:23:14.151,2061
01/10/2019 14:23:14.155,2062
01/10/2019 14:23:14.159,2063
01/10/2019 14:23:14.163,2064
01/10/2019 14:23:14.167,2062
01/10/2019 14:23:14.171,2064
01/10/2019 14:23:14.175,2065
01/10/2019 14:23:14.179,2064
01/10/2019 14:23:14.183,2062
01/10/2019 14:23:14.187,2059
01/10/2019 14:23:14.191,2060
01/10/2019 14:23:14.195,2061
01/10/2019 14:23:14.199,2060
01/10/2019 14:23:14.203,2062
01/10/2019 14:23:14.207,2064
01/10/2019 14:23:14.211,2065
01/10/2019 14:23:14.215,2062
01/10/2019 14:23:14.219,2060
01/10/2019 14:23:14.223,2062
01/10/2019 14:23:14.227,2065
01/10/2019 14:23:14.231,2070
01/10/2019 14:23:14.235,2072
01/10/2019 14:23:14.239,2073
01/10/2019 14:23:14.243,2072
01/10/2019 14:23:14.247,2065
01/10/2019 14:23:14.251,2062
01/10/2019 14:23:14.255,2062
01/10/2019 14:23:14.259,2063
01/10/2019 14:23:14.263,2064
01/10/2019 14:23:14.267,2062
01/10/2019 14:23:14.271,2063
01/10/2019 14:23:14.275,2065
01/10/2019 14:23:14.279,2065
01/10/2019 14:23:14.283,2065
01/10/2019 14:23:14.287,2065
01/10/2019 14:23:14.291,2067
01/10/2019 14:23:14.295,2067
01/10/2019 14:23:14.299,2066
01/10/2019 14:23:14.303,2065
01/10/2019 14:23:14.307,2064
01/10/2019 14:23:14.311,2065
01/10/2019 14:23:14.315,2063
01/10/2019 14:23:14.319,2061
01/10/2019 14:23:14.323,2064
01/10/2019 14:23:14.327,2065
01/10/2019 14:23:14.331,2063
01/10/2019 14:23:14.335,2063
01/10/2019 14:23:14.339,2064
01/10/2019 14:23:14.343,2064
01/10/2019 14:23:14.347,2058
01/10/2019 14:23:14.351,2053
01/10/2019 14:23:14.355,2051
01/10/2019 14:23:14.359,2050
01/10/2019 14:23:14.363,2053
01/10/2019 14:23:14.367,2057
01/10/2019 14:23:14.371,2064
01/10/2019 14:23:14.375,2068
01/10/2019 14:23:14.379,2068
01/10/2019 14:23:14.383,2066
01/10/2019 14:23:14.387,2062
01/10/2019 14:23:14.391,2065
01/10/2019 14:23:14.395,2066
01/10/2019 14:23:14.399,2066
01/10/2019 14:23:14.403,2069
01/10/2019 14:23:14.407,2072
01/10/2019 14:23:14.411,2075
01/10/2019 14:23:14.415,2074
01/10/2019 14:23:14.419,2072
01/10/2019 14:23:14.423,2074
01/10/2019 14:23:14.427,2073
01/10/2019 14:23:14.431,2072
01/10/2019 14:23:14.435,2071
01/10/2019 14:23:14.439,2072
01/10/2019 14:23:14.443,2074
01/10/2019 14:23:14.447,2072
01/10/2019 14:23:14.451,2072
01/10/2019 14:23:14.455,2073
01/10/2019 14:23:14.459,2072
01/10/2019 14:23:14.463,2069
01/10/2019 14:23:14.467,2065
01/10/2019 14:23:14.471,2066
01/10/2019 14:23:14.475,2066
01/10/2019 14:23:14.479,2065
01/10/2019 14:23:14.483,2066
01/10/2019 14:23:14.487,2064
01/10/2019 14:23:14.491,2065
01/10/2019 14:23:14.495,2064
01/10/2019 14:23:14.499,2063
01/10/2019 14:23:14.503,2063
01/10/2019 14:23:14.507,2064
01/10/2019 14:23:14.511,2066
01/10/2019 14:23:14.515,2065
01/10/2019 14:23:14.519,2063
01/10/2019 14:23:14.523,2064
01/10/2019 14:23:14.527,2064
01/10/2019 14:23:14.531,2063
01/10/2019 14:23:14.535,2060
01/10/2019 14:23:14.539,2060
01/10/2019 14:23:14.543,2060
01/10/2019 14:23:14.547,2053
01/10/2019 14:23:14.551,2048
01/10/2019 14:23:14.555,2045
01/10/2019 14:23:14.559,2041
01/10/2019 14:23:14.563,2038
01/10/2019 14:23:14.567,2035
01/10/2019 14:23:14.571,2036
01/10/2019 14:23:14.575,2036
01/10/2019 14:23:14.579,2035
01/10/2019 14:23:14.583,2034
01/10/2019 14:23:14.587,2032
01/10/2019 14:23:14.591,2033
01/10/2019 14:23:14.595,2034
01/10/2019 14:23:14.599,2034
01/10/2019 14:23:14.603,2035
01/10/2019 14:23:14.607,2037
01/10/2019 14:23:14.611,2039
01/10/2019 14:23:14.615,2038
01/10/2019 14:23:14.619,2037
01/10/2019 14:23:14.623,2039
01/10/2019 14:23:14.627,2040
01/10/2019 14:23:14.631,2041
01/10/2019 14:23:14.635,2041
01/10/2019 14:23:14.639,2044
01/10/2019 14:23:14.643,2048
01/10/2019 14:23:14.647,2046
01/10/2019 14:23:14.651,2046
01/10/2019 14:23:14.655,2047
01/10/2019 14:23:14.659,2046
01/10/2019 14:23:14.663,2044
01/10/2019 14:23:14.667,2039
01/10/2019 14:23:14.671,2039
01/10/2019 14:23:14.675,2040
01/10/2019 14:23:14.679,2038
01/10/2019 14:23:14.683,2037
01/10/2019 14:23:14.687,2036
01/10/2019 14:23:14.691,2038
01/10/2019 14:23:14.695,2037
01/10/2019 14:23:14.699,2034
01/10/2019 14:23:14.703,2033
01/10/2019 14:23:14.707,2033
01/10/2019 14:23:14.711,2034
01/10/2019 14:23:14.715,2033
01/10/2019 14:23:14.719,2034
01/10/2019 14:23:14.723,2038
01/10/2019 14:23:14.727,2041
01/10/2019 14:23:14.731,2042
01/10/2019 14:23:14.735,2042
01/10/2019 14:23:14.739,2044
01/10/2019 14:23:14.743,2048
01/10/2019 14:23:14.747,2048
01/10/2019 14:23:14.751,2052
01/10/2019 14:23:14.755,2060
01/10/2019 14:23:14.759,2067
01/10/2019 14:23:14.763,2075
01/10/2019 14:23:14.767,2080
01/10/2019 14:23:14.771,2088
01/10/2019 14:23:14.775,2094
01/10/2019 14:23:14.779,2099
01/10/2019 14:23:14.783,2103
01/10/2019 14:23:14.787,2107
01/10/2019 14:23:14.791,2114
01/10/2019 14:23:14.795,2121
01/10/2019 14:23:14.799,2126
01/10/2019 14:23:14.803,2133
01/10/2019 14:23:14.807,2138
01/10/2019 14:23:14.811,2143
01/10/2019 14:23:14.815,2142
01/10/2019 14:23:14.819,2141
01/10/2019 14:23:14.823,2142
01/10/2019 14:23:14.827,2141
01/10/2019 14:23:14.831,2139
01/10/2019 14:23:14.835,2138
01/10/2019 14:23:14.839,2140
01/10/2019 14:23:14.843,2143
01/10/2019 14:23:14.847,2141
01/10/2019 14:23:14.851,2141
01/10/2019 14:23:14.855,2140
01/10/2019 14:23:14.859,2141
01/10/2019 14:23:14.863,2140
01/10/2019 14:23:14.867,2137
01/10/2019 14:23:14.871,2139
01/10/2019 14:23:14.875,2139
01/10/2019 14:23:14.879,2137
01/10/2019 14:23:14.883,2135
01/10/2019 14:23:14.887,2134
01/10/2019 14:23:14.891,2135
01/10/2019 14:23:14.895,2135
01/10/2019 14:23:14.899,2133
01/10/2019 14:23:14.903,2132
01/10/2019 14:23:14.907,2131
01/10/2019 14:23:14.911,2130
01/10/2019 14:23:14.915,2129
01/10/2019 14:23:14.919,2126
01/10/2019 14:23:14.923,2128
01/10/2019 14:23:14.927,2127
01/10/2019 14:23:14.931,2126
01/10/2019 14:23:14.935,2123
01/10/2019 14:23:14.939,2123
01/10/2019 14:23:14.943,2123
01/10/2019 14:23:14.947,2118
01/10/2019 14:23:14.951,2115
01/10/2019 14:23:14.955,2115
01/10/2019 14:23:14.959,2114
01/10/2019 14:23:14.963,2113
01/10/2019 14:23:14.967,2110
01/10/2019 14:23:14.971,2111
01/10/2019 14:23:14.975,2110
01/10/2019 14:23:14.979,2108
01/10/2019 14:23:14.983,2106
01/10/2019 14:23:14.987,2103
01/10/2019 14:23:14.991,2105
01/10/2019 14:23:14.995,2107
01/10/2019 14:23:14.999,2108
01/10/2019 14:23:15.003,2111
01/10/2019 14:23:15.007,2114
01/10/2019 14:23:15.011,2116
01/10/2019 14:23:15.015,2114
01/10/2019 14:23:15.019,2112
01/10/2019 14:23:15.023,2113
01/10/2019 14:23:15.027,2111
01/10/2019 14:23:15.031,2109
01/10/2019 14:23:15.035,2107
01/10/2019 14:23:15.039,2107
01/10/2019 14:23:15.043,2109
01/10/2019 14:23:15.047,2106
01/10/2019 14:23:15.051,2106
01/10/2019 14:23:15.055,2107
01/10/2019 14:23:15.059,2107
01/10/2019 14:23:15.063,2104
01/10/2019 14:23:15.067,2099
01/10/2019 14:23:15.071,2099
01/10/2019 14:23:15.075,2099
01/10/2019 14:23:15.079,2096
01/10/2019 14:23:15.083,2095
01/10/2019 14:23:15.087,2093
01/10/2019 14:23:15.091,2095
01/10/2019 14:23:15.095,2091
01/10/2019 14:23:15.099,2086
01/10/2019 14:23:15.103,2084
01/10/2019 14:23:15.107,2082
01/10/2019 14:23:15.111,2084
01/10/2019 14:23:15.115,2081
01/10/2019 14:23:15.119,2077
01/10/2019 14:23:15.123,2074
01/10/2019 14:23:15.127,2069
01/10/2019 14:23:15.131,2068
01/10/2019 14:23:15.135,2068
01/10/2019 14:23:15.139,2070
01/10/2019 14:23:15.143,2070
01/10/2019 14:23:15.147,2063
01/10/2019 14:23:15.151,2059
01/10/2019 14:23:15.155,2060
01/10/2019 14:23:15.159,2063
01/10/2019 14:23:15.163,2062
01/10/2019 14:23:15.167,2060
01/10/2019 14:23:15.171,2060
01/10/2019 14:23:15.175,2061
01/10/2019 14:23:15.179,2059
01/10/2019 14:23:15.183,2058
01/10/2019 14:23:15.187,2055
01/10/2019 14:23:15.191,2056
01/10/2019 14:23:15.195,2056
01/10/2019 14:23:15.199,2056
01/10/2019 14:23:15.203,2058
01/10/2019 14:23:15.207,2059
01/10/2019 14:23:15.211,2058
01/10/2019 14:23:15.215,2056
01/10/2019 14:23:15.219,2055
01/10/2019 14:23:15.223,2060
01/10/2019 14:23:15.227,2063
01/10/2019 14:23:15.231,2065
01/10/2019 14:23:15.235,2065
01/10/2019 14:23:15.239,2065
01/10/2019 14:23:15.243,2061
01/10/2019 14:23:15.247,2055
01/10/2019 14:23:15.251,2051
01/10/2019 14:23:15.255,2052
01/10/2019 14:23:15.259,2053
01/10/2019 14:23:15.263,2051
01/10/2019 14:23:15.267,2046
01/10/2019 14:23:15.271,2045
01/10/2019 14:23:15.275,2045
01/10/2019 14:23:15.279,2045
01/10/2019 14:23:15.283,2044
01/10/2019 14:23:15.287,2045
01/10/2019 14:23:15.291,2047
01/10/2019 14:23:15.295,2048
01/10/2019 14:23:15.299,2047
01/10/2019 14:23:15.303,2047
01/10/2019 14:23:15.307,2047
01/10/2019 14:23:15.311,2048
01/10/2019 14:23:15.315,2048
01/10/2019 14:23:15.319,2049
01/10/2019 14:23:15.323,2052
01/10/2019 14:23:15.327,2053
01/10/2019 14:23:15.331,2052
01/10/2019 14:23:15.335,2050
01/10/2019 14:23:15.339,2053
01/10/2019 14:23:15.343,2056
01/10/2019 14:23:15.347,2054
01/10/2019 14:23:15.351,2051
01/10/2019 14:23:15.355,2049
01/10/2019 14:23:15.359,2047
01/10/2019 14:23:15.363,2043
01/10/2019 14:23:15.367,2043
01/10/2019 14:23:15.371,2047
01/10/2019 14:23:15.375,2052
01/10/2019 14:23:15.379,2053
01/10/2019 14:23:15.383,2051
01/10/2019 14:23:15.387,2047
01/10/2019 14:23:15.391,2044
01/10/2019 14:23:15.395,2042
01/10/2019 14:23:15.399,2043
01/10/2019 14:23:15.403,2044
01/10/2019 14:23:15.407,2045
01/10/2019 14:23:15.411,2047
01/10/2019 14:23:15.415,2046
01/10/2019 14:23:15.419,2044
01/10/2019 14:23:15.423,2045
01/10/2019 14:23:15.427,2043
01/10/2019 14:23:15.431,2041
01/10/2019 14:23:15.435,2040
01/10/2019 14:23:15.439,2043
01/10/2019 14:23:15.443,2046
01/10/2019 14:23:15.447,2045
01/10/2019 14:23:15.451,2046
01/10/2019 14:23:15.455,2048
01/10/2019 14:23:15.459,2049
01/10/2019 14:23:15.463,2048
01/10/2019 14:23:15.467,2045
01/10/2019 14:23:15.471,2046
01/10/2019 14:23:15.475,2047
01/10/2019 14:23:15.479,2050
01/10/2019 14:23:15.483,2053
01/10/2019 14:23:15.487,2056
01/10/2019 14:23:15.491,2059
01/10/2019 14:23:15.495,2057
01/10/2019 14:23:15.499,2052
01/10/2019 14:23:15.503,2050
01/10/2019 14:23:15.507,2049
01/10/2019 14:23:15.511,2051
01/10/2019 14:23:15.515,2051
01/10/2019 14:23:15.519,2053
01/10/2019 14:23:15.523,2057
01/10/2019 14:23:15.527,2059
01/10/2019 14:23:15.531,2058
01/10/2019 14:23:15.535,2059
01/10/2019 14:23:15.539,2061
01/10/2019 14:23:15.543,2062
01/10/2019 14:23:15.547,2060
01/10/2019 14:23:15.551,2060
01/10/2019 14:23:15.555,2062
01/10/2019 14:23:15.559,2067
01/10/2019 14:23:15.563,2067
01/10/2019 14:23:15.567,2066
01/10/2019 14:23:15.571,2068
01/10/2019 14:23:15.575,2070
01/10/2019 14:23:15.579,2069
01/10/2019 14:23:15.583,2068
01/10/2019 14:23:15.587,2066
01/10/2019 14:23:15.591,2068
01/10/2019 14:23:15.595,2070
01/10/2019 14:23:15.599,2072
01/10/2019 14:23:15.603,2074
01/10/2019 14:23:15.607,2078
01/10/2019 14:23:15.611,2081
01/10/2019 14:23:15.615,2081
01/10/2019 14:23:15.619,2081
01/10/2019 14:23:15.623,2084
01/10/2019 14:23:15.627,2084
01/10/2019 14:23:15.631,2082
01/10/2019 14:23:15.635,2081
01/10/2019 14:23:15.639,2084
01/10/2019 14:23:15.643,2086
01/10/2019 14:23:15.647,2084
01/10/2019 14:23:15.651,2083
01/10/2019 14:23:15.655,2084
01/10/2019 14:23:15.659,2084
01/10/2019 14:23:15.663,2083
01/10/2019 14:23:15.667,2079
01/10/2019 14:23:15.671,2080
01/10/2019 14:23:15.675,2081
01/10/2019 14:23:15.679,2082
01/10/2019 14:23:15.683,2082
01/10/2019 14:23:15.687,2082
01/10/2019 14:23:15.691,2084
01/10/2019 14:23:15.695,2084
01/10/2019 14:23:15.699,2081
01/10/2019 14:23:15.703,2081
01/10/2019 14:23:15.707,2079
01/10/2019 14:23:15.711,2080
01/10/2019 14:23:15.715,2078
01/10/2019 14:23:15.719,2079
01/10/2019 14:23:15.723,2081
01/10/2019 14:23:15.727,2082
01/10/2019 14:23:15.731,2080
01/10/2019 14:23:15.735,2078
01/10/2019 14:23:15.739,2078
01/10/2019 14:23:15.743,2079
01/10/2019 14:23:15.747,2074
01/10/2019 14:23:15.751,2073
01/10/2019 14:23:15.755,2075
01/10/2019 14:23:15.759,2079
01/10/2019 14:23:15.763,2079
01/10/2019 14:23:15.767,2078
01/10/2019 14:23:15.771,2079
01/10/2019 14:23:15.775,2081
01/10/2019 14:23:15.779,2079
01/10/2019 14:23:15.783,2078
01/10/2019 14:23:15.787,2075
01/10/2019 14:23:15.791,2075
01/10/2019 14:23:15.795,2074
01/10/2019 14:23:15.799,2073
01/10/2019 14:23:15.803,2073
01/10/2019 14:23:15.807,2073
01/10/2019 14:23:15.811,2072
01/10/2019 14:23:15.815,2070
01/10/2019 14:23:15.819,2067
01/10/2019 14:23:15.823,2067
01/10/2019 14:23:15.827,2065
01/10/2019 14:23:15.831,2062
01/10/2019 14:23:15.835,2060
01/10/2019 14:23:15.839,2062
01/10/2019 14:23:15.843,2063
01/10/2019 14:23:15.847,2061
01/10/2019 14:23:15.851,2059
01/10/2019 14:23:15.855,2059
01/10/2019 14:23:15.859,2058
01/10/2019 14:23:15.863,2056
01/10/2019 14:23:15.867,2052
01/10/2019 14:23:15.871,2052
01/10/2019 14:23:15.875,2053
01/10/2019 14:23:15.879,2053
01/10/2019 14:23:15.883,2053
01/10/2019 14:23:15.887,2053
01/10/2019 14:23:15.891,2054
01/10/2019 14:23:15.895,2054
01/10/2019 14:23:15.899,2050
01/10/2019 14:23:15.903,2050
01/10/2019 14:23:15.907,2048
01/10/2019 14:23:15.911,2048
01/10/2019 14:23:15.915,2047
01/10/2019 14:23:15.919,2047
01/10/2019 14:23:15.923,2048
01/10/2019 14:23:15.927,2048
01/10/2019 14:23:15.931,2046
01/10/2019 14:23:15.935,2044
01/10/2019 14:23:15.939,2045
01/10/2019 14:23:15.943,2046
01/10/2019 14:23:15.947,2042
01/10/2019 14:23:15.951,2041
01/10/2019 14:23:15.955,2043
01/10/2019 14:23:15.959,2047
01/10/2019 14:23:15.963,2048
01/10/2019 14:23:15.967,2048
01/10/2019 14:23:15.971,2049
01/10/2019 14:23:15.975,2051
01/10/2019 14:23:15.979,2049
01/10/2019 14:23:15.983,2048
01/10/2019 14:23:15.987,2047
01/10/2019 14:23:15.991,2048
01/10/2019 14:23:15.995,2048
01/10/2019 14:23:15.999,2049
01/10/2019 14:23:16.003,2051
01/10/2019 14:23:16.007,2052
01/10/2019 14:23:16.011,2053
01/10/2019 14:23:16.015,2052
01/10/2019 14:23:16.019,2050
01/10/2019 14:23:16.023,2053
01/10/2019 14:23:16.027,2052
01/10/2019 14:23:16.031,2050
01/10/2019 14:23:16.035,2050
01/10/2019 14:23:16.039,2053
01/10/2019 14:23:16.043,2056
01/10/2019 14:23:16.047,2055
01/10/2019 14:23:16.051,2054
01/10/2019 14:23:16.055,2056
01/10/2019 14:23:16.059,2057
01/10/2019 14:23:16.063,2056
01/10/2019 14:23:16.067,2053
01/10/2019 14:23:16.071,2054
01/10/2019 14:23:16.075,2056
01/10/2019 14:23:16.079,2056
01/10/2019 14:23:16.083,2056
01/10/2019 14:23:16.087,2057
01/10/2019 14:23:16.091,2057
01/10/2019 14:23:16.095,2058
01/10/2019 14:23:16.099,2058
01/10/2019 14:23:16.103,2061
01/10/2019 14:23:16.107,2061
01/10/2019 14:23:16.111,2058
01/10/2019 14:23:16.115,2053
01/10/2019 14:23:16.119,2052
01/10/2019 14:23:16.123,2057
01/10/2019 14:23:16.127,2061
01/10/2019 14:23:16.131,2062
01/10/2019 14:23:16.135,2060
01/10/2019 14:23:16.139,2059
01/10/2019 14:23:16.143,2060
01/10/2019 14:23:16.147,2056
01/10/2019 14:23:16.151,2056
01/10/2019 14:23:16.155,2058
01/10/2019 14:23:16.159,2059
01/10/2019 14:23:16.163,2059
01/10/2019 14:23:16.167,2057
01/10/2019 14:23:16.171,2059
01/10/2019 14:23:16.175,2060
01/10/2019 14:23:16.179,2058
01/10/2019 14:23:16.183,2056
01/10/2019 14:23:16.187,2055
01/10/2019 14:23:16.191,2056
01/10/2019 14:23:16.195,2057
01/10/2019 14:23:16.199,2056
01/10/2019 14:23:16.203,2058
01/10/2019 14:23:16.207,2060
01/10/2019 14:23:16.211,2061
01/10/2019 14:23:16.215,2057
01/10/2019 14:23:16.219,2055
01/10/2019 14:23:16.223,2058
01/10/2019 14:23:16.227,2060
01/10/2019 14:23:16.231,2064
01/10/2019 14:23:16.235,2066
01/10/2019 14:23:16.239,2067
01/10/2019 14:23:16.243,2065
01/10/2019 14:23:16.247,2058
01/10/2019 14:23:16.251,2054
01/10/2019 14:23:16.255,2053
01/10/2019 14:23:16.259,2054
01/10/2019 14:23:16.263,2054
01/10/2019 14:23:16.267,2051
01/10/2019 14:23:16.271,2052
01/10/2019 14:23:16.275,2054
01/10/2019 14:23:16.279,2053
01/10/2019 14:23:16.283,2054
01/10/2019 14:23:16.287,2055
01/10/2019 14:23:16.291,2057
01/10/2019 14:23:16.295,2056
01/10/2019 14:23:16.299,2054
01/10/2019 14:23:16.303,2053
01/10/2019 14:23:16.307,2052
01/10/2019 14:23:16.311,2053
01/10/2019 14:23:16.315,2051
01/10/2019 14:23:16.319,2052
01/10/2019 14:23:16.323,2057
01/10/2019 14:23:16.327,2058
01/10/2019 14:23:16.331,2057
01/10/2019 14:23:16.335,2057
01/10/2019 14:23:16.339,2058
01/10/2019 14:23:16.343,2057
01/10/2019 14:23:16.347,2052
01/10/2019 14:23:16.351,2048
01/10/2019 14:23:16.355,2047
01/10/2019 14:23:16.359,2047
01/10/2019 14:23:16.363,2048
01/10/2019 14:23:16.367,2051
01/10/2019 14:23:16.371,2058
01/10/2019 14:23:16.375,2062
01/10/2019 14:23:16.379,2061
01/10/2019 14:23:16.383,2059
01/10/2019 14:23:16.387,2055
01/10/2019 14:23:16.391,2058
01/10/2019 14:23:16.395,2058
01/10/2019 14:23:16.399,2058
01/10/2019 14:23:16.403,2060
01/10/2019 14:23:16.407,2061
01/10/2019 14:23:16.411,2063
01/10/2019 14:23:16.415,2061
01/10/2019 14:23:16.419,2059
01/10/2019 14:23:16.423,2060
01/10/2019 14:23:16.427,2058
01/10/2019 14:23:16.431,2056
01/10/2019 14:23:16.435,2055
01/10/2019 14:23:16.439,2057
01/10/2019 14:23:16.443,2060
01/10/2019 14:23:16.447,2059
01/10/2019 14:23:16.451,2059
01/10/2019 14:23:16.455,2060
01/10/2019 14:23:16.459,2060
01/10/2019 14:23:16.463,2058
01/10/2019 14:23:16.467,2055
01/10/2019 14:23:16.471,2057
01/10/2019 14:23:16.475,2058
01/10/2019 14:23:16.479,2057
01/10/2019 14:23:16.483,2057
01/10/2019 14:23:16.487,2057
01/10/2019 14:23:16.491,2059
01/10/2019 14:23:16.495,2058
01/10/2019 14:23:16.499,2056
01/10/2019 14:23:16.503,2056
01/10/2019 14:23:16.507,2055
01/10/2019 14:23:16.511,2057
01/10/2019 14:23:16.515,2055
01/10/2019 14:23:16.519,2055
01/10/2019 14:23:16.523,2059
01/10/2019 14:23:16.527,2059
01/10/2019 14:23:16.531,2059
01/10/2019 14:23:16.535,2057
01/10/2019 14:23:16.539,2058
01/10/2019 14:23:16.543,2058
01/10/2019 14:23:16.547,2055
01/10/2019 14:23:16.551,2055
01/10/2019 14:23:16.555,2056
01/10/2019 14:23:16.559,2058
01/10/2019 14:23:16.563,2058
01/10/2019 14:23:16.567,2056
01/10/2019 14:23:16.571,2059
01/10/2019 14:23:16.575,2059
01/10/2019 14:23:16.579,2057
01/10/2019 14:23:16.583,2056
01/10/2019 14:23:16.587,2055
01/10/2019 14:23:16.591,2057
01/10/2019 14:23:16.595,2058
01/10/2019 14:23:16.599,2057
01/10/2019 14:23:16.603,2059
01/10/2019 14:23:16.607,2061
01/10/2019 14:23:16.611,2062
01/10/2019 14:23:16.615,2060
01/10/2019 14:23:16.619,2059
01/10/2019 14:23:16.623,2060
01/10/2019 14:23:16.627,2059
01/10/2019 14:23:16.631,2058
01/10/2019 14:23:16.635,2057
01/10/2019 14:23:16.639,2058
01/10/2019 14:23:16.643,2061
01/10/2019 14:23:16.647,2059
01/10/2019 14:23:16.651,2060
01/10/2019 14:23:16.655,2062
01/10/2019 14:23:16.659,2062
01/10/2019 14:23:16.663,2061
01/10/2019 14:23:16.667,2058
01/10/2019 14:23:16.671,2060
01/10/2019 14:23:16.675,2063
01/10/2019 14:23:16.679,2063
01/10/2019 14:23:16.683,2064
01/10/2019 14:23:16.687,2065
01/10/2019 14:23:16.691,2068
01/10/2019 14:23:16.695,2067
01/10/2019 14:23:16.699,2067
01/10/2019 14:23:16.703,2068
01/10/2019 14:23:16.707,2069
01/10/2019 14:23:16.711,2071
01/10/2019 14:23:16.715,2070
01/10/2019 14:23:16.719,2070
01/10/2019 14:23:16.723,2074
01/10/2019 14:23:16.727,2075
01/10/2019 14:23:16.731,2076
01/10/2019 14:23:16.735,2076
01/10/2019 14:23:16.739,2077
01/10/2019 14:23:16.743,2079
01/10/2019 14:23:16.747,2077
01/10/2019 14:23:16.751,2078
01/10/2019 14:23:16.755,2081
01/10/2019 14:23:16.759,2083
01/10/2019 14:23:16.763,2084
01/10/2019 14:23:16.767,2083
01/10/2019 14:23:16.771,2086
01/10/2019 14:23:16.775,2089
01/10/2019 14:23:16.779,2089
01/10/2019 14:23:16.783,2090
01/10/2019 14:23:16.787,2091
01/10/2019 14:23:16.791,2093
01/10/2019 14:23:16.795,2094
01/10/2019 14:23:16.799,2093
01/10/2019 14:23:16.803,2095
01/10/2019 14:23:16.807,2095
01/10/2019 14:23:16.811,2095
01/10/2019 14:23:16.815,2091
01/10/2019 14:23:16.819,2088
01/10/2019 14:23:16.823,2087
01/10/2019 14:23:16.827,2085
01/10/2019 14:23:16.831,2083
01/10/2019 14:23:16.835,2080
01/10/2019 14:23:16.839,2080
01/10/2019 14:23:16.843,2081
01/10/2019 14:23:16.847,2078
01/10/2019 14:23:16.851,2076
01/10/2019 14:23:16.855,2076
01/10/2019 14:23:16.859,2075
01/10/2019 14:23:16.863,2073
01/10/2019 14:23:16.867,2070
01/10/2019 14:23:16.871,2071
01/10/2019 14:23:16.875,2073
01/10/2019 14:23:16.879,2071
01/10/2019 14:23:16.883,2071
01/10/2019 14:23:16.887,2071
01/10/2019 14:23:16.891,2073
01/10/2019 14:23:16.895,2071
01/10/2019 14:23:16.899,2069
01/10/2019 14:23:16.903,2068
01/10/2019 14:23:16.907,2066
01/10/2019 14:23:16.911,2066
01/10/2019 14:23:16.915,2064
01/10/2019 14:23:16.919,2064
01/10/2019 14:23:16.923,2066
01/10/2019 14:23:16.927,2067
01/10/2019 14:23:16.931,2066
01/10/2019 14:23:16.935,2064
01/10/2019 14:23:16.939,2064
01/10/2019 14:23:16.943,2064
01/10/2019 14:23:16.947,2060
01/10/2019 14:23:16.951,2059
01/10/2019 14:23:16.955,2060
01/10/2019 14:23:16.959,2061
01/10/2019 14:23:16.963,2061
01/10/2019 14:23:16.967,2060
01/10/2019 14:23:16.971,2063
01/10/2019 14:23:16.975,2064
01/10/2019 14:23:16.979,2062
01/10/2019 14:23:16.983,2061
01/10/2019 14:23:16.987,2060
01/10/2019 14:23:16.991,2061
01/10/2019 14:23:16.995,2061
01/10/2019 14:23:16.999,2060
01/10/2019 14:23:17.003,2062
01/10/2019 14:23:17.007,2063
01/10/2019 14:23:17.011,2065
01/10/2019 14:23:17.015,2063
01/10/2019 14:23:17.019,2061
01/10/2019 14:23:17.023,2062
01/10/2019 14:23:17.027,2061
01/10/2019 14:23:17.031,2060
01/10/2019 14:23:17.035,2059
01/10/2019 14:23:17.039,2061
01/10/2019 14:23:17.043,2064
01/10/2019 14:23:17.047,2062
01/10/2019 14:23:17.051,2062
01/10/2019 14:23:17.055,2062
01/10/2019 14:23:17.059,2063
01/10/2019 14:23:17.063,2061
01/10/2019 14:23:17.067,2058
01/10/2019 14:23:17.071,2060
01/10/2019 14:23:17.075,2061
01/10/2019 14:23:17.079,2060
01/10/2019 14:23:17.083,2060
01/10/2019 14:23:17.087,2061
01/10/2019 14:23:17.091,2064
01/10/2019 14:23:17.095,2062
01/10/2019 14:23:17.099,2060
01/10/2019 14:23:17.103,2060
01/10/2019 14:23:17.107,2059
01/10/2019 14:23:17.111,2061
01/10/2019 14:23:17.115,2061
01/10/2019 14:23:17.119,2060
01/10/2019 14:23:17.123,2061
01/10/2019 14:23:17.127,2060
01/10/2019 14:23:17.131,2060
01/10/2019 14:23:17.135,2060
01/10/2019 14:23:17.139,2063
01/10/2019 14:23:17.143,2065
01/10/2019 14:23:17.147,2063
01/10/2019 14:23:17.151,2061
01/10/2019 14:23:17.155,2063
01/10/2019 14:23:17.159,2065
01/10/2019 14:23:17.163,2066
01/10/2019 14:23:17.167,2065
01/10/2019 14:23:17.171,2067
01/10/2019 14:23:17.175,2067
01/10/2019 14:23:17.179,2065
01/10/2019 14:23:17.183,2063
01/10/2019 14:23:17.187,2062
01/10/2019 14:23:17.191,2064
01/10/2019 14:23:17.195,2063
01/10/2019 14:23:17.199,2062
01/10/2019 14:23:17.203,2064
01/10/2019 14:23:17.207,2065
01/10/2019 14:23:17.211,2065
01/10/2019 14:23:17.215,2061
01/10/2019 14:23:17.219,2059
01/10/2019 14:23:17.223,2061
01/10/2019 14:23:17.227,2062
01/10/2019 14:23:17.231,2065
01/10/2019 14:23:17.235,2067
01/10/2019 14:23:17.239,2067
01/10/2019 14:23:17.243,2065
01/10/2019 14:23:17.247,2057
01/10/2019 14:23:17.251,2052
01/10/2019 14:23:17.255,2050
01/10/2019 14:23:17.259,2050
01/10/2019 14:23:17.263,2049
01/10/2019 14:23:17.267,2046
01/10/2019 14:23:17.271,2048
01/10/2019 14:23:17.275,2048
01/10/2019 14:23:17.279,2048
01/10/2019 14:23:17.283,2048
01/10/2019 14:23:17.287,2048
01/10/2019 14:23:17.291,2049
01/10/2019 14:23:17.295,2048
01/10/2019 14:23:17.299,2048
01/10/2019 14:23:17.303,2048
01/10/2019 14:23:17.307,2048
01/10/2019 14:23:17.311,2048
01/10/2019 14:23:17.315,2048
01/10/2019 14:23:17.319,2048
01/10/2019 14:23:17.323,2050
01/10/2019 14:23:17.327,2051
01/10/2019 14:23:17.331,2051
01/10/2019 14:23:17.335,2052
01/10/2019 14:23:17.339,2054
01/10/2019 14:23:17.343,2055
01/10/2019 14:23:17.347,2049
01/10/2019 14:23:17.351,2045
01/10/2019 14:23:17.355,2043
01/10/2019 14:23:17.359,2043
01/10/2019 14:23:17.363,2046
01/10/2019 14:23:17.367,2049
01/10/2019 14:23:17.371,2057
01/10/2019 14:23:17.375,2061
01/10/2019 14:23:17.379,2061
01/10/2019 14:23:17.383,2058
01/10/2019 14:23:17.387,2055
01/10/2019 14:23:17.391,2058
01/10/2019 14:23:17.395,2058
01/10/2019 14:23:17.399,2058
01/10/2019 14:23:17.403,2061
01/10/2019 14:23:17.407,2063
01/10/2019 14:23:17.411,2065
01/10/2019 14:23:17.415,2063
01/10/2019 14:23:17.419,2062
01/10/2019 14:23:17.423,2063
01/10/2019 14:23:17.427,2062
01/10/2019 14:23:17.431,2062
01/10/2019 14:23:17.435,2061
01/10/2019 14:23:17.439,2063
01/10/2019 14:23:17.443,2066
01/10/2019 14:23:17.447,2065
01/10/2019 14:23:17.451,2066
01/10/2019 14:23:17.455,2068
01/10/2019 14:23:17.459,2069
01/10/2019 14:23:17.463,2066
01/10/2019 14:23:17.467,2064
01/10/2019 14:23:17.471,2068
01/10/2019 14:23:17.475,2071
01/10/2019 14:23:17.479,2072
01/10/2019 14:23:17.483,2071
01/10/2019 14:23:17.487,2072
01/10/2019 14:23:17.491,2075
01/10/2019 14:23:17.495,2073
01/10/2019 14:23:17.499,2070
01/10/2019 14:23:17.503,2067
01/10/2019 14:23:17.507,2063
01/10/2019 14:23:17.511,2065
01/10/2019 14:23:17.515,2067
01/10/2019 14:23:17.519,2070
01/10/2019 14:23:17.523,2074
01/10/2019 14:23:17.527,2075
01/10/2019 14:23:17.531,2072
01/10/2019 14:23:17.535,2072
01/10/2019 14:23:17.539,2072
01/10/2019 14:23:17.543,2072
01/10/2019 14:23:17.547,2069
01/10/2019 14:23:17.551,2067
01/10/2019 14:23:17.555,2069
01/10/2019 14:23:17.559,2072
01/10/2019 14:23:17.563,2071
01/10/2019 14:23:17.567,2070
01/10/2019 14:23:17.571,2071
01/10/2019 14:23:17.575,2072
01/10/2019 14:23:17.579,2070
01/10/2019 14:23:17.583,2068
01/10/2019 14:23:17.587,2067
01/10/2019 14:23:17.591,2068
01/10/2019 14:23:17.595,2067
01/10/2019 14:23:17.599,2068
01/10/2019 14:23:17.603,2070
01/10/2019 14:23:17.607,2070
01/10/2019 14:23:17.611,2071
01/10/2019 14:23:17.615,2069
01/10/2019 14:23:17.619,2068
01/10/2019 14:23:17.623,2069
01/10/2019 14:23:17.627,2067
01/10/2019 14:23:17.631,2065
01/10/2019 14:23:17.635,2065
01/10/2019 14:23:17.639,2067
01/10/2019 14:23:17.643,2069
01/10/2019 14:23:17.647,2068
01/10/2019 14:23:17.651,2067
01/10/2019 14:23:17.655,2069
01/10/2019 14:23:17.659,2069
01/10/2019 14:23:17.663,2067
01/10/2019 14:23:17.667,2063
01/10/2019 14:23:17.671,2064
01/10/2019 14:23:17.675,2065
01/10/2019 14:23:17.679,2066
01/10/2019 14:23:17.683,2066
01/10/2019 14:23:17.687,2067
01/10/2019 14:23:17.691,2067
01/10/2019 14:23:17.695,2066
01/10/2019 14:23:17.699,2063
01/10/2019 14:23:17.703,2063
01/10/2019 14:23:17.707,2062
01/10/2019 14:23:17.711,2061
01/10/2019 14:23:17.715,2060
01/10/2019 14:23:17.719,2061
01/10/2019 14:23:17.723,2063
01/10/2019 14:23:17.727,2064
01/10/2019 14:23:17.731,2063
01/10/2019 14:23:17.735,2062
01/10/2019 14:23:17.739,2062
01/10/2019 14:23:17.743,2062
01/10/2019 14:23:17.747,2058
01/10/2019 14:23:17.751,2057
01/10/2019 14:23:17.755,2058
01/10/2019 14:23:17.759,2061
01/10/2019 14:23:17.763,2060
01/10/2019 14:23:17.767,2060
01/10/2019 14:23:17.771,2062
01/10/2019 14:23:17.775,2063
01/10/2019 14:23:17.779,2061
01/10/2019 14:23:17.783,2059
01/10/2019 14:23:17.787,2057
01/10/2019 14:23:17.791,2058
01/10/2019 14:23:17.795,2057
01/10/2019 14:23:17.799,2059
01/10/2019 14:23:17.803,2061
01/10/2019 14:23:17.807,2062
01/10/2019 14:23:17.811,2063
01/10/2019 14:23:17.815,2062
01/10/2019 14:23:17.819,2061
01/10/2019 14:23:17.823,2062
01/10/2019 14:23:17.827,2060
01/10/2019 14:23:17.831,2059
01/10/2019 14:23:17.835,2059
01/10/2019 14:23:17.839,2063
01/10/2019 14:23:17.843,2066
01/10/2019 14:23:17.847,2066
01/10/2019 14:23:17.851,2066
01/10/2019 14:23:17.855,2067
01/10/2019 14:23:17.859,2067
01/10/2019 14:23:17.863,2065
01/10/2019 14:23:17.867,2062
01/10/2019 14:23:17.871,2063
01/10/2019 14:23:17.875,2064
01/10/2019 14:23:17.879,2065
01/10/2019 14:23:17.883,2065
01/10/2019 14:23:17.887,2066
01/10/2019 14:23:17.891,2068
01/10/2019 14:23:17.895,2068
01/10/2019 14:23:17.899,2066
01/10/2019 14:23:17.903,2067
01/10/2019 14:23:17.907,2066
01/10/2019 14:23:17.911,2066
01/10/2019 14:23:17.915,2066
01/10/2019 14:23:17.919,2069
01/10/2019 14:23:17.923,2072
01/10/2019 14:23:17.927,2073
01/10/2019 14:23:17.931,2072
01/10/2019 14:23:17.935,2072
01/10/2019 14:23:17.939,2073
01/10/2019 14:23:17.943,2075
01/10/2019 14:23:17.947,2073
01/10/2019 14:23:17.951,2073
01/10/2019 14:23:17.955,2075
01/10/2019 14:23:17.959,2078
01/10/2019 14:23:17.963,2078
01/10/2019 14:23:17.967,2078
01/10/2019 14:23:17.971,2079
01/10/2019 14:23:17.975,2080
01/10/2019 14:23:17.979,2078
01/10/2019 14:23:17.983,2077
01/10/2019 14:23:17.987,2075
01/10/2019 14:23:17.991,2075
01/10/2019 14:23:17.995,2075
01/10/2019 14:23:17.999,2076
01/10/2019 14:23:18.003,2078
01/10/2019 14:23:18.007,2079
01/10/2019 14:23:18.011,2080
01/10/2019 14:23:18.015,2079
01/10/2019 14:23:18.019,2077
01/10/2019 14:23:18.023,2078
01/10/2019 14:23:18.027,2076
01/10/2019 14:23:18.031,2075
01/10/2019 14:23:18.035,2075
01/10/2019 14:23:18.039,2078
01/10/2019 14:23:18.043,2080
01/10/2019 14:23:18.047,2079
01/10/2019 14:23:18.051,2078
01/10/2019 14:23:18.055,2079
01/10/2019 14:23:18.059,2079
01/10/2019 14:23:18.063,2078
01/10/2019 14:23:18.067,2075
01/10/2019 14:23:18.071,2075
01/10/2019 14:23:18.075,2076
01/10/2019 14:23:18.079,2077
01/10/2019 14:23:18.083,2077
01/10/2019 14:23:18.087,2079
01/10/2019 14:23:18.091,2079
01/10/2019 14:23:18.095,2078
01/10/2019 14:23:18.099,2078
01/10/2019 14:23:18.103,2080
01/10/2019 14:23:18.107,2079
01/10/2019 14:23:18.111,2075
01/10/2019 14:23:18.115,2071
01/10/2019 14:23:18.119,2070
01/10/2019 14:23:18.123,2075
01/10/2019 14:23:18.127,2079
01/10/2019 14:23:18.131,2080
01/10/2019 14:23:18.135,2079
01/10/2019 14:23:18.139,2077
01/10/2019 14:23:18.143,2078
01/10/2019 14:23:18.147,2075
01/10/2019 14:23:18.151,2075
01/10/2019 14:23:18.155,2076
01/10/2019 14:23:18.159,2077
01/10/2019 14:23:18.163,2077
01/10/2019 14:23:18.167,2076
01/10/2019 14:23:18.171,2078
01/10/2019 14:23:18.175,2078
01/10/2019 14:23:18.179,2077
01/10/2019 14:23:18.183,2075
01/10/2019 14:23:18.187,2073
01/10/2019 14:23:18.191,2074
01/10/2019 14:23:18.195,2073
01/10/2019 14:23:18.199,2072
01/10/2019 14:23:18.203,2074
01/10/2019 14:23:18.207,2075
01/10/2019 14:23:18.211,2075
01/10/2019 14:23:18.215,2071
01/10/2019 14:23:18.219,2070
01/10/2019 14:23:18.223,2071
01/10/2019 14:23:18.227,2073
01/10/2019 14:23:18.231,2077
01/10/2019 14:23:18.235,2079
01/10/2019 14:23:18.239,2079
01/10/2019 14:23:18.243,2076
01/10/2019 14:23:18.247,2069
01/10/2019 14:23:18.251,2065
01/10/2019 14:23:18.255,2064
01/10/2019 14:23:18.259,2065
01/10/2019 14:23:18.263,2066
01/10/2019 14:23:18.267,2063
01/10/2019 14:23:18.271,2064
01/10/2019 14:23:18.275,2064
01/10/2019 14:23:18.279,2063
01/10/2019 14:23:18.283,2062
01/10/2019 14:23:18.287,2063
01/10/2019 14:23:18.291,2065
01/10/2019 14:23:18.295,2064
01/10/2019 14:23:18.299,2063
01/10/2019 14:23:18.303,2063
01/10/2019 14:23:18.307,2062
01/10/2019 14:23:18.311,2062
01/10/2019 14:23:18.315,2062
01/10/2019 14:23:18.319,2061
01/10/2019 14:23:18.323,2064
01/10/2019 14:23:18.327,2064
01/10/2019 14:23:18.331,2064
01/10/2019 14:23:18.335,2065
01/10/2019 14:23:18.339,2066
01/10/2019 14:23:18.343,2066
01/10/2019 14:23:18.347,2060
01/10/2019 14:23:18.351,2055
01/10/2019 14:23:18.355,2052
01/10/2019 14:23:18.359,2051
01/10/2019 14:23:18.363,2054
01/10/2019 14:23:18.367,2058
01/10/2019 14:23:18.371,2065
01/10/2019 14:23:18.375,2068
01/10/2019 14:23:18.379,2066
01/10/2019 14:23:18.383,2063
01/10/2019 14:23:18.387,2060
01/10/2019 14:23:18.391,2062
01/10/2019 14:23:18.395,2061
01/10/2019 14:23:18.399,2060
01/10/2019 14:23:18.403,2062
01/10/2019 14:23:18.407,2062
01/10/2019 14:23:18.411,2062
01/10/2019 14:23:18.415,2060
01/10/2019 14:23:18.419,2060
01/10/2019 14:23:18.423,2060
01/10/2019 14:23:18.427,2057
01/10/2019 14:23:18.431,2057
01/10/2019 14:23:18.435,2056
01/10/2019 14:23:18.439,2057
01/10/2019 14:23:18.443,2060
01/10/2019 14:23:18.447,2059
01/10/2019 14:23:18.451,2060
01/10/2019 14:23:18.455,2061
01/10/2019 14:23:18.459,2061
01/10/2019 14:23:18.463,2060
01/10/2019 14:23:18.467,2057
01/10/2019 14:23:18.471,2059
01/10/2019 14:23:18.475,2060
01/10/2019 14:23:18.479,2060
01/10/2019 14:23:18.483,2060
01/10/2019 14:23:18.487,2060
01/10/2019 14:23:18.491,2062
01/10/2019 14:23:18.495,2061
01/10/2019 14:23:18.499,2060
01/10/2019 14:23:18.503,2061
01/10/2019 14:23:18.507,2060
01/10/2019 14:23:18.511,2061
01/10/2019 14:23:18.515,2060
01/10/2019 14:23:18.519,2060
01/10/2019 14:23:18.523,2063
01/10/2019 14:23:18.527,2064
01/10/2019 14:23:18.531,2064
01/10/2019 14:23:18.535,2062
01/10/2019 14:23:18.539,2062
01/10/2019 14:23:18.543,2062
01/10/2019 14:23:18.547,2059
01/10/2019 14:23:18.551,2059
01/10/2019 14:23:18.555,2061
01/10/2019 14:23:18.559,2061
01/10/2019 14:23:18.563,2062
01/10/2019 14:23:18.567,2061
01/10/2019 14:23:18.571,2063
01/10/2019 14:23:18.575,2063
01/10/2019 14:23:18.579,2061
01/10/2019 14:23:18.583,2059
01/10/2019 14:23:18.587,2058
01/10/2019 14:23:18.591,2059
01/10/2019 14:23:18.595,2058
01/10/2019 14:23:18.599,2058
01/10/2019 14:23:18.603,2061
01/10/2019 14:23:18.607,2062
01/10/2019 14:23:18.611,2062
01/10/2019 14:23:18.615,2060
01/10/2019 14:23:18.619,2058
01/10/2019 14:23:18.623,2058
01/10/2019 14:23:18.627,2057
01/10/2019 14:23:18.631,2057
01/10/2019 14:23:18.635,2056
01/10/2019 14:23:18.639,2057
01/10/2019 14:23:18.643,2059
01/10/2019 14:23:18.647,2058
01/10/2019 14:23:18.651,2058
01/10/2019 14:23:18.655,2059
01/10/2019 14:23:18.659,2059
01/10/2019 14:23:18.663,2058
01/10/2019 14:23:18.667,2055
01/10/2019 14:23:18.671,2056
01/10/2019 14:23:18.675,2057
01/10/2019 14:23:18.679,2056
01/10/2019 14:23:18.683,2057
01/10/2019 14:23:18.687,2058
01/10/2019 14:23:18.691,2060
01/10/2019 14:23:18.695,2059
01/10/2019 14:23:18.699,2057
01/10/2019 14:23:18.703,2057
01/10/2019 14:23:18.707,2056
01/10/2019 14:23:18.711,2056
01/10/2019 14:23:18.715,2055
01/10/2019 14:23:18.719,2056
01/10/2019 14:23:18.723,2060
01/10/2019 14:23:18.727,2060
01/10/2019 14:23:18.731,2061
01/10/2019 14:23:18.735,2059
01/10/2019 14:23:18.739,2059
01/10/2019 14:23:18.743,2059
01/10/2019 14:23:18.747,2057
01/10/2019 14:23:18.751,2058
01/10/2019 14:23:18.755,2060
01/10/2019 14:23:18.759,2060
01/10/2019 14:23:18.763,2061
01/10/2019 14:23:18.767,2060
01/10/2019 14:23:18.771,2063
01/10/2019 14:23:18.775,2064
01/10/2019 14:23:18.779,2062
01/10/2019 14:23:18.783,2060
01/10/2019 14:23:18.787,2059
01/10/2019 14:23:18.791,2061
01/10/2019 14:23:18.795,2061
01/10/2019 14:23:18.799,2061
01/10/2019 14:23:18.803,2064
01/10/2019 14:23:18.807,2065
01/10/2019 14:23:18.811,2067
01/10/2019 14:23:18.815,2065
01/10/2019 14:23:18.819,2065
01/10/2019 14:23:18.823,2066
01/10/2019 14:23:18.827,2064
01/10/2019 14:23:18.831,2064
01/10/2019 14:23:18.835,2064
01/10/2019 14:23:18.839,2065
01/10/2019 14:23:18.843,2068
01/10/2019 14:23:18.847,2067
01/10/2019 14:23:18.851,2067
01/10/2019 14:23:18.855,2065
01/10/2019 14:23:18.859,2064
01/10/2019 14:23:18.863,2060
01/10/2019 14:23:18.867,2056
01/10/2019 14:23:18.871,2056
01/10/2019 14:23:18.875,2055
01/10/2019 14:23:18.879,2051
01/10/2019 14:23:18.883,2049
01/10/2019 14:23:18.887,2047
01/10/2019 14:23:18.891,2046
01/10/2019 14:23:18.895,2041
01/10/2019 14:23:18.899,2036
01/10/2019 14:23:18.903,2033
01/10/2019 14:23:18.907,2029
01/10/2019 14:23:18.911,2026
01/10/2019 14:23:18.915,2023
01/10/2019 14:23:18.919,2021
01/10/2019 14:23:18.923,2023
01/10/2019 14:23:18.927,2021
01/10/2019 14:23:18.931,2021
01/10/2019 14:23:18.935,2020
01/10/2019 14:23:18.939,2020
01/10/2019 14:23:18.943,2019
01/10/2019 14:23:18.947,2016
01/10/2019 14:23:18.951,2015
01/10/2019 14:23:18.955,2017
01/10/2019 14:23:18.959,2017
01/10/2019 14:23:18.963,2017
01/10/2019 14:23:18.967,2016
01/10/2019 14:23:18.971,2018
01/10/2019 14:23:18.975,2018
01/10/2019 14:23:18.979,2015
01/10/2019 14:23:18.983,2012
01/10/2019 14:23:18.987,2011
01/10/2019 14:23:18.991,2012
01/10/2019 14:23:18.995,2010
01/10/2019 14:23:18.999,2008
01/10/2019 14:23:19.003,2011
01/10/2019 14:23:19.007,2011
01/10/2019 14:23:19.011,2010
01/10/2019 14:23:19.015,2007
01/10/2019 14:23:19.019,2007
01/10/2019 14:23:19.023,2008
01/10/2019 14:23:19.027,2006
01/10/2019 14:23:19.031,2006
01/10/2019 14:23:19.035,2007
01/10/2019 14:23:19.039,2009
01/10/2019 14:23:19.043,2012
01/10/2019 14:23:19.047,2011
01/10/2019 14:23:19.051,2012
01/10/2019 14:23:19.055,2014
01/10/2019 14:23:19.059,2014
01/10/2019 14:23:19.063,2011
01/10/2019 14:23:19.067,2007
01/10/2019 14:23:19.071,2010
01/10/2019 14:23:19.075,2011
01/10/2019 14:23:19.079,2008
01/10/2019 14:23:19.083,2007
01/10/2019 14:23:19.087,2008
01/10/2019 14:23:19.091,2011
01/10/2019 14:23:19.095,2006
01/10/2019 14:23:19.099,2002
01/10/2019 14:23:19.103,2005
01/10/2019 14:23:19.107,2006
01/10/2019 14:23:19.111,2008
01/10/2019 14:23:19.115,2010
01/10/2019 14:23:19.119,2013
01/10/2019 14:23:19.123,2018
01/10/2019 14:23:19.127,2020
01/10/2019 14:23:19.131,2024
01/10/2019 14:23:19.135,2030
01/10/2019 14:23:19.139,2039
01/10/2019 14:23:19.143,2046
01/10/2019 14:23:19.147,2048
01/10/2019 14:23:19.151,2048
01/10/2019 14:23:19.155,2052
01/10/2019 14:23:19.159,2055
01/10/2019 14:23:19.163,2055
01/10/2019 14:23:19.167,2053
01/10/2019 14:23:19.171,2056
01/10/2019 14:23:19.175,2055
01/10/2019 14:23:19.179,2048
01/10/2019 14:23:19.183,2040
01/10/2019 14:23:19.187,2034
01/10/2019 14:23:19.191,2031
01/10/2019 14:23:19.195,2024
01/10/2019 14:23:19.199,2020
01/10/2019 14:23:19.203,2021
01/10/2019 14:23:19.207,2020
01/10/2019 14:23:19.211,2013
01/10/2019 14:23:19.215,2002
01/10/2019 14:23:19.219,1997
01/10/2019 14:23:19.223,1994
01/10/2019 14:23:19.227,1989
01/10/2019 14:23:19.231,1987
01/10/2019 14:23:19.235,1983
01/10/2019 14:23:19.239,1974
01/10/2019 14:23:19.243,1974
01/10/2019 14:23:19.247,1987
01/10/2019 14:23:19.251,2009
01/10/2019 14:23:19.255,2001
01/10/2019 14:23:19.259,1919
01/10/2019 14:23:19.263,1744
01/10/2019 14:23:19.267,1512
01/10/2019 14:23:19.271,1266
01/10/2019 14:23:19.275,1103
01/10/2019 14:23:19.279,1078
01/10/2019 14:23:19.283,1128
01/10/2019 14:23:19.287,1177
01/10/2019 14:23:19.291,1137
01/10/2019 14:23:19.295,945
01/10/2019 14:23:19.299,653
01/10/2019 14:23:19.303,361
01/10/2019 14:23:19.307,169
01/10/2019 14:23:19.311,100
01/10/2019 14:23:19.315,114
01/10/2019 14:23:19.319,163
01/10/2019 14:23:19.323,218
01/10/2019 14:23:19.327,196
01/10/2019 14:23:19.331,146
01/10/2019 14:23:19.335,165
01/10/2019 14:23:19.339,201
01/10/2019 14:23:19.343,239
01/10/2019 14:23:19.347,291
01/10/2019 14:23:19.351,381
01/10/2019 14:23:19.355,497
01/10/2019 14:23:19.359,619
01/10/2019 14:23:19.363,757
01/10/2019 14:23:19.367,913
01/10/2019 14:23:19.371,1056
01/10/2019 14:23:19.375,1153
01/10/2019 14:23:19.379,1240
01/10/2019 14:23:19.383,1319
01/10/2019 14:23:19.387,1408
01/10/2019 14:23:19.391,1499
01/10/2019 14:23:19.395,1564
01/10/2019 14:23:19.399,1620
01/10/2019 14:23:19.403,1689
01/10/2019 14:23:19.407,1757
01/10/2019 14:23:19.411,1806
01/10/2019 14:23:19.415,1841
01/10/2019 14:23:19.419,1884
01/10/2019 14:23:19.423,1932
01/10/2019 14:23:19.427,1964
01/10/2019 14:23:19.431,1979
01/10/2019 14:23:19.435,1998
01/10/2019 14:23:19.439,2031
01/10/2019 14:23:19.443,2059
01/10/2019 14:23:19.447,2061
01/10/2019 14:23:19.451,2062
01/10/2019 14:23:19.455,2077
01/10/2019 14:23:19.459,2093
01/10/2019 14:23:19.463,2093
01/10/2019 14:23:19.467,2101
01/10/2019 14:23:19.471,2138
01/10/2019 14:23:19.475,2172
01/10/2019 14:23:19.479,2178
01/10/2019 14:23:19.483,2176
01/10/2019 14:23:19.487,2194
01/10/2019 14:23:19.491,2219
01/10/2019 14:23:19.495,2222
01/10/2019 14:23:19.499,2218
01/10/2019 14:23:19.503,2231
01/10/2019 14:23:19.507,2250
01/10/2019 14:23:19.511,2260
01/10/2019 14:23:19.515,2263
01/10/2019 14:23:19.519,2275
01/10/2019 14:23:19.523,2291
01/10/2019 14:23:19.527,2294
01/10/2019 14:23:19.531,2282
01/10/2019 14:23:19.535,2275
01/10/2019 14:23:19.539,2284
01/10/2019 14:23:19.543,2299
01/10/2019 14:23:19.547,2296
01/10/2019 14:23:19.551,2299
01/10/2019 14:23:19.555,2324
01/10/2019 14:23:19.559,2352
01/10/2019 14:23:19.563,2356
01/10/2019 14:23:19.567,2357
01/10/2019 14:23:19.571,2381
01/10/2019 14:23:19.575,2409
01/10/2019 14:23:19.579,2415
01/10/2019 14:23:19.583,2419
01/10/2019 14:23:19.587,2443
01/10/2019 14:23:19.591,2474
01/10/2019 14:23:19.595,2485
01/10/2019 14:23:19.599,2491
01/10/2019 14:23:19.603,2517
01/10/2019 14:23:19.607,2550
01/10/2019 14:23:19.611,2570
01/10/2019 14:23:19.615,2582
01/10/2019 14:23:19.619,2607
01/10/2019 14:23:19.623,2646
01/10/2019 14:23:19.627,2677
01/10/2019 14:23:19.631,2696
01/10/2019 14:23:19.635,2721
01/10/2019 14:23:19.639,2763
01/10/2019 14:23:19.643,2800
01/10/2019 14:23:19.647,2812
01/10/2019 14:23:19.651,2823
01/10/2019 14:23:19.655,2849
01/10/2019 14:23:19.659,2870
01/10/2019 14:23:19.663,2864
01/10/2019 14:23:19.667,2850
01/10/2019 14:23:19.671,2861
01/10/2019 14:23:19.675,2872
01/10/2019 14:23:19.679,2860
01/10/2019 14:23:19.683,2843
01/10/2019 14:23:19.687,2850
01/10/2019 14:23:19.691,2861
01/10/2019 14:23:19.695,2848
01/10/2019 14:23:19.699,2829
01/10/2019 14:23:19.703,2831
01/10/2019 14:23:19.707,2838
01/10/2019 14:23:19.711,2829
01/10/2019 14:23:19.715,2809
01/10/2019 14:23:19.719,2802
01/10/2019 14:23:19.723,2804
01/10/2019 14:23:19.727,2792
01/10/2019 14:23:19.731,2759
01/10/2019 14:23:19.735,2725
01/10/2019 14:23:19.739,2703
01/10/2019 14:23:19.743,2676
01/10/2019 14:23:19.747,2616
01/10/2019 14:23:19.751,2550
01/10/2019 14:23:19.755,2501
01/10/2019 14:23:19.759,2447
01/10/2019 14:23:19.763,2360
01/10/2019 14:23:19.767,2265
01/10/2019 14:23:19.771,2196
01/10/2019 14:23:19.775,2131
01/10/2019 14:23:19.779,2038
01/10/2019 14:23:19.783,1939
01/10/2019 14:23:19.787,1863
01/10/2019 14:23:19.791,1796
01/10/2019 14:23:19.795,1707
01/10/2019 14:23:19.799,1611
01/10/2019 14:23:19.803,1536
01/10/2019 14:23:19.807,1474
01/10/2019 14:23:19.811,1402
01/10/2019 14:23:19.815,1317
01/10/2019 14:23:19.819,1241
01/10/2019 14:23:19.823,1178
01/10/2019 14:23:19.827,1103
01/10/2019 14:23:19.831,1018
01/10/2019 14:23:19.835,893
01/10/2019 14:23:19.839,790
01/10/2019 14:23:19.843,701
01/10/2019 14:23:19.847,610
01/10/2019 14:23:19.851,494
01/10/2019 14:23:19.855,393
01/10/2019 14:23:19.859,330
01/10/2019 14:23:19.863,275
01/10/2019 14:23:19.867,220
01/10/2019 14:23:19.871,194
01/10/2019 14:23:19.875,204
01/10/2019 14:23:19.879,205
01/10/2019 14:23:19.883,175
01/10/2019 14:23:19.887,179
01/10/2019 14:23:19.891,179
01/10/2019 14:23:19.895,169
01/10/2019 14:23:19.899,152
01/10/2019 14:23:19.903,177
01/10/2019 14:23:19.907,212
01/10/2019 14:23:19.911,262
01/10/2019 14:23:19.915,352
01/10/2019 14:23:19.919,474
01/10/2019 14:23:19.923,597
01/10/2019 14:23:19.927,716
01/10/2019 14:23:19.931,848
01/10/2019 14:23:19.935,985
01/10/2019 14:23:19.939,1092
01/10/2019 14:23:19.943,1185
01/10/2019 14:23:19.947,1275
01/10/2019 14:23:19.951,1366
01/10/2019 14:23:19.955,1467
01/10/2019 14:23:19.959,1561
01/10/2019 14:23:19.963,1632
01/10/2019 14:23:19.967,1696
01/10/2019 14:23:19.971,1765
01/10/2019 14:23:19.975,1823
01/10/2019 14:23:19.979,1853
01/10/2019 14:23:19.983,1877
01/10/2019 14:23:19.987,1909
01/10/2019 14:23:19.991,1936
01/10/2019 14:23:19.995,1941
01/10/2019 14:23:19.999,1950
01/10/2019 14:23:20.003,1982
01/10/2019 14:23:20.007,2015
01/10/2019 14:23:20.011,2035
01/10/2019 14:23:20.015,2054
01/10/2019 14:23:20.019,2089
01/10/2019 14:23:20.023,2117
01/10/2019 14:23:20.027,2112
01/10/2019 14:23:20.031,2083
01/10/2019 14:23:20.035,2052
01/10/2019 14:23:20.039,2024
01/10/2019 14:23:20.043,1994
01/10/2019 14:23:20.047,1960
01/10/2019 14:23:20.051,1939
01/10/2019 14:23:20.055,1944
01/10/2019 14:23:20.059,1965
01/10/2019 14:23:20.063,1990
01/10/2019 14:23:20.067,2025
01/10/2019 14:23:20.071,2080
01/10/2019 14:23:20.075,2130
01/10/2019 14:23:20.079,2154
01/10/2019 14:23:20.083,2167
01/10/2019 14:23:20.087,2193
01/10/2019 14:23:20.091,2234
01/10/2019 14:23:20.095,2274
01/10/2019 14:23:20.099,2313
01/10/2019 14:23:20.103,2363
01/10/2019 14:23:20.107,2407
01/10/2019 14:23:20.111,2437
01/10/2019 14:23:20.115,2465
01/10/2019 14:23:20.119,2508
01/10/2019 14:23:20.123,2565
01/10/2019 14:23:20.127,2614
01/10/2019 14:23:20.131,2645
01/10/2019 14:23:20.135,2668
01/10/2019 14:23:20.139,2692
01/10/2019 14:23:20.143,2709
01/10/2019 14:23:20.147,2713
01/10/2019 14:23:20.151,2721
01/10/2019 14:23:20.155,2739
01/10/2019 14:23:20.159,2761
01/10/2019 14:23:20.163,2780
01/10/2019 14:23:20.167,2801
01/10/2019 14:23:20.171,2834
01/10/2019 14:23:20.175,2862
01/10/2019 14:23:20.179,2877
01/10/2019 14:23:20.183,2892
01/10/2019 14:23:20.187,2914
01/10/2019 14:23:20.191,2935
01/10/2019 14:23:20.195,2937
01/10/2019 14:23:20.199,2923
01/10/2019 14:23:20.203,2911
01/10/2019 14:23:20.207,2900
01/10/2019 14:23:20.211,2879
01/10/2019 14:23:20.215,2854
01/10/2019 14:23:20.219,2837
01/10/2019 14:23:20.223,2830
01/10/2019 14:23:20.227,2821
01/10/2019 14:23:20.231,2811
01/10/2019 14:23:20.235,2800
01/10/2019 14:23:20.239,2790
01/10/2019 14:23:20.243,2777
01/10/2019 14:23:20.247,2753
01/10/2019 14:23:20.251,2732
01/10/2019 14:23:20.255,2722
01/10/2019 14:23:20.259,2716
01/10/2019 14:23:20.263,2706
01/10/2019 14:23:20.267,2690
01/10/2019 14:23:20.271,2685
01/10/2019 14:23:20.275,2684
01/10/2019 14:23:20.279,2678
01/10/2019 14:23:20.283,2674
01/10/2019 14:23:20.287,2675
01/10/2019 14:23:20.291,2678
01/10/2019 14:23:20.295,2672
01/10/2019 14:23:20.299,2664
01/10/2019 14:23:20.303,2661
01/10/2019 14:23:20.307,2659
01/10/2019 14:23:20.311,2655
01/10/2019 14:23:20.315,2649
01/10/2019 14:23:20.319,2646
01/10/2019 14:23:20.323,2643
01/10/2019 14:23:20.327,2633
01/10/2019 14:23:20.331,2619
01/10/2019 14:23:20.335,2607
01/10/2019 14:23:20.339,2597
01/10/2019 14:23:20.343,2587
01/10/2019 14:23:20.347,2571
01/10/2019 14:23:20.351,2557
01/10/2019 14:23:20.355,2547
01/10/2019 14:23:20.359,2540
01/10/2019 14:23:20.363,2535
01/10/2019 14:23:20.367,2532
01/10/2019 14:23:20.371,2535
01/10/2019 14:23:20.375,2534
01/10/2019 14:23:20.379,2527
01/10/2019 14:23:20.383,2520
01/10/2019 14:23:20.387,2513
01/10/2019 14:23:20.391,2511
01/10/2019 14:23:20.395,2505
01/10/2019 14:23:20.399,2499
01/10/2019 14:23:20.403,2499
01/10/2019 14:23:20.407,2497
01/10/2019 14:23:20.411,2491
01/10/2019 14:23:20.415,2484
01/10/2019 14:23:20.419,2481
01/10/2019 14:23:20.423,2479
01/10/2019 14:23:20.427,2472
01/10/2019 14:23:20.431,2467
01/10/2019 14:23:20.435,2465
01/10/2019 14:23:20.439,2463
01/10/2019 14:23:20.443,2461
01/10/2019 14:23:20.447,2458
01/10/2019 14:23:20.451,2458
01/10/2019 14:23:20.455,2459
01/10/2019 14:23:20.459,2459
01/10/2019 14:23:20.463,2457
01/10/2019 14:23:20.467,2454
01/10/2019 14:23:20.471,2457
01/10/2019 14:23:20.475,2459
01/10/2019 14:23:20.479,2455
01/10/2019 14:23:20.483,2454
01/10/2019 14:23:20.487,2454
01/10/2019 14:23:20.491,2455
01/10/2019 14:23:20.495,2448
01/10/2019 14:23:20.499,2443
01/10/2019 14:23:20.503,2442
01/10/2019 14:23:20.507,2439
01/10/2019 14:23:20.511,2432
01/10/2019 14:23:20.515,2426
01/10/2019 14:23:20.519,2425
01/10/2019 14:23:20.523,2425
01/10/2019 14:23:20.527,2420
01/10/2019 14:23:20.531,2416
01/10/2019 14:23:20.535,2413
01/10/2019 14:23:20.539,2410
01/10/2019 14:23:20.543,2405
01/10/2019 14:23:20.547,2397
01/10/2019 14:23:20.551,2394
01/10/2019 14:23:20.555,2394
01/10/2019 14:23:20.559,2391
01/10/2019 14:23:20.563,2388
01/10/2019 14:23:20.567,2384
01/10/2019 14:23:20.571,2385
01/10/2019 14:23:20.575,2383
01/10/2019 14:23:20.579,2375
01/10/2019 14:23:20.583,2369
01/10/2019 14:23:20.587,2365
01/10/2019 14:23:20.591,2362
01/10/2019 14:23:20.595,2354
01/10/2019 14:23:20.599,2349
01/10/2019 14:23:20.603,2351
01/10/2019 14:23:20.607,2351
01/10/2019 14:23:20.611,2347
01/10/2019 14:23:20.615,2341
01/10/2019 14:23:20.619,2341
01/10/2019 14:23:20.623,2342
01/10/2019 14:23:20.627,2336
01/10/2019 14:23:20.631,2333
01/10/2019 14:23:20.635,2333
01/10/2019 14:23:20.639,2333
01/10/2019 14:23:20.643,2331
01/10/2019 14:23:20.647,2325
01/10/2019 14:23:20.651,2324
01/10/2019 14:23:20.655,2323
01/10/2019 14:23:20.659,2321
01/10/2019 14:23:20.663,2316
01/10/2019 14:23:20.667,2310
01/10/2019 14:23:20.671,2311
01/10/2019 14:23:20.675,2310
01/10/2019 14:23:20.679,2303
01/10/2019 14:23:20.683,2300
01/10/2019 14:23:20.687,2299
01/10/2019 14:23:20.691,2298
01/10/2019 14:23:20.695,2288
01/10/2019 14:23:20.699,2279
01/10/2019 14:23:20.703,2275
01/10/2019 14:23:20.707,2269
01/10/2019 14:23:20.711,2259
01/10/2019 14:23:20.715,2249
01/10/2019 14:23:20.719,2244
01/10/2019 14:23:20.723,2240
01/10/2019 14:23:20.727,2228
01/10/2019 14:23:20.731,2218
01/10/2019 14:23:20.735,2209
01/10/2019 14:23:20.739,2201
01/10/2019 14:23:20.743,2189
01/10/2019 14:23:20.747,2174
01/10/2019 14:23:20.751,2163
01/10/2019 14:23:20.755,2154
01/10/2019 14:23:20.759,2145
01/10/2019 14:23:20.763,2133
01/10/2019 14:23:20.767,2122
01/10/2019 14:23:20.771,2118
01/10/2019 14:23:20.775,2111
01/10/2019 14:23:20.779,2102
01/10/2019 14:23:20.783,2095
01/10/2019 14:23:20.787,2094
01/10/2019 14:23:20.791,2097
01/10/2019 14:23:20.795,2095
01/10/2019 14:23:20.799,2095
01/10/2019 14:23:20.803,2103
01/10/2019 14:23:20.807,2110
01/10/2019 14:23:20.811,2113
01/10/2019 14:23:20.815,2114
01/10/2019 14:23:20.819,2120
01/10/2019 14:23:20.823,2126
01/10/2019 14:23:20.827,2127
01/10/2019 14:23:20.831,2131
01/10/2019 14:23:20.835,2140
01/10/2019 14:23:20.839,2151
01/10/2019 14:23:20.843,2161
01/10/2019 14:23:20.847,2167
01/10/2019 14:23:20.851,2175
01/10/2019 14:23:20.855,2184
01/10/2019 14:23:20.859,2191
01/10/2019 14:23:20.863,2195
01/10/2019 14:23:20.867,2199
01/10/2019 14:23:20.871,2210
01/10/2019 14:23:20.875,2220
01/10/2019 14:23:20.879,2225
01/10/2019 14:23:20.883,2232
01/10/2019 14:23:20.887,2241
01/10/2019 14:23:20.891,2251
01/10/2019 14:23:20.895,2253
01/10/2019 14:23:20.899,2255
01/10/2019 14:23:20.903,2263
01/10/2019 14:23:20.907,2269
01/10/2019 14:23:20.911,2270
01/10/2019 14:23:20.915,2269
01/10/2019 14:23:20.919,2271
01/10/2019 14:23:20.923,2274
01/10/2019 14:23:20.927,2272
01/10/2019 14:23:20.931,2272
01/10/2019 14:23:20.935,2274
01/10/2019 14:23:20.939,2276
01/10/2019 14:23:20.943,2276
01/10/2019 14:23:20.947,2273
01/10/2019 14:23:20.951,2273
01/10/2019 14:23:20.955,2275
01/10/2019 14:23:20.959,2276
01/10/2019 14:23:20.963,2275
01/10/2019 14:23:20.967,2274
01/10/2019 14:23:20.971,2277
01/10/2019 14:23:20.975,2279
01/10/2019 14:23:20.979,2277
01/10/2019 14:23:20.983,2275
01/10/2019 14:23:20.987,2276
01/10/2019 14:23:20.991,2278
01/10/2019 14:23:20.995,2276
01/10/2019 14:23:20.999,2274
01/10/2019 14:23:21.003,2277
01/10/2019 14:23:21.007,2278
01/10/2019 14:23:21.011,2275
01/10/2019 14:23:21.015,2267
01/10/2019 14:23:21.019,2260
01/10/2019 14:23:21.023,2251
01/10/2019 14:23:21.027,2237
01/10/2019 14:23:21.031,2226
01/10/2019 14:23:21.035,2219
01/10/2019 14:23:21.039,2214
01/10/2019 14:23:21.043,2210
01/10/2019 14:23:21.047,2203
01/10/2019 14:23:21.051,2199
01/10/2019 14:23:21.055,2194
01/10/2019 14:23:21.059,2188
01/10/2019 14:23:21.063,2180
01/10/2019 14:23:21.067,2172
01/10/2019 14:23:21.071,2171
01/10/2019 14:23:21.075,2169
01/10/2019 14:23:21.079,2165
01/10/2019 14:23:21.083,2164
01/10/2019 14:23:21.087,2165
01/10/2019 14:23:21.091,2170
01/10/2019 14:23:21.095,2168
01/10/2019 14:23:21.099,2167
01/10/2019 14:23:21.103,2171
01/10/2019 14:23:21.107,2173
01/10/2019 14:23:21.111,2175
01/10/2019 14:23:21.115,2177
01/10/2019 14:23:21.119,2181
01/10/2019 14:23:21.123,2184
01/10/2019 14:23:21.127,2183
01/10/2019 14:23:21.131,2184
01/10/2019 14:23:21.135,2188
01/10/2019 14:23:21.139,2193
01/10/2019 14:23:21.143,2196
01/10/2019 14:23:21.147,2197
01/10/2019 14:23:21.151,2198
01/10/2019 14:23:21.155,2201
01/10/2019 14:23:21.159,2204
01/10/2019 14:23:21.163,2208
01/10/2019 14:23:21.167,2211
01/10/2019 14:23:21.171,2219
01/10/2019 14:23:21.175,2223
01/10/2019 14:23:21.179,2223
01/10/2019 14:23:21.183,2224
01/10/2019 14:23:21.187,2225
01/10/2019 14:23:21.191,2228
01/10/2019 14:23:21.195,2226
01/10/2019 14:23:21.199,2225
01/10/2019 14:23:21.203,2228
01/10/2019 14:23:21.207,2229
01/10/2019 14:23:21.211,2224
01/10/2019 14:23:21.215,2218
01/10/2019 14:23:21.219,2216
01/10/2019 14:23:21.223,2217
01/10/2019 14:23:21.227,2214
01/10/2019 14:23:21.231,2215
01/10/2019 14:23:21.235,2218
01/10/2019 14:23:21.239,2217
01/10/2019 14:23:21.243,2212
01/10/2019 14:23:21.247,2203
01/10/2019 14:23:21.251,2199
01/10/2019 14:23:21.255,2196
01/10/2019 14:23:21.259,2195
01/10/2019 14:23:21.263,2195
01/10/2019 14:23:21.267,2193
01/10/2019 14:23:21.271,2195
01/10/2019 14:23:21.275,2197
01/10/2019 14:23:21.279,2195
01/10/2019 14:23:21.283,2196
01/10/2019 14:23:21.287,2198
01/10/2019 14:23:21.291,2200
01/10/2019 14:23:21.295,2196
01/10/2019 14:23:21.299,2192
01/10/2019 14:23:21.303,2193
01/10/2019 14:23:21.307,2190
01/10/2019 14:23:21.311,2186
01/10/2019 14:23:21.315,2182
01/10/2019 14:23:21.319,2181
01/10/2019 14:23:21.323,2182
01/10/2019 14:23:21.327,2176
01/10/2019 14:23:21.331,2172
01/10/2019 14:23:21.335,2171
01/10/2019 14:23:21.339,2170
01/10/2019 14:23:21.343,2166
01/10/2019 14:23:21.347,2157
01/10/2019 14:23:21.351,2152
01/10/2019 14:23:21.355,2148
01/10/2019 14:23:21.359,2146
01/10/2019 14:23:21.363,2147
01/10/2019 14:23:21.367,2150
01/10/2019 14:23:21.371,2157
01/10/2019 14:23:21.375,2159
01/10/2019 14:23:21.379,2155
01/10/2019 14:23:21.383,2152
01/10/2019 14:23:21.387,2149
01/10/2019 14:23:21.391,2150
01/10/2019 14:23:21.395,2147
01/10/2019 14:23:21.399,2144
01/10/2019 14:23:21.403,2146
01/10/2019 14:23:21.407,2146
01/10/2019 14:23:21.411,2143
01/10/2019 14:23:21.415,2140
01/10/2019 14:23:21.419,2140
01/10/2019 14:23:21.423,2139
01/10/2019 14:23:21.427,2133
01/10/2019 14:23:21.431,2129
01/10/2019 14:23:21.435,2129
01/10/2019 14:23:21.439,2131
01/10/2019 14:23:21.443,2133
01/10/2019 14:23:21.447,2133
01/10/2019 14:23:21.451,2137
01/10/2019 14:23:21.455,2140
01/10/2019 14:23:21.459,2140
01/10/2019 14:23:21.463,2137
01/10/2019 14:23:21.467,2136
01/10/2019 14:23:21.471,2141
01/10/2019 14:23:21.475,2143
01/10/2019 14:23:21.479,2143
01/10/2019 14:23:21.483,2141
01/10/2019 14:23:21.487,2142
01/10/2019 14:23:21.491,2143
01/10/2019 14:23:21.495,2136
01/10/2019 14:23:21.499,2129
01/10/2019 14:23:21.503,2126
01/10/2019 14:23:21.507,2121
01/10/2019 14:23:21.511,2118
01/10/2019 14:23:21.515,2117
01/10/2019 14:23:21.519,2121
01/10/2019 14:23:21.523,2123
01/10/2019 14:23:21.527,2119
01/10/2019 14:23:21.531,2115
01/10/2019 14:23:21.535,2116
01/10/2019 14:23:21.539,2115
01/10/2019 14:23:21.543,2113
01/10/2019 14:23:21.547,2107
01/10/2019 14:23:21.551,2106
01/10/2019 14:23:21.555,2106
01/10/2019 14:23:21.559,2106
01/10/2019 14:23:21.563,2104
01/10/2019 14:23:21.567,2101
01/10/2019 14:23:21.571,2101
01/10/2019 14:23:21.575,2099
01/10/2019 14:23:21.579,2093
01/10/2019 14:23:21.583,2089
01/10/2019 14:23:21.587,2087
01/10/2019 14:23:21.591,2085
01/10/2019 14:23:21.595,2079
01/10/2019 14:23:21.599,2077
01/10/2019 14:23:21.603,2079
01/10/2019 14:23:21.607,2080
01/10/2019 14:23:21.611,2078
01/10/2019 14:23:21.615,2077
01/10/2019 14:23:21.619,2080
01/10/2019 14:23:21.623,2082
01/10/2019 14:23:21.627,2076
01/10/2019 14:23:21.631,2071
01/10/2019 14:23:21.635,2070
01/10/2019 14:23:21.639,2070
01/10/2019 14:23:21.643,2068
01/10/2019 14:23:21.647,2067
01/10/2019 14:23:21.651,2070
01/10/2019 14:23:21.655,2074
01/10/2019 14:23:21.659,2075
01/10/2019 14:23:21.663,2074
01/10/2019 14:23:21.667,2072
01/10/2019 14:23:21.671,2076
01/10/2019 14:23:21.675,2080
01/10/2019 14:23:21.679,2082
01/10/2019 14:23:21.683,2085
01/10/2019 14:23:21.687,2087
01/10/2019 14:23:21.691,2089
01/10/2019 14:23:21.695,2085
01/10/2019 14:23:21.699,2080
01/10/2019 14:23:21.703,2081
01/10/2019 14:23:21.707,2078
01/10/2019 14:23:21.711,2073
01/10/2019 14:23:21.715,2069
01/10/2019 14:23:21.719,2071
01/10/2019 14:23:21.723,2073
01/10/2019 14:23:21.727,2069
01/10/2019 14:23:21.731,2065
01/10/2019 14:23:21.735,2064
01/10/2019 14:23:21.739,2062
01/10/2019 14:23:21.743,2057
01/10/2019 14:23:21.747,2050
01/10/2019 14:23:21.751,2048
01/10/2019 14:23:21.755,2048
01/10/2019 14:23:21.759,2045
01/10/2019 14:23:21.763,2041
01/10/2019 14:23:21.767,2038
01/10/2019 14:23:21.771,2039
01/10/2019 14:23:21.775,2038
01/10/2019 14:23:21.779,2035
01/10/2019 14:23:21.783,2034
01/10/2019 14:23:21.787,2034
01/10/2019 14:23:21.791,2037
01/10/2019 14:23:21.795,2036
01/10/2019 14:23:21.799,2038
01/10/2019 14:23:21.803,2043
01/10/2019 14:23:21.807,2046
01/10/2019 14:23:21.811,2044
01/10/2019 14:23:21.815,2042
01/10/2019 14:23:21.819,2045
01/10/2019 14:23:21.823,2048
01/10/2019 14:23:21.827,2045
01/10/2019 14:23:21.831,2044
01/10/2019 14:23:21.835,2048
01/10/2019 14:23:21.839,2053
01/10/2019 14:23:21.843,2054
01/10/2019 14:23:21.847,2054
01/10/2019 14:23:21.851,2058
01/10/2019 14:23:21.855,2062
01/10/2019 14:23:21.859,2062
01/10/2019 14:23:21.863,2060
01/10/2019 14:23:21.867,2058
01/10/2019 14:23:21.871,2059
01/10/2019 14:23:21.875,2061
01/10/2019 14:23:21.879,2060
01/10/2019 14:23:21.883,2059
01/10/2019 14:23:21.887,2061
01/10/2019 14:23:21.891,2062
01/10/2019 14:23:21.895,2059
01/10/2019 14:23:21.899,2056
01/10/2019 14:23:21.903,2059
01/10/2019 14:23:21.907,2059
01/10/2019 14:23:21.911,2056
01/10/2019 14:23:21.915,2053
01/10/2019 14:23:21.919,2056
01/10/2019 14:23:21.923,2057
01/10/2019 14:23:21.927,2052
01/10/2019 14:23:21.931,2048
01/10/2019 14:23:21.935,2048
01/10/2019 14:23:21.939,2048
01/10/2019 14:23:21.943,2045
01/10/2019 14:23:21.947,2040
01/10/2019 14:23:21.951,2039
01/10/2019 14:23:21.955,2041
01/10/2019 14:23:21.959,2042
01/10/2019 14:23:21.963,2041
01/10/2019 14:23:21.967,2042
01/10/2019 14:23:21.971,2046
01/10/2019 14:23:21.975,2048
01/10/2019 14:23:21.979,2048
01/10/2019 14:23:21.983,2048
01/10/2019 14:23:21.987,2048
01/10/2019 14:23:21.991,2051
01/10/2019 14:23:21.995,2049
01/10/2019 14:23:21.999,2050
01/10/2019 14:23:22.003,2055
01/10/2019 14:23:22.007,2058
01/10/2019 14:23:22.011,2058
01/10/2019 14:23:22.015,2057
01/10/2019 14:23:22.019,2059
01/10/2019 14:23:22.023,2063
01/10/2019 14:23:22.027,2060
01/10/2019 14:23:22.031,2061
01/10/2019 14:23:22.035,2066
01/10/2019 14:23:22.039,2074
01/10/2019 14:23:22.043,2077
01/10/2019 14:23:22.047,2080
01/10/2019 14:23:22.051,2084
01/10/2019 14:23:22.055,2089
01/10/2019 14:23:22.059,2090
01/10/2019 14:23:22.063,2089
01/10/2019 14:23:22.067,2087
01/10/2019 14:23:22.071,2089
01/10/2019 14:23:22.075,2090
01/10/2019 14:23:22.079,2088
01/10/2019 14:23:22.083,2085
01/10/2019 14:23:22.087,2084
01/10/2019 14:23:22.091,2080
01/10/2019 14:23:22.095,2074
01/10/2019 14:23:22.099,2069
01/10/2019 14:23:22.103,2070
01/10/2019 14:23:22.107,2067
01/10/2019 14:23:22.111,2059
01/10/2019 14:23:22.115,2051
01/10/2019 14:23:22.119,2051
01/10/2019 14:23:22.123,2056
01/10/2019 14:23:22.127,2058
01/10/2019 14:23:22.131,2060
01/10/2019 14:23:22.135,2062
01/10/2019 14:23:22.139,2063
01/10/2019 14:23:22.143,2064
01/10/2019 14:23:22.147,2063
01/10/2019 14:23:22.151,2066
01/10/2019 14:23:22.155,2070
01/10/2019 14:23:22.159,2071
01/10/2019 14:23:22.163,2073
01/10/2019 14:23:22.167,2074
01/10/2019 14:23:22.171,2078
01/10/2019 14:23:22.175,2079
01/10/2019 14:23:22.179,2077
01/10/2019 14:23:22.183,2076
01/10/2019 14:23:22.187,2075
01/10/2019 14:23:22.191,2077
01/10/2019 14:23:22.195,2074
01/10/2019 14:23:22.199,2071
01/10/2019 14:23:22.203,2072
01/10/2019 14:23:22.207,2071
01/10/2019 14:23:22.211,2067
01/10/2019 14:23:22.215,2062
01/10/2019 14:23:22.219,2061
01/10/2019 14:23:22.223,2064
01/10/2019 14:23:22.227,2065
01/10/2019 14:23:22.231,2070
01/10/2019 14:23:22.235,2075
01/10/2019 14:23:22.239,2078
01/10/2019 14:23:22.243,2076
01/10/2019 14:23:22.247,2069
01/10/2019 14:23:22.251,2065
01/10/2019 14:23:22.255,2061
01/10/2019 14:23:22.259,2057
01/10/2019 14:23:22.263,2052
01/10/2019 14:23:22.267,2046
01/10/2019 14:23:22.271,2042
01/10/2019 14:23:22.275,2040
01/10/2019 14:23:22.279,2037
01/10/2019 14:23:22.283,2035
01/10/2019 14:23:22.287,2034
01/10/2019 14:23:22.291,2036
01/10/2019 14:23:22.295,2035
01/10/2019 14:23:22.299,2036
01/10/2019 14:23:22.303,2041
01/10/2019 14:23:22.307,2046
01/10/2019 14:23:22.311,2048
01/10/2019 14:23:22.315,2047
01/10/2019 14:23:22.319,2051
01/10/2019 14:23:22.323,2067
01/10/2019 14:23:22.327,2081
01/10/2019 14:23:22.331,2078
01/10/2019 14:23:22.335,2042
01/10/2019 14:23:22.339,1962
01/10/2019 14:23:22.343,1857
01/10/2019 14:23:22.347,1761
01/10/2019 14:23:22.351,1717
01/10/2019 14:23:22.355,1734
01/10/2019 14:23:22.359,1798
01/10/2019 14:23:22.363,1884
01/10/2019 14:23:22.367,1963
01/10/2019 14:23:22.371,2025
01/10/2019 14:23:22.375,2068
01/10/2019 14:23:22.379,2097
01/10/2019 14:23:22.383,2108
01/10/2019 14:23:22.387,2099
01/10/2019 14:23:22.391,2081
01/10/2019 14:23:22.395,2062
01/10/2019 14:23:22.399,2055
01/10/2019 14:23:22.403,2052
01/10/2019 14:23:22.407,2039
01/10/2019 14:23:22.411,2003
01/10/2019 14:23:22.415,1879
01/10/2019 14:23:22.419,1641
01/10/2019 14:23:22.423,1379
01/10/2019 14:23:22.427,1225
01/10/2019 14:23:22.431,1252
01/10/2019 14:23:22.435,1416
01/10/2019 14:23:22.439,1576
01/10/2019 14:23:22.443,1560
01/10/2019 14:23:22.447,1277
01/10/2019 14:23:22.451,804
01/10/2019 14:23:22.455,328
01/10/2019 14:23:22.459,18
01/10/2019 14:23:22.463,4049
01/10/2019 14:23:22.467,129
01/10/2019 14:23:22.471,454
01/10/2019 14:23:22.475,814
01/10/2019 14:23:22.479,1174
01/10/2019 14:23:22.483,1532
01/10/2019 14:23:22.487,1857
01/10/2019 14:23:22.491,2130
01/10/2019 14:23:22.495,2357
01/10/2019 14:23:22.499,2522
01/10/2019 14:23:22.503,2590
01/10/2019 14:23:22.507,2525
01/10/2019 14:23:22.511,2351
01/10/2019 14:23:22.515,2132
01/10/2019 14:23:22.519,1951
01/10/2019 14:23:22.523,1868
01/10/2019 14:23:22.527,1892
01/10/2019 14:23:22.531,1998
01/10/2019 14:23:22.535,2138
01/10/2019 14:23:22.539,2273
01/10/2019 14:23:22.543,2382
01/10/2019 14:23:22.547,2458
01/10/2019 14:23:22.551,2508
01/10/2019 14:23:22.555,2533
01/10/2019 14:23:22.559,2535
01/10/2019 14:23:22.563,2517
01/10/2019 14:23:22.567,2481
01/10/2019 14:23:22.571,2439
01/10/2019 14:23:22.575,2395
01/10/2019 14:23:22.579,2361
01/10/2019 14:23:22.583,2339
01/10/2019 14:23:22.587,2329
01/10/2019 14:23:22.591,2327
01/10/2019 14:23:22.595,2322
01/10/2019 14:23:22.599,2311
01/10/2019 14:23:22.603,2293
01/10/2019 14:23:22.607,2265
01/10/2019 14:23:22.611,2236
01/10/2019 14:23:22.615,2207
01/10/2019 14:23:22.619,2191
01/10/2019 14:23:22.623,2193
01/10/2019 14:23:22.627,2213
01/10/2019 14:23:22.631,2247
01/10/2019 14:23:22.635,2284
01/10/2019 14:23:22.639,2312
01/10/2019 14:23:22.643,2330
01/10/2019 14:23:22.647,2352
01/10/2019 14:23:22.651,2395
01/10/2019 14:23:22.655,2454
01/10/2019 14:23:22.659,2516
01/10/2019 14:23:22.663,2558
01/10/2019 14:23:22.667,2555
01/10/2019 14:23:22.671,2505
01/10/2019 14:23:22.675,2408
01/10/2019 14:23:22.679,2274
01/10/2019 14:23:22.683,2114
01/10/2019 14:23:22.687,1943
01/10/2019 14:23:22.691,1766
01/10/2019 14:23:22.695,1550
01/10/2019 14:23:22.699,1313
01/10/2019 14:23:22.703,1130
01/10/2019 14:23:22.707,969
01/10/2019 14:23:22.711,810
01/10/2019 14:23:22.715,678
01/10/2019 14:23:22.719,596
01/10/2019 14:23:22.723,572
01/10/2019 14:23:22.727,601
01/10/2019 14:23:22.731,654
01/10/2019 14:23:22.735,660
01/10/2019 14:23:22.739,570
01/10/2019 14:23:22.743,415
01/10/2019 14:23:22.747,286
01/10/2019 14:23:22.751,242
01/10/2019 14:23:22.755,322
01/10/2019 14:23:22.759,545
01/10/2019 14:23:22.763,810
01/10/2019 14:23:22.767,1021
01/10/2019 14:23:22.771,1186
01/10/2019 14:23:22.775,1312
01/10/2019 14:23:22.779,1388
01/10/2019 14:23:22.783,1433
01/10/2019 14:23:22.787,1485
01/10/2019 14:23:22.791,1558
01/10/2019 14:23:22.795,1660
01/10/2019 14:23:22.799,1797
01/10/2019 14:23:22.803,1963
01/10/2019 14:23:22.807,2152
01/10/2019 14:23:22.811,2380
01/10/2019 14:23:22.815,2635
01/10/2019 14:23:22.819,2896
01/10/2019 14:23:22.823,3121
01/10/2019 14:23:22.827,3289
01/10/2019 14:23:22.831,3396
01/10/2019 14:23:22.835,3446
01/10/2019 14:23:22.839,3455
01/10/2019 14:23:22.843,3455
01/10/2019 14:23:22.847,3468
01/10/2019 14:23:22.851,3515
01/10/2019 14:23:22.855,3600
01/10/2019 14:23:22.859,3711
01/10/2019 14:23:22.863,3812
01/10/2019 14:23:22.867,3859
01/10/2019 14:23:22.871,3829
01/10/2019 14:23:22.875,3719
01/10/2019 14:23:22.879,3554
01/10/2019 14:23:22.883,3365
01/10/2019 14:23:22.887,3164
01/10/2019 14:23:22.891,2965
01/10/2019 14:23:22.895,2763
01/10/2019 14:23:22.899,2560
01/10/2019 14:23:22.903,2382
01/10/2019 14:23:22.907,2244
01/10/2019 14:23:22.911,2157
01/10/2019 14:23:22.915,2115
01/10/2019 14:23:22.919,2109
01/10/2019 14:23:22.923,2124
01/10/2019 14:23:22.927,2144
01/10/2019 14:23:22.931,2166
01/10/2019 14:23:22.935,2188
01/10/2019 14:23:22.939,2211
01/10/2019 14:23:22.943,2233
01/10/2019 14:23:22.947,2248
01/10/2019 14:23:22.951,2257
01/10/2019 14:23:22.955,2255
01/10/2019 14:23:22.959,2239
01/10/2019 14:23:22.963,2215
01/10/2019 14:23:22.967,2188
01/10/2019 14:23:22.971,2168
01/10/2019 14:23:22.975,2158
01/10/2019 14:23:22.979,2157
01/10/2019 14:23:22.983,2157
01/10/2019 14:23:22.987,2150
01/10/2019 14:23:22.991,2136
01/10/2019 14:23:22.995,2123
01/10/2019 14:23:22.999,2123
01/10/2019 14:23:23.003,2153
01/10/2019 14:23:23.007,2233
01/10/2019 14:23:23.011,2377
01/10/2019 14:23:23.015,2584
01/10/2019 14:23:23.019,2831
01/10/2019 14:23:23.023,3068
01/10/2019 14:23:23.027,3241
01/10/2019 14:23:23.031,3318
01/10/2019 14:23:23.035,3298
01/10/2019 14:23:23.039,3210
01/10/2019 14:23:23.043,3106
01/10/2019 14:23:23.047,3019
01/10/2019 14:23:23.051,2964
01/10/2019 14:23:23.055,2924
01/10/2019 14:23:23.059,2885
01/10/2019 14:23:23.063,2844
01/10/2019 14:23:23.067,2804
01/10/2019 14:23:23.071,2778
01/10/2019 14:23:23.075,2758
01/10/2019 14:23:23.079,2725
01/10/2019 14:23:23.083,2668
01/10/2019 14:23:23.087,2575
01/10/2019 14:23:23.091,2459
01/10/2019 14:23:23.095,2332
01/10/2019 14:23:23.099,2214
01/10/2019 14:23:23.103,2117
01/10/2019 14:23:23.107,2039
01/10/2019 14:23:23.111,1986
01/10/2019 14:23:23.115,1961
01/10/2019 14:23:23.119,1975
01/10/2019 14:23:23.123,2027
01/10/2019 14:23:23.127,2100
01/10/2019 14:23:23.131,2171
01/10/2019 14:23:23.135,2202
01/10/2019 14:23:23.139,2188
01/10/2019 14:23:23.143,2155
01/10/2019 14:23:23.147,2146
01/10/2019 14:23:23.151,2202
01/10/2019 14:23:23.155,2329
01/10/2019 14:23:23.159,2498
01/10/2019 14:23:23.163,2655
01/10/2019 14:23:23.167,2758
01/10/2019 14:23:23.171,2786
01/10/2019 14:23:23.175,2761
01/10/2019 14:23:23.179,2728
01/10/2019 14:23:23.183,2719
01/10/2019 14:23:23.187,2724
01/10/2019 14:23:23.191,2722
01/10/2019 14:23:23.195,2682
01/10/2019 14:23:23.199,2605
01/10/2019 14:23:23.203,2515
01/10/2019 14:23:23.207,2449
01/10/2019 14:23:23.211,2434
01/10/2019 14:23:23.215,2476
01/10/2019 14:23:23.219,2554
01/10/2019 14:23:23.223,2633
01/10/2019 14:23:23.227,2681
01/10/2019 14:23:23.231,2694
01/10/2019 14:23:23.235,2687
01/10/2019 14:23:23.239,2676
01/10/2019 14:23:23.243,2670
01/10/2019 14:23:23.247,2678
01/10/2019 14:23:23.251,2686
01/10/2019 14:23:23.255,2674
01/10/2019 14:23:23.259,2627
01/10/2019 14:23:23.263,2557
01/10/2019 14:23:23.267,2479
01/10/2019 14:23:23.271,2429
01/10/2019 14:23:23.275,2435
01/10/2019 14:23:23.279,2495
01/10/2019 14:23:23.283,2597
01/10/2019 14:23:23.287,2704
01/10/2019 14:23:23.291,2788
01/10/2019 14:23:23.295,2827
01/10/2019 14:23:23.299,2821
01/10/2019 14:23:23.303,2789
01/10/2019 14:23:23.307,2750
01/10/2019 14:23:23.311,2718
01/10/2019 14:23:23.315,2693
01/10/2019 14:23:23.319,2672
01/10/2019 14:23:23.323,2648
01/10/2019 14:23:23.327,2618
01/10/2019 14:23:23.331,2581
01/10/2019 14:23:23.335,2526
01/10/2019 14:23:23.339,2442
01/10/2019 14:23:23.343,2324
01/10/2019 14:23:23.347,2178
01/10/2019 14:23:23.351,2025
01/10/2019 14:23:23.355,1869
01/10/2019 14:23:23.359,1712
01/10/2019 14:23:23.363,1554
01/10/2019 14:23:23.367,1398
01/10/2019 14:23:23.371,1247
01/10/2019 14:23:23.375,1105
01/10/2019 14:23:23.379,979
01/10/2019 14:23:23.383,869
01/10/2019 14:23:23.387,778
01/10/2019 14:23:23.391,707
01/10/2019 14:23:23.395,654
01/10/2019 14:23:23.399,621
01/10/2019 14:23:23.403,603
01/10/2019 14:23:23.407,595
01/10/2019 14:23:23.411,597
01/10/2019 14:23:23.415,610
01/10/2019 14:23:23.419,633
01/10/2019 14:23:23.423,668
01/10/2019 14:23:23.427,707
01/10/2019 14:23:23.431,755
01/10/2019 14:23:23.435,810
01/10/2019 14:23:23.439,869
01/10/2019 14:23:23.443,931
01/10/2019 14:23:23.447,994
01/10/2019 14:23:23.451,1061
01/10/2019 14:23:23.455,1129
