2037
2037
2037
2040
2039
2041
2041
2041
2040
2039
2039
2040
2042
2044
2044
2043
2042
2042
2041
2042
2042
2042
2042
2042
2042
2043
2043
2042
2042
2041
2041
2041
2041
2041
2041
2040
2043
2043
2043
2041
2039
2038
2039
2042
2045
2046
2045
2042
2040
2038
2037
2038
2038
2039
2039
2039
2040
2039
2039
2039
2038
2038
2038
2039
2039
2039
2039
2039
2038
2038
2037
2036
2036
2037
2038
2040
2040
2040
2038
2036
2035
2035
2036
2037
2036
2036
2036
2036
2036
2036
2036
2036
2035
2035
2035
2035
2035
2036
2036
2036
2037
2036
2036
2036
2036
2035
2035
2035
2037
2039
2041
2040
2038
2035
2033
2033
2035
2036
2037
2036
2036
2036
2036
2036
2036
2035
2035
2035
2034
2033
2034
2034
2034
2033
2032
2033
2035
2036
2036
2041
2052
2070
2087
2092
2081
2050
2014
1984
1969
1970
1980
1993
2005
2015
2024
2030
2033
2034
2035
2035
2034
2037
2037
2037
2037
2036
2035
2037
2039
2042
2043
2042
2040
2039
2038
2039
2039
2038
2038
2038
2038
2038
2038
2038
2038
2038
2039
2039
2039
2039
2039
2039
2040
2039
2039
2038
2036
2036
2037
2040
2043
2044
2042
2039
2037
2035
2036
2035
2035
2034
2033
2032
2031
2031
2030
2029
2029
2028
2027
2027
2026
2026
2026
2026
2029
2029
2029
2029
2028
2029
2032
2036
2039
2040
2039
2037
2035
2033
2036
2035
2036
2036
2035
2035
2035
2036
2037
2039
2040
2039
2037
2036
2035
2036
2036
2039
2038
2037
2036
2034
2035
2037
2040
2043
2042
2040
2037
2035
2035
2037
2037
2037
2037
2037
2037
2037
2037
2037
2037
2037
2037
2037
2036
2036
2036
2035
2038
2038
2038
2037
2035
2034
2035
2038
2041
2043
2042
2038
2036
2034
2034
2035
2035
2036
2036
2036
2037
2037
2037
2037
2036
2036
2036
2036
2036
2036
2036
2037
2037
2037
2036
2035
2035
2035
2037
2039
2040
2040
2038
2037
2036
2036
2036
2037
2038
2038
2038
2038
2038
2038
2037
2037
2037
2037
2038
2038
2039
2038
2039
2039
2039
2039
2039
2038
2038
2039
2040
2041
2040
2039
2037
2036
2035
2036
2038
2040
2040
2038
2036
2039
2049
2069
2088
2094
2081
2050
2015
1987
1976
1980
1995
2010
2021
2027
2031
2034
2038
2042
2044
2044
2043
2041
2039
2038
2041
2042
2043
2042
2042
2042
2042
2041
2042
2042
2042
2042
2042
2042
2041
2041
2040
2043
2043
2043
2042
2041
2041
2042
2045
2047
2047
2046
2044
2043
2042
2044
2044
2044
2044
2044
2044
2044
2044
2044
2044
2044
2044
2043
2043
2042
2041
2040
2040
2039
2038
2037
2036
2035
2035
2036
2037
2038
2038
2037
2035
2035
2035
2037
2038
2039
2039
2039
2039
2039
2040
2041
2041
2041
2042
2042
2041
2041
2041
2040
2043
2042
2041
2039
2038
2039
2042
2045
2047
2046
2043
2041
2040
2039
2041
2041
2040
2041
2040
2040
2040
2040
2041
2041
2041
2042
2041
2040
2040
2040
2039
2042
2041
2041
2040
2038
2038
2040
2042
2044
2044
2043
2041
2040
2039
2040
2040
2039
2039
2040
2040
2040
2040
2040
2040
2040
2040
2040
2039
2040
2040
2040
2042
2042
2040
2039
2037
2036
2037
2040
2044
2047
2046
2043
2040
2037
2037
2038
2038
2039
2039
2039
2039
2040
2040
2040
2039
2039
2039
2039
2040
2040
2039
2040
2039
2039
2038
2037
2037
2039
2042
2044
2044
2043
2041
2040
2038
2040
2040
2041
2041
2042
2042
2042
2042
2041
2041
2041
2041
2041
2041
2040
2040
2040
2040
2041
2042
2043
2041
2039
2042
2054
2075
2096
2102
2087
2055
2018
1990
1979
1984
1998
2012
2023
2030
2036
2039
2041
2041
2041
2043
2043
2044
2044
2044
2044
2045
2045
2045
2045
2043
2043
2044
2046
2048
2048
2048
2046
2044
2042
2044
2045
2045
2046
2045
2045
2045
2045
2045
2045
2046
2046
2046
2047
2047
2047
2046
2048
2047
2047
2046
2044
2044
2045
2048
2050
2050
2048
2045
2043
2042
2043
2042
2042
2041
2039
2038
2038
2037
2036
2036
2036
2036
2036
2037
2037
2038
2039
2040
2041
2042
2042
2041
2041
2043
2045
2047
2048
2048
2046
2045
2044
2044
2044
2045
2045
2045
2045
2045
2045
2045
2045
2046
2046
2046
2046
2045
2045
2044
2044
2046
2046
2045
2043
2041
2042
2044
2048
2050
2050
2048
2045
2043
2042
2044
2045
2045
2044
2042
2041
2040
2042
2045
2048
2049
2048
2044
2041
2039
2040
2041
2042
2043
2042
2041
2040
2040
2041
2043
2045
2045
2044
2042
2041
2040
2040
2040
2040
2040
2040
2041
2041
2041
2041
2041
2041
2041
2041
2041
2041
2042
2041
2042
2043
2042
2040
2038
2037
2039
2043
2048
2048
2047
2044
2040
2038
2038
2040
2040
2042
2042
2043
2043
2043
2043
2042
2042
2041
2041
2041
2040
2040
2040
2040
2040
2041
2042
2041
2039
2038
2044
2058
2079
2098
2103
2089
2057
2021
1992
1978
1979
1989
2002
2013
2023
2031
2036
2040
2042
2042
2043
2044
2044
2044
2045
2045
2045
2045
2044
2044
2044
2046
2047
2048
2048
2047
2045
2044
2044
2045
2045
2046
2046
2046
2046
2046
2046
2046
2046
2046
2046
2047
2047
2047
2047
2046
2047
2048
2048
2048
2047
2046
2048
2049
2050
2051
2049
2046
2044
2041
2043
2043
2042
2041
2040
2039
2038
2037
2036
2036
2035
2034
2034
2034
2035
2035
2035
2038
2039
2039
2039
2038
2039
2040
2043
2045
2047
2047
2046
2045
2043
2044
2043
2043
2044
2044
2044
2044
2044
2045
2045
2046
2046
2046
2046
2045
2045
2045
2046
2046
2045
2046
2044
2044
2044
2045
2047
2048
2048
2048
2046
2045
2045
2045
2045
2046
2046
2045
2045
2046
2046
2046
2046
2046
2046
2046
2046
2046
2045
2045
2047
2046
2046
2045
2044
2044
2046
2048
2050
2050
2048
2047
2045
2043
2045
2044
2044
2045
2045
2045
2045
2046
2046
2046
2046
2046
2045
2044
2044
2045
2045
2046
2046
2046
2045
2043
2042
2043
2045
2047
2048
2048
2047
2045
2043
2043
2043
2044
2044
2044
2044
2044
2044
2044
2044
2045
2045
2044
2045
2045
2045
2045
2046
2048
2046
2044
2040
2039
2040
2044
2048
2049
2049
2047
2043
2040
2037
2041
2049
2068
2089
2101
2094
2067
2032
2000
1983
1983
1994
2008
2020
2029
2036
2040
2043
2044
2043
2043
2043
2044
2047
2048
2049
2049
2048
2046
2046
2045
2046
2047
2047
2047
2048
2048
2048
2047
2047
2047
2047
2047
2047
2047
2047
2047
2047
2048
2048
2047
2045
2045
2045
2046
2048
2048
2048
2047
2046
2045
2044
2046
2046
2046
2046
2046
2045
2044
2043
2042
2042
2041
2041
2040
2039
2039
2037
2035
2035
2035
2035
2034
2032
2031
2032
2034
2038
2040
2040
2039
2037
2035
2037
2038
2040
2040
2040
2040
2039
2039
2039
2039
2039
2040
2040
2039
2039
2039
2038
2038
2040
2039
2038
2037
2036
2037
2040
2043
2044
2042
2039
2036
2035
2035
2038
2037
2038
2037
2037
2036
2036
2036
2037
2038
2037
2036
2034
2033
2033
2035
2038
2039
2039
2037
2034
2032
2033
2036
2039
2041
2040
2037
2034
2032
2032
2033
2034
2034
2034
2034
2034
2034
2034
2034
2034
2034
2034
2033
2033
2033
2033
2033
2034
2034
2034
2032
2031
2032
2034
2038
2040
2041
2038
2036
2034
2032
2034
2034
2035
2034
2036
2036
2036
2035
2034
2033
2035
2037
2038
2038
2037
2035
2034
2035
2037
2037
2035
2034
2034
2036
2039
2042
2043
2042
2039
2037
2036
2037
2038
2038
2037
2037
2037
2037
2036
2036
2036
2036
2036
2038
2038
2037
2034
2034
2045
2062
2082
2094
2086
2060
2026
1997
1982
1983
1994
2005
2015
2020
2026
2030
2034
2037
2038
2038
2039
2039
2040
2040
2040
2040
2040
2040
2041
2042
2042
2043
2042
2041
2040
2038
2037
2038
2040
2044
2047
2047
2045
2042
2038
2037
2038
2039
2041
2041
2041
2041
2042
2042
2042
2043
2043
2043
2043
2044
2044
2043
2044
2043
2043
2041
2039
2039
2039
2042
2045
2046
2044
2041
2037
2034
2033
2034
2035
2035
2034
2034
2034
2034
2034
2035
2036
2037
2038
2038
2038
2038
2039
2041
2042
2042
2041
2039
2038
2039
2042
2045
2048
2047
2045
2041
2039
2039
2040
2041
2042
2042
2042
2042
2042
2042
2042
2043
2042
2043
2043
2043
2044
2044
2043
2044
2044
2043
2041
2040
2040
2042
2045
2048
2049
2047
2044
2042
2041
2042
2043
2044
2044
2043
2043
2042
2042
2042
2042
2043
2044
2044
2045
2045
2044
2044
2044
2045
2044
2045
2042
2041
2041
2043
2047
2049
2050
2048
2046
2043
2042
2043
2043
2044
2043
2043
2043
2044
2044
2044
2044
2044
2044
2044
2044
2044
2044
2044
2046
2046
2045
2043
2040
2040
2043
2048
2051
2052
2050
2048
2045
2044
2046
2047
2047
2046
2046
2047
2046
2045
2044
2044
2044
2046
2048
2048
2048
2048
2044
2045
2051
2068
2087
2101
2101
2085
2056
2026
2003
1991
1990
1998
2008
2021
2032
2040
2044
2047
2048
2048
2048
2048
2048
2048
2048
2048
2048
2049
2050
2050
2052
2052
2052
2050
2048
2048
2049
2052
2055
2057
2056
2053
2049
2048
2048
2048
2049
2051
2052
2054
2054
2053
2051
2049
2048
2048
2049
2051
2051
2051
2051
2051
2050
2050
2049
2048
2048
2048
2048
2049
2050
2048
2046
2043
2040
2038
2037
2038
2038
2037
2037
2037
2037
2036
2036
2036
2037
2038
2039
2040
2042
2042
2043
2044
2044
2044
2043
2043
2043
2044
2046
2048
2048
2047
2045
2044
2043
2044
2045
2045
2045
2044
2044
2044
2044
2044
2044
2044
2044
2044
2044
2044
2044
2043
2045
2045
2045
2043
2041
2040
2040
2043
2046
2047
2046
2043
2041
2039
2040
2041
2042
2041
2041
2041
2041
2040
2040
2040
2041
2041
2041
2041
2041
2040
2039
2040
2041
2040
2038
2037
2036
2038
2042
2045
2046
2044
2040
2038
2036
2037
2039
2039
2039
2039
2038
2038
2038
2038
2038
2039
2039
2039
2039
2038
2038
2037
2038
2040
2039
2039
2037
2037
2038
2042
2046
2047
2045
2040
2037
2035
2036
2038
2038
2037
2037
2037
2038
2039
2038
2036
2037
2047
2064
2084
2095
2088
2063
2028
1997
1979
1977
1987
2000
2012
2023
2032
2038
2041
2040
2039
2038
2039
2040
2040
2041
2040
2040
2041
2042
2042
2043
2043
2042
2042
2042
2042
2043
2043
2043
2043
2043
2043
2042
2041
2040
2041
2042
2044
2045
2045
2044
2043
2042
2042
2043
2044
2044
2044
2044
2045
2044
2044
2044
2045
2045
2045
2045
2043
2043
2042
2042
2042
2042
2041
2039
2037
2037
2039
2040
2041
2039
2036
2034
2032
2032
2033
2034
2036
2037
2038
2039
2039
2040
2040
2040
2041
2041
2041
2041
2041
2041
2040
2041
2041
2041
2040
2039
2039
2040
2042
2044
2043
2042
2040
2039
2039
2040
2040
2041
2040
2041
2041
2040
2040
2040
2040
2040
2040
2040
2040
2040
2040
2039
2039
2039
2039
2038
2038
2038
2040
2041
2042
2041
2040
2039
2038
2037
2038
2039
2039
2039
2039
2039
2039
2039
2038
2038
2038
2039
2039
2039
2039
2039
2038
2040
2040
2041
2039
2037
2037
2037
2040
2043
2043
2042
2040
2038
2036
2038
2038
2039
2038
2038
2038
2037
2037
2038
2038
2038
2038
2038
2038
2038
2037
2037
2037
2038
2038
2037
2036
2035
2037
2040
2043
2045
2043
2040
2037
2035
2034
2036
2036
2036
2036
2035
2036
2037
2038
2036
2033
2033
2042
2059
2081
2093
2086
2060
2027
1994
1977
1976
1987
2002
2016
2028
2035
2038
2037
2035
2034
2034
2037
2037
2037
2036
2036
2037
2037
2038
2038
2037
2037
2038
2038
2038
2037
2037
2037
2037
2038
2037
2036
2035
2034
2035
2037
2039
2040
2039
2037
2036
2036
2037
2037
2038
2038
2038
2038
2037
2039
2038
2039
2038
2038
2038
2038
2039
2039
2039
2039
2039
2038
2037
2036
2035
2035
2036
2036
2036
2034
2032
2031
2029
2030
2031
2030
2028
2026
2027
2030
2035
2038
2038
2036
2032
2030
2030
2031
2033
2033
2033
2034
2034
2033
2032
2032
2033
2035
2037
2037
2037
2034
2033
2032
2032
2032
2032
2033
2033
2033
2034
2034
2033
2033
2033
2033
2033
2033
2034
2034
2035
2035
2035
2033
2032
2031
2031
2033
2036
2038
2039
2038
2036
2034
2032
2033
2033
2034
2035
2035
2035
2035
2035
2035
2035
2035
2035
2035
2035
2035
2034
2034
2035
2035
2035
2034
2033
2032
2033
2036
2038
2040
2039
2037
2035
2033
2033
2034
2035
2035
2036
2035
2036
2035
2036
2036
2036
2036
2036
2036
2036
2037
2036
2037
2038
2038
2038
2037
2036
2036
2037
2039
2040
2040
2038
2036
2035
2036
2037
2039
2039
2039
2039
2038
2038
2038
2037
2037
2037
2037
2037
2037
2036
2036
2036
2037
2033
2031
2036
2050
2073
2094
2099
2083
2049
2012
1983
1973
1977
1991
2005
2016
2024
2030
2033
2036
2036
2037
2038
2039
2039
2039
2040
2040
2040
2040
2040
2041
2041
2041
2039
2039
2039
2041
2044
2045
2044
2042
2041
2041
2041
2042
2042
2042
2041
2041
2041
2041
2042
2042
2042
2043
2042
2042
2042
2042
2042
2043
2043
2043
2042
2041
2040
2039
2040
2042
2043
2042
2040
2037
2035
2034
2035
2034
2034
2032
2032
2031
2030
2030
2029
2030
2030
2030
2030
2030
2031
2033
2034
2037
2037
2036
2034
2032
2032
2035
2039
2042
2043
2041
2038
2036
2034
2036
2037
2037
2037
2037
2038
2038
2038
2038
2038
2037
2037
2037
2037
2037
2037
2037
2038
2039
2039
2038
2037
2036
2037
2039
2040
2041
2040
2038
2036
2035
2035
2035
2035
2036
2036
2037
2036
2036
2036
2036
2036
2036
2035
2035
2036
2036
2037
2036
2038
2036
2034
2033
2032
2034
2038
2041
2042
2041
2039
2036
2035
2034
2036
2036
2037
2037
2037
2036
2037
2036
2036
2036
2036
2037
2037
2037
2037
2036
2036
2035
2036
2036
2035
2035
2035
2036
2038
2039
2039
2038
2037
2036
2036
2037
2038
2039
2039
2038
2038
2037
2037
2036
2036
2036
2036
2036
2037
2039
2038
2034
2031
2034
2048
2069
2090
2097
2084
2052
2016
1988
1976
1980
1992
2006
2018
2026
2033
2036
2038
2039
2039
2039
2039
2040
2041
2041
2042
2042
2042
2041
2040
2042
2042
2042
2041
2040
2040
2042
2044
2047
2047
2045
2043
2041
2040
2042
2042
2043
2043
2042
2042
2042
2042
2043
2043
2044
2044
2044
2044
2044
2044
2044
2046
2046
2045
2045
2043
2043
2044
2046
2048
2049
2048
2047
2044
2041
2040
2040
2040
2040
2038
2037
2037
2036
2036
2036
2036
2036
2036
2037
2037
2037
2037
2039
2039
2039
2039
2038
2037
2038
2040
2042
2044
2043
2041
2040
2037
2037
2038
2038
2039
2038
2038
2039
2039
2039
2040
2038
2039
2039
2038
2038
2037
2038
2039
2041
2041
2041
2038
2036
2035
2037
2041
2045
2046
2044
2041
2038
2036
2037
2037
2037
2038
2038
2038
2039
2039
2039
2039
2039
2038
2037
2037
2037
2038
2038
2040
2040
2040
2039
2037
2035
2036
2038
2041
2043
2043
2041
2038
2037
2036
2037
2037
2037
2038
2038
2038
2038
2038
2038
2038
2038
2038
2039
2039
2039
2039
2039
2039
2039
2038
2037
2036
2037
2039
2042
2044
2043
2041
2039
2037
2038
2038
2039
2040
2040
2040
2039
2039
2039
2039
2039
2039
2040
2040
2041
2041
2042
2042
2041
2041
2040
2038
2038
2037
2039
2041
2044
2045
2042
2037
2033
2035
2049
2071
2092
2099
2084
2052
2016
1988
1977
1982
1995
2009
2020
2027
2032
2035
2036
2037
2038
2038
2038
2037
2036
2037
2038
2040
2040
2039
2038
2036
2036
2038
2038
2039
2039
2039
2038
2038
2038
2037
2037
2037
2037
2038
2038
2036
2033
2031
2032
2035
2040
2042
2040
2037
2035
2035
2037
2039
2039
2037
2036
2035
2036
2036
2037
2037
2037
2037
2037
2036
2036
2036
2035
2035
2034
2034
2033
2032
2030
2030
2031
2029
2029
2027
2026
2026
2028
2031
2032
2031
2030
2029
2030
2030
2030
2030
2029
2029
2029
2029
2030
2030
2030
2030
2030
2030
2030
2030
2030
2030
2031
2031
2030
2030
2028
2027
2027
2029
2031
2033
2033
2031
2030
2028
2027
2028
2028
2028
2028
2029
2029
2030
2030
2030
2028
2029
2029
2028
2028
2028
2029
2029
2032
2032
2030
2028
2025
2025
2027
2031
2033
2034
2032
2030
2028
2026
2028
2028
2028
2028
2028
2029
2029
2029
2029
2029
2028
2028
2028
2028
2028
2028
2029
2031
2031
2031
2029
2028
2028
2030
2033
2036
2035
2034
2031
2030
2029
2030
2030
2031
2032
2033
2033
2033
2033
2032
2032
2032
2032
2033
2034
2034
2035
2035
2034
2035
2033
2032
2030
2029
2031
2035
2039
2042
2041
2038
2032
2026
2027
2040
2059
2084
2098
2092
2065
2028
1994
1975
1973
1983
1998
2010
2020
2028
2033
2037
2039
2039
2039
2038
2038
2040
2043
2046
2047
2046
2043
2041
2039
2039
2041
2042
2044
2043
2043
2043
2043
2042
2042
2042
2043
2043
2044
2044
2044
2043
2042
2044
2044
2045
2043
2042
2043
2045
2048
2049
2049
2048
2046
2043
2042
2043
2044
2044
2043
2043
2042
2042
2041
2041
2040
2039
2038
2037
2037
2036
2035
2033
2033
2032
2032
2030
2029
2029
2030
2033
2035
2037
2037
2035
2034
2034
2036
2036
2038
2037
2037
2036
2036
2036
2036
2036
2037
2037
2037
2038
2037
2037
2037
2037
2038
2037
2038
2036
2035
2035
2036
2039
2042
2043
2042
2039
2036
2035
2036
2036
2038
2037
2037
2037
2038
2038
2038
2037
2037
2037
2037
2037
2037
2037
2038
2038
2038
2038
2037
2036
2035
2037
2039
2041
2042
2040
2039
2037
2036
2037
2037
2038
2038
2038
2038
2038
2038
2038
2039
2038
2037
2039
2039
2039
2039
2037
2039
2039
2040
2040
2038
2036
2037
2039
2042
2046
2046
2044
2041
2038
2038
2038
2038
2038
2038
2038
2038
2038
2039
2040
2039
2037
2032
2030
2039
2056
2081
2098
2096
2071
2033
1995
1972
1970
1982
2001
2016
2025
2030
2033
2034
2035
2037
2037
2038
2039
2040
2040
2041
2041
2041
2041
2040
2040
2040
2041
2041
2041
2041
2041
2040
2040
2039
2038
2039
2041
2043
2044
2043
2042
2041
2039
2040
2040
2040
2041
2042
2043
2043
2044
2044
2043
2043
2043
2044
2045
2046
2046
2047
2047
2046
2047
2046
2045
2044
2043
2044
2045
2046
2046
2044
2041
2039
2038
2038
2039
2039
2039
2039
2039
2039
2039
2040
2040
2042
2042
2042
2043
2043
2043
2043
2044
2045
2045
2044
2043
2042
2043
2045
2047
2048
2047
2046
2044
2044
2045
2046
2046
2046
2045
2046
2046
2046
2046
2047
2047
2048
2048
2048
2048
2048
2048
2049
2048
2048
2046
2045
2045
2047
2049
2052
2052
2051
2050
2049
2050
2051
2052
2052
2051
2051
2050
2050
2050
2051
2050
2050
2050
2050
2050
2050
2050
2049
2050
2050
2049
2049
2048
2048
2048
2050
2052
2052
2050
2049
2049
2049
2050
2050
2049
2048
2048
2048
2048
2049
2049
2049
2049
2049
2049
2049
2049
2050
2049
2051
2052
2052
2051
2051
2050
2051
2054
2056
2056
2055
2052
2049
2048
2048
2049
2048
2049
2049
2048
2047
2046
2052
2068
2090
2107
2106
2088
2052
2015
1990
1982
1993
2008
2023
2031
2037
2041
2045
2049
2052
2054
2052
2050
2049
2048
2050
2050
2051
2050
2051
2051
2051
2052
2052
2052
2052
2053
2053
2053
2053
2053
2052
2054
2055
2055
2054
2053
2052
2053
2055
2057
2057
2056
2054
2052
2049
2049
2050
2053
2058
2060
2061
2057
2054
2052
2052
2053
2054
2054
2053
2053
2054
2054
2053
2054
2051
2049
2048
2045
2046
2048
2050
2053
2053
2051
2049
2048
2048
2051
2052
2053
2054
2055
2055
2055
2056
2056
2056
2057
2057
2058
2058
2058
2059
2059
2059
2060
2059
2059
2058
2058
2060
2062
2063
2063
2062
2061
2060
2059
2060
2060
2061
2061
2060
2060
2059
2059
2059
2060
2060
2060
2060
2060
2060
2059
2059
2059
2059
2059
2057
2056
2056
2057
2059
2061
2061
2060
2057
2055
2053
2054
2056
2056
2056
2056
2055
2055
2055
2054
2055
2054
2054
2054
2054
2054
2054
2052
2054
2054
2054
2052
2051
2051
2052
2054
2056
2058
2057
2055
2054
2052
2053
2053
2053
2053
2052
2051
2050
2049
2049
2049
2050
2051
2051
2048
2046
2050
2066
2089
2112
2117
2100
2063
2021
1990
1978
1984
2000
2015
2026
2034
2040
2044
2048
2049
2051
2051
2051
2051
2052
2053
2053
2053
2053
2053
2053
2053
2053
2053
2053
2054
2054
2054
2052
2051
2050
2052
2055
2057
2058
2056
2053
2052
2050
2052
2052
2053
2052
2052
2052
2052
2053
2054
2055
2055
2055
2055
2055
2054
2054
2052
2054
2054
2053
2051
2048
2047
2047
2048
2049
2048
2048
2045
2042
2039
2040
2039
2039
2039
2040
2040
2041
2042
2042
2043
2043
2043
2044
2044
2045
2046
2046
2048
2048
2048
2046
2045
2045
2046
2048
2050
2049
2048
2047
2046
2045
2046
2046
2046
2047
2047
2047
2047
2047
2047
2048
2047
2047
2046
2046
2046
2047
2047
2047
2048
2047
2045
2042
2041
2042
2047
2050
2052
2051
2048
2044
2042
2042
2044
2045
2045
2045
2045
2045
2045
2045
2045
2045
2045
2045
2045
2045
2045
2044
2044
2044
2043
2043
2042
2042
2044
2047
2049
2050
2049
2046
2043
2041
2042
2045
2045
2046
2045
2043
2042
2042
2043
2044
2043
2040
2040
2047
2063
2087
2104
2104
2084
2046
2006
1976
1966
1974
1992
2012
2028
2038
2041
2042
2041
2041
2044
2045
2047
2047
2047
2047
2047
2048
2048
2048
2048
2048
2048
2048
2048
2048
2047
2048
2048
2048
2047
2046
2045
2047
2049
2052
2054
2053
2050
2048
2047
2048
2048
2050
2050
2050
2050
2050
2050
2050
2050
2051
2051
2051
2051
2050
2049
2049
2049
2050
2049
2048
2045
2043
2043
2044
2047
2047
2046
2042
2039
2038
2037
2038
2038
2038
2038
2038
2039
2040
2041
2043
2044
2045
2046
2046
2045
2045
2044
2045
2046
2046
2046
2043
2041
2040
2043
2047
2050
2051
2050
2048
2046
2044
2046
2046
2047
2046
2046
2046
2046
2046
2046
2046
2045
2045
2045
2043
2045
2045
2043
2045
2045
2046
2045
2043
2042
2042
2045
2048
2049
2048
2047
2043
2040
2041
2042
2042
2043
2044
2045
2045
2044
2044
2043
2043
2043
2043
2043
2043
2043
2042
2044
2044
2045
2043
2039
2038
2038
2042
2046
2048
2047
2044
2042
2040
2041
2042
2043
2043
2042
2042
2041
2040
2040
2039
2039
2040
2040
2040
2041
2041
2039
2036
2037
2045
2062
2082
2093
2088
2064
2030
1997
1977
1974
1982
1996
2009
2021
2029
2035
2038
2040
2040
2040
2041
2041
2042
2042
2042
2042
2042
2042
2042
2042
2042
2043
2042
2040
2039
2039
2041
2044
2047
2047
2045
2042
2039
2038
2039
2040
2041
2040
2040
2040
2040
2040
2040
2041
2041
2041
2041
2041
2041
2041
2042
2044
2044
2044
2041
2039
2037
2039
2041
2044
2044
2041
2037
2034
2032
2033
2034
2034
2033
2033
2032
2031
2031
2031
2032
2033
2034
2034
2035
2036
2036
2037
2038
2038
2038
2036
2035
2036
2038
2041
2044
2044
2042
2038
2036
2035
2037
2037
2038
2037
2037
2036
2036
2035
2035
2034
2035
2036
2036
2034
2032
2030
2030
2035
2040
2041
2041
2034
2029
2026
2029
2034
2039
2040
2038
2034
2031
2030
2030
2030
2032
2032
2032
2032
2032
2032
2032
2032
2033
2033
2034
2033
2032
2032
2033
2035
2036
2037
2034
2031
2030
2031
2033
2036
2037
2036
2034
2033
2032
2034
2034
2034
2034
2033
2033
2033
2033
2033
2033
2033
2033
2032
2032
2032
2032
2033
2034
2034
2034
2033
2032
2032
2033
2034
2036
2037
2036
2034
2031
2029
2029
2029
2030
2033
2032
2030
2027
2030
2042
2062
2082
2090
2077
2047
2010
1981
1968
1974
1987
2002
2012
2017
2021
2025
2030
2034
2037
2037
2035
2033
2032
2032
2033
2033
2034
2034
2034
2035
2035
2035
2035
2034
2034
2034
2035
2035
2036
2036
2036
2037
2036
2035
2034
2033
2034
2036
2039
2041
2040
2039
2037
2035
2036
2036
2037
2038
2038
2038
2038
2039
2038
2038
2038
2037
2037
2037
2037
2037
2036
2036
2035
2035
2034
2032
2030
2029
2029
2031
2033
2033
2032
2030
2029
2029
2031
2033
2034
2035
2035
2036
2036
2036
2037
2037
2037
2038
2038
2039
2039
2039
2038
2038
2039
2039
2038
2037
2037
2038
2039
2042
2042
2041
2039
2037
2036
2037
2039
2039
2040
2040
2040
2039
2038
2038
2038
2039
2040
2040
2039
2039
2038
2037
2039
2039
2039
2037
2036
2036
2037
2039
2041
2042
2041
2039
2038
2037
2038
2038
2039
2038
2038
2038
2038
2038
2039
2039
2039
2039
2039
2039
2039
2039
2039
2039
2040
2039
2039
2037
2037
2037
2039
2041
2042
2041
2039
2038
2038
2037
2039
2039
2040
2040
2040
2040
2040
2040
2040
2040
2040
2040
2039
2039
2038
2037
2038
2040
2040
2040
2036
2034
2041
2059
2083
2103
2102
2079
2042
2004
1978
1971
1976
1989
2001
2012
2022
2030
2035
2038
2039
2039
2039
2040
2040
2041
2042
2042
2044
2043
2042
2041
2040
2040
2041
2044
2047
2047
2046
2044
2043
2041
2042
2042
2042
2042
2042
2043
2043
2044
2044
2043
2043
2043
2043
2043
2043
2043
2043
2045
2045
2046
2044
2042
2042
2042
2045
2047
2046
2044
2041
2039
2037
2037
2037
2036
2036
2035
2034
2034
2032
2031
2031
2030
2030
2030
2031
2031
2032
2034
2034
2036
2035
2034
2033
2033
2035
2039
2043
2044
2043
2040
2038
2037
2036
2039
2039
2039
2039
2039
2039
2039
2039
2039
2039
2039
2040
2040
2040
2040
2040
2041
2041
2040
2040
2038
2038
2038
2041
2043
2044
2043
2041
2039
2037
2037
2038
2039
2040
2040
2040
2040
2040
2039
2039
2039
2040
2040
2040
2041
2041
2040
2040
2040
2040
2039
2038
2037
2038
2040
2042
2044
2045
2043
2040
2038
2037
2039
2039
2040
2040
2039
2039
2039
2039
2039
2039
2039
2040
2040
2039
2039
2038
2037
2039
2039
2040
2040
2039
2039
2039
2041
2042
2042
2041
2039
2037
2036
2037
2037
2037
2038
2039
2039
2037
2034
2034
2043
2061
2083
2095
2088
2060
2024
1991
1974
1976
1988
2003
2015
2022
2029
2034
2039
2041
2040
2039
2038
2037
2038
2038
2038
2039
2039
2039
2039
2039
2039
2039
2039
2039
2039
2039
2039
2038
2038
2038
2040
2040
2039
2037
2035
2034
2037
2040
2042
2042
2040
2038
2037
2037
2039
2039
2038
2038
2037
2038
2038
2039
2039
2038
2038
2038
2038
2038
2037
2037
2035
2036
2036
2035
2033
2030
2028
2028
2030
2032
2034
2033
2031
2029
2026
2027
2029
2029
2031
2031
2031
2032
2033
2033
2032
2032
2032
2032
2032
2033
2033
2033
2034
2035
2035
2033
2030
2028
2028
2032
2038
2042
2042
2038
2033
2030
2029
2031
2032
2033
2033
2033
2033
2033
2033
2033
2033
2033
2034
2034
2034
2034
2034
2034
2034
2034
2033
2032
2030
2031
2032
2035
2038
2038
2035
2031
2028
2028
2031
2036
2039
2039
2037
2033
2031
2031
2032
2033
2033
2033
2033
2034
2034
2034
2035
2035
2035
2034
2032
2030
2031
2032
2035
2038
2038
2036
2034
2033
2031
2033
2033
2034
2034
2034
2034
2034
2033
2033
2033
2033
2033
2033
2034
2035
2036
2036
2036
2036
2034
2034
2032
2032
2033
2034
2036
2036
2035
2033
2032
2033
2033
2032
2030
2033
2046
2066
2086
2091
2077
2046
2009
1981
1970
1976
1989
2004
2015
2025
2030
2033
2033
2033
2033
2035
2038
2041
2041
2039
2037
2036
2035
2038
2039
2039
2039
2038
2037
2037
2038
2038
2039
2039
2039
2039
2039
2039
2039
2039
2041
2041
2040
2039
2038
2038
2039
2042
2044
2045
2044
2042
2041
2041
2042
2042
2040
2040
2039
2039
2039
2040
2040
2039
2038
2037
2037
2036
2035
2034
2033
2032
2034
2032
2031
2028
2026
2027
2030
2034
2038
2038
2036
2033
2032
2032
2035
2035
2036
2037
2037
2038
2038
2038
2038
2038
2038
2038
2038
2038
2038
2039
2039
2041
2041
2039
2038
2036
2035
2037
2041
2045
2046
2045
2041
2038
2036
2037
2038
2037
2038
2038
2037
2037
2037
2037
2037
2037
2037
2037
2037
2036
2036
2035
2037
2037
2038
2037
2035
2035
2035
2037
2039
2040
2039
2038
2036
2035
2035
2035
2035
2036
2036
2035
2036
2036
2036
2036
2035
2035
2035
2036
2036
2037
2037
2037
2037
2036
2036
2034
2032
2033
2035
2037
2040
2040
2039
2037
2036
2036
2036
2036
2036
2036
2035
2035
2034
2034
2033
2033
2033
2035
2036
2035
2033
2031
2039
2054
2076
2091
2089
2068
2034
1999
1976
1970
1977
1988
2001
2010
2020
2027
2032
2035
2035
2035
2036
2037
2037
2038
2038
2038
2038
2039
2039
2039
2039
2039
2039
2039
2040
2039
2038
2038
2039
2041
2042
2043
2042
2040
2039
2037
2039
2040
2041
2040
2040
2040
2040
2040
2040
2041
2041
2042
2043
2043
2043
2042
2041
2041
2041
2041
2040
2039
2038
2037
2038
2039
2039
2038
2036
2034
2032
2031
2031
2031
2030
2030
2029
2029
2029
2029
2029
2030
2031
2032
2032
2033
2033
2033
2033
2034
2035
2034
2032
2031
2031
2033
2036
2038
2038
2037
2035
2034
2033
2034
2034
2034
2034
2034
2034
2034
2035
2035
2035
2035
2034
2034
2034
2035
2035
2035
2038
2037
2035
2033
2031
2031
2033
2037
2040
2040
2038
2035
2033
2032
2034
2034
2034
2034
2034
2034
2034
2034
2034
2035
2035
2034
2034
2034
2034
2035
2034
2036
2037
2034
2034
2031
2030
2031
2035
2040
2042
2041
2038
2035
2032
2032
2033
2033
2034
2034
2034
2034
2035
2035
2035
2035
2034
2034
2034
2034
2035
2035
2037
2039
2039
2037
2034
2033
2034
2037
2040
2042
2040
2037
2033
2031
2031
2033
2035
2035
2033
2031
2036
2049
2070
2088
2091
2074
2041
2005
1979
1970
1977
1991
2006
2017
2023
2028
2031
2034
2037
2040
2041
2040
2038
2037
2036
2037
2037
2038
2039
2039
2039
2040
2040
2040
2039
2039
2039
2040
2040
2040
2040
2040
2040
2040
2040
2040
2039
2039
2039
2041
2044
2045
2045
2043
2041
2039
2039
2040
2040
2042
2042
2042
2042
2041
2041
2040
2039
2039
2039
2039
2038
2038
2037
2036
2035
2035
2034
2032
2030
2029
2030
2033
2035
2035
2033
2031
2030
2031
2032
2034
2035
2035
2035
2035
2035
2036
2036
2036
2036
2036
2036
2037
2038
2038
2037
2038
2037
2037
2036
2036
2036
2037
2039
2040
2039
2037
2036
2035
2035
2037
2037
2037
2037
2036
2036
2036
2036
2036
2036
2037
2037
2037
2036
2036
2035
2036
2036
2037
2037
2036
2035
2034
2035
2036
2038
2039
2038
2037
2035
2034
2034
2035
2034
2034
2034
2034
2034
2035
2035
2036
2037
2037
2035
2033
2031
2031
2034
2038
2042
2041
2038
2033
2030
2030
2032
2036
2038
2039
2038
2036
2035
2033
2034
2033
2034
2034
2034
2035
2035
2035
2035
2035
2036
2036
2036
2037
2037
2037
2036
2037
2037
2036
2033
2034
2033
2033
2034
2035
2036
2038
2038
2037
2034
2039
2051
2072
2090
2097
2081
2048
2012
1984
1972
1976
1987
2001
2012
2022
2029
2033
2037
2039
2041
2040
2037
2033
2033
2037
2043
2048
2049
2047
2042
2039
2038
2038
2040
2041
2041
2041
2042
2041
2041
2041
2041
2041
2041
2042
2043
2043
2043
2043
2044
2044
2043
2041
2040
2040
2042
2045
2047
2047
2046
2043
2042
2041
2041
2042
2042
2042
2041
2040
2040
2039
2037
2036
2035
2035
2034
2033
2032
2032
2031
2031
2031
2030
2029
2028
2029
2031
2033
2036
2037
2037
2036
2035
2036
2037
2037
2038
2038
2038
2038
2038
2038
2038
2038
2039
2040
2040
2040
2040
2039
2039
2040
2041
2041
2040
2039
2038
2039
2041
2043
2044
2043
2041
2039
2038
2039
2040
2040
2040
2039
2039
2039
2039
2039
2039
2039
2039
2039
2039
2039
2039
2038
2038
2038
2039
2038
2037
2037
2038
2040
2042
2042
2041
2039
2038
2036
2038
2038
2039
2039
2039
2039
2038
2038
2038
2039
2039
2039
2039
2039
2039
2039
2038
2039
2039
2039
2038
2037
2036
2037
2039
2042
2044
2043
2041
2039
2037
2038
2039
2039
2041
2041
2041
2041
2040
2040
2040
2039
2039
2038
2038
2038
2038
2037
2038
2042
2041
2038
2034
2036
2049
2073
2097
2104
2089
2054
2014
1984
1972
1978
1991
2006
2017
2026
2033
2037
2040
2040
2041
2041
2041
2041
2042
2042
2043
2043
2044
2044
2044
2042
2040
2042
2043
2045
2046
2045
2044
2043
2044
2045
2045
2044
2043
2042
2042
2044
2044
2044
2045
2045
2045
2045
2045
2045
2045
2045
2044
2047
2048
2047
2046
2043
2041
2042
2046
2048
2050
2049
2046
2042
2040
2039
2039
2039
2038
2038
2037
2036
2036
2036
2035
2034
2034
2034
2035
2036
2037
2038
2038
2039
2040
2039
2039
2038
2039
2041
2043
2044
2044
2043
2041
2040
2040
2041
2042
2042
2042
2042
2042
2042
2042
2042
2042
2042
2042
2042
2042
2043
2043
2043
2043
2043
2042
2041
2041
2041
2042
2044
2045
2045
2044
2042
2040
2040
2041
2041
2042
2042
2042
2042
2042
2041
2041
2041
2040
2041
2041
2041
2041
2041
2040
2040
2041
2041
2040
2039
2037
2038
2039
2042
2042
2042
2040
2038
2037
2038
2039
2039
2039
2040
2039
2039
2039
2039
2039
2039
2039
2039
2039
2040
2040
2039
2041
2040
2040
2039
2039
2039
2039
2041
2042
2041
2040
2040
2040
2040
2042
2043
2042
2042
2041
2041
2040
2040
2040
2040
2039
2040
2039
2039
2039
2040
2041
2040
2038
2038
2045
2061
2081
2095
2092
2070
2036
2001
1980
1976
1985
2000
2015
2025
2032
2036
2039
2039
2040
2040
2041
2042
2043
2043
2043
2043
2043
2043
2042
2044
2044
2044
2043
2041
2041
2042
2044
2046
2047
2047
2045
2044
2041
2042
2042
2043
2043
2043
2043
2044
2044
2044
2044
2044
2044
2044
2044
2044
2044
2043
2045
2046
2045
2044
2042
2041
2042
2044
2045
2045
2043
2041
2039
2037
2038
2037
2037
2036
2035
2035
2034
2034
2034
2034
2034
2034
2036
2036
2037
2037
2037
2039
2041
2042
2041
2037
2034
2034
2038
2044
2048
2048
2045
2041
2038
2038
2038
2039
2041
2040
2041
2041
2041
2041
2041
2040
2040
2040
2040
2041
2041
2041
2042
2042
2041
2040
2038
2037
2037
2040
2043
2045
2045
2043
2040
2037
2038
2039
2039
2040
2040
2040
2040
2040
2039
2039
2039
2039
2039
2039
2039
2040
2039
2040
2041
2040
2039
2037
2035
2036
2039
2044
2047
2045
2040
2036
2034
2036
2041
2044
2045
2042
2039
2037
2037
2038
2039
2039
2039
2038
2038
2039
2039
2039
2039
2039
2039
2038
2038
2037
2038
2039
2041
2043
2043
2041
2039
2037
2037
2039
2039
2040
2041
2041
2041
2041
2041
2041
2041
2041
2040
2039
2039
2039
2039
2038
2039
2039
2040
2039
2037
2035
2040
2056
2078
2098
2101
2083
2049
2012
1985
1975
1979
1991
2004
2015
2024
2031
2036
2039
2040
2041
2042
2042
2042
2042
2042
2043
2044
2044
2044
2043
2042
2042
2043
2045
2047
2046
2045
2043
2043
2043
2044
2044
2044
2044
2044
2044
2044
2045
2045
2045
2045
2044
2044
2044
2044
2044
2044
2046
2046
2046
2044
2043
2042
2043
2046
2048
2048
2045
2042
2040
2038
2040
2039
2038
2036
2035
2035
2035
2034
2033
2033
2032
2032
2032
2032
2032
2033
2032
2035
2035
2036
2036
2035
2035
2037
2039
2041
2041
2040
2039
2039
2040
2042
2042
2040
2039
2038
2038
2040
2040
2040
2039
2037
2036
2036
2037
2039
2041
2041
2043
2044
2042
2041
2037
2035
2035
2038
2044
2048
2048
2044
2040
2036
2035
2037
2036
2039
2038
2038
2038
2038
2038
2037
2037
2037
2037
2037
2038
2038
2038
2039
2040
2039
2037
2035
2033
2034
2038
2042
2045
2045
2041
2038
2036
2035
2037
2037
2038
2038
2038
2038
2038
2037
2037
2037
2037
2037
2037
2038
2038
2038
2038
2038
2037
2037
2035
2034
2033
2035
2039
2042
2044
2043
2040
2037
2035
2037
2038
2039
2039
2038
2039
2039
2039
2040
2040
2040
2039
2039
2039
2040
2040
2039
2039
2038
2038
2036
2035
2035
2038
2040
2040
2040
2044
2056
2076
2091
2093
2075
2042
2006
1982
1974
1981
1995
2009
2020
2029
2035
2038
2039
2039
2038
2038
2040
2040
2041
2040
2038
2038
2040
2043
2047
2048
2046
2043
2042
2040
2041
2042
2043
2042
2042
2042
2042
2042
2042
2043
2043
2043
2043
2043
2043
2043
2043
2044
2045
2045
2044
2042
2041
2042
2045
2048
2049
2048
2047
2045
2043
2043
2043
2042
2042
2042
2042
2041
2041
2041
2040
2039
2039
2038
2037
2035
2035
2033
2034
2037
2037
2037
2035
2034
2034
2037
2041
2044
2046
2044
2043
2040
2038
2039
2039
2040
2040
2041
2041
2042
2042
2041
2041
2040
2040
2040
2041
2041
2041
2041
2042
2042
2042
2040
2038
2038
2039
2043
2047
2047
2045
2041
2038
2037
2040
2042
2043
2042
2040
2039
2039
2040
2041
2040
2040
2040
2040
2040
2040
2040
2039
2040
2042
2044
2042
2038
2034
2034
2038
2044
2049
2050
2047
2041
2037
2035
2037
2038
2040
2040
2039
2039
2039
2039
2039
2039
2039
2039
2040
2040
2040
2039
2039
2040
2040
2039
2037
2035
2035
2037
2041
2044
2045
2044
2040
2037
2037
2037
2038
2039
2039
2039
2039
2039
2039
2039
2039
2038
2038
2038
2039
2039
2039
2039
2040
2040
2040
2039
2038
2038
2040
2042
2044
2043
2041
2038
2036
2035
2036
2037
2039
2039
2038
2035
2034
2042
2059
2082
2098
2095
2072
2035
1999
1977
1974
1984
1999
2013
2021
2027
2031
2036
2039
2043
2044
2044
2041
2039
2038
2040
2042
2045
2045
2043
2041
2039
2038
2039
2040
2041
2041
2042
2042
2041
2041
2041
2042
2042
2043
2042
2042
2041
2042
2044
2045
2046
2045
2044
2043
2042
2043
2044
2045
2045
2044
2044
2043
2044
2044
2044
2044
2044
2043
2042
2041
2040
2040
2040
2040
2039
2038
2035
2033
2032
2034
2036
2038
2038
2036
2034
2033
2033
2035
2035
2037
2037
2038
2038
2038
2039
2040
2041
2041
2041
2041
2041
2041
2041
2040
2043
2043
2042
2039
2037
2037
2040
2044
2047
2048
2046
2042
2040
2038
2041
2041
2041
2041
2041
2042
2042
2042
2043
2043
2041
2039
2038
2038
2040
2045
2046
2047
2044
2041
2037
2035
2036
2039
2042
2044
2044
2043
2040
2039
2038
2040
2040
2040
2040
2040
2040
2040
2040
2040
2040
2040
2040
2040
2039
2039
2039
2039
2040
2042
2041
2040
2037
2036
2036
2039
2043
2046
2046
2043
2040
2037
2036
2037
2037
2039
2039
2039
2039
2039
2039
2039
2038
2038
2038
2039
2039
2039
2038
2040
2039
2038
2037
2035
2034
2036
2039
2043
2045
2043
2040
2037
2034
2035
2035
2036
2036
2036
2036
2036
2037
2037
2036
2033
2033
2043
2062
2084
2099
2094
2069
2033
1998
1976
1969
1976
1989
2003
2017
2028
2035
2037
2036
2035
2035
2037
2038
2039
2039
2040
2040
2040
2040
2040
2040
2040
2040
2040
2040
2040
2040
2040
2041
2042
2042
2041
2039
2038
2039
2041
2043
2045
2044
2042
2040
2039
2040
2041
2042
2042
2041
2041
2041
2042
2042
2042
2042
2042
2042
2042
2042
2042
2041
2041
2040
2040
2038
2037
2036
2035
2036
2037
2037
2035
2033
2030
2029
2029
2030
2031
2031
2031
2031
2031
2031
2032
2033
2033
2034
2035
2035
2035
2034
2035
2035
2035
2035
2034
2033
2033
2034
2036
2038
2039
2038
2037
2036
2035
2036
2037
2038
2038
2037
2037
2036
2037
2037
2037
2037
2038
2038
2038
2038
2037
2037
2037
2039
2038
2038
2037
2035
2035
2037
2039
2041
2043
2042
2040
2038
2036
2038
2037
2038
2038
2037
2037
2038
2038
2038
2038
2038
2037
2037
2037
2037
2037
2036
2038
2038
2037
2036
2034
2033
2034
2036
2038
2039
2039
2037
2035
2033
2034
2034
2035
2036
2037
2037
2036
2036
2035
2035
2035
2035
2035
2035
2035
2035
2035
2036
2037
2038
2036
2032
2029
2029
2032
2038
2043
2044
2041
2037
2034
2033
2033
2034
2035
2035
2035
2035
2034
2034
2033
2033
2033
2033
2035
2035
2033
2031
2034
2047
2067
2086
2090
2075
2045
2010
1985
1976
1981
1993
2006
2015
2023
2028
2033
2035
2035
2035
2035
2036
2036
2037
2037
2037
2038
2038
2038
2037
2037
2037
2037
2037
2036
2035
2035
2035
2036
2037
2039
2039
2038
2036
2036
2035
2036
2037
2038
2038
2038
2038
2037
2037
2037
2037
2038
2038
2039
2039
2039
2039
2039
2039
2039
2039
2038
2038
2037
2037
2039
2040
2040
2038
2035
2033
2031
2032
2032
2032
2032
2031
2030
2030
2030
2030
2031
2032
2032
2033
2033
2033
2033
2033
2034
2034
2035
2035
2035
2034
2034
2035
2037
2038
2038
2037
2036
2035
2035
2035
2036
2036
2036
2036
2036
2036
2036
2036
2036
2036
2036
2036
2036
2035
2035
2034
2037
2036
2036
2034
2033
2033
2035
2037
2038
2037
2036
2034
2034
2034
2036
2036
2035
2035
2035
2035
2035
2035
2036
2036
2036
2035
2035
2035
2034
2034
2034
2036
2035
2036
2034
2033
2033
2034
2036
2038
2039
2038
2036
2035
2033
2034
2034
2035
2035
2035
2035
2036
2036
2036
2036
2036
2035
2035
2035
2035
2035
2035
2037
2037
2036
2036
2033
2032
2033
2036
2039
2040
2039
2039
2037
2035
2036
2035
2035
2037
2038
2039
2039
2038
2037
2037
2037
2038
2037
2037
2038
2040
2040
2042
2042
2042
2040
2038
2036
2036
2037
2040
2042
2042
2040
2039
2039
2038
2036
2035
2039
2051
2073
2093
2100
2086
2055
2018
1989
1976
1980
1993
2007
2019
2027
2036
2038
2041
2038
2037
2037
2041
2046
2049
2050
2048
2046
2042
2040
2043
2043
2046
2046
2046
2046
2045
2045
2045
2045
2045
2045
2045
2046
2046
2047
2046
2048
2047
2046
2044
2043
2044
2047
2050
2053
2053
2050
2048
2046
2043
2047
2047
2048
2048
2048
2047
2047
2046
2046
2045
2045
2044
2044
2043
2044
2043
2042
2041
2040
2039
2038
2036
2036
2038
2041
2041
2039
2037
2036
2039
2044
2049
2050
2048
2045
2043
2043
2044
2046
2046
2046
2047
2048
2048
2048
2048
2047
2047
2047
2047
2048
2047
2046
2045
2045
2047
2048
2049
2048
2048
2046
2045
2045
2045
2047
2046
2046
2045
2045
2045
2045
2045
2046
2046
2046
2045
2045
2045
2045
2044
2046
2045
2045
2043
2042
2042
2043
2045
2046
2045
2044
2043
2042
2042
2043
2043
2043
2043
2043
2043
2043
2043
2043
2043
2043
2042
2042
2042
2041
2041
2041
2042
2042
2043
2041
2040
2040
2041
2043
2045
2046
2045
2043
2042
2041
2042
2041
2041
2041
2041
2041
2042
2043
2043
2043
2043
2043
2042
2042
2042
2043
2043
2045
2047
2046
2044
2041
2039
2040
2044
2048
2049
2048
2045
2042
2039
2040
2042
2043
2044
2043
2040
2042
2053
2072
2093
2102
2092
2062
2026
1994
1978
1978
1992
2008
2021
2028
2032
2035
2039
2044
2047
2048
2048
2045
2044
2042
2044
2045
2046
2046
2046
2046
2047
2047
2047
2047
2046
2046
2046
2047
2048
2048
2048
2047
2048
2047
2046
2044
2043
2044
2047
2050
2052
2052
2050
2048
2046
2044
2047
2047
2048
2048
2048
2048
2048
2048
2048
2048
2047
2047
2047
2046
2046
2045
2045
2045
2044
2042
2038
2036
2035
2037
2040
2042
2041
2039
2037
2035
2035
2037
2038
2040
2040
2041
2041
2041
2041
2041
2041
2041
2041
2041
2041
2040
2039
2038
2039
2039
2039
2038
2036
2036
2036
2038
2040
2041
2040
2038
2035
2033
2034
2035
2035
2036
2036
2035
2035
2035
2035
2036
2036
2036
2035
2034
2034
2034
2034
2034
2033
2034
2033
2033
2033
2033
2034
2035
2036
2035
2034
2033
2032
2032
2032
2033
2032
2032
2032
2032
2032
2032
2032
2032
2032
2032
2032
2032
2032
2032
2032
2032
2033
2032
2031
2030
2030
2031
2033
2035
2035
2033
2031
2031
2031
2032
2032
2032
2031
2031
2031
2031
2031
2031
2032
2032
2032
2032
2032
2031
2031
2031
2033
2033
2033
2031
2030
2031
2033
2036
2038
2039
2037
2035
2034
2032
2034
2033
2033
2033
2032
2032
2033
2034
2035
2035
2033
2031
2034
2047
2067
2087
2091
2079
2047
2010
1981
1967
1971
1986
2004
2018
2028
2033
2035
2036
2035
2035
2034
2034
2036
2038
2040
2041
2041
2039
2038
2038
2037
2039
2039
2040
2041
2041
2042
2041
2042
2040
2039
2037
2037
2040
2043
2045
2045
2043
2041
2040
2041
2041
2042
2042
2042
2042
2043
2043
2043
2043
2043
2043
2043
2044
2044
2044
2044
2043
2045
2043
2043
2039
2036
2036
2038
2042
2046
2047
2044
2039
2035
2032
2034
2034
2037
2037
2037
2037
2037
2037
2038
2038
2039
2040
2040
2041
2041
2041
2041
2043
2042
2041
2039
2038
2038
2040
2044
2046
2046
2044
2042
2040
2038
2041
2041
2042
2042
2042
2042
2042
2041
2041
2041
2041
2041
2041
2041
2042
2042
2042
2042
2041
2041
2040
2039
2039
2040
2041
2043
2043
2042
2041
2039
2039
2040
2041
2041
2041
2041
2041
2040
2040
2040
2041
2041
2041
2040
2041
2041
2041
2040
2041
2040
2041
2040
2040
2039
2040
2041
2043
2044
2044
2043
2041
2040
2040
2040
2040
2040
2040
2040
2040
2040
2040
2040
2041
2041
2041
2041
2040
2040
2041
2040
2041
2041
2041
2040
2039
2039
2040
2042
2043
2044
2044
2043
2042
2042
2043
2043
2042
2041
2040
2040
2040
2041
2041
2041
2041
2042
2042
2042
2040
2038
2041
2054
2074
2094
2101
2088
2058
2023
1994
1981
1983
1994
2007
2018
2025
2034
2038
2040
2042
2042
2043
2044
2045
2046
2046
2045
2044
2044
2045
2045
2046
2045
2047
2047
2046
2044
2041
2041
2043
2048
2051
2052
2050
2048
2045
2042
2045
2046
2045
2045
2045
2045
2047
2048
2048
2047
2045
2043
2043
2046
2049
2051
2050
2048
2047
2044
2042
2040
2039
2039
2043
2047
2048
2046
2041
2037
2034
2033
2035
2034
2033
2033
2033
2032
2032
2032
2032
2033
2033
2034
2036
2037
2038
2039
2039
2040
2040
2039
2039
2038
2039
2041
2042
2043
2043
2041
2040
2039
2039
2040
2040
2041
2040
2041
2041
2040
2040
2040
2040
2040
2040
2040
2040
2040
2040
2040
2040
2040
2040
2039
2038
2038
2039
2041
2042
2042
2041
2039
2037
2037
2038
2038
2039
2039
2039
2039
2038
2038
2038
2038
2038
2038
2038
2038
2038
2038
2038
2039
2039
2040
2039
2038
2037
2038
2039
2041
2041
2040
2039
2037
2036
2037
2038
2039
2038
2038
2038
2038
2038
2038
2038
2038
2038
2038
2038
2038
2038
2038
2040
2040
2040
2039
2039
2039
2040
2041
2041
2040
2038
2037
2036
2036
2038
2039
2040
2040
2039
2036
2037
2047
2065
2087
2099
2091
2064
2027
1994
1976
1975
1985
2001
2014
2024
2031
2035
2038
2040
2041
2043
2043
2043
2043
2043
2043
2044
2044
2044
2044
2044
2044
2044
2044
2044
2045
2045
2045
2045
2045
2044
2044
2044
2046
2046
2045
2044
2042
2043
2045
2048
2049
2050
2048
2047
2046
2045
2048
2047
2047
2047
2047
2047
2048
2048
2048
2047
2047
2047
2046
2045
2045
2045
2043
2044
2044
2043
2040
2037
2035
2036
2040
2044
2045
2042
2038
2036
2035
2036
2040
2040
2040
2040
2039
2041
2042
2044
2045
2045
2043
2042
2041
2042
2044
2044
2044
2045
2043
2042
2039
2037
2038
2042
2047
2049
2048
2046
2042
2038
2038
2040
2040
2041
2041
2041
2041
2041
2041
2040
2039
2039
2039
2040
2040
2041
2040
2041
2041
2040
2038
2036
2036
2037
2040
2044
2046
2045
2042
2040
2038
2038
2038
2039
2039
2039
2039
2039
2040
2039
2039
2039
2038
2038
2038
2038
2038
2038
2038
2038
2037
2037
2036
2036
2035
2036
2038
2040
2041
2040
2038
2037
2035
2036
2036
2038
2038
2037
2037
2037
2036
2037
2037
2038
2038
2038
2039
2040
2040
2040
2040
2038
2037
2036
2035
2035
2036
2038
2041
2042
2041
2038
2034
2033
2041
2056
2079
2095
2094
2073
2038
2001
1978
1973
1983
1998
2013
2023
2031
2035
2038
2040
2040
2041
2040
2040
2040
2041
2043
2045
2045
2044
2043
2041
2041
2042
2043
2044
2044
2044
2044
2044
2044
2045
2045
2046
2046
2046
2046
2046
2046
2046
2047
2048
2048
2048
2047
2047
2048
2049
2050
2050
2049
2048
2048
2048
2048
2049
2048
2048
2048
2048
2048
2048
2048
2047
2046
2046
2046
2045
2044
2044
2043
2042
2043
2042
2042
2042
2041
2041
2043
2046
2048
2050
2049
2048
2048
2047
2048
2048
2049
2049
2048
2048
2049
2049
2049
2050
2050
2050
2050
2050
2050
2050
2049
2052
2051
2050
2049
2048
2047
2048
2050
2054
2056
2056
2053
2049
2047
2047
2048
2048
2048
2048
2047
2047
2047
2048
2048
2048
2047
2045
2045
2045
2045
2046
2046
2047
2048
2047
2045
2044
2044
2047
2048
2049
2049
2048
2046
2045
2044
2045
2045
2045
2045
2045
2046
2046
2046
2045
2045
2045
2046
2047
2047
2047
2046
2045
2047
2046
2046
2044
2043
2044
2047
2050
2052
2052
2050
2048
2046
2044
2046
2046
2047
2048
2048
2048
2048
2048
2047
2047
2047
2047
2046
2046
2045
2045
2044
2045
2045
2045
2044
2041
2038
2042
2054
2076
2098
2108
2098
2068
2030
1999
1981
1980
1989
2002
2013
2023
2031
2036
2040
2042
2042
2043
2043
2043
2044
2043
2046
2046
2046
2044
2042
2042
2044
2048
2050
2051
2048
2045
2042
2041
2043
2044
2045
2045
2044
2044
2044
2044
2044
2044
2045
2045
2045
2045
2045
2044
2044
2045
2045
2045
2043
2043
2043
2044
2044
2044
2043
2042
2042
2044
2044
2044
2042
2039
2035
2034
2034
2034
2034
2033
2032
2032
2031
2031
2030
2030
2030
2030
2031
2033
2033
2035
2035
2034
2034
2034
2036
2038
2040
2041
2042
2041
2040
2040
2039
2039
2039
2039
2039
2039
2040
2040
2040
2040
2039
2039
2039
2039
2039
2038
2040
2040
2040
2038
2036
2035
2036
2039
2042
2044
2043
2040
2038
2035
2037
2037
2037
2036
2035
2035
2035
2035
2036
2036
2036
2035
2035
2035
2034
2035
2034
2037
2036
2036
2034
2031
2030
2032
2037
2040
2041
2039
2036
2034
2033
2034
2033
2033
2034
2034
2034
2034
2033
2034
2035
2036
2035
2034
2032
2031
2032
2032
2036
2036
2036
2035
2033
2032
2032
2035
2038
2040
2040
2036
2033
2030
2030
2031
2032
2033
2034
2033
2031
2030
2036
2050
2071
2088
2088
2068
2034
1997
1972
1965
1974
1987
2002
2011
2017
2023
2029
2036
2041
2042
2040
2035
2032
2030
2033
2034
2037
2036
2036
2036
2036
2036
2036
2035
2035
2035
2035
2036
2036
2035
2034
2036
2035
2035
2032
2031
2031
2033
2038
2042
2044
2042
2038
2036
2033
2036
2037
2039
2039
2039
2039
2039
2039
2040
2039
2039
2038
2038
2038
2039
2039
2037
2037
2036
2035
2033
2031
2029
2030
2032
2035
2037
2035
2032
2029
2028
2030
2031
2033
2034
2035
2035
2035
2036
2036
2037
2036
2037
2037
2038
2038
2038
2037
2037
2037
2038
2038
2037
2036
2036
2038
2041
2043
2042
2040
2037
2036
2036
2038
2040
2039
2039
2039
2038
2038
2039
2039
2040
2040
2040
2040
2039
2039
2039
2039
2040
2041
2040
2039
2038
2039
2041
2043
2045
2045
2044
2042
2041
2040
2041
2042
2042
2042
2042
2043
2043
2043
2043
2043
2043
2043
2043
2043
2043
2043
2042
2044
2044
2043
2041
2039
2039
2040
2044
2047
2048
2047
2045
2042
2040
2042
2041
2041
2041
2042
2043
2044
2045
2045
2045
2045
2045
2045
2044
2043
2043
2042
2044
2044
2043
2042
2040
2040
2041
2042
2045
2051
2064
2081
2096
2098
2085
2054
2019
1991
1980
1983
1995
2008
2019
2028
2036
2041
2043
2043
2041
2041
2041
2041
2045
2044
2042
2040
2039
2041
2046
2049
2051
2049
2046
2043
2042
2042
2043
2043
2043
2043
2042
2043
2043
2044
2044
2044
2043
2043
2044
2045
2047
2048
2048
2048
2046
2043
2040
2039
2042
2047
2049
2051
2050
2048
2045
2042
2043
2044
2044
2044
2043
2044
2043
2044
2043
2042
2041
2040
2039
2039
2039
2039
2038
2039
2040
2040
2040
2040
2040
2041
2044
2047
2049
2049
2048
2047
2046
2045
2047
2047
2048
2048
2048
2048
2048
2048
2048
2048
2048
2048
2048
2048
2048
2048
2047
2048
2048
2048
2047
2045
2045
2047
2051
2054
2055
2053
2049
2045
2043
2044
2045
2046
2047
2046
2046
2046
2046
2046
2046
2046
2046
2046
2045
2046
2045
2045
2046
2046
2047
2046
2046
2045
2046
2047
2048
2048
2048
2047
2046
2045
2045
2045
2046
2047
2047
2047
2047
2047
2048
2048
2048
2048
2048
2048
2047
2046
2045
2044
2045
2046
2045
2045
2044
2045
2045
2044
2048
2059
2078
2099
2109
2100
2073
2036
2002
1982
1979
1987
1999
2011
2021
2032
2039
2043
2046
2046
2046
2046
2047
2048
2048
2048
2047
2045
2045
2047
2049
2051
2052
2050
2048
2048
2046
2048
2048
2048
2048
2047
2047
2048
2048
2048
2048
2048
2048
2047
2047
2048
2048
2047
2049
2048
2048
2048
2046
2046
2047
2049
2051
2051
2050
2048
2047
2045
2046
2044
2043
2042
2041
2040
2042
2041
2040
2038
2036
2035
2034
2035
2035
2035
2035
2035
2035
2035
2038
2037
2037
2038
2040
2043
2045
2045
2044
2042
2041
2040
2040
2041
2041
2041
2042
2043
2043
2041
2039
2037
2037
2040
2044
2047
2046
2043
2039
2039
2038
2040
2039
2036
2036
2038
2043
2047
2048
2046
2042
2038
2035
2037
2036
2039
2039
2039
2039
2039
2039
2038
2038
2038
2039
2039
2039
2039
2039
2038
2040
2039
2039
2037
2036
2035
2036
2039
2042
2044
2042
2040
2037
2035
2037
2037
2038
2038
2038
2038
2037
2037
2037
2038
2039
2039
2039
2039
2039
2039
2038
2038
2037
2037
2036
2035
2034
2035
2037
2039
2040
2039
2035
2032
2036
2050
2072
2091
2094
2077
2044
2007
1979
1969
1976
1990
2006
2017
2025
2030
2033
2034
2035
2035
2036
2036
2035
2036
2037
2039
2041
2041
2040
2038
2037
2036
2037
2037
2038
2038
2038
2038
2038
2038
2038
2038
2038
2039
2039
2039
2039
2039
2038
2039
2040
2040
2039
2038
2038
2039
2041
2044
2045
2044
2042
2040
2039
2039
2040
2040
2040
2040
2040
2039
2039
2038
2038
2037
2037
2036
2036
2035
2034
2032
2032
2033
2032
2031
2030
2031
2032
2035
2037
2039
2038
2037
2036
2036
2036
2038
2038
2038
2038
2038
2038
2038
2038
2039
2038
2038
2038
2038
2038
2038
2039
2038
2040
2039
2039
2037
2035
2035
2037
2040
2043
2043
2042
2039
2037
2036
2037
2037
2038
2037
2037
2036
2039
2038
2038
2038
2037
2037
2038
2039
2040
2040
2041
2041
2042
2040
2039
2037
2036
2037
2041
2045
2047
2046
2044
2042
2041
2041
2042
2042
2042
2041
2042
2043
2044
2044
2044
2043
2043
2044
2045
2046
2047
2048
2048
2048
2048
2047
2045
2044
2044
2046
2048
2049
2048
2047
2045
2044
2044
2046
2045
2046
2051
2067
2088
2104
2105
2086
2053
2019
1995
1986
1991
2004
2016
2026
2037
2044
2048
2048
2048
2048
2050
2054
2058
2059
2057
2054
2052
2049
2052
2052
2053
2053
2053
2054
2054
2054
2055
2055
2056
2056
2055
2055
2054
2054
2053
2056
2056
2057
2056
2056
2055
2055
2056
2057
2058
2058
2057
2056
2056
2057
2057
2058
2059
2059
2059
2058
2057
2056
2055
2055
2055
2055
2054
2053
2050
2048
2047
2046
2046
2045
2044
2044
2045
2048
2050
2052
2052
2051
2050
2049
2048
2050
2050
2051
2050
2050
2049
2048
2048
2048
2048
2048
2049
2050
2051
2052
2051
2048
2048
2048
2048
2047
2047
2046
2047
2048
2048
2049
2048
2048
2046
2045
2046
2048
2048
2049
2051
2051
2050
2050
2049
2050
2050
2051
2051
2052
2052
2053
2053
2053
2053
2053
2052
2051
2052
2052
2053
2054
2054
2054
2054
2053
2053
2053
2052
2052
2052
2052
2053
2053
2053
2053
2053
2052
2052
2051
2050
2049
2049
2048
2050
2050
2050
2048
2048
2048
2048
2048
2050
2058
2072
2089
2101
2098
2078
2046
2014
1993
1987
1994
2006
2016
2027
2035
2041
2042
2041
2039
2039
2042
2048
2050
2051
2050
2050
2048
2050
2051
2051
2049
2048
2048
2046
2045
2045
2042
2043
2043
2046
2046
2047
2047
2047
2047
2047
2046
2046
2045
2046
2046
2047
2047
2047
2047
2046
2045
2044
2043
2045
2047
2049
2050
2049
2048
2046
2043
2042
2042
2042
2042
2042
2042
2042
2042
2040
2039
2037
2036
2036
2036
2037
2037
2036
2038
2040
2040
2040
2039
2039
2041
2045
2048
2051
2051
2048
2045
2043
2043
2047
2048
2049
2049
2049
2050
2050
2050
2050
2050
2049
2049
2049
2050
2050
2052
2053
2055
2054
2052
2050
2048
2049
2052
2056
2059
2060
2059
2056
2054
2053
2054
2054
2056
2057
2059
2060
2060
2059
2059
2058
2058
2059
2060
2060
2061
2062
2062
2063
2063
2065
2065
2065
2066
2066
2068
2070
2071
2070
2068
2067
2067
2067
2069
2071
2072
2072
2071
2070
2069
2070
2072
2074
2076
2075
2074
2072
2072
2073
2073
2075
2075
2073
2070
2072
2082
2100
2121
2134
2129
2108
2076
2047
2027
2023
2028
2038
2048
2058
2067
2073
2077
2078
2078
2077
2077
2078
2080
2081
2082
2082
2082
2081
2081
2079
2078
2078
2078
2079
2080
2081
2080
2079
2079
2079
2082
2083
2083
2081
2080
2079
2080
2082
2083
2083
2083
2082
2081
2081
2081
2081
2081
2082
2083
2083
2081
2080
2079
2079
2080
2081
2082
2080
2078
2075
2073
2073
2072
2072
2070
2069
2068
2067
2067
2066
2066
2066
2066
2067
2068
2069
2069
2070
2070
2072
2073
2074
2073
2072
2072
2075
2078
2082
2084
2083
2080
2075
2070
2068
2065
2067
2068
2069
2069
2070
2068
2068
2068
2068
2068
2068
2067
2066
2065
2064
2065
2066
2067
2066
2064
2061
2061
2064
2068
2070
2070
2066
2060
2056
2056
2056
2058
2058
2058
2055
2054
2054
2054
2054
2054
2054
2054
2055
2055
2055
2054
2055
2054
2052
2050
2048
2048
2051
2056
2060
2061
2059
2055
2052
2050
2051
2052
2052
2051
2050
2049
2049
2049
2049
2050
2050
2049
2048
2046
2051
2065
2083
2101
2105
2092
2063
2030
2002
1989
1988
1997
2007
2015
2022
2029
2034
2039
2040
2041
2041
2041
2040
2040
2040
2040
2040
2040
2040
2040
2039
2039
2038
2038
2039
2039
2039
2038
2036
2035
2035
2037
2038
2039
2038
2036
2034
2032
2032
2033
2034
2034
2033
2033
2033
2032
2032
2032
2032
2032
2032
2031
2031
2029
2028
2027
2027
2026
2024
2022
2020
2021
2022
2024
2024
2023
2021
2020
2018
2019
2019
2018
2017
2016
2016
2017
2018
2020
2021
2022
2023
2023
2023
2024
2025
2025
2027
2029
2027
2026
2025
2024
2026
2029
2031
2031
2029
2027
2026
2026
2026
2028
2028
2027
2027
2027
2026
2026
2025
2025
2025
2025
2025
2025
2024
2024
2024
2024
2026
2026
2024
2022
2020
2020
2022
2025
2027
2028
2026
2024
2022
2022
2023
2022
2022
2022
2022
2022
2022
2023
2023
2022
2021
2020
2020
2022
2024
2026
2027
2028
2027
2027
2026
2025
2025
2026
2028
2030
2031
2030
2028
2025
2024
2023
2023
2024
2024
2023
2022
2025
2036
2053
2072
2080
2069
2043
2009
1980
1965
1966
1977
1989
1999
2006
2010
2014
2017
2020
2023
2026
2026
2025
2023
2021
2021
2022
2023
2024
2024
2024
2024
2024
2025
2025
2025
2025
2025
2025
2025
2025
2025
2026
2027
2028
2027
2025
2023
2023
2024
2027
2029
2030
2029
2027
2025
2023
2024
2024
2026
2026
2026
2026
2026
2025
2025
2025
2024
2023
2022
2022
2022
2022
2021
2022
2021
2019
2018
2017
2016
2016
2017
2018
2020
2019
2019
2018
2018
2020
2020
2021
2022
2022
2023
2024
2025
2027
2028
2029
2029
2027
2026
2024
2024
2025
2025
2026
2027
2025
2024
2024
2026
2030
2033
2035
2033
2030
2028
2027
2027
2028
2028
2028
2027
2028
2028
2028
2028
2028
2028
2029
2029
2029
2028
2027
2026
2025
2027
2027
2028
2027
2027
2027
2029
2032
2032
2030
2027
2025
2024
2024
2028
2030
2031
2030
2030
2029
2027
2027
2027
2028
2030
2031
2031
2030
2028
2027
2026
2029
2030
2031
2031
2029
2027
2027
2029
2030
2031
2031
2030
2030
2030
2032
2029
2026
2027
2037
2055
2075
2086
2077
2053
2020
1991
1977
1978
1988
2001
2013
2021
2027
2031
2033
2034
2034
2036
2039
2042
2043
2043
2042
2042
2043
2044
2045
2044
2043
2042
2043
2044
2046
2048
2047
2047
2045
2044
2044
2045
2046
2047
2048
2046
2046
2044
2041
2042
2042
2044
2047
2049
2049
2048
2044
2041
2040
2040
2042
2045
2045
2045
2043
2042
2042
2042
2041
2040
2039
2038
2038
2039
2039
2039
2038
2036
2035
2034
2034
2036
2039
2041
2043
2043
2041
2039
2037
2038
2040
2041
2043
2044
2046
2047
2046
2044
2043
2043
2046
2049
2050
2049
2045
2040
2040
2041
2044
2047
2046
2045
2045
2046
2048
2048
2048
2046
2043
2041
2041
2043
2044
2046
2047
2047
2046
2045
2044
2043
2043
2044
2046
2046
2046
2045
2044
2043
2043
2044
2044
2044
2043
2043
2045
2046
2048
2048
2047
2045
2044
2044
2044
2043
2043
2041
2041
2042
2043
2043
2043
2043
2042
2042
2042
2043
2043
2043
2043
2043
2043
2045
2045
2045
2045
2044
2045
2045
2045
2044
2042
2041
2040
2041
2042
2044
2044
2043
2042
2045
2055
2072
2089
2096
2085
2059
2027
2000
1987
1989
1999
2013
2023
2031
2037
2041
2045
2046
2046
2046
2044
2043
2043
2043
2043
2045
2045
2045
2045
2045
2044
2043
2043
2043
2044
2045
2045
2045
2044
2043
2043
2043
2045
2045
2044
2042
2041
2041
2041
2043
2044
2044
2043
2042
2043
2042
2044
2043
2042
2041
2041
2041
2041
2042
2041
2040
2039
2037
2036
2036
2037
2038
2037
2038
2036
2034
2032
2030
2029
2030
2033
2036
2038
2038
2037
2037
2036
2038
2038
2040
2042
2044
2046
2046
2047
2046
2046
2046
2047
2047
2047
2047
2047
2047
2048
2048
2048
2048
2046
2044
2044
2046
2048
2050
2050
2049
2048
2045
2045
2044
2046
2047
2047
2047
2047
2046
2046
2045
2046
2046
2046
2046
2045
2044
2044
2043
2045
2045
2045
2042
2040
2039
2041
2045
2048
2048
2046
2043
2041
2040
2042
2042
2043
2042
2042
2041
2041
2041
2041
2042
2041
2041
2040
2039
2039
2040
2040
2042
2042
2042
2041
2041
2041
2042
2044
2045
2046
2045
2043
2041
2039
2040
2040
2041
2042
2042
2043
2043
2042
2040
2040
2045
2057
2075
2090
2093
2078
2049
2020
1996
1986
1988
1997
2008
2019
2028
2036
2039
2038
2036
2034
2035
2037
2038
2038
2038
2038
2038
2038
2037
2037
2037
2038
2039
2039
2040
2039
2038
2039
2039
2039
2040
2039
2038
2037
2037
2039
2041
2042
2042
2040
2038
2037
2038
2038
2039
2038
2038
2038
2038
2038
2039
2039
2039
2039
2038
2037
2037
2037
2036
2037
2037
2036
2034
2032
2031
2032
2034
2036
2036
2035
2032
2030
2029
2030
2032
2033
2034
2035
2036
2037
2039
2040
2041
2041
2041
2042
2042
2042
2042
2042
2043
2044
2045
2045
2043
2042
2042
2043
2044
2046
2046
2044
2043
2041
2041
2041
2041
2041
2041
2041
2041
2041
2041
2041
2041
2041
2041
2041
2041
2040
2040
2039
2041
2040
2039
2037
2035
2034
2036
2039
2042
2043
2042
2039
2037
2035
2035
2035
2035
2035
2036
2036
2036
2036
2035
2035
2035
2036
2035
2035
2034
2034
2035
2037
2041
2041
2038
2034
2032
2033
2037
2042
2043
2042
2037
2034
2032
2032
2035
2035
2036
2036
2034
2033
2036
2047
2065
2084
2092
2083
2057
2026
1998
1983
1982
1993
2003
2011
2017
2023
2029
2035
2041
2043
2043
2040
2037
2035
2033
2037
2037
2038
2037
2037
2036
2036
2035
2035
2036
2036
2036
2036
2036
2036
2035
2034
2034
2034
2034
2033
2032
2031
2032
2034
2036
2036
2035
2033
2032
2032
2033
2034
2034
2035
2035
2034
2032
2030
2029
2029
2030
2032
2033
2032
2030
2028
2027
2028
2028
2027
2024
2021
2020
2020
2022
2025
2026
2025
2023
2021
2021
2024
2026
2029
2030
2031
2031
2031
2031
2031
2032
2033
2034
2035
2035
2036
2036
2036
2036
2035
2036
2035
2034
2033
2034
2037
2040
2042
2040
2038
2035
2034
2034
2035
2037
2036
2036
2036
2035
2035
2035
2035
2036
2036
2036
2035
2035
2034
2033
2032
2033
2032
2031
2031
2031
2033
2034
2035
2034
2032
2030
2029
2030
2030
2033
2032
2031
2031
2030
2030
2031
2031
2031
2031
2031
2031
2031
2031
2030
2029
2028
2029
2030
2030
2030
2030
2030
2030
2030
2032
2035
2037
2038
2037
2033
2030
2027
2026
2027
2028
2029
2029
2030
2030
2028
2026
2028
2038
2056
2075
2083
2072
2047
2012
1983
1969
1970
1982
1996
2009
2020
2026
2029
2029
2028
2027
2027
2027
2028
2028
2029
2029
2029
2030
2031
2031
2032
2031
2032
2031
2031
2031
2031
2032
2035
2035
2036
2032
2028
2027
2030
2036
2042
2042
2038
2034
2030
2030
2033
2034
2036
2036
2036
2036
2036
2036
2036
2037
2037
2037
2037
2037
2037
2037
2037
2039
2037
2035
2032
2029
2030
2034
2039
2041
2041
2036
2032
2028
2028
2032
2033
2034
2035
2035
2036
2037
2037
2038
2038
2038
2039
2039
2040
2040
2039
2040
2041
2041
2040
2039
2038
2039
2042
2046
2048
2048
2046
2043
2040
2039
2041
2042
2042
2042
2042
2042
2042
2041
2042
2042
2042
2041
2041
2042
2043
2043
2042
2043
2042
2041
2040
2038
2039
2041
2044
2047
2048
2045
2042
2039
2039
2040
2041
2042
2042
2042
2042
2041
2041
2041
2042
2042
2042
2043
2042
2042
2041
2041
2041
2041
2042
2041
2040
2039
2040
2042
2045
2048
2047
2045
2043
2042
2042
2043
2044
2044
2043
2042
2042
2041
2042
2043
2043
2043
2042
2042
2042
2042
2040
2040
2048
2064
2083
2097
2096
2077
2047
2018
1998
1993
1998
2008
2018
2026
2034
2039
2043
2043
2043
2043
2043
2044
2045
2045
2046
2046
2045
2045
2044
2044
2044
2044
2045
2044
2043
2042
2041
2042
2045
2047
2047
2045
2042
2041
2040
2042
2041
2040
2038
2037
2037
2038
2039
2040
2040
2040
2039
2038
2038
2038
2038
2037
2038
2038
2037
2035
2033
2032
2031
2032
2035
2036
2035
2033
2030
2027
2026
2026
2025
2025
2024
2025
2025
2025
2025
2026
2027
2027
2028
2029
2031
2031
2031
2031
2033
2034
2035
2035
2035
2035
2036
2039
2041
2039
2039
2036
2035
2034
2036
2036
2037
2037
2037
2036
2036
2036
2036
2036
2035
2035
2035
2036
2036
2036
2036
2036
2035
2034
2033
2032
2033
2036
2038
2040
2040
2038
2035
2033
2032
2034
2035
2036
2036
2036
2036
2036
2035
2035
2035
2035
2035
2035
2035
2035
2035
2034
2036
2035
2035
2033
2032
2031
2033
2036
2038
2039
2037
2034
2033
2031
2034
2034
2034
2034
2034
2034
2034
2034
2035
2035
2035
2036
2036
2035
2035
2034
2033
2034
2034
2034
2033
2032
2032
2033
2035
2036
2035
2032
2034
2044
2060
2079
2086
2075
2048
2015
1987
1975
1978
1989
2003
2014
2021
2026
2030
2033
2034
2033
2034
2034
2035
2034
2033
2033
2034
2037
2039
2039
2038
2035
2034
2032
2034
2035
2036
2036
2035
2035
2035
2036
2036
2036
2036
2037
2037
2037
2037
2037
2036
2037
2038
2039
2038
2037
2036
2037
2039
2042
2043
2042
2040
2038
2038
2038
2039
2039
2037
2037
2036
2036
2036
2036
2036
2035
2035
2034
2033
2032
2031
2031
2031
2033
2033
2032
2032
2032
2034
2037
2041
2042
2041
2040
2039
2039
2039
2041
2040
2040
2040
2040
2040
2040
2041
2040
2040
2040
2040
2040
2040
2040
2040
2040
2042
2041
2041
2039
2037
2037
2039
2042
2045
2046
2044
2041
2039
2038
2039
2039
2040
2040
2040
2040
2041
2041
2040
2040
2040
2040
2040
2040
2041
2039
2042
2042
2042
2041
2039
2038
2038
2041
2044
2046
2045
2043
2042
2039
2040
2039
2039
2039
2040
2040
2041
2041
2041
2041
2041
2040
2040
2039
2040
2041
2042
2042
2043
2043
2042
2041
2039
2038
2039
2040
2043
2044
2044
2042
2039
2038
2038
2040
2039
2038
2038
2046
2060
2080
2094
2092
2072
2041
2009
1989
1984
1991
2004
2014
2025
2032
2036
2038
2038
2038
2040
2045
2048
2050
2048
2046
2043
2041
2043
2044
2045
2046
2046
2045
2043
2042
2042
2045
2048
2050
2049
2047
2044
2043
2044
2046
2047
2046
2044
2043
2044
2046
2048
2049
2049
2048
2046
2044
2044
2045
2046
2046
2046
2046
2045
2045
2044
2043
2042
2042
2042
2042
2041
2041
2039
2038
2037
2037
2036
2035
2034
2033
2033
2036
2039
2041
2040
2038
2037
2037
2038
2040
2041
2042
2042
2042
2043
2043
2044
2044
2045
2045
2045
2045
2045
2044
2044
2044
2044
2045
2044
2043
2042
2042
2043
2044
2046
2046
2045
2043
2042
2041
2041
2042
2042
2041
2041
2041
2041
2041
2041
2041
2041
2040
2040
2039
2039
2039
2038
2039
2040
2040
2038
2037
2036
2037
2039
2041
2041
2041
2039
2038
2037
2037
2037
2037
2036
2037
2037
2038
2038
2039
2039
2039
2038
2037
2037
2036
2036
2035
2036
2036
2036
2034
2033
2033
2035
2037
2037
2036
2038
2047
2063
2082
2090
2080
2052
2018
1989
1975
1976
1986
2000
2011
2020
2027
2031
2035
2036
2036
2036
2038
2038
2038
2039
2037
2036
2037
2040
2042
2046
2045
2043
2040
2037
2038
2037
2037
2039
2039
2039
2040
2040
2040
2040
2040
2040
2040
2040
2041
2041
2041
2041
2042
2041
2042
2039
2038
2039
2042
2046
2049
2050
2048
2044
2040
2037
2038
2038
2040
2038
2038
2037
2037
2036
2035
2034
2033
2032
2031
2032
2032
2031
2031
2032
2032
2032
2032
2033
2034
2038
2041
2044
2044
2042
2040
2038
2038
2040
2040
2041
2041
2041
2041
2041
2041
2042
2042
2042
2041
2041
2041
2041
2041
2041
2042
2042
2041
2040
2038
2039
2040
2043
2045
2044
2042
2040
2038
2038
2039
2040
2039
2040
2039
2040
2039
2039
2039
2039
2038
2039
2039
2039
2040
2039
2039
2039
2038
2039
2038
2037
2036
2037
2038
2039
2041
2040
2039
2038
2037
2038
2038
2039
2039
2038
2038
2038
2038
2038
2039
2040
2040
2040
2040
2040
2039
2038
2038
2038
2038
2038
2037
2035
2035
2037
2040
2040
2039
2037
2040
2052
2071
2089
2093
2077
2047
2012
1987
1979
1985
1997
2011
2021
2028
2033
2036
2037
2038
2037
2039
2040
2041
2040
2039
2039
2040
2042
2044
2045
2043
2041
2040
2039
2041
2041
2041
2040
2040
2041
2041
2041
2041
2041
2041
2041
2041
2041
2041
2041
2042
2043
2043
2042
2041
2041
2041
2042
2044
2044
2044
2043
2041
2041
2041
2042
2041
2040
2039
2039
2038
2038
2037
2037
2036
2035
2035
2034
2034
2033
2033
2033
2033
2034
2033
2034
2033
2032
2033
2036
2039
2042
2043
2042
2040
2038
2037
2037
2037
2040
2040
2040
2040
2040
2040
2040
2039
2039
2039
2039
2040
2040
2040
2039
2040
2040
2039
2038
2037
2037
2039
2041
2043
2042
2041
2039
2038
2037
2039
2038
2039
2038
2039
2038
2038
2038
2038
2037
2037
2037
2037
2038
2038
2038
2037
2038
2038
2038
2037
2036
2036
2038
2040
2042
2041
2039
2037
2036
2035
2037
2037
2037
2037
2037
2036
2036
2036
2036
2036
2036
2037
2037
2036
2036
2036
2036
2038
2039
2039
2039
2036
2034
2034
2037
2042
2045
2045
2041
2036
2033
2032
2034
2036
2038
2037
2036
2036
2044
2060
2080
2095
2094
2074
2042
2009
1986
1979
1983
1995
2006
2016
2024
2030
2036
2041
2044
2046
2045
2043
2042
2042
2043
2044
2045
2045
2045
2044
2044
2044
2045
2045
2045
2045
2045
2046
2046
2046
2046
2046
2046
2046
2045
2044
2044
2045
2048
2050
2051
2050
2048
2046
2045
2046
2048
2048
2048
2047
2047
2047
2047
2047
2047
2046
2046
2045
2044
2043
2042
2041
2041
2041
2040
2039
2037
2035
2034
2034
2037
2039
2040
2039
2038
2037
2038
2040
2041
2043
2043
2044
2045
2047
2048
2048
2048
2049
2049
2049
2049
2049
2049
2050
2051
2051
2050
2049
2048
2048
2048
2050
2051
2052
2054
2055
2055
2054
2052
2050
2048
2048
2049
2050
2051
2051
2051
2050
2050
2050
2049
2049
2049
2049
2050
2051
2051
2050
2049
2048
2048
2048
2048
2050
2052
2053
2053
2051
2049
2048
2048
2048
2047
2048
2048
2048
2048
2049
2048
2048
2048
2048
2048
2048
2049
2048
2048
2049
2048
2048
2045
2043
2043
2046
2050
2054
2055
2053
2050
2048
2047
2048
2049
2049
2049
2049
2048
2048
2048
2048
2048
2048
2048
2048
2048
2049
2060
2077
2098
2107
2097
2069
2033
2002
1987
1989
2002
2016
2026
2034
2039
2042
2046
2048
2048
2049
2049
2050
2050
2050
2050
2050
2050
2050
2051
2051
2051
2051
2049
2050
2050
2049
2049
2048
2048
2050
2052
2055
2055
2054
2051
2049
2048
2049
2050
2049
2050
2050
2049
2050
2049
2049
2050
2050
2050
2051
2050
2050
2049
2049
2049
2050
2050
2049
2048
2047
2047
2047
2048
2048
2046
2045
2043
2041
2041
2041
2042
2041
2041
2041
2041
2041
2042
2044
2045
2046
2047
2047
2048
2048
2048
2048
2048
2049
2049
2048
2048
2048
2048
2050
2052
2052
2051
2049
2048
2048
2048
2049
2049
2048
2048
2048
2048
2048
2049
2049
2049
2049
2049
2048
2048
2048
2048
2048
2048
2048
2047
2046
2045
2046
2048
2048
2049
2049
2048
2047
2046
2046
2046
2046
2046
2046
2046
2046
2047
2047
2047
2046
2046
2046
2046
2046
2046
2045
2047
2047
2047
2046
2044
2044
2044
2046
2047
2047
2046
2045
2045
2045
2046
2045
2044
2044
2045
2045
2045
2045
2045
2045
2044
2044
2044
2045
2046
2047
2047
2048
2048
2047
2046
2045
2043
2043
2044
2047
2048
2048
2048
2047
2045
2044
2041
2039
2044
2057
2076
2095
2101
2088
2059
2024
1996
1984
1987
1999
2012
2023
2032
2039
2042
2043
2042
2042
2043
2047
2049
2051
2050
2048
2047
2046
2046
2047
2047
2047
2047
2047
2047
2047
2047
2047
2047
2047
2047
2047
2048
2048
2048
2047
2048
2048
2047
2046
2046
2046
2048
2051
2052
2052
2049
2047
2045
2045
2047
2047
2048
2048
2047
2047
2046
2045
2045
2045
2044
2044
2043
2043
2042
2041
2040
2040
2041
2039
2038
2034
2032
2033
2037
2044
2048
2048
2046
2041
2039
2039
2042
2043
2045
2045
2045
2045
2045
2046
2046
2046
2046
2046
2046
2047
2046
2046
2046
2046
2046
2045
2044
2044
2044
2046
2048
2048
2048
2046
2044
2043
2044
2043
2044
2044
2044
2044
2044
2043
2043
2043
2044
2043
2043
2043
2042
2042
2042
2042
2043
2042
2042
2041
2040
2040
2042
2044
2045
2044
2043
2041
2040
2039
2041
2041
2041
2040
2040
2040
2040
2040
2040
2040
2040
2040
2040
2039
2039
2039
2039
2040
2040
2040
2039
2038
2037
2038
2039
2042
2043
2042
2041
2039
2038
2038
2039
2039
2039
2039
2039
2039
2040
2040
2040
2040
2041
2041
2042
2042
2042
2041
2042
2043
2042
2040
2038
2037
2038
2040
2042
2044
2043
2042
2039
2036
2037
2046
2062
2082
2096
2094
2073
2042
2009
1989
1983
1990
2002
2014
2023
2031
2036
2041
2043
2043
2043
2042
2041
2041
2043
2046
2048
2048
2048
2047
2046
2045
2044
2043
2044
2044
2046
2046
2046
2046
2046
2046
2046
2046
2046
2047
2047
2047
2046
2048
2047
2047
2045
2043
2043
2045
2048
2051
2053
2052
2049
2046
2043
2044
2045
2047
2046
2046
2045
2044
2043
2042
2041
2041
2041
2040
2040
2038
2037
2035
2036
2035
2035
2033
2032
2032
2034
2037
2040
2042
2042
2041
2041
2040
2042
2043
2044
2044
2044
2044
2044
2044
2044
2044
2045
2045
2045
2045
2045
2045
2045
2046
2047
2048
2048
2046
2044
2044
2046
2049
2053
2053
2050
2047
2044
2044
2045
2048
2048
2045
2043
2041
2042
2045
2048
2051
2050
2048
2044
2042
2042
2044
2045
2045
2045
2045
2044
2044
2044
2045
2047
2048
2048
2048
2047
2046
2046
2046
2046
2047
2047
2046
2046
2046
2047
2047
2048
2048
2048
2047
2047
2047
2046
2047
2048
2049
2048
2048
2048
2048
2049
2052
2053
2052
2050
2048
2046
2047
2048
2048
2048
2049
2049
2050
2048
2047
2049
2062
2082
2101
2109
2097
2068
2033
2004
1990
1991
2001
2012
2022
2030
2038
2045
2049
2052
2052
2052
2051
2049
2051
2051
2052
2052
2052
2053
2053
2053
2054
2054
2053
2053
2053
2053
2053
2053
2054
2056
2056
2055
2053
2051
2050
2052
2055
2057
2057
2056
2054
2053
2053
2055
2054
2054
2054
2054
2055
2055
2055
2055
2055
2054
2054
2054
2053
2053
2052
2052
2053
2052
2051
2050
2048
2047
2047
2047
2048
2047
2046
2045
2044
2045
2045
2045
2044
2046
2047
2048
2050
2050
2050
2050
2050
2050
2050
2051
2052
2052
2051
2050
2052
2051
2050
2049
2048
2048
2050
2053
2055
2055
2053
2051
2050
2048
2049
2049
2050
2050
2050
2050
2049
2049
2049
2049
2048
2048
2048
2048
2048
2048
2048
2049
2048
2048
2046
2044
2044
2046
2048
2051
2052
2050
2048
2046
2044
2047
2046
2047
2047
2047
2047
2046
2046
2045
2045
2045
2046
2046
2046
2046
2046
2044
2045
2046
2045
2044
2041
2039
2041
2044
2049
2052
2051
2048
2043
2040
2040
2043
2042
2043
2043
2044
2044
2044
2044
2044
2044
2044
2043
2043
2042
2041
2041
2041
2041
2041
2041
2041
2041
2040
2039
2041
2050
2067
2086
2098
2093
2071
2038
2007
1987
1983
1992
2005
2017
2026
2034
2039
2042
2044
2044
2044
2044
2044
2045
2046
2046
2046
2045
2045
2045
2047
2048
2049
2049
2048
2047
2046
2046
2047
2048
2048
2048
2048
2047
2047
2047
2047
2048
2047
2047
2047
2047
2047
2048
2048
2048
2048
2048
2048
2047
2047
2047
2048
2049
2049
2049
2048
2047
2046
2046
2046
2046
2045
2044
2044
2044
2043
2043
2042
2041
2040
2039
2038
2038
2038
2039
2042
2042
2042
2042
2041
2042
2044
2047
2048
2048
2047
2046
2046
2046
2047
2047
2046
2046
2046
2046
2047
2047
2047
2047
2047
2046
2046
2045
2045
2046
2046
2047
2048
2047
2046
2042
2039
2038
2042
2048
2051
2053
2050
2047
2043
2043
2045
2045
2046
2045
2044
2044
2044
2044
2043
2043
2043
2044
2044
2044
2043
2043
2043
2045
2044
2044
2041
2038
2038
2040
2045
2048
2050
2048
2044
2039
2036
2038
2039
2042
2042
2042
2041
2041
2041
2041
2041
2041
2041
2042
2042
2041
2041
2040
2041
2041
2041
2039
2038
2038
2041
2044
2047
2047
2045
2041
2039
2037
2040
2041
2042
2042
2041
2041
2040
2040
2040
2041
2042
2043
2043
2043
2042
2042
2041
2043
2044
2043
2041
2039
2037
2037
2040
2045
2047
2046
2041
2036
2038
2050
2073
2093
2099
2085
2055
2021
1995
1984
1987
1998
2011
2021
2029
2035
2039
2041
2042
2042
2041
2041
2040
2040
2041
2045
2048
2051
2051
2048
2046
2043
2042
2044
2044
2045
2045
2045
2045
2045
2045
2045
2045
2045
2045
2044
2044
2044
2044
2044
2045
2045
2045
2044
2042
2041
2043
2047
2049
2049
2048
2045
2041
2039
2041
2041
2041
2040
2040
2039
2039
2038
2038
2037
2036
2036
2035
2034
2033
2032
2031
2033
2033
2032
2030
2028
2028
2031
2036
2042
2045
2044
2041
2039
2037
2039
2040
2041
2041
2041
2042
2042
2043
2043
2044
2043
2043
2042
2042
2042
2043
2043
2044
2045
2045
2043
2041
2040
2041
2043
2047
2048
2047
2045
2043
2041
2042
2042
2042
2041
2041
2041
2041
2041
2041
2041
2041
2041
2040
2040
2039
2038
2039
2041
2040
2039
2037
2036
2037
2040
2043
2044
2042
2039
2037
2035
2037
2039
2038
2038
2038
2038
2038
2038
2036
2037
2036
2036
2037
2037
2037
2038
2038
2038
2037
2037
2036
2036
2034
2033
2034
2037
2040
2043
2044
2042
2039
2036
2034
2035
2035
2036
2036
2036
2036
2036
2036
2036
2037
2036
2035
2033
2039
2054
2075
2093
2099
2083
2051
2013
1983
1970
1975
1989
2005
2016
2023
2028
2031
2032
2036
2037
2038
2038
2038
2038
2039
2039
2040
2040
2039
2038
2038
2039
2040
2041
2040
2041
2040
2039
2038
2038
2037
2039
2041
2044
2045
2044
2041
2038
2038
2038
2040
2040
2040
2040
2039
2039
2039
2040
2040
2041
2042
2041
2042
2042
2041
2038
2036
2035
2035
2034
2032
2030
2029
2031
2034
2035
2035
2032
2028
2025
2024
2025
2026
2026
2026
2026
2026
2027
2028
2030
2031
2032
2033
2033
2033
2033
2033
2033
2036
2035
2035
2034
2032
2031
2033
2037
2040
2042
2041
2038
2036
2033
2035
2036
2035
2036
2036
2036
2036
2036
2037
2037
2037
2037
2036
2036
2037
2037
2037
2038
2038
2038
2037
2035
2035
2035
2036
2038
2040
2040
2039
2037
2035
2035
2035
2036
2036
2036
2036
2037
2037
2037
2037
2036
2035
2035
2035
2035
2036
2035
2036
2036
2036
2035
2034
2033
2033
2034
2036
2039
2039
2038
2036
2034
2033
2034
2033
2034
2034
2035
2035
2035
2035
2035
2035
2034
2034
2034
2034
2034
2034
2035
2037
2038
2038
2036
2034
2034
2036
2040
2042
2041
2039
2036
2033
2032
2032
2032
2033
2033
2034
2035
2035
2033
2033
2040
2056
2077
2091
2089
2067
2034
2001
1982
1978
1987
1998
2008
2017
2025
2033
2040
2043
2042
2039
2036
2034
2036
2037
2040
2040
2040
2040
2040
2040
2040
2039
2039
2040
2040
2040
2041
2041
2040
2042
2042
2040
2038
2036
2036
2038
2042
2046
2047
2045
2042
2039
2037
2040
2041
2042
2042
2042
2042
2042
2041
2041
2041
2042
2042
2042
2041
2041
2041
2040
2040
2040
2039
2038
2036
2035
2035
2035
2036
2037
2035
2033
2031
2031
2032
2033
2034
2034
2035
2035
2036
2036
2037
2037
2037
2038
2038
2039
2039
2039
2039
2039
2039
2039
2039
2038
2037
2038
2039
2041
2042
2042
2041
2040
2039
2039
2039
2039
2039
2039
2039
2038
2039
2039
2039
2039
2039
2040
2039
2039
2039
2038
2038
2039
2039
2039
2038
2037
2036
2038
2040
2042
2042
2041
2039
2038
2038
2039
2040
2040
2039
2038
2038
2038
2039
2039
2039
2039
2039
2039
2039
2039
2038
2038
2040
2039
2039
2038
2037
2037
2039
2041
2041
2041
2039
2038
2038
2038
2040
2040
2039
2039
2039
2039
2039
2039
2039
2039
2039
2039
2038
2038
2038
2039
2039
2040
2041
2040
2039
2038
2037
2038
2039
2041
2042
2042
2040
2040
2039
2039
2040
2041
2041
2041
2042
2042
2041
2041
2040
2040
2039
2039
2039
2039
2038
2039
2040
2042
2042
2039
2036
2039
2051
2074
2095
2103
2087
2054
2016
1989
1979
1986
2001
2015
2024
2031
2035
2038
2039
2042
2042
2042
2042
2043
2044
2044
2045
2046
2047
2045
2046
2043
2041
2041
2043
2048
2051
2053
2051
2048
2045
2044
2045
2045
2048
2047
2047
2046
2047
2047
2046
2046
2046
2046
2046
2047
2047
2048
2047
2048
2048
2047
2044
2042
2042
2045
2049
2052
2051
2048
2044
2040
2038
2040
2041
2041
2040
2040
2039
2038
2036
2036
2036
2036
2036
2036
2037
2038
2039
2040
2041
2042
2042
2042
2041
2041
2043
2046
2048
2049
2048
2046
2045
2044
2046
2047
2048
2047
2047
2047
2046
2046
2046
2047
2047
2048
2047
2047
2047
2047
2047
2047
2047
2047
2046
2045
2044
2045
2046
2048
2048
2048
2046
2044
2042
2044
2045
2045
2043
2041
2039
2039
2043
2047
2049
2048
2046
2043
2040
2040
2041
2043
2043
2043
2044
2043
2043
2042
2041
2042
2044
2045
2045
2044
2043
2042
2042
2042
2042
2042
2042
2042
2042
2041
2042
2042
2042
2042
2042
2042
2041
2041
2041
2041
2042
2042
2042
2041
2041
2041
2042
2043
2043
2042
2041
2041
2042
2042
2044
2043
2042
2041
2041
2041
2041
2041
2041
2041
2040
2040
2040
2040
2040
2041
2041
2040
2038
2039
2048
2064
2084
2096
2092
2069
2037
2005
1985
1982
1990
2002
2015
2024
2032
2036
2040
2041
2041
2041
2041
2042
2043
2043
2044
2043
2043
2043
2044
2045
2045
2044
2042
2040
2039
2041
2044
2047
2047
2045
2042
2040
2039
2040
2041
2043
2044
2044
2044
2043
2043
2043
2044
2044
2044
2045
2045
2046
2046
2046
2047
2046
2046
2044
2042
2042
2043
2046
2048
2049
2048
2045
2041
2038
2038
2038
2039
2038
2038
2037
2036
2035
2035
2035
2035
2036
2037
2038
2039
2039
2039
2042
2043
2043
2042
2041
2041
2043
2046
2048
2049
2048
2047
2045
2043
2045
2045
2046
2046
2046
2046
2046
2045
2045
2045
2045
2045
2045
2045
2045
2044
2043
2044
2044
2045
2043
2041
2038
2037
2039
2045
2048
2048
2045
2040
2036
2036
2037
2040
2039
2039
2038
2038
2038
2038
2038
2038
2038
2038
2038
2038
2038
2036
2038
2038
2038
2037
2035
2035
2035
2038
2040
2041
2040
2038
2036
2035
2037
2038
2038
2038
2038
2038
2038
2038
2038
2038
2039
2039
2040
2039
2039
2038
2038
2038
2038
2038
2039
2037
2036
2036
2036
2039
2041
2041
2039
2037
2035
2035
2036
2037
2038
2038
2038
2038
2038
2038
2038
2038
2038
2037
2036
2036
2035
2035
2035
2036
2037
2038
2036
2033
2031
2037
2052
2075
2094
2097
2080
2048
2013
1989
1981
1987
1999
2012
2022
2029
2035
2038
2040
2041
2041
2041
2041
2042
2042
2042
2044
2044
2044
2043
2041
2040
2041
2043
2046
2046
2045
2043
2042
2042
2042
2043
2042
2042
2042
2043
2043
2044
2044
2044
2043
2043
2042
2042
2043
2043
2044
2044
2045
2045
2044
2043
2042
2041
2043
2046
2048
2048
2047
2044
2042
2040
2039
2038
2038
2039
2040
2041
2041
2039
2036
2034
2033
2032
2035
2035
2036
2036
2037
2038
2038
2039
2038
2037
2038
2041
2045
2047
2047
2046
2044
2043
2042
2044
2044
2045
2045
2045
2044
2044
2044
2045
2045
2045
2046
2045
2045
2045
2045
2044
2045
2045
2045
2043
2042
2041
2042
2044
2047
2047
2045
2043
2042
2040
2042
2042
2042
2042
2042
2042
2041
2041
2040
2040
2041
2041
2041
2041
2041
2041
2040
2041
2042
2042
2041
2037
2035
2035
2039
2044
2048
2048
2045
2040
2037
2037
2039
2039
2041
2040
2040
2039
2039
2039
2040
2041
2042
2042
2042
2042
2041
2040
2040
2040
2040
2039
2038
2037
2037
2038
2040
2042
2042
2040
2035
2033
2040
2057
2080
2098
2100
2082
2048
2014
1989
1979
1983
1994
2005
2015
2023
2030
2035
2038
2040
2040
2040
2040
2040
2040
2042
2043
2045
2044
2043
2042
2041
2041
2042
2042
2042
2041
2040
2040
2040
2041
2042
2043
2043
2042
2042
2041
2041
2041
2041
2041
2042
2042
2042
2041
2040
2040
2041
2043
2045
2044
2044
2043
2041
2042
2042
2043
2042
2042
2041
2041
2040
2040
2039
2039
2038
2036
2035
2034
2033
2031
2032
2032
2031
2030
2029
2028
2029
2032
2034
2036
2036
2035
2036
2036
2038
2038
2038
2038
2039
2039
2039
2040
2040
2040
2040
2040
2039
2040
2040
2040
2041
2042
2044
2044
2043
2041
2039
2038
2040
2043
2046
2047
2045
2042
2042
2040
2040
2039
2040
2041
2043
2044
2044
2043
2042
2040
2039
2039
2042
2043
2041
2039
2038
2040
2042
2046
2047
2043
2039
2037
2038
2042
2045
2047
2043
2040
2037
2038
2038
2038
2040
2040
2040
2040
2040
2039
2039
2039
2040
2040
2040
2040
2039
2039
2040
2040
2040
2039
2038
2038
2040
2043
2046
2046
2044
2041
2039
2037
2038
2039
2040
2039
2039
2039
2040
2039
2037
2035
2036
2046
2063
2084
2097
2090
2064
2032
2000
1984
1982
1990
2000
2011
2022
2034
2043
2047
2045
2041
2037
2037
2037
2041
2041
2041
2041
2041
2041
2041
2041
2042
2042
2042
2042
2042
2041
2042
2042
2043
2043
2042
2041
2041
2041
2042
2044
2045
2045
2044
2043
2042
2042
2043
2044
2044
2043
2043
2043
2043
2043
2044
2044
2044
2044
2044
2044
2043
2042
2042
2042
2042
2041
2040
2038
2037
2037
2038
2039
2038
2036
2034
2033
2032
2033
2033
2034
2034
2034
2035
2036
2037
2038
2039
2039
2039
2039
2039
2039
2039
2039
2040
2040
2041
2040
2039
2038
2038
2040
2041
2042
2042
2041
2040
2039
2039
2040
2040
2040
2040
2040
2041
2041
2041
2041
2040
2040
2040
2040
2040
2040
2039
2041
2041
2040
2039
2038
2037
2038
2040
2042
2042
2041
2040
2039
2039
2039
2040
2039
2040
2040
2040
2040
2040
2040
2040
2040
2039
2039
2038
2038
2038
2038
2039
2040
2040
2040
2038
2036
2036
2037
2040
2043
2043
2042
2040
2038
2037
2037
2037
2038
2038
2039
2040
2041
2041
2040
2040
2040
2040
2041
2041
2040
2040
2039
2040
2039
2039
2037
2035
2034
2036
2040
2044
2043
2040
2039
2046
2062
2083
2094
2087
2060
2026
1996
1981
1982
1992
2006
2017
2026
2032
2036
2039
2039
2039
2041
2041
2041
2041
2040
2039
2041
2044
2046
2047
2046
2043
2041
2040
2041
2042
2043
2043
2043
2043
2043
2043
2043
2043
2043
2044
2044
2044
2044
2044
2044
2045
2046
2046
2044
2041
2038
2039
2043
2048
2052
2053
2049
2045
2041
2041
2043
2044
2044
2043
2042
2042
2041
2041
2041
2040
2040
2039
2038
2037
2036
2035
2035
2035
2035
2035
2035
2035
2036
2038
2040
2041
2041
2040
2039
2038
2040
2041
2041
2041
2041
2041
2041
2041
2041
2041
2041
2042
2042
2041
2041
2040
2039
2041
2042
2042
2041
2040
2039
2039
2040
2042
2043
2043
2042
2040
2040
2040
2041
2040
2040
2040
2040
2040
2040
2040
2040
2040
2040
2039
2039
2038
2038
2038
2039
2039
2038
2038
2037
2036
2036
2037
2039
2041
2041
2040
2039
2037
2036
2036
2036
2037
2037
2037
2038
2038
2038
2038
2038
2038
2038
2038
2038
2038
2038
2038
2039
2039
2038
2036
2035
2035
2037
2040
2042
2042
2041
2039
2038
2039
2039
2039
2039
2039
2040
2040
2040
2040
2040
2040
2040
2041
2041
2042
2042
2043
2043
2044
2044
2044
2043
2041
2039
2038
2038
2041
2044
2045
2045
2043
2038
2038
2038
2046
2063
2083
2097
2095
2074
2043
2011
1991
1987
1995
2008
2021
2029
2035
2038
2043
2043
2043
2042
2041
2041
2043
2045
2048
2049
2049
2048
2045
2043
2043
2043
2045
2045
2046
2046
2046
2045
2044
2045
2044
2045
2045
2046
2045
2045
2044
2046
2046
2046
2045
2043
2043
2044
2047
2048
2049
2048
2046
2044
2043
2044
2045
2046
2045
2045
2044
2043
2042
2042
2041
2041
2040
2040
2040
2039
2038
2037
2037
2036
2038
2035
2032
2030
2030
2034
2040
2045
2046
2043
2039
2037
2038
2039
2043
2043
2042
2043
2043
2043
2043
2043
2044
2044
2044
2044
2045
2045
2045
2045
2045
2046
2045
2044
2044
2044
2045
2047
2048
2047
2046
2044
2043
2043
2044
2045
2045
2044
2044
2043
2043
2043
2043
2043
2043
2043
2043
2043
2043
2043
2042
2043
2044
2043
2042
2041
2041
2041
2043
2044
2045
2044
2043
2041
2038
2038
2039
2042
2045
2047
2046
2043
2040
2039
2040
2041
2042
2041
2041
2040
2041
2041
2042
2041
2041
2040
2039
2039
2040
2042
2044
2045
2044
2042
2041
2039
2040
2039
2039
2039
2038
2038
2038
2038
2039
2040
2040
2037
2036
2041
2055
2076
2094
2100
2084
2051
2015
1987
1975
1979
1991
2004
2015
2023
2030
2034
2037
2039
2039
2039
2039
2040
2041
2042
2042
2043
2042
2042
2042
2042
2042
2042
2042
2042
2043
2044
2044
2044
2042
2040
2040
2042
2045
2048
2048
2046
2044
2041
2041
2042
2042
2043
2043
2043
2044
2045
2047
2047
2046
2045
2044
2044
2043
2045
2044
2043
2045
2043
2041
2038
2036
2036
2039
2043
2045
2043
2038
2034
2032
2030
2032
2032
2032
2032
2032
2033
2034
2035
2035
2036
2037
2038
2038
2039
2040
2040
2040
2041
2041
2041
2039
2037
2038
2040
2043
2046
2046
2044
2041
2039
2039
2041
2042
2043
2042
2042
2042
2042
2041
2041
2042
2042
2042
2042
2042
2042
2042
2042
2043
2044
2043
2042
2038
2036
2036
2041
2046
2048
2048
2046
2041
2038
2038
2039
2040
2042
2041
2041
2041
2041
2041
2041
2041
2041
2041
2041
2041
2041
2041
2041
2042
2042
2042
2041
2040
2040
2041
2043
2044
2044
2043
2042
2041
2041
2041
2041
2042
2041
2041
2041
2041
2041
2041
2041
2041
2041
2041
2041
2041
2040
2040
2041
2042
2043
2042
2042
2043
2043
2045
2045
2045
2044
2042
2042
2041
2043
2043
2042
2041
2040
2040
2040
2040
2041
2047
2061
2081
2097
2098
2081
2049
2016
1992
1985
1993
2005
2017
2026
2034
2041
2047
2049
2048
2046
2044
2043
2044
2045
2046
2046
2046
2046
2046
2046
2047
2047
2047
2047
2047
2046
2046
2047
2047
2048
2048
2048
2046
2044
2044
2044
2047
2049
2052
2052
2050
2048
2047
2046
2047
2048
2048
2048
2048
2048
2048
2048
2048
2048
2048
2047
2047
2046
2046
2047
2047
2048
2047
2045
2043
2041
2041
2043
2045
2045
2044
2041
2039
2038
2038
2041
2041
2041
2042
2042
2043
2045
2046
2047
2047
2045
2045
2045
2045
2047
2047
2047
2048
2047
2048
2046
2043
2042
2043
2046
2051
2054
2054
2050
2046
2043
2043
2044
2046
2046
2046
2045
2045
2045
2045
2045
2045
2045
2045
2045
2045
2045
2044
2045
2045
2045
2043
2041
2040
2042
2046
2049
2051
2050
2047
2043
2040
2041
2042
2044
2044
2044
2044
2043
2043
2043
2043
2044
2044
2044
2043
2043
2043
2042
2044
2045
2046
2044
2040
2038
2038
2041
2047
2051
2051
2048
2044
2040
2039
2039
2042
2043
2042
2042
2041
2041
2041
2042
2042
2042
2042
2041
2041
2041
2041
2042
2042
2042
2040
2039
2038
2039
2042
2045
2046
2045
2042
2040
2038
2040
2041
2043
2043
2042
2041
2041
2040
2040
2039
2039
2039
2039
2039
2039
2040
2040
2040
2038
2037
2041
2052
2072
2090
2094
2080
2050
2016
1990
1980
1985
1998
2012
2022
2029
2033
2036
2037
2038
2038
2039
2040
2040
2041
2041
2041
2041
2041
2041
2042
2042
2042
2041
2040
2040
2042
2045
2047
2048
2046
2043
2042
2041
2042
2042
2043
2042
2042
2042
2042
2043
2043
2043
2043
2043
2043
2043
2043
2043
2043
2045
2044
2043
2042
2041
2041
2043
2045
2046
2045
2042
2040
2038
2038
2039
2038
2037
2036
2036
2035
2035
2035
2035
2034
2034
2035
2035
2037
2037
2038
2039
2040
2043
2044
2044
2042
2039
2038
2041
2045
2048
2050
2048
2045
2042
2041
2042
2043
2045
2045
2044
2044
2043
2043
2043
2043
2043
2043
2044
2045
2044
2044
2044
2045
2044
2043
2041
2040
2039
2041
2044
2047
2048
2048
2045
2041
2037
2037
2037
2039
2040
2042
2041
2041
2041
2040
2040
2040
2041
2041
2040
2038
2037
2037
2042
2045
2047
2044
2039
2036
2035
2039
2042
2044
2043
2041
2039
2037
2038
2038
2039
2040
2039
2039
2039
2038
2038
2038
2039
2039
2039
2039
2040
2040
2039
2039
2039
2039
2038
2037
2037
2038
2040
2042
2043
2042
2041
2039
2039
2040
2041
2041
2040
2039
2039
2038
2038
2038
2038
2038
2039
2039
2040
2040
2037
2035
2037
2049
2068
2088
2097
2089
2064
2033
2005
1989
1985
1990
1999
2008
2016
2028
2034
2038
2039
2040
2040
2040
2041
2042
2042
2043
2043
2043
2043
2043
2043
2043
2044
2044
2044
2043
2042
2041
2042
2045
2047
2047
2046
2044
2043
2041
2043
2043
2044
2044
2044
2044
2044
2044
2044
2044
2045
2045
2045
2045
2045
2044
2043
2045
2045
2045
2043
2041
2040
2040
2040
2042
2043
2041
2039
2037
2035
2035
2034
2034
2033
2032
2032
2032
2032
2032
2033
2033
2033
2034
2035
2036
2037
2038
2040
2041
2041
2039
2037
2035
2037
2040
2044
2046
2045
2042
2039
2038
2039
2040
2040
2040
2040
2040
2041
2041
2041
2042
2042
2041
2041
2041
2041
2041
2041
2042
2042
2041
2040
2038
2036
2035
2037
2040
2043
2044
2043
2041
2038
2039
2039
2040
2041
2040
2039
2038
2037
2038
2039
2040
2042
2042
2041
2041
2040
2039
2041
2041
2041
2039
2037
2036
2036
2039
2043
2046
2046
2043
2039
2037
2037
2039
2041
2042
2041
2041
2040
2040
2039
2039
2040
2040
2041
2041
2041
2041
2040
2039
2040
2040
2039
2038
2037
2037
2039
2042
2044
2044
2041
2039
2037
2037
2040
2041
2042
2041
2041
2040
2040
2039
2039
2038
2038
2038
2038
2038
2038
2038
2038
2039
2039
2036
2036
2039
2052
2073
2093
2098
2083
2050
2012
1984
1974
1981
1997
2010
2021
2028
2033
2036
2038
2039
2040
2040
2041
2041
2040
2040
2040
2041
2041
2042
2043
2042
2041
2041
2042
2043
2045
2046
2046
2044
2042
2040
2040
2041
2043
2044
2043
2043
2042
2041
2042
2043
2044
2045
2046
2045
2045
2044
2043
2043
2044
2044
2045
2045
2044
2042
2042
2043
2045
2046
2046
2044
2042
2040
2040
2038
2038
2037
2036
2034
2033
2032
2031
2032
2033
2034
2034
2034
2033
2034
2036
2038
2040
2040
2038
2035
2034
2036
2039
2042
2043
2043
2041
2040
2038
2039
2039
2039
2038
2037
2037
2038
2038
2039
2039
2039
2038
2037
2037
2038
2040
2040
2042
2041
2040
2038
2037
2037
2039
2041
2042
2041
2040
2038
2038
2038
2039
2038
2037
2037
2037
2037
2038
2038
2038
2036
2036
2036
2037
2039
2040
2040
2039
2037
2037
2037
2037
2036
2035
2034
2035
2038
2039
2041
2040
2038
2037
2036
2037
2037
2038
2037
2039
2038
2038
2037
2037
2038
2039
2040
2041
2040
2038
2037
2036
2037
2040
2039
2038
2037
2037
2038
2040
2042
2042
2041
2039
2038
2038
2039
2041
2041
2042
2042
2041
2040
2039
2038
2038
2038
2039
2039
2039
2038
2039
2038
2038
2036
2041
2053
2073
2093
2100
2088
2059
2024
1995
1980
1981
1991
2005
2016
2026
2033
2038
2041
2042
2041
2041
2042
2043
2044
2045
2046
2046
2046
2045
2046
2046
2045
2044
2043
2043
2045
2047
2049
2049
2048
2046
2044
2044
2046
2047
2048
2048
2047
2046
2045
2044
2045
2046
2047
2048
2047
2047
2046
2046
2047
2048
2048
2048
2047
2044
2043
2043
2046
2048
2048
2046
2042
2039
2038
2038
2040
2039
2038
2036
2034
2032
2032
2032
2032
2033
2033
2034
2035
2036
2037
2038
2038
2039
2041
2040
2039
2038
2037
2039
2044
2048
2049
2048
2044
2041
2039
2042
2043
2044
2043
2043
2044
2044
2044
2044
2043
2042
2042
2042
2042
2043
2043
2042
2044
2044
2044
2042
2040
2039
2040
2042
2046
2048
2047
2043
2038
2035
2036
2041
2045
2047
2045
2042
2040
2038
2039
2041
2042
2041
2039
2038
2038
2039
2040
2042
2042
2043
2041
2039
2038
2039
2041
2043
2044
2044
2042
2041
2040
2041
2041
2041
2041
2041
2041
2042
2043
2043
2043
2042
2042
2042
2043
2044
2044
2044
2044
2044
2045
2045
2043
2040
2038
2039
2041
2045
2046
2046
2044
2042
2040
2038
2037
2044
2058
2080
2097
2100
2082
2048
2012
1985
1976
1983
1997
2011
2021
2027
2033
2037
2039
2041
2040
2040
2042
2044
2046
2046
2046
2044
2043
2042
2042
2043
2044
2045
2045
2045
2045
2045
2045
2046
2046
2046
2046
2045
2045
2045
2044
2046
2047
2047
2046
2044
2044
2046
2048
2052
2053
2052
2049
2047
2044
2046
2046
2047
2048
2048
2049
2048
2048
2048
2047
2047
2046
2046
2045
2045
2043
2041
2040
2040
2038
2037
2036
2036
2037
2040
2044
2046
2045
2043
2041
2040
2042
2044
2044
2044
2043
2043
2043
2045
2046
2047
2047
2046
2046
2046
2046
2046
2046
2045
2047
2046
2044
2043
2042
2043
2046
2049
2051
2050
2047
2043
2041
2040
2042
2043
2043
2044
2044
2043
2043
2042
2042
2042
2042
2042
2042
2041
2041
2041
2040
2042
2043
2043
2043
2042
2041
2041
2043
2045
2046
2046
2044
2042
2041
2042
2042
2042
2042
2042
2042
2043
2043
2044
2044
2044
2043
2043
2043
2043
2043
2043
2044
2044
2043
2042
2041
2040
2041
2042
2044
2045
2045
2044
2043
2042
2043
2043
2044
2043
2043
2043
2043
2043
2043
2043
2042
2042
2041
2040
2041
2042
2043
2045
2046
2047
2045
2044
2043
2042
2043
2044
2045
2044
2042
2041
2040
2040
2041
2042
2041
2040
2039
2046
2060
2081
2097
2098
2080
2048
2013
1990
1984
1991
2006
2019
2029
2034
2036
2037
2038
2040
2045
2048
2050
2048
2046
2044
2043
2044
2044
2045
2045
2045
2045
2045
2045
2044
2042
2041
2041
2042
2045
2047
2046
2046
2045
2043
2041
2039
2040
2041
2043
2046
2047
2046
2044
2042
2041
2041
2042
2042
2042
2042
2043
2043
2043
2042
2041
2041
2040
2040
2040
2041
2041
2041
2040
2041
2039
2039
2037
2035
2035
2036
2039
2042
2042
2041
2038
2036
2035
2037
2039
2041
2042
2042
2043
2044
2044
2045
2045
2046
2046
2047
2048
2048
2048
2048
2047
2048
2047
2047
2043
2041
2041
2045
2050
2054
2055
2051
2046
2043
2042
2044
2044
2046
2045
2045
2044
2044
2043
2043
2043
2043
2042
2042
2042
2042
2042
2043
2043
2042
2041
2040
2039
2039
2039
2041
2041
2041
2039
2038
2037
2037
2038
2038
2038
2038
2037
2038
2038
2038
2038
2039
2039
2039
2039
2039
2038
2039
2038
2039
2039
2039
2038
2037
2037
2039
2041
2042
2042
2040
2039
2039
2039
2040
2040
2041
2040
2040
2041
2041
2041
2041
2041
2041
2041
2041
2042
2042
2042
2042
2042
2041
2041
2041
2040
2040
2041
2042
2044
2045
2045
2044
2042
2040
2040
2040
2040
2039
2039
2039
2039
2039
2040
2041
2040
2038
2035
2037
2048
2068
2089
2101
2093
2066
2030
1999
1983
1983
1995
2009
2021
2028
2035
2039
2042
2043
2043
2043
2043
2044
2045
2047
2048
2048
2048
2047
2047
2046
2047
2047
2048
2048
2048
2049
2049
2048
2047
2045
2045
2046
2049
2051
2052
2050
2048
2048
2047
2048
2049
2049
2050
2050
2050
2050
2050
2050
2050
2049
2049
2049
2049
2050
2050
2050
2050
2049
2048
2046
2045
2044
2045
2046
2047
2046
2044
2041
2039
2038
2038
2038
2038
2038
2038
2039
2039
2040
2041
2041
2041
2042
2043
2044
2044
2045
2044
2046
2045
2045
2044
2043
2043
2044
2046
2048
2048
2048
2046
2044
2043
2045
2045
2046
2045
2045
2045
2045
2044
2044
2045
2045
2045
2043
2040
2040
2041
2044
2048
2049
2047
2044
2039
2037
2039
2042
2046
2046
2045
2043
2041
2040
2039
2040
2040
2041
2040
2040
2040
2039
2039
2039
2040
2040
2040
2040
2039
2039
2038
2039
2039
2039
2038
2036
2035
2036
2039
2042
2043
2042
2040
2038
2035
2037
2038
2039
2038
2038
2037
2037
2037
2038
2039
2040
2040
2040
2040
2039
2039
2038
2037
2039
2038
2037
2035
2033
2033
2036
2041
2045
2044
2039
2033
2035
2048
2071
2090
2095
2080
2049
2013
1987
1976
1981
1994
2007
2018
2025
2031
2035
2038
2038
2040
2040
2040
2038
2037
2037
2039
2042
2045
2046
2044
2043
2040
2040
2041
2041
2042
2042
2042
2042
2042
2043
2043
2043
2043
2043
2042
2042
2042
2042
2042
2043
2044
2044
2042
2040
2039
2041
2045
2048
2050
2049
2047
2044
2042
2043
2044
2044
2044
2044
2044
2044
2043
2042
2041
2040
2040
2039
2038
2038
2037
2037
2037
2037
2037
2036
2035
2033
2033
2035
2038
2041
2043
2042
2040
2038
2038
2038
2039
2040
2040
2040
2040
2040
2040
2040
2040
2038
2041
2040
2040
2039
2038
2038
2040
2041
2041
2040
2037
2036
2037
2037
2042
2041
2041
2039
2038
2037
2038
2038
2038
2038
2039
2039
2039
2038
2038
2038
2038
2038
2039
2039
2039
2039
2038
2038
2038
2038
2037
2037
2037
2037
2039
2040
2041
2040
2038
2037
2036
2037
2037
2038
2038
2037
2037
2037
2037
2037
2037
2037
2037
2037
2037
2037
2037
2036
2037
2037
2038
2037
2035
2034
2035
2037
2040
2041
2039
2037
2035
2035
2035
2036
2037
2037
2037
2037
2037
2037
2036
2036
2037
2037
2037
2038
2037
2037
2037
2036
2038
2039
2039
2038
2037
2037
2039
2042
2043
2042
2039
2036
2036
2036
2038
2039
2038
2038
2039
2038
2036
2034
2038
2050
2070
2089
2095
2081
2050
2016
1990
1981
1986
1998
2010
2018
2025
2032
2038
2042
2043
2042
2040
2040
2039
2041
2041
2042
2041
2041
2041
2042
2042
2042
2042
2042
2042
2042
2042
2042
2042
2042
2044
2044
2044
2042
2040
2039
2042
2045
2048
2048
2048
2045
2043
2042
2043
2044
2044
2044
2044
2044
2045
2045
2045
2045
2045
2044
2043
2043
2043
2042
2042
2043
2043
2042
2040
2038
2036
2036
2038
2040
2041
2040
2038
2036
2035
2036
2036
2037
2038
2039
2040
2041
2042
2043
2044
2044
2044
2044
2044
2044
2045
2044
2046
2048
2048
2046
2043
2041
2042
2046
2051
2055
2055
2051
2047
2044
2043
2044
2045
2047
2046
2046
2046
2046
2047
2047
2047
2047
2046
2047
2047
2047
2046
2047
2047
2047
2047
2047
2046
2046
2047
2048
2049
2049
2048
2046
2044
2044
2045
2046
2047
2047
2047
2047
2047
2046
2046
2046
2046
2046
2046
2046
2047
2046
2047
2047
2046
2046
2045
2044
2043
2045
2048
2049
2050
2048
2046
2044
2043
2044
2045
2046
2046
2046
2046
2046
2046
2046
2046
2046
2047
2047
2047
2047
2047
2046
2048
2048
2048
2047
2046
2045
2046
2049
2052
2052
2050
2048
2045
2043
2045
2046
2047
2048
2047
2045
2043
2048
2063
2085
2103
2108
2092
2060
2024
1997
1985
1987
1998
2010
2020
2028
2035
2040
2046
2049
2051
2051
2049
2048
2048
2048
2048
2048
2049
2048
2049
2048
2049
2048
2048
2049
2050
2050
2050
2050
2050
2049
2049
2051
2052
2052
2050
2049
2049
2050
2053
2055
2055
2054
2052
2051
2049
2052
2052
2053
2052
2052
2052
2052
2052
2052
2052
2051
2051
2050
2050
2049
2048
2048
2049
2048
2048
2045
2043
2041
2042
2045
2048
2048
2046
2043
2042
2041
2042
2044
2044
2045
2046
2047
2048
2048
2049
2049
2049
2049
2049
2049
2049
2050
2050
2051
2052
2051
2050
2048
2048
2048
2052
2056
2057
2054
2049
2046
2046
2048
2053
2054
2053
2050
2048
2047
2048
2049
2050
2049
2048
2048
2048
2048
2048
2048
2048
2049
2049
2048
2047
2046
2046
2048
2050
2053
2053
2050
2048
2046
2045
2046
2046
2047
2047
2047
2047
2047
2047
2047
2047
2046
2046
2046
2047
2047
2047
2046
2046
2045
2045
2045
2046
2046
2047
2048
2048
2048
2048
2046
2045
2044
2045
2045
2046
2046
2046
2045
2045
2045
2045
2046
2046
2047
2047
2047
2047
2047
2046
2046
2045
2045
2044
2043
2043
2044
2045
2048
2048
2048
2044
2040
2044
2056
2078
2098
2102
2087
2055
2020
1994
1984
1989
2002
2016
2026
2034
2040
2044
2045
2045
2044
2044
2043
2043
2044
2047
2049
2053
2054
2053
2050
2048
2047
2047
2048
2049
2049
2048
2048
2048
2048
2049
2049
2049
2050
2050
2050
2050
2050
2050
2050
2052
2052
2051
2049
2048
2049
2052
2056
2059
2059
2057
2055
2052
2052
2053
2052
2053
2052
2052
2052
2051
2050
2050
2050
2050
2049
2049
2048
2048
2046
2046
2047
2047
2046
2044
2042
2042
2044
2048
2052
2053
2051
2049
2048
2047
2048
2049
2050
2050
2050
2050
2050
2050
2050
2050
2050
2050
2050
2050
2050
2050
2049
2051
2051
2050
2048
2047
2047
2048
2052
2056
2057
2054
2051
2048
2047
2048
2048
2048
2048
2048
2049
2049
2049
2049
2048
2048
2048
2048
2048
2047
2048
2048
2048
2048
2049
2048
2045
2043
2044
2048
2051
2054
2053
2050
2047
2045
2045
2045
2046
2046
2046
2047
2047
2047
2047
2046
2046
2045
2045
2045
2045
2045
2045
2045
2048
2048
2047
2044
2042
2041
2044
2048
2052
2052
2049
2046
2043
2041
2043
2044
2045
2045
2045
2046
2045
2045
2046
2045
2045
2044
2044
2045
2046
2046
2046
2047
2047
2047
2046
2044
2044
2044
2045
2046
2045
2043
2042
2039
2037
2039
2041
2042
2040
2038
2042
2054
2074
2091
2096
2082
2052
2018
1993
1982
1987
1998
2012
2022
2030
2034
2037
2039
2040
2043
2046
2047
2046
2044
2042
2041
2042
2043
2044
2044
2044
2043
2043
2043
2043
2043
2044
2044
2044
2043
2043
2043
2043
2045
2045
2046
2044
2042
2040
2041
2044
2048
2049
2048
2045
2042
2040
2041
2042
2044
2044
2043
2043
2043
2042
2043
2043
2043
2042
2042
2040
2039
2038
2037
2036
2037
2037
2035
2032
2030
2030
2032
2035
2038
2038
2036
2033
2031
2030
2032
2033
2035
2035
2035
2035
2035
2035
2036
2037
2037
2037
2037
2036
2036
2036
2036
2038
2039
2038
2036
2033
2033
2034
2038
2041
2042
2040
2037
2034
2032
2035
2036
2036
2036
2036
2035
2035
2035
2035
2035
2035
2035
2035
2035
2034
2034
2033
2035
2035
2034
2033
2031
2031
2033
2037
2041
2043
2041
2037
2033
2031
2031
2033
2033
2034
2035
2035
2034
2034
2034
2035
2036
2037
2036
2034
2032
2031
2031
2033
2033
2034
2033
2031
2031
2031
2033
2036
2037
2037
2035
2035
2035
2035
2035
2034
2034
2033
2033
2033
2034
2034
2034
2034
2033
2034
2034
2034
2035
2034
2035
2036
2036
2035
2031
2028
2028
2031
2036
2040
2040
2036
2033
2030
2028
2028
2029
2040
2057
2079
2093
2087
2062
2026
1991
1970
1967
1977
1992
2004
2014
2022
2028
2031
2031
2031
2032
2034
2037
2040
2042
2042
2041
2038
2037
2036
2037
2038
2039
2039
2039
2039
2039
2039
2039
2039
2039
2039
2040
2040
2041
2041
2041
2042
2041
2041
2040
2040
2041
2043
2045
2047
2047
2046
2044
2043
2043
2045
2046
2047
2047
2047
2046
2045
2044
2044
2044
2044
2044
2044
2043
2043
2042
2042
2042
2041
2040
2039
2037
2036
2036
2037
2040
2042
2042
2041
2039
2038
2039
2040
2041
2042
2042
2042
2043
2043
2044
2045
2045
2042
2040
2040
2041
2045
2048
2049
2049
2047
2044
2041
2041
2043
2046
2048
2049
2048
2047
2045
2044
2044
2046
2046
2046
2046
2046
2046
2047
2047
2047
2047
2048
2048
2047
2046
2046
2046
2046
2048
2048
2048
2047
2046
2046
2047
2048
2050
2051
2050
2048
2047
2045
2047
2047
2047
2046
2046
2047
2048
2048
2048
2048
2048
2048
2047
2047
2047
2047
2047
2049
2050
2050
2048
2047
2047
2048
2051
2053
2054
2052
2050
2049
2048
2049
2050
2049
2049
2049
2050
2051
2052
2053
2054
2054
2053
2052
2051
2051
2051
2051
2052
2052
2052
2051
2049
2048
2050
2051
2052
2051
2054
2066
2086
2104
2110
2096
2063
2026
1997
1986
1991
2006
2021
2032
2040
2045
2048
2049
2050
2050
2051
2052
2055
2055
2055
2053
2051
2050
2053
2057
2060
2060
2057
2054
2051
2050
2053
2052
2053
2053
2053
2053
2054
2054
2053
2053
2052
2052
2053
2053
2054
2053
2052
2052
2052
2052
2052
2051
2051
2052
2053
2055
2056
2055
2053
2051
2049
2049
2049
2050
2049
2049
2048
2048
2048
2047
2047
2046
2045
2045
2044
2044
2044
2044
2044
2044
2044
2043
2044
2045
2047
2048
2050
2051
2049
2048
2047
2047
2047
2048
2048
2048
2048
2048
2048
2048
2048
2048
2048
2048
2048
2048
2048
2048
2048
2048
2048
2048
2046
2045
2045
2045
2048
2049
2049
2048
2047
2044
2043
2044
2044
2045
2045
2044
2044
2043
2043
2043
2043
2044
2044
2044
2044
2043
2042
2042
2042
2043
2043
2042
2040
2039
2040
2043
2046
2048
2047
2045
2042
2041
2041
2042
2042
2042
2041
2040
2040
2040
2040
2040
2041
2042
2041
2041
2040
2040
2039
2039
2041
2040
2040
2038
2037
2037
2039
2042
2044
2043
2042
2039
2038
2037
2040
2041
2042
2042
2041
2041
2040
2040
2040
2040
2040
2040
2039
2039
2038
2038
2037
2040
2040
2038
2038
2043
2058
2080
2100
2103
2085
2049
2010
1980
1967
1972
1985
2000
2013
2023
2031
2036
2039
2040
2041
2041
2042
2042
2042
2043
2043
2044
2046
2045
2045
2044
2042
2042
2043
2046
2048
2048
2048
2046
2044
2043
2044
2044
2045
2045
2045
2045
2045
2045
2045
2045
2045
2044
2044
2044
2045
2045
2045
2045
2047
2046
2046
2043
2041
2041
2044
2047
2048
2048
2045
2040
2037
2034
2036
2035
2036
2035
2034
2034
2033
2033
2032
2032
2032
2032
2033
2034
2035
2036
2037
2038
2039
2040
2040
2039
2040
2041
2043
2045
2047
2046
2044
2042
2041
2042
2043
2044
2044
2044
2044
2044
2044
2044
2044
2044
2044
2044
2044
2045
2044
2044
2044
2044
2044
2044
2043
2043
2044
2046
2047
2048
2047
2045
2044
2043
2044
2044
2045
2044
2044
2043
2043
2043
2043
2043
2044
2044
2045
2045
2044
2044
2044
2044
2044
2045
2044
2042
2041
2041
2044
2047
2048
2047
2044
2042
2041
2042
2043
2043
2044
2043
2043
2043
2043
2042
2043
2043
2044
2044
2044
2043
2043
2043
2042
2043
2043
2042
2041
2040
2040
2043
2046
2048
2047
2045
2043
2042
2042
2044
2044
2043
2042
2041
2041
2041
2041
2041
2041
2041
2042
2043
2042
2041
2038
2041
2054
2074
2093
2097
2081
2048
2012
1985
1976
1982
1996
2010
2020
2027
2035
2039
2041
2041
2041
2042
2043
2043
2044
2045
2045
2045
2045
2045
2044
2044
2043
2045
2046
2045
2043
2042
2042
2044
2047
2048
2049
2048
2045
2043
2042
2042
2043
2043
2043
2043
2043
2044
2044
2044
2044
2044
2043
2043
2043
2043
2043
2043
2044
2044
2044
2042
2040
2039
2040
2042
2044
2044
2042
2039
2037
2036
2036
2036
2035
2035
2034
2034
2034
2034
2035
2035
2036
2036
2037
2037
2038
2039
2039
2039
2040
2040
2039
2037
2035
2036
2039
2043
2045
2045
2042
2040
2040
2040
2043
2042
2040
2038
2036
2037
2038
2040
2038
2038
2038
2038
2039
2039
2039
2039
2038
2038
2038
2038
2038
2037
2037
2038
2039
2040
2041
2041
2040
2038
2036
2036
2036
2037
2037
2038
2038
2038
2037
2036
2036
2036
2036
2037
2037
2037
2037
2037
2036
2036
2037
2036
2036
2035
2035
2036
2038
2039
2039
2038
2036
2034
2034
2035
2037
2037
2037
2037
2037
2037
2036
2036
2036
2037
2037
2037
2037
2037
2037
2037
2037
2037
2037
2036
2036
2036
2036
2039
2040
2040
2039
2037
2037
2037
2038
2039
2040
2039
2038
2037
2037
2037
2037
2038
2038
2038
2039
2039
2038
2036
2035
2042
2056
2077
2092
2090
2069
2036
2002
1980
1975
1983
1997
2011
2020
2029
2033
2037
2038
2038
2038
2039
2039
2040
2041
2041
2042
2042
2042
2041
2041
2040
2042
2043
2042
2040
2038
2037
2039
2045
2048
2049
2047
2043
2040
2038
2040
2043
2042
2041
2041
2042
2042
2042
2043
2043
2043
2043
2042
2042
2042
2042
2041
2043
2043
2043
2041
2040
2038
2038
2040
2042
2043
2042
2039
2037
2035
2036
2035
2035
2034
2033
2033
2034
2034
2034
2034
2034
2035
2035
2036
2036
2037
2037
2038
2039
2038
2038
2037
2036
2037
2040
2043
2045
2044
2042
2039
2038
2037
2039
2039
2040
2040
2040
2040
2041
2041
2040
2040
2040
2040
2039
2039
2039
2040
2040
2042
2041
2041
2039
2038
2038
2040
2042
2043
2043
2041
2039
2038
2036
2037
2038
2039
2039
2039
2039
2040
2039
2039
2038
2038
2038
2038
2039
2039
2039
2039
2039
2038
2038
2036
2038
2038
2039
2040
2041
2042
2042
2042
2040
2037
2037
2036
2037
2037
2039
2038
2038
2038
2037
2038
2038
2039
2039
2039
2039
2039
2039
2040
2040
2040
2039
2038
2037
2038
2040
2043
2044
2043
2040
2038
2037
2038
2038
2040
2040
2040
2041
2041
2041
2041
2040
2041
2041
2040
2040
2039
2039
2039
2040
2040
2040
2039
2039
2039
2039
2039
2041
2049
2065
2085
2098
2094
2071
2036
2002
1979
1974
1983
1998
2011
2022
2030
2036
2040
2041
2042
2042
2042
2042
2043
2045
2045
2045
2043
2043
2043
2045
2047
2048
2048
2047
2045
2044
2043
2044
2044
2044
2043
2043
2044
2044
2044
2044
2044
2044
2044
2044
2044
2044
2044
2043
2045
2044
2044
2042
2042
2042
2044
2047
2047
2046
2043
2041
2040
2038
2040
2039
2038
2037
2036
2035
2034
2034
2034
2033
2032
2031
2030
2030
2029
2029
2030
2031
2033
2033
2032
2031
2031
2035
2040
2044
2046
2044
2040
2038
2036
2038
2040
2040
2040
2040
2040
2041
2041
2041
2041
2041
2041
2041
2040
2040
2040
2039
2040
2042
2041
2040
2038
2037
2038
2042
2047
2048
2046
2042
2039
2036
2036
2039
2039
2039
2039
2039
2039
2040
2040
2040
2040
2039
2039
2039
2039
2039
2039
2039
2041
2042
2041
2039
2037
2037
2039
2041
2043
2043
2042
2040
2038
2037
2038
2039
2039
2039
2040
2040
2040
2040
2039
2039
2039
2039
2039
2040
2040
2039
2039
2040
2039
2039
2037
2039
2039
2040
2041
2041
2042
2041
2041
2041
2040
2040
2039
2040
2040
2041
2041
2040
2040
2040
2040
2041
2042
2042
2043
2043
2043
2042
2042
2041
2040
2039
2039
2039
2040
2041
2043
2044
2044
2043
2040
2038
2043
2056
2077
2095
2099
2083
2050
2013
1985
1975
1981
1996
2012
2023
2032
2037
2041
2043
2043
2044
2044
2044
2043
2044
2046
2048
2048
2048
2047
2045
2044
2045
2046
2047
2047
2046
2046
2046
2046
2046
2047
2047
2047
2046
2047
2046
2046
2046
2046
2047
2047
2046
2045
2044
2045
2047
2048
2049
2049
2048
2047
2046
2044
2046
2046
2045
2044
2044
2042
2043
2043
2043
2041
2038
2036
2037
2039
2042
2043
2040
2039
2037
2034
2034
2033
2034
2035
2040
2044
2046
2044
2042
2040
2040
2042
2045
2045
2045
2045
2045
2046
2047
2047
2048
2048
2047
2047
2047
2046
2046
2046
2047
2049
2048
2048
2047
2045
2046
2048
2052
2054
2053
2050
2048
2048
2048
2048
2048
2048
2047
2048
2048
2048
2049
2048
2048
2048
