1987
1987
1987
1987
1989
1991
1993
1995
1997
1997
1997
1997
1997
1997
1998
1999
2000
2001
2003
2004
2003
2002
2000
1999
1999
2001
2003
2006
2007
2008
2008
2009
2009
2009
2011
2011
2011
2013
2011
2010
2010
2011
2015
2022
2031
2039
2045
2048
2047
2042
2033
2026
2019
2015
2015
2016
2017
2017
2018
2018
2019
2020
2020
2019
2017
2015
2017
2022
2033
2044
2052
2057
2057
2056
2054
2054
2055
2056
2055
2054
2053
2052
2051
2050
2050
2050
2050
2050
2050
2050
2050
2050
2050
2051
2050
2049
2048
2047
2046
2045
2044
2045
2047
2047
2048
2046
2042
2038
2035
2033
2032
2031
2029
2028
2027
2027
2028
2028
2029
2030
2029
2029
2028
2028
2028
2028
2029
2029
2029
2029
2028
2028
2028
2028
2028
2028
2028
2028
2028
2028
2029
2029
2029
2030
2030
2029
2029
2028
2027
2027
2028
2030
2033
2035
2036
2036
2035
2034
2035
2035
2035
2035
2034
2034
2034
2035
2036
2037
2037
2038
2038
2038
2039
2040
2041
2041
2042
2042
2041
2041
2040
2040
2041
2042
2042
2042
2042
2044
2047
2049
2050
2047
2039
2029
2023
2023
2035
2061
2108
2170
2229
2262
2255
2209
2145
2090
2061
2058
2068
2076
2074
2064
2052
2047
2043
2041
2040
2040
2041
2042
2042
2041
2038
2035
2033
2032
2033
2034
2035
2036
2036
2037
2037
2038
2039
2040
2042
2043
2044
2045
2046
2048
2050
2053
2056
2058
2060
2062
2064
2066
2069
2072
2075
2078
2081
2084
2087
2090
2092
2096
2100
2105
2107
2107
2103
2097
2090
2083
2076
2070
2063
2056
2049
2044
2039
2034
2030
2027
2025
2023
2020
2019
2017
2017
2017
2018
2018
2018
2017
2018
2020
2023
2027
2030
2031
2031
2030
2030
2030
2030
2029
2029
2029
2029
2029
2030
2030
2030
2030
2031
2030
2029
2028
2029
2032
2037
2040
2041
2039
2037
2036
2038
2042
2045
2047
2047
2045
2044
2043
2043
2047
2045
2038
2024
2027
2050
2096
2142
2167
2156
2113
2065
2034
2024
2034
2040
2039
2023
2012
2005
2004
2010
2021
2032
2041
2045
2048
2043
2029
2024
2032
2055
2089
2117
2122
2103
2073
2047
2036
2036
2048
2051
2036
2032
2041
2065
2102
2133
2140
2119
2083
2051
2035
2034
2044
2069
2048
1969
1947
1975
2165
2465
2759
2908
2838
2603
2335
2152
2101
2168
2232
2221
2200
2129
2096
2097
2126
2166
2197
2208
2205
2190
2183
2187
2186
2185
2185
2184
2178
2180
2187
2198
2197
2174
2126
2066
2018
1999
2012
2041
2067
2081
2076
2070
2066
2066
2066
2067
2068
2069
2070
2071
2070
2068
2067
2067
2068
2069
2069
2069
2067
2066
2065
2066
2067
2068
2068
2067
2065
2064
2064
2063
2063
2062
2062
2061
2061
2060
2060
2060
2059
2059
2059
2058
2058
2058
2058
2058
2057
2054
2049
2044
2039
2037
2045
2066
2107
2165
2221
2252
2244
2198
2133
2077
2048
2046
2057
2065
2065
2057
2048
2043
2040
2038
2038
2037
2038
2038
2038
2039
2039
2040
2040
2041
2043
2044
2046
2048
2048
2048
2048
2049
2050
2051
2053
2054
2056
2058
2061
2064
2067
2069
2072
2074
2077
2081
2085
2090
2094
2099
2109
2135
2123
2081
2038
2048
2178
2453
2826
3209
3515
3710
3811
3858
3882
3917
3926
3921
3914
3912
3913
3916
3916
3916
3916
3916
3916
3916
3916
3916
3916
3916
3916
3916
3916
3916
3916
3916
3916
3916
3916
3916
3916
3916
3916
3916
3916
3916
3916
3916
3916
3916
3916
3916
3916
3916
3916
3916
3916
3916
3916
3916
3916
3916
3916
3916
3916
3916
3916
3916
3916
3916
3916
3916
3916
3916
3916
3916
3916
3916
3916
3916
3916
3916
3916
3916
3916
3916
3916
3916
3916
3916
3916
3916
3916
3916
3916
3916
3916
3916
3916
3916
3916
3916
3915
3915
3917
3920
3921
3916
3904
3886
3867
3852
3842
3837
3832
3825
3814
3801
3789
3779
3772
3767
3765
3761
3754
3744
3736
3733
3737
3746
3756
3763
3764
3759
3752
3744
3738
3732
3726
3721
3717
3712
3707
3699
3691
3682
3673
3664
3656
3649
3644
3638
3632
3626
3618
3608
3595
3581
3568
3558
3551
3543
3532
3515
3495
3475
3461
3456
3457
3463
3471
3476
3482
3487
3488
3475
3382
3416
3546
3672
3627
3228
2440
1443
555
23
3988
7
173
275
218
179
179
179
179
179
179
179
179
179
179
179
179
179
179
179
179
179
179
179
179
179
179
179
179
179
179
179
179
179
181
181
177
171
172
183
203
226
238
232
212
187
172
170
182
198
209
204
192
177
171
183
213
254
295
326
348
364
377
391
410
426
442
457
471
484
498
512
527
542
556
571
586
600
615
629
643
656
670
684
699
714
729
744
758
773
788
803
818
833
848
863
878
892
907
920
933
945
956
966
976
984
992
998
1002
1005
1007
1009
1011
1013
1016
1019
1024
1029
1035
1041
1048
1055
1062
1070
1078
1087
1095
1104
1112
1121
1129
1137
1144
1152
1160
1168
1177
1185
1193
1201
1208
1215
1222
1230
1237
1245
1252
1260
1268
1276
1283
1290
1296
1303
1309
1316
1324
1331
1338
1344
1350
1357
1363
1369
1375
1381
1387
1393
1398
1404
1410
1415
1421
1426
1432
1437
1442
1448
1453
1459
1464
1469
1474
1479
1483
1488
1494
1499
1504
1509
1514
1518
1522
1527
1531
1536
1540
1545
1550
1554
1558
1563
1567
1571
1575
1579
1584
1588
1593
1597
1601
1605
1609
1614
1617
1621
1624
1625
1627
1634
1642
1651
1647
1630
1604
1581
1574
1590
1622
1653
1674
1682
1681
1679
1672
1662
1645
1627
1615
1611
1617
1620
1625
1629
1634
1645
1658
1666
1666
1660
1653
1650
1651
1655
1664
1666
1666
1666
1670
1682
1704
1732
1759
1776
1782
1781
1780
1781
1786
1792
1796
1798
1798
1799
1800
1802
1804
1807
1809
1811
1813
1815
1817
1819
1820
1822
1824
1827
1831
1833
1835
1836
1837
1840
1845
1850
1855
1861
1866
1870
1872
1872
1869
1865
1860
1865
1882
1921
1980
2044
2087
2093
2056
1994
1934
1898
1893
1907
1921
1925
1918
1905
1894
1886
1879
1875
1874
1875
1877
1879
1880
1882
1884
1886
1888
1890
1893
1896
1899
1901
1902
1904
1905
1907
1909
1911
1913
1914
1919
1927
1933
1932
1918
1892
1862
1840
1834
1841
1853
1860
1859
1851
1843
1843
1847
1854
1860
1863
1864
1869
1879
1895
1910
1920
1922
1918
1912
1907
1904
1903
1901
1895
1889
1884
1880
1876
1874
1873
1873
1873
1873
1873
1872
1871
1869
1869
1869
1872
1875
1879
1882
1884
1885
1887
1889
1891
1894
1897
1900
1901
1902
1905
1908
1910
1910
1905
1897
1888
1883
1884
1889
1895
1903
1913
1926
1944
1962
1975
1982
1981
1977
1974
1972
1974
1975
1976
1978
1979
1980
1981
1982
1983
1984
1983
1983
1984
1986
1988
1991
1993
1994
1995
1995
1995
1995
1996
1996
1996
1997
1997
1997
1997
1999
2004
2013
2023
2030
2033
2033
2030
2028
2027
2027
2026
2023
2021
2020
2019
2019
2019
2019
2018
2018
2017
2017
2018
2020
2022
2025
2026
2026
2024
2022
2020
2019
2019
2019
2019
2018
2018
2018
2018
2016
2017
2036
2028
1989
1917
1881
2016
2320
2718
3033
3100
2880
2493
2131
1922
1902
1981
2052
2045
1957
1922
1979
2175
2507
2898
3250
3494
3628
3695
3740
3800
3867
3905
3922
3924
3919
3915
3913
3914
3916
3916
3916
3916
3916
3916
3916
3916
3916
3916
3916
3916
3916
3916
3916
3916
3916
3916
3916
3916
3916
3916
3916
3916
3916
3916
3916
3916
3916
3916
3916
3916
3916
3916
3916
3916
3916
3916
3916
3916
3916
3916
3916
3916
3916
3916
3916
3916
3916
3916
3916
3916
3916
3916
3916
3916
3916
3916
3916
3916
3916
3916
3916
3916
3916
3916
3916
3916
3916
3916
3916
3916
3916
3916
3916
3916
3916
3916
3916
3916
3916
3916
3916
3916
3916
3916
3916
3916
3916
3916
3916
3916
3916
3916
3916
3916
3916
3916
3916
3916
3916
3915
3914
3914
3916
3920
3909
3883
3914
3913
3887
3788
3565
3264
2931
2602
2266
1883
1433
959
541
231
126
116
150
192
197
188
182
179
179
179
179
179
179
179
179
179
179
179
179
179
179
179
180
180
179
177
176
178
184
196
211
228
244
260
275
291
308
324
340
355
370
384
399
414
428
443
459
474
484
488
487
483
482
487
498
511
526
540
552
565
579
592
606
618
631
644
656
670
683
695
707
718
730
741
754
766
779
791
802
813
824
834
844
852
861
869
879
889
900
911
921
931
940
950
959
969
979
989
998
1008
1019
1029
1039
1050
1061
1072
1082
1093
1105
1120
1137
1156
1173
1187
1198
1206
1213
1220
1228
1235
1242
1250
1258
1266
1274
1281
1288
1294
1301
1307
1314
1321
1328
1334
1341
1347
1353
1359
1364
1370
1376
1383
1389
1395
1401
1407
1412
1418
1424
1429
1435
1441
1447
1452
1458
1463
1468
1473
1478
1484
1489
1494
1500
1505
1510
1515
1519
1524
1527
1532
1536
1540
1546
1551
1557
1563
1569
1576
1581
1585
1587
1586
1583
1581
1580
1582
1584
1587
1589
1590
1592
1595
1599
1603
1607
1611
1615
1619
1622
1626
1629
1633
1637
1640
1644
1648
1651
1654
1657
1660
1664
1667
1672
1676
1680
1682
1681
1679
1676
1675
1679
1693
1723
1774
1838
1897
1926
1913
1864
1802
1757
1743
1756
1778
1792
1793
1785
1776
1773
1773
1774
1775
1777
1780
1783
1786
1790
1793
1796
1798
1801
1804
1807
1810
1813
1816
1818
1821
1823
1826
1829
1832
1836
1839
1843
1846
1849
1852
1855
1858
1864
1868
1869
1869
1871
1881
1905
1941
1976
1999
2008
2005
1999
1996
1996
1996
1989
1979
1970
1965
1964
1966
1968
1965
1960
1955
1948
1942
1936
1931
1928
1925
1923
1921
1920
1920
1919
1919
1918
1918
1920
1922
1922
1917
1906
1893
1881
1873
1870
1871
1874
1876
1878
1881
1884
1887
1888
1890
1891
1893
1896
1899
1903
1905
1908
1909
1911
1912
1913
1913
1913
1913
1913
1912
1912
1912
1912
1912
1912
1912
1912
1915
1921
1928
1936
1942
1945
1946
1946
1946
1946
1949
1952
1952
1950
1948
1952
1967
1992
2022
2047
2061
2066
2064
2060
2058
2061
2061
2060
2060
2060
2060
2061
2061
2061
2061
2061
2061
2060
2060
2060
2060
2060
2060
2060
2060
2060
2059
2059
2058
2058
2058
2058
2058
2058
2058
2058
2058
2057
2057
2057
2056
2056
2056
2056
2055
2054
2053
2052
2052
2052
2052
2053
2054
2054
2055
2055
2055
2055
2054
2054
2054
2054
2054
2055
2055
2055
2054
2051
2049
2048
2047
2047
2047
2047
2047
2047
2046
2045
2045
2045
2045
2045
2045
2046
2045
2045
2044
2043
2043
2043
2043
2044
2044
2044
2044
2043
2042
2041
2041
2041
2042
2044
2046
2048
2048
2048
2047
2047
2050
2054
2055
2047
2027
1997
1967
1945
1934
1932
1935
1938
1938
1938
1939
1940
1940
1941
1941
1941
1942
1942
1943
1945
1946
1947
1948
1949
1949
1952
1950
1947
1947
1954
1969
1987
2000
1999
1985
1970
1968
1991
2041
2106
2154
2166
2138
2079
2018
1975
1962
1971
1986
1993
1989
1979
1972
1969
1967
1965
1965
1966
1966
1968
1969
1971
1972
1973
1974
1975
1977
1978
1979
1981
1982
1984
1985
1987
1988
1989
1990
1992
1994
1996
1998
2000
2002
2004
2006
2008
2010
2012
2015
2019
2023
2028
2032
2036
2040
2043
2047
2050
2052
2054
2055
2055
2054
2054
2053
2052
2049
2046
2041
2036
2031
2025
2020
2015
2010
2005
2001
1997
1994
1993
1992
1991
1991
1991
1991
1991
1991
1991
1992
1992
1992
1993
1993
1994
1994
1994
1994
1995
1996
1997
1999
2000
2000
2001
2001
2001
2002
2002
2003
2004
2005
2005
2006
2007
2007
2007
2007
2008
2009
2011
2012
2014
2014
2014
2014
2014
2014
2014
2015
2016
2017
2017
2017
2017
2017
2017
2017
2018
2019
2020
2021
2022
2022
2022
2022
2022
2022
2022
2022
2023
2023
2024
2024
2024
2025
2025
2025
2026
2027
2027
2028
2029
2030
2030
2031
2031
2031
2031
2031
2032
2033
2035
2036
2036
2037
2039
2040
2039
2038
2040
2048
2061
2084
2108
2126
2132
2121
2098
2069
2045
2030
2023
2023
2026
2027
2025
2023
2023
2022
2023
2023
2024
2024
2024
2024
2023
2023
2024
2024
2025
2025
2026
2026
2027
2027
2027
2026
2026
2026
2027
2027
2028
2028
2028
2028
2027
2027
2028
2028
2028
2029
2029
2029
2029
2029
2029
2029
2029
2030
2030
2030
2031
2030
2030
2030
2030
2030
2031
2033
2035
2037
2039
2040
2040
2040
2041
2042
2042
2042
2042
2041
2040
2040
2039
2039
2039
2039
2039
2039
2039
2039
2040
2040
2040
2041
2041
2041
2042
2043
2044
2042
2042
2047
2059
2082
2109
2132
2146
2149
2143
2133
2126
2123
2127
2140
2168
2215
2273
2320
2337
2312
2256
2191
2145
2128
2134
2147
2153
2150
2139
2129
2124
2121
2118
2115
2114
2112
2112
2114
2115
2113
2104
2087
2066
2046
2029
2020
2017
2018
2019
2020
2020
2021
2021
2022
2022
2023
2024
2026
2028
2030
2032
2034
2036
2037
2039
2042
2045
2048
2051
2054
2058
2061
2063
2066
2067
2070
2071
2073
2074
2073
2072
2071
2069
2066
2062
2058
2053
2048
2042
2037
2031
2026
2021
2016
2013
2010
2008
2007
2007
2006
2006
2006
2006
2006
2005
2006
2006
2006
2007
2007
2008
2008
2009
2009
2009
2009
2010
2011
2012
2013
2014
2015
2016
2017
2017
2017
2017
2017
2017
2018
2019
2019
2020
2020
2020
2020
2020
2021
2021
2022
2023
2024
2024
2024
2024
2024
2024
2024
2025
2025
2026
2027
2027
2027
2027
2027
2027
2027
2028
2028
2029
2029
2029
2030
2029
2029
2029
2029
2029
2029
2030
2030
2030
2030
2030
2030
2031
2031
2031
2031
2031
2032
2032
2033
2032
2032
2032
2032
2033
2034
2034
2035
2035
2035
2035
2035
2035
2035
2036
2036
2037
2037
2037
2037
2036
2036
2036
2036
2037
2038
2039
2039
2039
2039
2038
2038
2038
2038
2039
2039
2040
2040
2041
2041
2040
2041
2041
2042
2043
2043
2044
2044
2044
2044
2044
2044
2045
2046
2047
2048
2048
2048
2048
2048
2048
2048
2048
2048
2048
2048
2048
2048
2048
2048
2048
2048
2048
2047
2047
2048
2049
2051
2053
2054
2054
2055
2056
2057
2058
2060
2060
2060
2059
2058
2056
2055
2055
2056
2057
2057
2058
2057
2057
2056
2056
2056
2059
2059
2059
2059
2065
2077
2096
2117
2133
2142
2143
2140
2138
2137
2138
2136
2131
2124
2118
2115
2121
2141
2181
2239
2298
2335
2332
2288
2222
2163
2129
2126
2141
2155
2160
2152
2141
2133
2129
2126
2124
2120
2116
2112
2108
2106
2105
2107
2110
2114
2118
2121
2123
2125
2130
2145
2156
2133
2093
2077
2146
2351
2693
3105
3489
3766
3910
3951
3936
3916
3913
3909
3909
3913
3916
3916
3916
3916
3916
3916
3916
3916
3916
3916
3916
3916
3916
3916
3916
3916
3916
3916
3916
3916
3916
3916
3916
3916
3916
3916
3916
3916
3916
3916
3916
3916
3916
3916
3916
3916
3916
3916
3916
3916
3916
3916
3906
3840
3885
4005
32
16
3799
3154
2315
1538
1028
837
860
952
1017
957
929
922
921
926
932
939
943
946
948
950
956
983
996
973
926
901
967
1179
1530
1945
2320
2580
2718
2773
2798
2846
2918
2949
3016
3148
3285
3333
3177
2758
2144
1514
1056
852
852
935
1014
1015
982
980
985
991
998
1005
1012
1018
1025
1032
1041
1050
1057
1066
1077
1089
1099
1103
1096
1081
1065
1056
1057
1066
1079
1092
1102
1111
1120
1129
1138
1145
1154
1162
1170
1179
1188
1198
1209
1215
1217
1214
1208
1204
1204
1209
1218
1228
1237
1245
1253
1260
1267
1274
1281
1288
1296
1304
1312
1320
1327
1335
1342
1349
1356
1362
1368
1378
1386
1389
1412
1417
1403
1388
1409
1478
1711
2085
2499
2804
2864
2652
2258
1847
1583
1490
1511
1573
1625
1608
1594
1593
1594
1603
1622
1607
1569
1531
1548
1678
1939
2288
2640
2916
3091
3186
3240
3283
3342
3375
3397
3417
3442
3474
3507
3537
3560
3577
3594
3615
3642
3679
3725
3780
3843
3899
3931
3928
3894
3842
3799
3779
3790
3817
3844
3831
3806
3818
3856
3864
3778
3448
2894
2265
1788
1652
1894
2389
2925
3311
3500
3568
3580
3580
3622
3650
3667
3689
3721
3763
3809
3854
3890
3911
3921
3922
3919
3915
3914
3915
3916
3916
3916
3916
3916
3916
3916
3916
3916
3916
3916
3916
3916
3916
3916
3916
3916
3916
3916
3916
3916
3916
3916
3916
3916
3916
3916
3916
3916
3916
3916
3916
3916
3916
3916
3916
3916
3916
3916
3916
3916
3916
3917
3917
3916
3913
3907
3899
3890
3880
3870
3861
3852
3843
3834
3827
3819
3813
3807
3800
3794
3786
3778
3770
3761
3753
3745
3737
3729
3722
3714
3707
3700
3692
3685
3677
3670
3662
3653
3644
3634
3624
3615
3607
3598
3590
3581
3572
3564
3556
3548
3541
3533
3526
3518
3510
3501
3492
3483
3475
3468
3461
3454
3448
3440
3433
3426
3419
3413
3407
3399
3387
3371
3354
3336
3320
3307
3295
3280
3257
3229
3190
3149
3125
3120
3074
2993
2861
2625
2276
1819
1293
777
368
135
70
104
165
216
207
179
179
179
179
179
179
179
179
179
179
179
179
205
203
166
111
82
155
378
736
1150
1519
1779
1932
2018
2080
2170
2256
2331
2399
2458
2512
2562
2607
2646
2681
2712
2741
2770
2799
2825
2850
2872
2893
2911
2929
2945
2960
2976
2991
3006
3019
3029
3035
3036
3037
3039
3047
3070
3110
3170
3239
3289
3294
3247
3202
3143
3116
3096
2971
2663
2147
1495
844
350
92
44
107
172
220
210
179
179
179
179
179
179
179
179
179
179
179
179
179
179
179
179
179
179
179
179
179
179
179
179
183
194
158
146
154
202
282
355
378
335
256
182
146
146
162
201
191
206
225
244
262
277
291
303
316
329
370
372
331
276
269
398
710
1172
1673
2099
2386
2541
2619
2669
2699
2773
2894
3022
3051
2863
2409
1782
1173
715
479
428
517
744
1064
1507
1991
2392
2645
2774
2837
2889
2967
3038
3099
3153
3202
3244
3277
3304
3324
3344
3364
3386
3409
3429
3448
3463
3478
3493
3507
3520
3532
3542
3550
3558
3564
3570
3577
3583
3591
3602
3611
3597
3552
3629
3784
3905
3808
3330
2471
1441
557
42
4012
24
179
260
212
185
179
179
179
180
180
179
178
177
178
183
194
209
225
242
258
273
288
303
318
332
348
363
377
392
403
418
437
456
470
474
465
448
435
431
437
451
470
493
520
554
590
621
642
656
667
703
713
687
639
586
695
996
1428
1822
1988
1844
1470
1056
765
675
708
767
814
801
803
820
835
844
850
857
866
876
888
899
910
922
935
945
952
959
969
987
1011
1042
1072
1095
1107
1107
1099
1086
1077
1073
1077
1086
1098
1109
1117
1125
1134
1140
1146
1153
1166
1189
1220
1254
1284
1303
1313
1317
1321
1326
1335
1344
1352
1358
1362
1363
1363
1363
1366
1380
1411
1465
1538
1608
1650
1649
1605
1541
1488
1464
1467
1484
1497
1500
1495
1488
1487
1488
1490
1492
1496
1501
1507
1513
1518
1524
1529
1533
1538
1543
1548
1553
1559
1564
1570
1575
1580
1584
1589
1594
1599
1604
1610
1615
1621
1626
1631
1636
1641
1647
1653
1658
1662
1668
1674
1681
1685
1694
1704
1712
1712
1700
1676
1648
1625
1616
1619
1628
1635
1639
1635
1632
1630
1629
1630
1633
1636
1636
1635
1634
1632
1630
1625
1620
1612
1607
1604
1606
1610
1614
1618
1621
1625
1629
1632
1636
1640
1643
1647
1651
1654
1658
1662
1666
1670
1673
1677
1680
1683
1686
1689
1693
1697
1700
1704
1706
1709
1711
1714
1716
1720
1723
1726
1730
1733
1735
1738
1741
1744
1747
1750
1753
1756
1759
1762
1764
1767
1769
1772
1774
1775
1778
1780
1783
1785
1788
1790
1792
1794
1796
1798
1801
1803
1805
1806
1808
1811
1813
1815
1817
1819
1822
1824
1827
1829
1831
1832
1833
1833
1835
1836
1838
1839
1841
1842
1844
1845
1846
1848
1850
1852
1854
1856
1857
1859
1861
1862
1862
1860
1858
1857
1856
1856
1858
1860
1861
1862
1863
1865
1867
1868
1870
1872
1873
1875
1877
1879
1880
1882
1883
1885
1886
1888
1889
1891
1892
1893
1894
1896
1897
1898
1899
1901
1902
1903
1904
1905
1906
1908
1909
1911
1913
1914
1916
1917
1918
1919
1920
1921
1922
1923
1925
1926
1928
1929
1932
1935
1938
1942
1946
1948
1950
1951
1953
1956
1958
1959
1960
1960
1961
1962
1963
1965
1966
1966
1966
1965
1964
1964
1965
1965
1966
1966
1967
1968
1968
1969
1969
1970
1970
1971
1972
1973
1974
1974
1975
1975
1975
1975
1975
1977
1979
1980
1981
1980
1976
1970
1965
1962
1966
1981
2016
2071
2135
2184
2197
2167
2107
2046
2003
1991
1999
2011
2015
2010
1999
1992
1989
1986
1985
1984
1985
1986
1987
1988
1990
1991
1992
1993
1994
1995
1996
1997
1998
1999
2000
2001
2002
2003
2004
2005
2007
2008
2010
2012
2013
2015
2016
2018
2020
2022
2025
2028
2031
2034
2037
2040
2043
2046
2048
2051
2054
2057
2060
2061
2062
2063
2063
2063
2063
2060
2058
2055
2054
2053
2053
2051
2048
2044
2039
2035
2031
2029
2027
2026
2025
2024
2023
2022
2022
2022
2022
2022
2023
2023
2023
2023
2023
2023
2024
2024
2025
2026
2027
2027
2028
2028
2028
2028
2029
2029
2030
2030
2031
2031
2031
2032
2031
2031
2031
2031
2032
2033
2033
2034
2035
2035
2035
2036
2036
2036
2037
2038
2039
2039
2039
2039
2038
2038
2037
2037
2038
2038
2038
2038
2038
2038
2038
2038
2038
2038
2039
2039
2039
2039
2039
2039
2039
2039
2039
2039
2040
2040
2041
2041
2041
2041
2041
2040
2040
2040
2041
2041
2041
2042
2042
2042
2042
2042
2042
2042
2042
2042
2043
2043
2043
2043
2043
2043
2043
2043
2044
2044
2044
2044
2044
2044
2043
2043
2043
2043
2044
2044
2044
2045
2044
2044
2044
2044
2044
2044
2045
2045
2045
2045
2045
2045
2045
2046
2046
2047
2048
2048
2046
2045
2048
2056
2073
2092
2110
2120
2123
2121
2118
2116
2116
2116
2116
2117
2118
2120
2121
2121
2121
2121
2121
2121
2122
2122
2122
2121
2120
2119
2118
2118
2120
2129
2117
2099
2099
2129
2195
2277
2338
2345
2299
2229
2171
2144
2142
2158
2162
2151
2148
2146
2145
2144
2142
2141
2139
2134
2129
2124
2119
2121
2133
2163
2214
2274
2321
2333
2305
2245
2182
2138
2123
2129
2140
2143
2137
2125
2116
2112
2109
2106
2104
2103
2103
2102
2102
2103
2103
2104
2104
2104
2104
2104
2104
2104
2104
2104
2105
2105
2105
2105
2106
2106
2106
2107
2108
2109
2110
2111
2112
2114
2116
2118
2120
2122
2124
2126
2129
2132
2135
2138
2140
2142
2143
2145
2146
2146
2146
2146
2145
2143
2139
2134
2128
2121
2113
2106
2099
2093
2087
2082
2078
2074
2071
2068
2066
2063
2062
2061
2061
2060
2060
2060
2060
2059
2059
2059
2059
2058
2058
2057
2057
2057
2057
2057
2058
2059
2060
2060
2060
2060
2059
2059
2057
2057
2057
2057
2058
2059
2060
2060
2061
2061
2061
2060
2060
2059
2059
2058
2058
2058
2058
2058
2058
2057
2057
2057
2057
2057
2057
2057
2057
2056
2055
2055
2054
2054
2054
2055
2055
2055
2054
2052
2049
2046
2043
2041
2040
2040
2040
2040
2039
2038
2037
2037
2036
2036
2036
2037
2037
2037
2037
2037
2036
2036
2036
2037
2037
2038
2038
2039
2039
2039
2038
2038
2038
2038
2038
2039
2040
2040
2040
2040
2039
2039
2039
2040
2041
2041
2042
2042
2042
2042
2042
2042
2042
2042
2042
2043
2044
2045
2046
2046
2046
2046
2046
2047
2048
2048
2048
2048
2048
2048
2047
2046
2045
2045
2045
2045
2046
2047
2047
2048
2048
2048
2048
2050
2052
2053
2054
2053
2052
2051
2050
2050
2049
2049
2049
2048
2048
2048
2049
2050
2050
2050
2050
2050
2051
2052
2053
2054
2055
2055
2054
2055
2056
2057
2057
2054
2048
2039
2027
2020
2024
2044
2081
2132
2175
2188
2162
2100
2026
1963
1930
1927
1938
1947
1948
1938
1927
1920
1917
1916
1913
1911
1909
1910
1917
1929
1941
1949
1950
1943
1935
1929
1928
1930
1934
1938
1940
1942
1944
1947
1948
1950
1952
1955
1957
1960
1963
1967
1970
1972
1975
1978
1982
1986
1991
1996
2001
2006
2011
2015
2019
2023
2027
2030
2032
2034
2037
2040
2046
2051
2055
2056
2053
2047
2039
2031
2023
2017
2011
2005
2000
1995
1992
1989
1989
1989
1989
1989
1989
1989
1988
1988
1989
1989
1990
1991
1991
1992
1993
1994
1995
1995
1995
1996
1996
1997
1998
1999
2000
2001
2002
2003
2004
2004
2005
2005
2006
2007
2008
2008
2009
2009
2009
2010
2011
2012
2013
2013
2013
2013
2013
2013
2013
2014
2016
2018
2019
2020
2019
2019
2018
2018
2018
2019
2019
2020
2021
2021
2020
2020
2020
2019
2019
2019
2020
2020
2021
2021
2022
2022
2022
2022
2022
2022
2023
2023
2024
2025
2025
2025
2025
2025
2025
2025
2026
2026
2027
2027
2027
2027
2027
2027
2027
2027
2028
2028
2029
2029
2030
2030
2030
2030
2030
2030
2030
2031
2031
2031
2031
2031
2031
2030
2029
2029
2030
2029
2026
2020
2014
2008
2004
2003
2003
2004
2004
2004
2005
2006
2007
2007
2007
2005
2004
2003
2003
2004
2004
2004
2004
2004
2004
2004
2005
2006
2007
2009
2010
2012
2012
2013
2012
2012
2012
2013
2014
2015
2016
2017
2018
2017
2014
2009
2004
2001
2001
2012
2039
2089
2156
2218
2249
2235
2182
2115
2064
2046
2053
2071
2081
2079
2066
2054
2048
2044
2042
2041
2040
2038
2035
2031
2026
2021
2018
2015
2014
2014
2016
2021
2029
2038
2045
2049
2050
2048
2048
2048
2048
2049
2050
2050
2051
2052
2053
2056
2059
2062
2065
2068
2070
2073
2075
2079
2083
2087
2091
2095
2099
2101
2103
2105
2107
2108
2108
2107
2106
2102
2097
2091
2084
2076
2068
2061
2054
2048
2044
2038
2034
2031
2028
2026
2024
2023
2023
2025
2028
2031
2034
2035
2035
2035
2034
2034
2034
2034
2034
2034
2035
2035
2034
2034
2034
2034
2034
2034
2035
2035
2036
2036
2036
2037
2037
2037
2037
2038
2038
2038
2039
2039
2038
2038
2038
2038
2038
2038
2039
2039
2039
2039
2039
2038
2037
2037
2037
2036
2037
2037
2037
2037
2036
2035
2034
2033
2034
2034
2032
2030
2029
2034
2047
2065
2084
2097
2103
2103
2101
2099
2100
2102
2102
2103
2103
2103
2104
2104
2104
2103
2101
2100
2099
2099
2098
2099
2100
2100
2101
2101
2101
2100
2099
2099
2100
2102
2103
2101
2093
2079
2062
2047
2033
2025
2020
2017
2015
2014
2013
2013
2013
2012
2012
2011
2011
2012
2013
2014
2014
2014
2014
2014
2013
2013
2013
2014
2016
2018
2020
2021
2021
2022
2023
2025
2026
2027
2026
2025
2023
2022
2022
2021
2021
2021
2020
2020
2020
2020
2020
2021
2021
2021
2022
2022
2021
2021
2021
2022
2022
2022
2022
2022
2023
2023
2024
2025
2024
2022
2017
2011
2006
2003
2008
2028
2068
2130
2194
2237
2240
2199
2133
2073
2038
2033
2045
2055
2057
2049
2038
2031
2028
2025
2023
2021
2020
2021
2022
2024
2026
2027
2028
2029
2029
2030
2030
2031
2032
2032
2033
2034
2035
2037
2036
2035
2035
2039
2049
2067
2089
2107
2119
2124
2124
2122
2122
2125
2128
2133
2137
2141
2143
2144
2145
2146
2146
2148
2151
2154
2156
2157
2157
2156
2153
2149
2142
2135
2129
2125
2124
2125
2125
2123
2119
2114
2110
2106
2105
2104
2104
2103
2102
2101
2100
2098
2097
2096
2095
2094
2093
2093
2094
2095
2095
2092
2086
2078
2071
2066
2065
2066
2066
2064
2060
2057
2055
2055
2057
2060
2062
2065
2067
2069
2070
2070
2070
2070
2071
2071
2071
2071
2071
2071
2072
2072
2072
2072
2072
2072
2072
2072
2072
2072
2072
2072
2071
2071
2070
2070
2071
2071
2072
2073
2072
2072
2071
2071
2070
2070
2071
2071
2071
2071
2070
2070
2069
2068
2068
2068
2068
2068
2068
2068
2067
2067
2067
2068
2069
2070
2071
2071
2071
2071
2071
2070
2069
2069
2068
2068
2068
2068
2068
2068
2067
2067
2067
2067
2067
2067
2067
2067
2067
2067
2066
2066
2066
2065
2065
2065
2065
2065
2065
2065
2064
2064
2063
2063
2063
2063
2063
2063
2062
2063
2064
2064
2062
2058
2052
2046
2042
2039
2039
2040
2040
2040
2038
2038
2037
2037
2038
2039
2041
2043
2044
2045
2046
2046
2047
2047
2048
2048
2049
2049
2048
2048
2046
2045
2044
2044
2044
2045
2044
2043
2043
2044
2047
2051
2055
2057
2055
2051
2048
2045
2043
2044
2044
2044
2043
2044
2045
2046
2047
2045
2041
2035
2028
2024
2025
2039
2068
2120
2184
2237
2257
2234
2178
2113
2066
2048
2053
2065
2071
2067
2056
2048
2044
2041
2039
2039
2039
2040
2041
2041
2042
2042
2042
2043
2043
2044
2045
2046
2047
2048
2048
2048
2048
2049
2049
2050
2052
2053
2054
2055
2056
2057
2059
2060
2063
2065
2068
2071
2073
2076
2078
2081
2083
2085
2088
2090
2093
2094
2096
2099
2102
2106
2109
2111
2109
2105
2099
2092
2085
2078
2071
2065
2059
2054
2049
2046
2043
2040
2039
2038
2036
2035
2034
2033
2032
2032
2033
2033
2033
2033
2034
2034
2034
2034
2034
2034
2035
2036
2037
2038
2038
2038
2038
2038
2039
2040
2041
2041
2042
2042
2042
2042
2042
2042
2042
2042
2042
2042
2042
2042
2042
2042
2042
2042
2042
2042
2042
2042
2042
2043
2043
2042
2042
2042
2042
2042
2042
2042
2043
2043
2043
2043
2042
2042
2042
2042
2043
2043
2044
2044
2044
2043
2043
2042
2042
2042
2043
2043
2044
2044
2044
2044
2044
2044
2044
2045
2045
2045
2046
2045
2046
2046
2045
2045
2045
2044
2045
2045
2046
2047
2047
2047
2047
2047
2046
2047
2047
2047
2047
2046
2046
2045
2045
2044
2044
2044
2045
2045
2045
2045
2045
2045
2045
2045
2045
2045
2045
2046
2046
2046
2046
2046
2046
2046
2046
2046
2046
2045
2045
2045
2045
2045
2045
2046
2047
2048
2049
2050
2051
2051
2051
2052
2052
2053
2052
2052
2051
2050
2049
2048
2048
2048
2047
2046
2046
2046
2046
2047
2047
2047
2046
2046
2046
2046
2046
2046
2046
2045
2045
2045
2044
2045
2046
2045
2043
2039
2032
2026
2023
2025
2038
2066
2115
2178
2230
2252
2230
2172
2104
2053
2032
2038
2050
2058
2054
2042
2027
2015
2005
1996
1990
1984
1980
1974
1970
1967
1966
1967
1968
1969
1971
1971
1971
1972
1972
1972
1973
1975
1977
1979
1980
1980
1979
1979
1979
1980
1982
1985
1987
1990
1992
1995
1997
2000
2003
2007
2011
2015
2019
2024
2028
2031
2034
2038
2040
2043
2044
2045
2044
2042
2038
2034
2027
2021
2015
2008
2002
1997
1992
1988
1985
1983
1980
1978
1976
1975
1974
1974
1975
1975
1975
1976
1976
1976
1977
1977
1979
1981
1984
1986
1988
1989
1989
1990
1990
1992
1993
1995
1997
1998
1998
1999
1999
1999
2000
2000
2001
2001
2002
2003
2004
2004
2005
2005
2006
2007
2008
2009
2010
2010
2010
2010
2010
2010
2010
2011
2012
2013
2013
2014
2014
2014
2014
2014
2013
2013
2012
2012
2012
2013
2013
2013
2012
2010
2008
2007
2006
2007
2009
2012
2016
2018
2020
2020
2021
2020
2019
2018
2022
2030
2042
2055
2066
2072
2073
2071
2072
2073
2076
2076
2069
2058
2045
2034
2027
2026
2028
2031
2032
2032
2032
2032
2032
2032
2032
2032
2032
2032
2033
2034
2035
2036
2036
2037
2038
2038
2038
2038
2039
2039
2039
2040
2040
2040
2041
2040
2040
2040
2040
2041
2041
2042
2044
2045
2048
2049
2051
2052
2053
2053
2053
2053
2053
2053
2053
2052
2051
2051
2051
2051
2051
2051
2050
2050
2049
2050
2050
2051
2051
2052
2052
2052
2052
2051
2051
2050
2050
2051
2053
2055
2056
2055
2053
2048
2043
2038
2036
2042
2060
2099
2157
2219
2261
2265
2225
2159
2096
2059
2054
2069
2084
2089
2081
2069
2060
2055
2052
2051
2050
2050
2049
2049
2048
2047
2046
2046
2048
2050
2054
2059
2062
2064
2063
2063
2062
2061
2062
2064
2066
2068
2070
2071
2072
2074
2075
2077
2080
2082
2085
2087
2090
2093
2096
2100
2105
2110
2116
2120
2124
2126
2128
2129
2131
2133
2135
2135
2133
2129
2124
2117
2110
2102
2094
2086
2078
2071
2065
2060
2055
2050
2047
2044
2041
2039
2039
2039
2040
2041
2041
2043
2044
2046
2047
2047
2046
2044
2042
2040
2039
2038
2037
2038
2038
2039
2039
2040
2041
2038
2038
2042
2049
2061
2071
2075
2070
2060
2050
2045
2043
2044
2048
2048
2044
2037
2034
2043
2069
2113
2161
2199
2218
2221
2213
2205
2201
2202
2202
2200
2199
2197
2195
2193
2191
2189
2187
2185
2185
2184
2183
2182
2180
2177
2175
2173
2172
2171
2170
2169
2168
2166
2164
2163
2161
2160
2159
2159
2158
2157
2156
2155
2154
2153
2152
2150
2149
2148
2147
2147
2146
2146
2145
2144
2142
2141
2139
2138
2137
2137
2136
2135
2134
2133
2131
2130
2128
2127
2126
2126
2126
2127
2127
2127
2126
2125
2125
2124
2125
2124
2124
2123
2122
2121
2119
2118
2117
2116
2115
2115
2114
2113
2112
2110
2109
2108
2107
2108
2109
2109
2108
2107
2106
2106
2105
2105
2104
2104
2105
2106
2106
2104
2099
2093
2087
2083
2084
2097
2128
2182
2246
2300
2318
2291
2229
2159
2110
2095
2108
2127
2139
2145
2154
2130
2084
2041
2047
2162
2404
2731
3059
3312
3460
3524
3549
3576
3635
3685
3727
3759
3778
3788
3794
3798
3780
3810
3875
3918
3856
3609
3165
2611
2107
1779
1655
1673
1739
1788
1773
1756
1755
1759
1765
1773
1781
1788
1795
1800
1804
1808
1812
1816
1819
1821
1822
1823
1822
1820
1817
1812
1806
1799
1793
1787
1781
1776
1773
1770
1769
1769
1769
1769
1769
1771
1772
1774
1777
1780
1783
1785
1787
1789
1791
1793
1796
1798
1801
1803
1805
1807
1810
1812
1814
1816
1818
1821
1823
1825
1828
1830
1833
1836
1838
1840
1842
1844
1846
1849
1851
1853
1855
1857
1859
1862
1864
1866
1867
1869
1871
1873
1875
1877
1878
1880
1880
1881
1881
1881
1882
1883
1885
1886
1887
1888
1889
1891
1892
1893
1895
1896
1898
1901
1903
1906
1909
1912
1912
1908
1897
1883
1868
1857
1852
1851
1853
1855
1855
1855
1856
1857
1859
1861
1863
1864
1866
1868
1870
1873
1876
1878
1880
1881
1883
1885
1886
1887
1889
1890
1892
1893
1895
1897
1899
1900
1901
1902
1903
1904
1905
1906
1907
1908
1910
1912
1914
1917
1920
1924
1926
1928
1928
1927
1925
1924
1924
1926
1928
1930
1932
1933
1933
1934
1935
1935
1935
1935
1936
1937
1939
1941
1943
1944
1945
1946
1946
1947
1948
1949
1950
1952
1953
1954
1956
1958
1960
1961
1961
1958
1954
1949
1945
1945
1957
1987
2038
2103
2160
2186
2168
2114
2049
2003
1984
1990
2004
2010
2007
1996
1986
1982
1979
1977
1976
1975
1975
1976
1977
1978
1980
1981
1983
1984
1985
1986
1987
1988
1989
1990
1992
1994
1996
1998
1999
1999
1998
1999
2001
2003
2006
2009
2012
2015
2017
2019
2021
2024
2027
2031
2036
2041
2046
2050
2054
2059
2062
2064
2065
2066
2067
2066
2066
2064
2060
2055
2049
2043
2036
2028
2022
2016
2011
2007
2003
1999
1996
1993
1992
1991
1991
1990
1990
1989
1989
1989
1989
1989
1990
1991
1992
1993
1994
1995
1996
1997
1997
1998
1998
1998
1999
2001
2003
2004
2005
2006
2006
2007
2008
2009
2009
2008
2007
2006
2006
2007
2008
2009
2009
2010
2010
2011
2011
2012
2013
2013
2013
2013
2014
2014
2014
2015
2015
2015
2015
2015
2015
2016
2016
2017
2018
2019
2019
2019
2019
2019
2019
2020
2020
2021
2021
2021
2021
2021
2022
2022
2021
2021
2021
2022
2022
2023
2024
2024
2025
2025
2024
2022
2019
2015
2012
2009
2008
2009
2011
2013
2014
2015
2016
2016
2017
2019
2022
2025
2028
2030
2031
2031
2031
2031
2032
2033
2033
2033
2033
2033
2033
2033
2033
2031
2029
2027
2025
2024
2025
2026
2026
2027
2027
2027
2028
2028
2029
2030
2030
2031
2031
2031
2032
2033
2034
2034
2034
2035
2034
2034
2033
2033
2032
2032
2032
2033
2034
2036
2037
2039
2040
2040
2041
2041
2042
2043
2044
2044
2044
2043
2041
2040
2039
2038
2039
2039
2040
2040
2040
2040
2040
2040
2040
2040
2040
2040
2040
2040
2040
2040
2040
2040
2040
2041
2042
2044
2044
2043
2040
2034
2027
2022
2021
2030
2055
2103
2168
2228
2260
2249
2198
2132
2077
2050
2050
2062
2069
2068
2058
2048
2042
2039
2037
2036
2037
2038
2039
2039
2040
2040
2040
2041
2041
2042
2043
2044
2045
2045
2046
2047
2047
2047
2048
2048
2050
2051
2052
2053
2054
2055
2056
2058
2059
2061
2064
2067
2069
2071
2074
2076
2078
2081
2084
2087
2090
2092
2094
2096
2097
2097
2097
2096
2094
2090
2087
2082
2076
2070
2064
2058
2052
2047
2042
2038
2034
2032
2030
2028
2027
2026
2025
2024
2023
2023
2024
2024
2025
2025
2025
2025
2026
2026
2027
2028
2029
2029
2030
2030
2031
2031
2031
2031
2031
2032
2033
2034
2035
2036
2036
2037
2036
2036
2036
2036
2036
2037
2038
2038
2039
2039
2038
2038
2038
2038
2039
2039
2040
2040
2040
2040
2040
2039
2039
2039
2040
2040
2041
2041
2040
2040
2039
2039
2039
2039
2040
2040
2041
2041
2041
2041
2041
2041
2041
2041
2042
2042
2043
2043
2043
2043
2043
2043
2043
2043
2044
2045
2045
2046
2046
2046
2045
2045
2045
2045
2045
2046
2046
2047
2047
2046
2046
2046
2046
2046
2047
2048
2048
2049
2051
2051
2051
2051
2051
2051
2051
2052
2052
2052
2052
2052
2052
2051
2051
2052
2052
2053
2053
2053
2052
2051
2049
2049
2048
2048
2048
2048
2048
2049
2050
2050
2046
2042
2042
2050
2068
2087
2098
2096
2083
2068
2058
2052
2050
2052
2055
2067
2088
2115
2139
2153
2157
2153
2149
2145
2146
2147
2146
2145
2145
2147
2149
2146
2134
2114
2089
2065
2049
2042
2042
2043
2044
2042
2041
2042
2043
2043
2042
2038
2033
2027
2023
2025
2038
2068
2119
2182
2233
2251
2227
2170
2106
2060
2045
2050
2063
2068
2064
2053
2045
2041
2038
2036
2036
2036
2037
2038
2040
2041
2041
2042
2042
2043
2044
2045
2045
2046
2047
2047
2048
2048
2048
2049
2050
2051
2053
2054
2056
2057
2059
2060
2061
2063
2064
2066
2069
2072
2075
2079
2082
2085
2088
2093
2095
2095
2094
2098
2111
2133
2160
2183
2196
2199
2194
2186
2178
2173
2167
2160
2153
2147
2140
2135
2130
2126
2123
2120
2118
2116
2115
2114
2112
2111
2110
2109
2109
2109
2109
2109
2108
2108
2107
2106
2106
2106
2106
2106
2106
2105
2105
2104
2103
2103
2102
2102
2102
2102
2102
2102
2102
2101
2100
2099
2100
2102
2105
2107
2109
2109
2108
2107
2105
2105
2104
2104
2104
2104
2103
2102
2101
2100
2098
2097
2095
2094
2093
2092
2091
2091
2091
2091
2091
2091
2091
2091
2092
2092
2091
2091
2090
2090
2089
2089
2088
2088
2088
2088
2088
2087
2087
2087
2086
2086
2086
2085
2085
2085
2085
2085
2084
2084
2083
2082
2081
2081
2081
2081
2081
2081
2081
2081
2080
2079
2079
2079
2080
2080
2080
2080
2080
2079
2078
2077
2077
2077
2077
2077
2077
2077
2076
2076
2075
2075
2075
2076
2076
2077
2077
2077
2076
2076
2075
2074
2073
2072
2072
2073
2074
2076
2078
2079
2080
2080
2081
2081
2082
2082
2082
2082
2081
2079
2077
2076
2075
2075
2075
2074
2074
2074
2074
2074
2073
2073
2072
2072
2073
2073
2073
2072
2072
2071
2070
2070
2071
2072
2073
2073
2071
2066
2060
2055
2052
2056
2072
2106
2159
2218
2260
2268
2235
2174
2112
2073
2063
2073
2086
2091
2085
2075
2067
2063
2060
2058
2057
2057
2057
2058
2059
2060
2061
2061
2062
2063
2063
2064
2065
2065
2066
2067
2068
2068
2068
2069
2069
2070
2072
2073
2075
2077
2078
2080
2081
2083
2085
2088
2092
2096
2099
2102
2102
2101
2099
2099
2100
2117
2124
2103
2064
2041
2084
2235
2487
2781
3019
3211
3362
3473
3514
3435
3189
2800
2387
2073
1914
1882
1912
1948
1936
1920
1915
1921
1928
1913
1883
1859
1880
1984
2178
2426
2668
2855
2971
3036
3076
3118
3175
3220
3260
3295
3326
3351
3335
3386
3485
3585
3595
3415
3021
2499
2012
1695
1585
1618
1699
1764
1756
1756
1764
1766
1761
1753
1754
1762
1748
1719
1698
1723
1834
2036
2294
2543
2733
2846
2934
3020
3083
3080
2933
2648
2291
1966
1752
1669
1676
1712
1739
1731
1719
1717
1716
1717
1717
1717
1717
1717
1718
1720
1722
1725
1727
1729
1731
1733
1735
1737
1738
1739
1739
1741
1743
1747
1751
1754
1757
1760
1763
1766
1769
1769
1767
1765
1763
1764
1768
1772
1777
1781
1785
1788
1792
1796
1801
1806
1812
1818
1823
1826
1829
1831
1833
1833
1834
1835
1836
1838
1840
1842
1845
1847
1848
1850
1852
1855
1858
1862
1866
1869
1873
1875
1878
1879
1878
1878
1876
1876
1877
1878
1879
1881
1882
1883
1884
1885
1886
1887
1888
1889
1890
1891
1892
1894
1896
1900
1905
1911
1917
1920
1921
1920
1916
1912
1909
1906
1912
1931
1969
2026
2083
2119
2117
2074
2012
1956
1927
1926
1941
1953
1956
1950
1940
1935
1934
1933
1933
1933
1934
1936
1938
1940
1942
1943
1944
1946
1948
1950
1952
1954
1955
1957
1958
1960
1962
1964
1966
1969
1971
1973
1976
1980
1985
1990
1994
1998
2001
2004
2007
2011
2015
2020
2024
2032
2046
2060
2072
2074
2063
2045
2025
2009
2003
2002
2004
2005
2002
1997
1992
1987
1980
1974
1967
1961
1955
1950
1946
1943
1941
1939
1939
1938
1937
1937
1936
1935
1935
1936
1937
1938
1939
1940
1940
1940
1941
1942
1943
1945
1946
1948
1949
1950
1950
1951
1952
1953
1954
1955
1957
1958
1959
1960
1961
1961
1962
1963
1964
1966
1968
1969
1970
1971
1971
1971
1971
1972
1973
1974
1976
1976
1976
1975
1973
1972
1972
1972
1973
1974
1975
1975
1976
1977
1978
1983
1981
1973
1964
1964
1984
2030
2092
2153
2195
2212
2210
2202
2195
2201
2219
2216
2195
2170
2175
2249
2412
2646
2896
3109
3256
3344
3396
3435
3486
3529
3566
3601
3635
3667
3696
3722
3745
3765
3784
3801
3815
3828
3841
3852
3862
3872
3881
3889
3898
3906
3912
3916
3917
3917
3916
3916
3916
3916
3916
3916
3916
3916
3916
3916
3916
3916
3916
3916
3916
3916
3916
3916
3916
3916
3916
3916
3916
3916
3917
3917
3915
3911
3906
3899
3893
3884
3873
3858
3838
3798
3780
3789
3802
3823
3790
3639
3324
2855
2300
1765
1346
1097
1007
997
1024
1043
1022
1002
988
983
982
982
983
986
991
996
1003
1010
1018
1024
1030
1036
1043
1051
1061
1071
1082
1091
1100
1108
1116
1124
1132
1141
1151
1160
1169
1178
1187
1198
1211
1224
1238
1251
1262
1271
1280
1288
1298
1309
1320
1333
1343
1352
1358
1361
1365
1370
1376
1382
1387
1394
1399
1405
1409
1410
1409
1410
1411
1411
1407
1395
1378
1360
1348
1343
1346
1352
1359
1365
1369
1375
1381
1387
1394
1401
1407
1414
1420
1425
1431
1437
1443
1450
1456
1463
1469
1475
1481
1487
1492
1497
1503
1508
1514
1520
1525
1530
1535
1540
1544
1548
1553
1557
1562
1567
1571
1576
1580
1584
1588
1592
1596
1601
1605
1609
1613
1617
1621
1625
1629
1633
1636
1640
1644
1648
1652
1656
1660
1663
1666
1669
1672
1676
1680
1684
1688
1691
1694
1697
1700
1704
1708
1711
1715
1718
1722
1725
1728
1731
1733
1735
1738
1741
1745
1748
1752
1754
1757
1759
1761
1763
1764
1766
1767
1769
1770
1772
1774
1776
1778
1780
1782
1785
1787
1790
1792
1794
1795
1797
1800
1803
1807
1812
1816
1820
1823
1825
1827
1829
1831
1833
1836
1838
1840
1840
1842
1843
1844
1846
1847
1849
1851
1853
1855
1857
1859
1861
1862
1864
1865
1867
1868
1870
1872
1874
1877
1880
1882
1885
1885
1884
1881
1877
1874
1875
1884
1906
1947
2004
2061
2096
2093
2051
1989
1934
1905
1905
1921
1934
1937
1931
1922
1917
1916
1916
1916
1916
1918
1919
1920
1922
1924
1926
1928
1930
1932
1934
1936
1937
1938
1939
1940
1942
1944
1946
1948
1949
1949
1950
1951
1952
1954
1956
1959
1961
1964
1966
1969
1972
1976
1980
1985
1990
1995
1999
2003
2007
2010
2013
2015
2017
2019
2020
2021
2020
2018
2015
2010
2004
1997
1991
1984
1979
1974
1970
1967
1965
1963
1961
1960
1959
1959
1959
1960
1961
1962
1963
1963
1964
1965
1965
1967
1968
1970
1972
1974
1976
1976
1976
1976
1977
1978
1980
1981
1982
1983
1984
1985
1985
1986
1987
1988
1989
1991
1992
1993
1994
1995
1995
1995
1996
1996
1997
1998
1998
1999
2000
2000
2001
2001
2001
2001
2002
2002
2003
2004
2005
2006
2006
2006
2006
2006
2006
2007
2007
2008
2009
2009
2010
2010
2011
2011
2012
2013
2014
2015
2017
2018
2018
2018
2019
2019
2019
2020
2021
2022
2023
2024
2024
2023
2023
2023
2023
2024
2025
2026
2026
2027
2027
2027
2027
2028
2028
2029
2029
2029
2029
2029
2029
2028
2028
2027
2027
2028
2029
2032
2033
2035
2036
2037
2037
2037
2038
2039
2039
2040
2039
2039
2037
2036
2036
2036
2036
2036
2036
2035
2035
2036
2036
2036
2035
2035
2034
2035
2035
2036
2036
2036
2036
2035
2035
2036
2037
2038
2036
2031
2025
2020
2017
2024
2044
2083
2140
2196
2228
2220
2174
2106
2048
2017
2016
2031
2045
2048
2042
2031
2024
2021
2018
2016
2015
2015
2016
2016
2016
2016
2015
2015
2015
2016
2016
2017
2018
2019
2020
2020
2021
2022
2023
2023
2024
2025
2026
2028
2029
2032
2034
2036
2039
2040
2042
2044
2048
2056
2067
2079
2090
2098
2103
2107
2111
2115
2118
2120
2120
2120
2120
2119
2117
2113
2108
2101
2094
2086
2079
2072
2065
2058
2052
2048
2044
2041
2039
2037
2036
2035
2034
2034
2033
2033
2033
2032
2032
2033
2033
2034
2034
2034
2034
2033
2034
2035
2036
2036
2034
2031
2028
2026
2026
2026
2026
2027
2026
2026
2027
2028
2029
2030
2030
2031
2031
2032
2033
2034
2034
2035
2035
2035
2034
2034
2033
2034
2034
2034
2033
2031
2030
2028
2027
2027
2027
2027
2028
2028
2029
2029
2029
2029
2029
2029
2029
2029
2029
2030
2030
2031
2031
2031
2031
2031
2031
2031
2031
2032
2032
2032
2032
2033
2033
2033
2033
2033
2033
2033
2033
2034
2034
2034
2034
2033
2032
2032
2031
2031
2031
2031
2030
2030
2029
2029
2029
2029
2029
2030
2030
2030
2030
2029
2029
2027
2026
2025
2025
2025
2025
2025
2025
2024
2023
2021
2020
2018
2017
2015
2013
2011
2010
2008
2007
2007
2006
2006
2005
2005
2006
2006
2006
2006
2006
2005
2005
2005
2007
2009
2010
2012
2012
2012
2013
2014
2015
2016
2015
2011
2006
2001
1998
2001
2014
2044
2092
2152
2200
2217
2192
2136
2073
2030
2015
2023
2037
2044
2040
2031
2023
2020
2019
2017
2016
2016
2016
2016
2017
2019
2020
2021
2022
2024
2024
2023
2022
2023
2030
2043
2058
2073
2083
2087
2087
2086
2086
2087
2089
2091
2092
2094
2095
2097
2099
2101
2103
2105
2108
2111
2114
2117
2120
2123
2125
2127
2129
2131
2132
2133
2133
2133
2131
2128
2124
2117
2110
2103
2095
2088
2082
2076
2071
2066
2062
2059
2056
2054
2052
2052
2051
2051
2051
2051
2050
2050
2050
2049
2049
2050
2050
2051
2051
2051
2051
2051
2051
2051
2051
2052
2052
2053
2053
2053
2053
2053
2053
2053
2053
2054
2054
2055
2055
2055
2055
2056
2056
2056
2057
2057
2057
2058
2058
2057
2057
2057
2056
2056
2056
2056
2056
2056
2056
2056
2055
2054
2054
2054
2053
2054
2054
2054
2054
2054
2054
2053
2053
2053
2053
2054
2055
2055
2055
2055
2055
2055
2055
2055
2055
2055
2056
2056
2057
2057
2056
2056
2055
2055
2055
2056
2056
2056
2057
2056
2056
2056
2055
2055
2055
2056
2056
2056
2056
2055
2055
2054
2054
2053
2052
2052
2053
2054
2056
2058
2060
2060
2061
2061
2061
2061
2062
2062
2062
2061
2060
2058
2057
2056
2056
2056
2056
2056
2056
2056
2056
2055
2055
2054
2054
2054
2054
2054
2054
2054
2053
2052
2051
2051
2053
2054
2054
2052
2048
2041
2036
2034
2042
2063
2103
2161
2218
2250
2244
2198
2133
2076
2047
2047
2060
2073
2076
2069
2059
2054
2052
2054
2049
2042
2037
2044
2072
2123
2185
2240
2274
2286
2283
2277
2272
2276
2277
2277
2277
2277
2277
2277
2276
2276
2276
2276
2276
2276
2275
2275
2275
2276
2276
2276
2276
2277
2281
2287
2295
2303
2309
2311
2310
2306
2301
2297
2294
2293
2292
2291
2289
2285
2279
2272
2264
2256
2248
2240
2231
2224
2231
2228
2195
2142
2128
2195
2352
2552
2698
2713
2594
2409
2247
2159
2163
2195
2189
2141
2108
2142
2278
2516
2806
3078
3279
3401
3469
3513
3563
3618
3660
3694
3725
3755
3782
3807
3829
3850
3868
3886
3901
3912
3917
3918
3917
3916
3915
3915
3916
3916
3916
3916
3916
3916
3916
3916
3916
3916
3916
3916
3916
3916
3916
3916
3916
3916
3916
3916
3916
3916
3916
3916
3916
3916
3916
3916
3917
3917
3916
3914
3909
3903
3896
3890
3884
3866
3815
3851
3946
4036
3999
3711
3150
2437
1783
1350
1175
1172
1224
1254
1197
1167
1155
1147
1141
1136
1134
1134
1136
1137
1138
1138
1144
1150
1150
1134
1098
1044
988
946
926
926
937
952
963
970
976
978
975
972
972
978
991
1006
1020
1033
1041
1049
1057
1066
1075
1085
1095
1105
1113
1120
1127
1136
1144
1151
1155
1157
1159
1162
1174
1199
1241
1300
1360
1399
1401
1364
1306
1253
1226
1231
1254
1277
1290
1290
1285
1284
1287
1292
1298
1305
1313
1320
1328
1336
1345
1353
1362
1369
1377
1385
1393
1400
1408
1415
1422
1429
1436
1443
1450
1457
1463
1469
1475
1481
1488
1495
1503
1511
1519
1526
1535
1547
1562
1580
1599
1616
1629
1638
1645
1651
1658
1665
1672
1677
1682
1686
1690
1692
1693
1692
1690
1687
1683
1679
1675
1672
1670
1670
1672
1675
1678
1681
1684
1687
1689
1692
1695
1698
1702
1705
1709
1713
1716
1719
1723
1726
1729
1733
1736
1741
1744
1748
1752
1755
1758
1761
1767
1778
1794
1812
1828
1840
1846
1849
1849
1850
1853
1856
1858
1860
1862
1868
1887
1875
1838
1795
1794
1891
2105
2410
2729
2994
3172
3277
3343
3401
3481
3548
3606
3660
3707
3749
3788
3825
3857
3885
3905
3916
3920
3919
3916
3915
3915
3916
3916
3916
3906
3863
3887
3979
4077
4070
3834
3328
2650
2000
1553
1368
1372
1446
1500
1474
1444
1436
1433
1431
1431
1431
1433
1435
1437
1439
1442
1445
1448
1450
1453
1457
1461
1465
1469
1473
1477
1482
1487
1492
1498
1504
1519
1548
1533
1487
1438
1451
1589
1879
2336
2828
3197
3312
3121
2686
2160
1744
1491
1421
1464
1532
1566
1545
1536
1536
1538
1541
1544
1546
1549
1553
1558
1563
1567
1569
1569
1567
1564
1560
1562
1575
1606
1660
1726
1779
1798
1775
1720
1659
1616
1600
1603
1608
1606
1597
1586
1581
1582
1585
1587
1590
1594
1599
1604
1609
1615
1620
1626
1631
1636
1642
1648
1655
1665
1667
1665
1663
1672
1701
1752
1816
1875
1914
1930
1932
1929
1929
1936
1941
1944
1947
1950
1954
1959
1965
1971
1977
1982
1988
1994
2000
2006
2012
2016
2019
2021
2022
2023
2022
2020
2016
2011
2005
1998
1992
1985
1979
1972
1964
1956
1951
1949
1949
1949
1949
1948
1948
1949
1951
1954
1956
1958
1961
1963
1959
1948
1932
1914
1901
1896
1899
1904
1909
1915
1921
1932
1947
1963
1977
1987
1994
1998
2001
2003
2006
2009
2010
2011
2011
2012
2013
2015
2017
2018
2019
2019
2019
2018
2017
2016
2015
2015
2015
2016
2016
2017
2018
2018
2018
2018
2018
2018
2019
2020
2020
2021
2021
2021
2020
2020
2020
2020
2021
2022
2023
2023
2023
2023
2023
2023
2023
2024
2025
2025
2026
2026
2025
2025
2024
2024
2024
2025
2024
2024
2026
2030
2032
2021
1992
1944
1887
1836
1804
1792
1794
1802
1808
1809
1810
1811
1812
1814
1816
1818
1821
1823
1824
1825
1824
1824
1825
1827
1830
1833
1836
1839
1842
1844
1845
1846
1847
1849
1853
1860
1869
1867
1858
1851
1859
1895
1957
2031
2092
2127
2134
2125
2112
2103
2106
2108
2119
2146
2192
2251
2303
2324
2303
2246
2177
2125
2104
2111
2129
2139
2136
2123
2110
2102
2097
2095
2093
2091
2091
2091
2091
2092
2092
2092
2092
2092
2092
2092
2093
2094
2094
2095
2095
2095
2094
2095
2096
2096
2097
2098
2099
2099
2101
2102
2103
2105
2107
2110
2113
2116
2119
2122
2125
2128
2132
2135
2138
2141
2144
2146
2148
2149
2150
2149
2147
2143
2138
2132
2124
2116
2107
2099
2091
2083
2076
2070
2065
2061
2058
2056
2055
2054
2053
2052
2051
2050
2050
2049
2049
2049
2049
2049
2049
2049
2048
2048
2048
2048
2048
2048
2049
2049
2049
2048
2048
2048
2047
2047
2049
2052
2053
2050
2040
2025
2009
1999
1996
1999
2005
2010
2011
2010
2009
2007
2006
2005
2006
2007
2009
2010
2011
2011
2011
2011
2012
2012
2012
2013
2013
2014
2015
2015
2015
2016
2016
2017
2017
2017
2018
2018
2019
2019
2020
2020
2020
2020
2020
2021
2021
2022
2022
2023
2024
2024
2024
2025
2026
2025
2025
2024
2025
2029
2035
2041
2045
2046
2042
2037
2031
2024
2018
2020
2030
2042
2043
2023
1977
1916
1861
1827
1817
1824
1835
1843
1841
1841
1842
1844
1846
1848
1849
1849
1849
1848
1848
1849
1851
1854
1857
1860
1862
1863
1864
1866
1867
1869
1871
1873
1876
1878
1880
1882
1884
1885
1887
1889
1891
1890
1889
1885
1882
1879
1882
1894
1922
1971
2034
2087
2112
2094
2042
1979
1931
1914
1923
1935
1938
1934
1936
1959
2008
2065
2114
2144
2152
2148
2142
2140
2145
2148
2149
2149
2148
2148
2147
2147
2147
2147
2147
2147
2147
2148
2147
2147
2146
2146
2146
2147
2148
2149
2150
2150
2151
2152
2153
2154
2155
2157
2159
2159
2159
2167
2185
2190
2172
2128
2071
2032
2032
2071
2131
2179
2200
2197
2177
2162
2156
2147
2136
2125
2116
2110
2105
2100
2093
2092
2098
2103
2101
2078
2033
1970
1907
1861
1837
1832
1838
1845
1847
1848
1850
1852
1856
1860
1866
1873
1879
1883
1886
1885
1883
1879
1884
1893
1885
1852
1815
1818
1917
2138
2458
2804
3100
3305
3427
3497
3554
3621
3686
3743
3795
3841
3878
3904
3918
3921
3919
3916
3914
3915
3916
3916
3916
3916
3916
3916
3916
3916
3916
3916
3916
3916
3916
3916
3916
3916
3916
3916
3916
3916
3916
3916
3916
3916
3916
3916
3916
3916
3916
3916
3916
3916
3916
3916
3916
3916
3916
3916
3916
3916
3916
3916
3916
3916
3916
3916
3916
3916
3916
3916
3916
3916
3916
3917
3917
3915
3913
3908
3902
3896
3891
3886
3883
3880
3877
3874
3871
3868
3864
3860
3855
3850
3843
3836
3829
3822
3815
3808
3801
3794
3787
3781
3774
3767
3760
3753
3746
3739
3733
3726
3720
3712
3705
3697
3689
3681
3674
3669
3664
3658
3651
3643
3631
3619
3606
3596
3593
3601
3626
3670
3723
3763
3767
3730
3661
3590
3541
3522
3526
3533
3533
3522
3504
3489
3477
3468
3458
3450
3443
3437
3431
3426
3421
3417
3411
3405
3398
3390
3383
3376
3370
3364
3359
3354
3348
3343
3337
3331
3324
3316
3307
3296
3287
3280
3275
3272
3269
3264
3258
3252
3247
3243
3241
3240
3237
3236
3233
3231
3229
3226
3224
3221
3217
3213
3207
3199
3190
3179
3168
3155
3143
3130
3116
3103
3090
3077
3065
3055
3044
3035
3026
3019
3013
3007
3002
2997
2992
2986
2981
2976
2972
2969
2969
2970
2970
2968
2965
2960
2954
2949
2945
2940
2936
2932
2929
2927
2925
2922
2919
2915
2911
2906
2901
2897
2892
2889
2886
2883
2881
2878
2875
2872
2869
2865
2861
2858
2856
2854
2850
2843
2831
2817
2803
2792
2785
2782
2779
2777
2775
2774
2775
2775
2775
2772
2769
2766
2762
2759
2757
2755
2753
2751
2748
2745
2741
2738
2735
2732
2731
2730
2728
2726
2723
2720
2716
2712
2708
2705
2702
2699
2697
2694
2691
2689
2688
2686
2684
2681
2679
2676
2675
2675
2675
2675
2673
2671
2669
2668
2669
2671
2673
2674
2673
2673
2671
2670
2669
2668
2668
2667
2666
2664
2662
2659
2656
2653
2649
2644
2637
2628
2620
2612
2607
2604
2602
2601
2601
2603
2615
2642
2689
2749
2800
2819
2797
2741
2674
2625
2607
2615
2633
2643
2641
2630
2619
2612
2609
2606
2603
2601
2600
2598
2597
2595
2592
2588
2583
2577
2572
2568
2567
2565
2566
2568
2567
2563
2550
2525
2490
2450
2412
2384
2369
2365
2369
2375
2382
2388
2394
2399
2405
2408
2407
2403
2397
2392
2390
2390
2390
2390
2389
2387
2386
2385
2383
2381
2375
2367
2358
2347
2333
2260
2297
2389
2478
2451
2184
1659
996
410
66
4083
67
177
245
201
179
179
179
179
179
179
179
179
179
179
179
179
179
179
179
179
179
179
179
179
179
179
179
179
179
179
179
179
179
179
179
179
179
179
179
179
179
179
179
179
179
179
179
179
179
179
179
179
179
179
179
179
179
179
179
179
179
179
179
179
179
179
179
179
179
179
179
179
179
179
179
179
179
179
179
179
179
179
180
180
179
178
177
178
183
193
207
223
239
255
271
287
303
318
332
347
361
375
389
404
420
435
448
460
471
482
495
509
524
540
555
569
583
595
608
619
631
643
654
666
678
690
702
714
726
738
749
759
769
777
786
794
803
812
821
830
840
849
859
870
880
888
894
898
903
909
922
946
987
1050
1122
1178
1200
1179
1127
1073
1040
1036
1054
1075
1089
1092
1090
1090
1095
1101
1107
1115
1122
1130
1139
1148
1157
1166
1175
1183
1192
1201
1210
1219
1227
1235
1243
1252
1260
1268
1276
1284
1291
1299
1307
1316
1324
1332
1340
1348
1356
1365
1373
1382
1390
1400
1410
1421
1432
1442
1451
1460
1467
1474
1481
1487
1494
1499
1504
1507
1510
1513
1517
1520
1522
1523
1522
1521
1520
1520
1521
1522
1523
1525
1529
1533
1536
1538
1539
1540
1543
1550
1558
1566
1572
1577
1581
1584
1589
1594
1598
1601
1605
1610
1615
1618
1620
1620
1620
1621
1625
1630
1635
1641
1645
1649
1653
1658
1662
1666
1669
1673
1676
1679
1682
1685
1689
1693
1697
1700
1703
1705
1708
1711
1714
1717
1721
1724
1727
1730
1733
1735
1738
1740
1743
1746
1749
1751
1754
1756
1757
1759
1760
1762
1765
1768
1771
1774
1777
1779
1781
1784
1786
1789
1792
1795
1797
1800
1802
1805
1807
1809
1811
1813
1815
1817
1820
1822
1824
1826
1828
1830
1831
1833
1835
1837
1839
1841
1843
1845
1846
1847
1848
1850
1853
1857
1861
1865
1868
1870
1871
1872
1873
1876
1878
1880
1881
1882
1883
1883
1883
1884
1885
1886
1888
1890
1893
1895
1897
1898
1899
1900
1901
1902
1903
1904
1906
1907
1909
1910
1912
1914
1916
1916
1912
1902
1888
1875
1865
1868
1887
1927
1988
2052
2095
2099
2061
1999
1940
1906
1903
1919
1933
1938
1932
1922
1916
1915
1914
1913
1915
1918
1920
1922
1921
1919
1917
1917
1919
1923
1926
1928
1929
1930
1930
1930
1929
1927
1926
1927
1928
1930
1933
1938
1946
1956
1967
1976
1983
1987
1991
1994
1998
2003
2008
2014
2019
2025
2030
2034
2038
2041
2044
2047
2049
2051
2053
2053
2052
2048
2043
2036
2029
2021
2015
2008
2003
1998
1993
1988
1984
1980
1978
1977
1979
1983
1987
1991
1993
1993
1991
1989
1988
1987
1987
1986
1987
1987
1988
1990
1991
1991
1991
1991
1991
1992
1993
1994
1996
1997
1997
1997
1997
1997
1998
1999
2000
2001
2002
2002
2003
2003
2003
2003
2004
2005
2006
2006
2006
2006
2006
2005
2004
2004
2004
2004
2005
2006
2007
2008
2008
2008
2008
2007
2007
2007
2007
2007
2006
2004
2002
2000
1998
1997
1996
1995
1995
1995
1995
1994
1994
1993
1991
1990
1990
1989
1989
1989
1989
1990
1991
1993
1995
1997
1998
1999
1999
1999
2000
2000
2001
2001
2000
1999
1998
1997
1997
1998
2000
2000
2000
2000
2000
2000
2001
2001
2002
2002
2003
2004
2005
2006
2007
2009
2010
2012
2013
2013
2014
2014
2012
2009
2003
1998
1994
1995
2005
2029
2070
2129
2185
2215
2204
2155
2087
2032
2006
2010
2028
2043
2046
2038
2028
2022
2019
2018
2017
2017
2017
2018
2018
2019
2020
2020
2021
2022
2023
2025
2026
2027
2028
2028
2029
2029
2031
2032
2034
2035
2037
2038
2040
2041
2043
2045
2047
2049
2053
2056
2059
2061
2062
2064
2065
2068
2071
2072
2074
2075
2077
2080
2083
2085
2085
2083
2081
2077
2072
2066
2059
2052
2044
2037
2030
2024
2019
2015
2012
2010
2008
2007
2006
2005
2004
2004
2004
2004
2005
2005
2006
2006
2006
2006
2006
2006
2007
2009
2010
2011
2012
2012
2013
2014
2015
2016
2017
2017
2017
2016
2015
2014
2014
2014
2014
2015
2016
2017
2018
2018
2019
2019
2019
2019
2019
2019
2019
2020
2020
2021
2022
2023
2023
2024
2024
2024
2025
2027
2031
2035
2039
2041
2042
2043
2042
2041
2041
2042
2042
2042
2043
2042
2042
2042
2042
2042
2042
2042
2043
2043
2044
2044
2044
2044
2043
2043
2043
2043
2043
2044
2044
2044
2044
2044
2043
2043
2043
2044
2044
2044
2045
2044
2044
2043
2043
2042
2042
2041
2041
2041
2042
2043
2044
2046
2046
2045
2044
2043
2043
2042
2042
2042
2041
2040
2039
2038
2039
2039
2039
2038
2036
2034
2033
2032
2030
2029
2028
2027
2027
2028
2029
2031
2032
2032
2033
2034
2035
2036
2037
2038
2037
2034
2029
2022
2017
2015
2021
2041
2080
2140
2202
2243
2244
2203
2136
2075
2040
2035
2047
2058
2061
2055
2046
2041
2039
2038
2038
2038
2039
2040
2042
2043
2044
2045
2046
2046
2046
2047
2048
2050
2052
2054
2055
2056
2056
2056
2056
2058
2061
2064
2065
2066
2066
2066
2069
2075
2085
2092
2105
2123
2117
2095
2076
2101
2211
2422
2703
2989
3221
3374
3464
3519
3567
3633
3685
3728
3766
3798
3826
3851
3873
3891
3904
3913
3917
3918
3917
3916
3915
3915
3916
3916
3916
3916
3916
3916
3916
3916
3916
3916
3916
3916
3916
3916
3916
3916
3916
3916
3916
3916
3916
3916
3916
3916
3916
3916
3916
3916
3916
3916
3916
3916
3916
3916
3916
3916
3916
3916
3916
3916
3916
3916
3916
3916
3916
3916
3916
3916
3916
3916
3916
3916
3916
3916
3916
3918
3918
3916
3911
3903
3892
3882
3871
3861
3851
3842
3834
3826
3820
3813
3806
3799
3791
3784
3776
3768
3760
3752
3744
3736
3728
3720
3713
3706
3697
3689
3681
3673
3666
3658
3651
3642
3629
3603
3562
3512
3464
3433
3428
3445
3473
3497
3510
3512
3509
3505
3505
3503
3501
3498
3494
3490
3484
3479
3472
3467
3462
3459
3456
3448
3446
3449
3454
3449
3423
3372
3303
3234
3183
3155
3145
3143
3140
3129
3119
3110
3101
3093
3086
3079
3073
3066
3062
3056
3046
3035
3027
3028
3041
3066
3095
3122
3140
3149
3153
3154
3156
3157
3154
3149
3145
3142
3144
3158
3189
3241
3300
3345
3354
3320
3255
3188
3143
3127
3132
3141
3141
3132
3119
3109
3105
3100
3094
3089
3084
3080
3076
3072
3066
3057
3048
3040
3035
3034
3034
3035
3031
3028
3034
3037
3037
3022
2983
2919
2841
2764
2704
2668
2659
2670
2686
2703
2719
2726
2730
2736
2743
2750
2757
2763
2769
2775
2780
2784
2787
2791
2793
2796
2798
2799
2798
2796
2793
2788
2780
2772
2764
2757
2752
2747
2743
2740
2736
2731
2728
2727
2726
2722
2715
2704
2691
2680
2674
2674
2676
2679
2678
2672
2665
2656
2648
2643
2642
2642
2640
2638
2638
2642
2652
2665
2677
2686
2690
2691
2692
2693
2696
2697
2699
2701
2702
2703
2702
2698
2692
2682
2668
2653
2639
2625
2611
2594
2577
2560
2545
2539
2538
2541
2545
2547
2547
2547
2548
2550
2551
2553
2554
2555
2556
2557
2558
2558
2559
2559
2559
2558
2557
2556
2555
2555
2557
2561
2564
2565
2564
2563
2564
2570
2580
2591
2602
2608
2612
2612
2611
2610
2612
2614
2614
2610
2598
2580
2561
2548
2544
2549
2558
2566
2571
2573
2573
2573
2574
2575
2576
2577
2578
2578
2578
2576
2575
2574
2574
2575
2577
2580
2585
2591
2596
2600
2603
2605
2605
2606
2607
2607
2605
2601
2600
2607
2618
2620
2603
2558
2492
2425
2375
2351
2348
2355
2362
2364
2364
2367
2368
2365
2360
2355
2353
2360
2380
2416
2469
2521
2549
2467
2466
2507
2561
2529
2276
1758
1076
454
72
4068
52
172
251
202
179
179
179
179
179
179
179
179
179
179
179
179
179
179
179
179
179
179
179
179
179
179
179
179
179
179
179
179
179
179
179
179
179
179
179
179
179
179
179
179
179
179
179
179
179
179
179
179
179
179
179
179
179
179
179
179
179
179
179
179
179
179
179
179
179
179
179
179
179
179
179
179
179
179
179
179
179
179
179
179
179
179
179
179
179
180
180
179
178
177
177
181
191
205
222
241
259
276
291
307
322
338
354
371
387
402
416
430
445
459
474
489
501
512
524
536
552
594
614
591
544
526
620
885
1306
1793
2224
2526
2696
2782
2836
2913
2996
3063
3124
3179
3230
3277
3320
3359
3394
3424
3450
3472
3492
3513
3533
3552
3571
3589
3605
3621
3636
3650
3662
3673
3682
3690
3698
3701
3660
3646
3756
3915
3999
3828
3278
2407
1458
712
324
254
343
447
463
403
394
395
400
406
412
418
423
429
436
444
455
467
480
491
501
508
514
521
529
544
571
617
685
758
815
834
811
758
705
677
682
708
737
756
764
788
800
772
719
685
749
974
1359
1824
2252
2564
2747
2845
2910
2997
3097
3183
3260
3328
3388
3440
3489
3531
3569
3604
3635
3665
3696
3726
3752
3776
3793
3808
3821
3832
3843
3857
3872
3886
3897
3900
3899
3896
3896
3902
3910
3916
3919
3919
3916
3915
3916
3916
3915
3916
3917
3918
3916
3912
3903
3893
3881
3869
3857
3846
3835
3824
3816
3809
3805
3803
3799
3792
3780
3765
3750
3738
3731
3721
3683
3628
3725
3884
3974
3825
3198
2206
1137
340
17
99
331
478
450
253
155
131
143
206
233
189
120
56
83
285
684
1202
1710
2095
2327
2444
2505
2565
2656
2723
2781
2834
2884
2928
2970
3011
3047
3076
3091
3097
3097
3094
3085
3069
3048
3030
3031
3057
3105
3161
3208
3239
3254
3263
3275
3290
3303
3312
3314
3309
3300
3293
3290
3292
3296
3300
3303
3303
3303
3304
3304
3305
3307
3308
3309
3309
3309
3309
3307
3306
3308
3317
3330
3346
3358
3364
3363
3358
3352
3349
3347
3346
3344
3341
3338
3335
3331
3327
3322
3318
3315
3312
3310
3308
3306
3304
3301
3297
3293
3289
3285
3280
3276
3271
3265
3259
3253
3248
3242
3236
3228
3220
3211
3202
3195
3188
3182
3176
3171
3165
3161
3156
3152
3147
3142
3137
3131
3126
3121
3117
3113
3109
3103
3094
3083
3072
3063
3060
3069
3097
3148
3209
3258
3270
3236
3169
3094
3041
3019
3021
3029
3030
3022
3007
2995
2987
2980
2973
2967
2963
2959
2955
2952
2949
2946
2942
2939
2935
2930
2925
2922
2922
2924
2928
2932
2936
2940
2944
2947
2950
2951
2951
2952
2952
2949
2941
2926
2907
2889
2876
2869
2866
2866
2864
2860
2856
2854
2855
2857
2860
2861
2858
2853
2846
2840
2834
2828
2821
2812
2803
2793
2782
2773
2764
2754
2746
2738
2731
2724
2718
2713
2708
2704
2700
2697
2693
2689
2685
2681
2677
2674
2671
2668
2666
2663
2661
2658
2656
2653
2651
2648
2645
2643
2640
2637
2635
2631
2628
2624
2621
2617
2614
2611
2608
2606
2603
2600
2597
2594
2592
2589
2587
2584
2582
2580
2577
2575
2573
2570
2567
2565
2562
2560
2558
2556
2553
2551
2548
2545
2543
2540
2538
2536
2534
2531
2529
2527
2524
2522
2519
2517
2515
2513
2510
2508
2506
2504
2501
2499
2496
2494
2491
2490
2488
2487
2485
2483
2480
2477
2475
2474
2472
2471
2470
2468
2466
2464
2461
2459
2457
2456
2454
2453
2451
2449
2447
2445
2443
2441
2439
2437
2435
2434
2432
2430
2429
2427
2425
2422
2420
2419
2417
2416
2414
2413
2411
2409
2406
2404
2402
2400
2398
2396
2395
2397
2401
2406
2412
2415
2416
2414
2411
2408
2407
2406
2405
2404
2401
2396
2390
2382
2374
2365
2356
2348
2342
2337
2336
2336
2337
2337
2337
2338
2341
2346
2352
2357
2362
2364
2365
2366
2368
2370
2370
2366
2356
2343
2326
2309
2299
2303
2329
2380
2440
2486
2496
2464
2404
2344
2306
2297
2307
2318
2321
2316
2305
2300
2297
2295
2293
2293
2293
2294
2295
2296
2297
2298
2299
2299
2300
2300
2300
2301
2302
2303
2304
2305
2305
2306
2306
2307
2308
2309
2310
2311
2313
2315
2317
2317
2315
2313
2312
2310
2305
2295
2282
2268
2259
2257
2259
2265
2269
2272
2273
2274
2275
2274
2273
2270
2266
2262
2257
2252
2246
2240
2234
2228
2222
2217
2213
2210
2209
2208
2208
2209
2209
2209
2208
2207
2206
2206
2206
2206
2206
2207
2208
2208
2209
2209
2211
2213
2214
2216
2217
2218
2219
2219
2219
2218
2218
2218
2219
2220
2220
2221
2221
2220
2220
2220
2220
2220
2220
2221
2221
2221
2221
2221
2221
2220
2220
2220
2220
2220
2220
2220
2220
2219
2219
2219
2218
2218
2218
2218
2218
2218
2218
2218
2217
2217
2216
2216
2216
2216
2217
2218
2218
2218
2218
2217
2216
2216
2216
2217
2218
2218
2218
2217
2217
2216
2216
2216
2216
2215
2214
2214
2216
2219
2224
2228
2231
2233
2234
2235
2236
2237
2238
2239
2239
2238
2237
2236
2235
2234
2233
2233
2233
2233
2234
2234
2234
2234
2234
2234
2234
2234
2233
2232
2232
2231
2231
2230
2230
2229
2229
2230
2231
2232
2233
2233
2233
2232
2232
2232
2233
2233
2233
2232
2230
2228
2227
2226
2225
2225
2224
2223
2223
2222
2222
2222
2221
2221
2221
2223
2226
2229
2232
2234
2235
2235
2236
2237
2238
2240
2239
2237
2231
2225
2220
2219
2229
2255
2301
2362
2417
2443
2428
2376
2310
2258
2236
2240
2253
2262
2260
2251
2241
2234
2227
2216
2204
2194
2189
2188
2190
2193
2196
2197
2198
2197
2195
2192
2192
2193
2196
2199
2203
2205
2207
2209
2210
2211
2210
2214
2219
2225
2225
2217
2201
2181
2166
2158
2159
2164
2166
2122
2172
2230
2236
2093
1732
1199
636
219
31
37
127
206
239
179
179
179
179
179
179
179
179
179
179
179
179
179
179
179
179
179
179
179
179
179
179
179
179
179
179
183
190
186
168
147
144
190
301
469
661
840
984
1092
1178
1258
1343
1423
1495
1561
1621
1678
1735
1792
1774
1860
1996
2139
2187
2014
1581
987
433
88
4092
63
168
243
197
179
179
179
179
179
179
179
179
181
197
194
169
131
116
171
329
585
887
1173
1400
1560
1674
1764
1863
1947
2026
2082
2182
2294
2363
2296
2021
1545
972
467
151
48
86
161
216
202
189
179
179
179
179
179
179
179
179
179
179
179
179
179
179
179
179
179
179
179
179
179
179
179
179
179
179
179
179
179
179
179
179
179
179
179
179
179
179
179
179
179
179
179
179
179
179
179
179
179
179
179
179
179
180
179
178
177
177
180
188
201
218
236
254
269
282
293
304
315
328
348
381
433
506
582
640
655
627
572
520
499
512
546
581
602
611
612
618
627
638
649
660
671
682
694
705
718
731
745
758
771
781
791
799
808
818
830
842
855
867
880
892
905
917
929
940
950
961
973
985
998
1011
1023
1036
1049
1063
1077
1091
1105
1119
1132
1144
1155
1165
1174
1182
1191
1199
1207
1214
1218
1220
1220
1219
1216
1214
1213
1212
1213
1215
1218
1221
1225
1229
1233
1238
1245
1252
1259
1266
1273
1280
1286
1293
1299
1305
1311
1318
1325
1332
1339
1345
1351
1357
1363
1370
1376
1382
1389
1395
1402
1408
1414
1419
1424
1429
1435
1441
1448
1454
1460
1466
1472
1477
1481
1486
1491
1496
1502
1508
1513
1518
1523
1527
1531
1536
1540
1545
1549
1553
1558
1562
1567
1572
1576
1580
1584
1588
1592
1596
1600
1603
1606
1610
1613
1617
1621
1626
1630
1634
1637
1641
1644
1648
1652
1656
1659
1661
1662
1664
1666
1668
1671
1675
1678
1680
1683
1686
1690
1693
1696
1699
1701
1703
1705
1707
1711
1715
1720
1724
1729
1733
1735
1737
1740
1743
1747
1750
1754
1756
1757
1758
1759
1760
1762
1764
1765
1767
1770
1773
1776
1779
1781
1783
1785
1787
1789
1791
1794
1797
1799
1802
1804
1806
1808
1810
1813
1815
1815
1813
1811
1808
1808
1817
1839
1883
1946
2007
2042
2035
1988
1921
1866
1839
1840
1853
1860
1856
1843
1831
1826
1825
1826
1826
1827
1829
1830
1832
1834
1836
1838
1840
1840
1840
1840
1840
1841
1843
1845
1847
1850
1852
1855
1857
1859
1862
1866
1874
1880
1882
1882
1883
1892
1913
1944
1977
2002
2016
2021
2022
2023
2025
2032
2038
2045
2048
2047
2035
2015
1991
1970
1957
1950
1947
1943
1936
1927
1919
1912
1905
1900
1895
1891
1887
1884
1882
1881
1881
1880
1878
1876
1874
1873
1872
1873
1874
1876
1878
1880
1881
1883
1884
1885
1887
1888
1889
1891
1892
1895
1897
1899
1901
1902
1904
1904
1905
1906
1908
1910
1912
1914
1915
1916
1918
1918
1919
1922
1922
1919
1916
1919
1931
1952
1974
1987
1985
1969
1949
1935
1927
1929
1930
1930
1928
1927
1928
1928
1929
1929
1931
1935
1941
1949
1955
1959
1961
1960
1960
1960
1962
1964
1965
1967
1970
1967
1961
1953
1957
1981
2020
2060
2083
2076
2044
2004
1973
1959
1968
1975
1975
1966
1962
1975
2013
2066
2139
2178
2175
2153
2165
2262
2520
2886
3245
3490
3570
3523
3464
3483
3617
3788
3904
3934
3898
3837
3814
3842
3833
3859
3950
4056
7
3969
3575
2978
2348
1882
1669
1661
1741
1816
1808
1767
1762
1760
1781
1790
1755
1693
1649
1699
1909
2278
2728
3142
3442
3617
3709
3763
3827
3889
3917
3925
3921
3916
3913
3913
3915
3916
3916
3916
3916
3916
3916
3916
3916
3916
3916
3916
3916
3916
3916
3916
3916
3916
3916
3916
3916
3916
3916
3916
3916
3916
3916
3916
3916
3854
3869
3964
4084
22
3916
3412
2685
1953
1421
1178
1156
1226
1292
1257
1219
1223
1233
1199
1135
1084
1124
1328
1708
2187
2647
2989
3188
3285
3339
3400
3488
3557
3615
3665
3708
3746
3779
3808
3833
3855
3873
3888
3900
3906
3917
3925
3926
3916
3895
3870
3852
3850
3861
3880
3897
3909
3917
3917
3918
3909
3891
3869
3847
3828
3812
3795
3761
3688
3715
3813
3910
3864
3527
2873
2042
1278
774
576
585
663
715
665
641
633
630
630
631
633
637
642
647
651
655
657
661
666
674
683
693
702
711
721
730
738
747
756
765
775
785
795
806
817
828
838
848
858
869
879
889
899
908
919
931
946
963
980
995
1005
1012
1017
1022
1029
1038
1046
1054
1063
1071
1079
1087
1095
1103
1112
1121
1129
1138
1146
1153
1161
1168
1176
1183
1192
1199
1207
1215
1222
1229
1236
1243
1250
1258
1266
1273
1280
1287
1293
1300
1306
1313
1319
1326
1333
1340
1347
1354
1360
1366
1371
1376
1382
1388
1395
1402
1408
1414
1420
1426
1432
1438
1445
1451
1456
1462
1468
1473
1478
1482
1486
1489
1493
1497
1502
1507
1513
1518
1523
1528
1533
1538
1543
1546
1549
1551
1555
1561
1567
1574
1580
1584
1587
1590
1593
1597
1601
1605
1608
1612
1615
1617
1620
1623
1627
1632
1637
1642
1647
1651
1656
1662
1668
1673
1678
1682
1684
1686
1688
1692
1695
1699
1702
1705
1708
1711
1715
1718
1721
1723
1724
1726
1729
1732
1735
1738
1740
1742
1744
1746
1748
1751
1755
1759
1762
1763
1761
1755
1749
1745
1748
1766
1803
1864
1933
1986
2003
1974
1913
1846
1800
1782
1787
1796
1801
1797
1788
1783
1781
1780
1780
1781
1783
1786
1789
1793
1796
1799
1802
1804
1806
1809
1811
1814
1817
1820
1824
1827
1829
1831
1833
1836
1838
1841
1845
1848
1852
1855
1859
1862
1865
1868
1872
1876
1881
1886
1891
1896
1900
1905
1909
1913
1916
1920
1925
1931
1933
1930
1920
1905
1889
1877
1871
1869
1869
1868
1865
1861
1858
1856
1854
1853
1853
1854
1855
1856
1858
1859
1860
1862
1863
1866
1868
1870
1872
1874
1876
1879
1881
1883
1883
1884
1886
1889
1894
1901
1907
1912
1914
1915
1915
1915
1917
1919
1916
1918
1929
1942
1948
1933
1889
1821
1751
1700
1679
1683
1699
1714
1720
1720
1722
1725
1727
1730
1733
1736
1738
1740
1742
1744
1746
1749
1751
1754
1757
1760
1763
1765
1768
1770
1772
1775
1777
1779
1782
1784
1787
1790
1792
1795
1796
1797
1801
1807
1813
1813
1803
1783
1759
1739
1729
1728
1734
1741
1747
1749
1752
1755
1758
1761
1764
1766
1769
1771
1774
1777
1780
1782
1785
1787
1789
1792
1794
1796
1799
1802
1805
1807
1809
1811
1813
1816
1819
1822
1824
1826
1828
1831
1833
1835
1837
1839
1841
1843
1845
1847
1850
1852
1854
1855
1856
1858
1859
1862
1864
1865
1866
1868
1871
1874
1877
1880
1881
1883
1886
1889
1893
1896
1898
1899
1899
1899
1902
1910
1907
1893
1889
1907
1955
2020
2073
2086
2051
1990
1933
1903
1899
1914
1925
1923
1921
1921
1922
1923
1926
1931
1936
1938
1936
1932
1927
1922
1923
1935
1965
2017
2083
2142
2168
2149
2092
2025
1975
1956
1964
1981
1992
1989
1977
1965
1959
1960
1966
1975
1984
1990
1991
1989
1984
1974
1965
1964
1981
2020
2075
2131
2173
2194
2197
2192
2187
2186
2190
2191
2191
2192
2193
2195
2196
2196
2197
2197
2198
2199
2201
2204
2207
2209
2211
2213
2215
2218
2221
2223
2226
2227
2228
2229
2229
2229
2227
2224
2220
2216
2211
2205
2197
2189
2179
2169
2160
2165
2144
2125
2117
2150
2155
2165
2183
2213
2271
2376
2481
2508
2432
2287
2125
2024
2008
2099
2184
2245
2269
2239
2155
2066
2001
1950
1923
1917
1929
1962
2012
2082
2153
2200
2218
2215
2205
2197
2205
2212
2212
2200
2171
2125
2073
2027
1993
1974
1966
1963
1962
1960
1958
1958
1956
1956
1955
1956
1956
1956
1957
1957
1958
1959
1960
1960
1961
1961
1961
1963
1963
1960
1958
1959
1968
1985
2008
2031
2045
2050
2050
2048
2046
2046
2047
2046
2046
2046
2047
2047
2047
2045
2043
2042
2043
2043
2045
2045
2045
2044
2044
2043
2043
2042
2040
2043
2050
2055
2050
2029
1991
1948
1913
1894
1891
1897
1904
1910
1912
1917
1922
1923
1919
1912
1905
1900
1897
1897
1898
1900
1905
1911
1921
1930
1937
1940
1941
1942
1942
1945
1947
1948
1950
1950
1950
1950
1949
1949
1949
1951
1953
1950
1947
1947
1959
1985
2023
2062
2092
2106
2108
2104
2100
2099
2102
2102
2103
2104
2105
2106
2106
2105
2102
2098
2096
2095
2098
2111
2141
2193
2256
2307
2322
2291
2226
2155
2108
2097
2111
2131
2140
2136
2124
2113
2107
2104
2100
2098
2096
2096
2097
2099
2100
2101
2101
2101
2100
2100
2100
2100
2100
2100
2101
2101
2102
2102
2102
2100
2100
2104
2111
2115
2110
2093
2063
2031
2005
1991
1991
1997
2004
2009
2011
2015
2019
2023
2026
2028
2029
2030
2032
2033
2034
2033
2032
2030
2027
2023
2017
2010
2001
1991
1981
1972
1965
1958
1953
1948
1944
1939
1936
1934
1933
1932
1933
1934
1935
1936
1935
1934
1932
1931
1932
1934
1936
1938
1939
1939
1939
1939
1940
1941
1944
1947
1951
1954
1957
1959
1960
1961
1962
1963
1963
1964
1965
1966
1966
1966
1966
1967
1968
1970
1971
1972
1973
1972
1971
1971
1970
1971
1972
1974
1975
1976
1977
1978
1978
1979
1979
1979
1980
1980
1981
1981
1983
1984
1984
1984
1985
1985
1986
1987
1988
1989
1990
1991
1991
1992
1991
1991
1992
1992
1994
1995
1995
1995
1995
1994
1994
1994
1994
1995
1996
1996
1997
1997
1997
1997
1996
1997
1997
1998
1999
1999
2000
2000
2000
2000
1999
1999
2000
2000
2001
2001
2001
2001
2003
2005
2005
2000
1990
1977
1964
1956
1952
1953
1954
1956
1956
1955
1956
1957
1960
1963
1965
1967
1968
1970
1971
1974
1978
1982
1983
1981
1977
1970
1964
1959
1958
1958
1959
1960
1961
1961
1963
1964
1966
1968
1969
1969
1968
1967
1967
1970
1975
1980
1985
1988
1989
1989
1988
1987
1987
1987
1988
1988
1988
1995
2015
2055
2117
2182
2226
2229
2190
2124
2060
2022
2011
2020
2033
2042
2043
2037
2028
2016
2001
1989
1981
1979
1981
1988
2000
2014
2028
2040
2045
2047
2046
2046
2047
2047
2042
2033
2024
2017
2015
2017
2020
2024
2022
2020
2019
2022
2028
2036
2041
2042
2041
2039
2041
2042
2044
2047
2050
2057
2069
2081
2092
2099
2102
2103
2104
2104
2105
2105
2102
2097
2091
2086
2084
2085
2086
2081
2068
2048
2027
2010
1999
1994
1992
1992
1994
2001
2013
2025
2032
2033
2033
2048
2080
2123
2160
2169
2147
2104
2060
2031
2021
2024
2029
2032
2031
2030
2031
2031
2031
2031
2030
2030
2030
2030
2030
2030
2030
2031
2032
2033
2031
2027
2022
2016
2011
2008
2008
2008
2009
2009
2009
2008
2008
2008
2008
2008
2008
2008
2008
2008
2008
2008
2008
2008
2009
2010
2011
2011
2011
2013
2013
2011
2012
2016
2028
2047
2069
2088
2100
2102
2100
2096
2094
2095
2096
2095
2095
2094
2093
2092
2091
2090
2090
2090
2090
2090
2090
2089
2088
2087
2086
2086
2085
2084
2083
2083
2083
2082
2081
2080
2079
2078
2077
2076
2077
2078
2077
2075
2072
2067
2062
2060
2060
2062
2064
2066
2067
2067
2067
2067
2067
2066
2067
2067
2067
2068
2068
2069
2069
2068
2068
2067
2067
2067
2068
2068
2068
2068
2068
2067
2067
2066
2066
2066
2066
2065
2065
2065
2064
2064
2063
2063
2062
2061
2061
2061
2061
2061
2061
2062
2063
2064
2065
2066
2067
2067
2067
2068
2068
2068
2067
2066
2065
2064
2061
2061
2064
2067
2066
2058
2041
2018
1995
1979
1973
1974
1977
1980
1980
1979
1979
1979
1979
1980
1981
1982
1984
1986
1986
1984
1979
1972
1966
1962
1966
1984
2022
2082
2150
2200
2211
2178
2116
2053
2014
2004
2013
2023
2025
2017
2005
1998
1995
1993
1992
1993
1994
1995
1997
2000
2000
2000
2003
2011
2027
2048
2070
2086
2095
2096
2093
2091
2091
2094
2095
2097
2098
2099
2100
2100
2101
2102
2103
2105
2107
2108
2110
2112
2113
2116
2119
2122
2126
2129
2132
2135
2137
2138
2139
2139
2139
2138
2138
2136
2133
2129
2124
2118
2111
2104
2097
2090
2084
2079
2075
2071
2069
2067
2065
2063
2061
2060
2059
2058
2059
2059
2060
2061
2061
2062
2062
2062
2062
2062
2063
2063
2063
2063
2063
2063
2063
2063
2063
2063
2064
2064
2064
2064
2064
2064
2063
2063
2064
2064
2064
2064
2064
2063
2063
2063
2063
2064
2064
2064
2064
2065
2065
2064
2064
2064
2063
2063
2063
2063
2063
2062
2063
2063
2063
2063
2063
2063
2062
2063
2063
2064
2064
2064
2064
2064
2063
2063
2063
2064
2064
2065
2065
2065
2065
2064
2064
2064
2064
2064
2064
2065
2065
2065
2065
2066
2066
2065
2065
2065
2065
2066
2066
2067
2067
2066
2066
2066
2066
2066
2067
2067
2067
2067
2067
2067
2067
2067
2067
2067
2067
2068
2068
2068
2069
2069
2070
2070
2070
2071
2072
2073
2074
2075
2076
2077
2079
2080
2084
2085
2081
2076
2079
2099
2139
2192
2245
2283
2300
2301
2296
2290
2290
2292
2291
2290
2289
2287
2286
2284
2282
2281
2279
2277
2275
2272
2269
2267
2267
2267
2268
2268
2268
2267
2265
2263
2261
2260
2259
2257
2255
2252
2250
2247
2244
2242
2240
2239
2237
2235
2234
2232
2231
2230
2228
2226
2223
2222
2220
2219
2218
2216
2215
2213
2212
2210
2209
2208
2206
2202
2196
2189
2182
2178
2184
2204
2245
2305
2364
2399
2394
2349
2283
2225
2194
2190
2200
2208
2206
2195
2183
2176
2172
2169
2167
2165
2163
2163
2162
2162
2162
2162
2162
2162
2161
2161
2160
2159
2158
2158
2158
2158
2158
2158
2158
2158
2157
2157
2157
2158
2159
2160
2161
2162
2163
2163
2164
2165
2167
2169
2171
2173
2175
2176
2176
2175
2172
2168
2163
2158
2154
2151
2150
2150
2148
2144
2137
2128
2119
2112
2104
2094
2086
2078
2068
2051
2022
1980
1933
1894
1872
1866
1870
1875
1877
1872
1871
1871
1872
1872
1873
1873
1874
1875
1876
1877
1878
1879
1881
1882
1883
1885
1886
1888
1889
1891
1892
1893
1894
1895
1897
1899
1900
1902
1903
1905
1905
1907
1908
1909
1911
1913
1914
1916
1917
1918
1919
1920
1921
1923
1924
1925
1927
1928
1929
1930
1930
1931
1933
1934
1935
1937
1938
1939
1940
1941
1941
1942
1943
1944
1946
1947
1948
1949
1950
1951
1951
1952
1953
1955
1956
1957
1959
1960
1960
1961
1961
1962
1963
1964
1965
1966
1967
1968
1968
1969
1970
1977
1979
1972
1962
1958
1972
2014
2077
2145
2196
2220
2223
2216
2209
2210
2215
2215
2215
2214
2212
2211
2210
2209
2209
2209
2209
2209
2207
2206
2204
2202
2201
2200
2199
2198
2197
2197
2196
2195
2193
2192
2190
2189
2189
2188
2187
2186
2185
2183
2182
2180
2178
2175
2172
2169
2167
2165
2164
2162
2159
2156
2153
2152
2152
2153
2155
2156
2157
2157
2156
2155
2154
2154
2154
2154
2153
2152
2150
2148
2146
2145
2143
2142
2142
2141
2141
2140
2139
2138
2136
2135
2135
2135
2134
2134
2133
2132
2132
2131
2129
2129
2130
2130
2130
2127
2121
2115
2109
2106
2112
2131
2169
2225
2283
2318
2316
2274
2210
2152
2120
2117
2130
2141
2143
2134
2123
2116
2113
2110
2108
2107
2106
2106
2107
2107
2108
2108
2109
2108
2108
2107
2107
2107
2107
2107
2107
2108
2108
2108
2108
2108
2109
2109
2111
2112
2113
2114
2115
2116
2117
2119
2120
2122
2125
2128
2131
2133
2136
2138
2140
2141
2142
2144
2145
2146
2147
2147
2145
2143
2140
2136
2131
2125
2118
2112
2105
2098
2092
2085
2079
2074
2070
2067
2066
2065
2065
2064
2064
2064
2064
2063
2063
2063
2063
2064
2064
2065
2064
2064
2064
2064
2064
2064
2064
2065
2065
2066
2066
2066
2065
2065
2065
2065
2066
2067
2067
2067
2067
2067
2066
2066
2066
2066
2066
2066
2066
2066
2066
2066
2066
2065
2065
2065
2065
2065
2065
2065
2065
2065
2064
2064
2064
2064
2064
2065
2065
2065
2065
2064
2064
2063
2063
2063
2064
2064
2064
2064
2064
2064
2063
2063
2063
2063
2064
2064
2064
2064
2064
2064
2063
2063
2062
2062
2063
2063
2063
2063
2063
2062
2062
2062
2062
2062
2062
2062
2062
2062
2062
2062
2062
2061
2061
2061
2062
2062
2062
2062
2061
2061
2061
2061
2061
2061
2061
2061
2061
2061
2061
2061
2061
2061
2061
2061
2061
2061
2061
2061
2061
2061
2060
2060
2059
2060
2060
2061
2061
2061
2061
2060
2060
2060
2060
2060
2061
2061
2061
2062
2061
2061
2061
2061
2060
2060
2060
2059
2059
2059
2058
2058
2057
2057
2057
2059
2061
2063
2064
2065
2065
2065
2066
2067
2068
2068
2069
2068
2067
2066
2064
2064
2063
2063
2064
2066
2068
2069
2070
2069
2068
2067
2066
2066
2065
2065
2064
2064
2063
2063
2063
2064
2064
2063
2061
2056
2051
2047
2043
2047
2062
2094
2146
2204
2246
2254
2222
2163
2103
2066
2057
2068
2081
2085
2079
2068
2060
2057
2054
2053
2052
2051
2051
2052
2053
2054
2055
2056
2057
2057
2058
2058
2058
2058
2059
2059
2061
2062
2063
2064
2065
2065
2066
2067
2068
2069
2070
2071
2071
2071
2072
2074
2076
2078
2080
2083
2086
2089
2092
2095
2096
2097
2098
2098
2099
2100
2101
2100
2097
2094
2089
2085
2081
2077
2072
2067
2062
2056
2051
2046
2040
2035
2032
2030
2029
2029
2030
2030
2029
2029
2029
2029
2029
2029
2030
2030
2031
2032
2032
2032
2032
2033
2033
2033
2033
2033
2033
2033
2033
2033
2033
2033
2033
2034
2034
2034
2035
2035
2036
2037
2037
2037
2037
2037
2037
2038
2039
2040
2041
2041
2041
2041
2041
2041
2041
2041
2041
2042
2042
2043
2043
2043
2042
2042
2041
2041
2042
2043
2044
2044
2044
2043
2043
2043
2043
2043
2044
2044
2044
2044
2044
2044
2044
2045
2045
2046
2046
2046
2046
2046
2047
2047
2048
2048
2049
2050
2051
2052
2053
2054
2054
2054
2053
2054
2054
2055
2056
2057
2058
2058
2059
2058
2057
2054
2052
2049
2048
2048
2049
2049
2049
2049
2049
2049
2049
2050
2051
2053
2054
2056
2056
2057
2056
2055
2054
2054
2054
2055
2055
2055
2055
2055
2055
2055
2055
2054
2054
2054
2054
2054
2054
2054
2053
2053
2053
2052
2052
2052
2052
2051
2051
2051
2050
2049
2049
2049
2051
2053
2056
2057
2057
2057
2056
2056
2057
2057
2058
2058
2058
2058
2058
2057
2057
2056
2055
2055
2056
2056
2056
2056
2055
2054
2054
2053
2052
2052
2053
2053
2054
2054
2053
2053
2053
2054
2055
2054
2051
2047
2042
2039
2041
2052
2078
2123
2177
2223
2239
2217
2164
2103
2060
2046
2053
2069
2078
2076
2068
2059
2056
2053
2052
2051
2050
2050
2050
2051
2052
2053
2054
2055
2056
2056
2056
2057
2057
2058
2059
2060
2061
2061
2062
2062
2062
2063
2064
2065
2067
2069
2071
2072
2074
2076
2077
2079
2082
2086
2090
2094
2097
2100
2102
2105
2106
2108
2109
2110
2111
2111
2111
2110
2108
2104
2100
2095
2091
2085
2080
2075
2069
2064
2059
2054
2050
2048
2046
2045
2044
2043
2043
2043
2042
2042
2041
2041
2041
2041
2041
2042
2042
2043
2043
2043
2043
2043
2043
2044
2044
2045
2046
2046
2046
2046
2046
2046
2047
2047
2047
2047
2048
2048
2048
2048
2048
2048
2048
2048
2048
2049
2049
2049
2049
2049
2048
2048
2048
2048
2048
2048
2048
2046
2046
2045
2045
2046
2047
2047
2048
2048
2048
2048
2048
2048
2048
2048
2048
2048
2048
2048
2049
2050
2050
2050
2049
2049
2048
2048
2049
2049
2049
2049
2049
2048
2048
2048
2047
2047
2048
2048
2048
2048
2048
2048
2048
2048
2048
2048
2049
2050
2050
2050
2049
2048
2048
2048
2048
2048
2048
2047
2046
2045
2045
2044
2044
2044
2044
2045
2045
2046
2045
2044
2043
2043
2043
2044
2045
2045
2045
2045
2044
2044
2044
2044
2044
2045
2045
2046
2046
2046
2046
2046
2045
2046
2046
2046
2046
2045
2045
2045
2047
2048
2049
2050
2050
2050
2050
2050
2051
2052
2070
2077
2052
2006
1975
2016
2176
2457
2797
3109
3333
3462
3529
3571
3627
3691
3741
3785
3825
3860
3888
3908
3918
3920
3918
3916
3915
3915
3916
3916
3916
3916
3916
3916
3916
3916
3916
3916
3916
3916
3916
3916
3916
3916
3916
3916
3916
3916
3914
3904
3868
3896
3982
4066
4043
3801
3308
2660
2039
1604
1406
1383
1429
1465
1432
1403
1391
1383
1377
1375
1373
1373
1375
1377
1379
1382
1386
1389
1394
1400
1406
1411
1415
1419
1424
1432
1443
1454
1464
1471
1476
1481
1487
1493
1501
1508
1515
1523
1530
1536
1541
1546
1548
1550
1551
1550
1548
1547
1545
1542
1540
1539
1538
1539
1540
1543
1546
1550
1555
1560
1565
1570
1574
1578
1581
1584
1587
1591
1595
1590
1597
1616
1638
1646
1619
1551
1456
1369
1317
1307
1324
1343
1354
1350
1347
1358
1374
1390
1403
1411
1414
1417
1422
1432
1444
1454
1462
1468
1474
1479
1484
1490
1496
1501
1506
1511
1516
1521
1526
1531
1537
1541
1546
1550
1555
1559
1565
1569
1574
1579
1583
1587
1592
1596
1600
1605
1609
1613
1617
1621
1625
1629
1633
1638
1642
1646
1650
1654
1658
1663
1667
1671
1676
1681
1687
1694
1701
1707
1710
1712
1713
1715
1717
1720
1723
1725
1727
1729
1732
1735
1738
1741
1747
1775
1763
1719
1666
1664
1785
2057
2443
2844
3167
3369
3475
3529
3572
3651
3717
3776
3831
3876
3907
3922
3861
3875
3966
4082
14
3906
3408
2709
2027
1559
1379
1406
1506
1613
1588
1514
1400
1397
1584
1897
2223
2393
2339
2165
2088
2251
2617
3044
3362
3512
3512
3529
3607
3687
3753
3808
3855
3890
3911
3920
3921
3918
3915
3914
3915
3916
3916
3916
3916
3916
3916
3916
3916
3916
3916
3916
3916
3916
3916
3916
3916
3916
3916
3916
3916
3916
3916
3916
3916
3916
3916
3916
3916
3916
3916
3916
3916
3916
3916
3916
3916
3916
3916
3916
3916
3916
3916
3916
3916
3916
3916
3916
3916
3916
3916
3916
3916
3916
3916
3916
3916
3916
3916
3916
3916
3916
3916
3916
3916
3916
3916
3916
3916
3916
3916
3915
3915
3916
3914
3915
3919
3922
3917
3898
3863
3816
3771
3738
3718
3708
3697
3683
3662
3643
3631
3624
3620
3615
3608
3600
3593
3590
3590
3591
3590
3587
3582
3575
3568
3561
3552
3545
3538
3531
3522
3511
3497
3484
3474
3469
3465
3463
3460
3454
3447
3440
3435
3433
3434
3438
3443
3447
3447
3445
3442
3439
3437
3435
3432
3428
3423
3418
3412
3406
3400
3394
3388
3383
3378
3373
3367
3361
3355
3349
3344
3338
3333
3327
3321
3316
3309
3303
3297
3292
3286
3280
3275
3269
3263
3257
3250
3243
3235
3225
3216
3206
3197
3190
3185
3179
3172
3163
3154
3144
3137
3132
3128
3122
3115
3106
3094
3084
3076
3068
3062
3054
3047
3038
3028
3019
3010
3003
2998
2995
2991
2988
2985
2982
2980
2976
2970
2961
2951
2941
2932
2924
2917
2910
2903
2896
2888
2880
2871
2862
2851
2838
2825
2810
2796
2782
2769
2762
2759
2760
2765
2769
2772
2772
2769
2763
2754
2745
2737
2730
2727
2736
2762
2809
2867
2914
2927
2896
2830
2757
2706
2691
2704
2724
2735
2732
2718
2704
2696
2690
2686
2683
2679
2676
2673
2670
2667
2665
2663
2662
2660
2659
2656
2652
2648
2644
2641
2638
2636
2634
2633
2631
2629
2628
2625
2621
2617
2614
2611
2607
2599
2584
2565
2540
2517
2498
2485
2478
2474
2470
2468
2466
2465
2465
2466
2467
2467
2470
2482
2502
2501
2450
2345
2207
2087
2035
2064
2151
2246
2310
2333
2326
2315
2314
2316
2313
2300
2240
2287
2384
2471
2431
2150
1616
958
389
62
4089
74
182
241
201
179
179
179
179
179
179
179
179
179
179
179
179
179
179
179
179
179
179
179
179
179
179
179
179
179
179
179
179
179
179
179
179
179
179
179
179
179
179
179
179
179
179
179
179
179
179
179
179
179
179
179
179
179
179
179
179
179
190
208
189
142
94
105
238
513
886
1267
1575
1779
1902
1984
2062
2164
2249
2323
2390
2452
2506
2554
2591
2606
2596
2567
2533
2475
2514
2693
2899
2987
2781
2220
1422
643
128
4044
7
143
242
231
179
179
179
179
179
179
179
179
179
179
179
179
179
179
179
179
179
179
179
179
179
179
179
179
179
180
180
179
178
176
178
184
197
214
233
251
268
284
301
318
335
350
365
375
385
395
406
418
433
452
480
524
588
664
728
759
749
704
653
622
620
641
666
683
689
690
692
700
709
720
731
742
753
762
770
776
783
791
800
811
822
834
845
856
867
879
890
901
913
923
934
945
955
963
971
982
998
1019
1041
1058
1068
1070
1072
1077
1087
1100
1114
1125
1135
1146
1157
1168
1179
1188
1198
1206
1216
1223
1226
1231
1238
1247
1256
1262
1263
1260
1262
1272
1288
1302
1308
1303
1290
1280
1276
1279
1287
1295
1304
1310
1317
1323
1329
1335
1342
1349
1357
1364
1370
1378
1384
1388
1391
1397
1408
1426
1448
1467
1480
1489
1498
1513
1535
1560
1577
1589
1598
1603
1604
1599
1585
1566
1548
1539
1539
1545
1554
1562
1565
1567
1564
1557
1551
1546
1546
1550
1558
1570
1584
1600
1615
1626
1632
1634
1636
1636
1641
1645
1649
1653
1657
1661
1666
1669
1670
1670
1668
1667
1666
1668
1672
1677
1684
1690
1695
1700
1701
1702
1704
1707
1711
1715
1718
1720
1721
1722
1723
1726
1729
1733
1736
1738
1741
1743
1746
1748
1751
1754
1756
1759
1762
1765
1767
1769
1771
1772
1773
1775
1777
1780
1783
1786
1789
1791
1793
1795
1797
1799
1801
1804
1807
1810
1812
1814
1815
1817
1818
1820
1822
1824
1826
1828
1829
1830
1832
1833
1835
1839
1843
1847
1850
1853
1855
1857
1859
1861
1863
1866
1868
1871
1874
1877
1878
1879
1879
1878
1879
1880
1882
1884
1886
1889
1892
1893
1895
1895
1895
1895
1896
1897
1898
1900
1901
1902
1904
1905
1907
1908
1908
1906
1901
1897
1893
1895
1909
1940
1995
2060
2114
2135
2113
2057
1994
1948
1931
1938
1950
1957
1954
1945
1939
1936
1934
1932
1932
1934
1936
1940
1943
1946
1948
1950
1950
1951
1952
1953
1954
1955
1957
1958
1960
1961
1963
1964
1966
1967
1968
1969
1971
1974
1976
1979
1981
1983
1985
1987
1990
1993
1997
2000
2004
2007
2011
2015
2019
2024
2028
2031
2033
2034
2034
2033
2031
2029
2026
2022
2017
2011
2006
2000
1994
1989
1984
1980
1976
1974
1971
1970
1968
1968
1968
1968
1969
1969
1969
1969
1969
1970
1970
1972
1973
1974
1975
1976
1977
1977
1977
1978
1978
1979
1981
1982
1983
1983
1984
1984
1984
1985
1985
1986
1986
1987
1988
1989
1989
1989
1989
1989
1990
1991
1992
1993
1993
1994
1994
1995
1996
1997
2000
2002
2001
2002
2004
2012
2025
2043
2059
2071
2075
2075
2073
2072
2072
2073
2073
2073
2072
2072
2072
2072
2072
2072
2072
2071
2071
2070
2070
2070
2070
2070
2070
2071
2070
2070
2070
2069
2069
2068
2068
2068
2068
2068
2068
2068
2067
2066
2066
2066
2066
2066
2066
2066
2066
2066
2065
2064
2064
2064
2064
2064
2064
2064
2063
2063
2062
2061
2061
2060
2060
2059
2059
2059
2059
2058
2058
2057
2056
2055
2054
2054
2053
2053
2053
2053
2054
2054
2055
2057
2058
2059
2059
2059
2059
2060
2060
2060
2059
2058
2057
2056
2055
2055
2055
2054
2054
2053
2052
2052
2052
2052
2053
2053
2053
2053
2053
2052
2052
2052
2051
2052
2052
2052
2052
2054
2054
2053
2049
2044
2038
2034
2034
2043
2067
2111
2171
2225
2252
2240
2191
2127
2076
2052
2054
2066
2073
2071
2062
2052
2048
2046
2044
2043
2043
2043
2043
2043
2044
2044
2045
2046
2047
2048
2048
2048
2048
2048
2049
2049
2050
2052
2053
2054
2055
2056
2056
2057
2059
2060
2062
2064
2066
2068
2071
2073
2075
2078
2080
2083
2086
2090
2092
2095
2097
2099
2101
2102
2103
2103
2103
2103
2101
2097
2093
2087
2083
2075
2065
2055
2048
2052
2066
2088
2109
2122
2125
2121
2116
2113
2113
2114
2113
2112
2112
2111
2111
2110
2110
2110
2110
2111
2112
2112
2112
2110
2108
2109
2112
2114
2111
2099
2078
2054
2034
2022
2018
2020
2023
2024
2022
2022
2023
2023
2021
2018
2016
2022
2036
2057
2080
2098
2106
2106
2103
2100
2099
2100
2099
2099
2098
2098
2097
2097
2097
2096
2096
2096
2096
2095
2095
2095
2095
2095
2094
2094
2094
2093
2093
2092
2091
2089
2088
2090
2094
2096
2090
2074
2049
2024
2005
1996
1996
1999
2002
2002
2001
2001
2001
2001
2001
2001
2002
2002
2002
2002
2002
2004
2004
2001
1997
1997
2005
2023
2048
2073
2091
2097
2096
2091
2088
2089
2090
2091
2092
2092
2092
2091
2090
2090
2089
2089
2089
2089
2088
2088
2088
2089
2091
2092
2093
2093
2093
2094
2094
2094
2093
2092
2091
2090
2089
2088
2087
2087
2087
2087
2087
2086
2086
2086
2085
2085
2085
2085
2084
2084
2084
2083
2082
2081
2079
2078
2078
2079
2077
2074
2073
2072
2068
2057
2039
2021
2016
2038
2084
2131
2152
2130
2072
2004
1957
1941
1952
1969
1978
1976
1965
1955
1950
1948
1947
1948
1948
1949
1950
1950
1951
1952
1954
1956
1959
1962
1964
1966
1968
1969
1970
1970
1968
1965
1962
1961
1962
1965
1968
1971
1973
1975
1977
1980
1984
1989
1993
1998
2002
2006
2010
2014
2019
2023
2028
2033
2037
2040
2043
2045
2048
2049
2049
2049
2048
2045
2040
2034
2026
2018
2009
2002
1996
1990
1984
1978
1970
1964
1960
1959
1960
1962
1963
1964
1965
1966
1968
1969
1970
1970
1971
1971
1972
1974
1975
1976
1977
1977
1977
1977
1978
1978
1980
1981
1983
1985
1987
1989
1990
1991
1992
1993
1994
1995
1997
1998
1998
1999
1999
2000
2002
2003
2005
2006
2008
2013
2019
2027
2036
2042
2045
2046
2046
2046
2047
2049
2053
2051
2048
2049
2060
2085
2124
2165
2198
2215
2219
2215
2210
2207
2207
2203
2200
2198
2197
2198
2198
2199
2199
2198
2197
2196
2195
2194
2193
2191
2190
2189
2188
2187
2185
2183
2181
2179
2178
2177
2177
2175
2173
2171
2168
2166
2165
2166
2167
2168
2168
2168
2167
2167
2166
2165
2164
2162
2160
2157
2156
2154
2154
2154
2155
2156
2158
2161
2160
2156
2148
2138
2130
2128
2132
2138
2145
2149
2150
2148
2146
2146
2145
2145
2143
2139
2134
2127
2122
2121
2130
2157
2206
2269
2322
2340
2312
2246
2172
2121
2106
2120
2144
2157
2157
2145
2134
2127
2123
2120
2118
2116
2114
2114
2114
2115
2116
2117
2119
2120
2121
2122
2122
2122
2121
2120
2120
2120
2121
2122
2123
2124
2124
2125
2126
2126
2128
2129
2131
2133
2135
2138
2140
2141
2142
2144
2147
2152
2157
2161
2165
2167
2169
2170
2170
2170
2169
2167
2165
2161
2155
2148
2139
2129
2119
2109
2099
2090
2083
2077
2071
2067
2064
2065
2067
2070
2072
2072
2070
2068
2066
2065
2064
2063
2062
2060
2060
2059
2059
2059
2059
2059
2059
2059
2058
2057
2055
2055
2057
2062
2067
2071
2072
2071
2069
2066
2064
2063
2063
2062
2061
2060
2058
2056
2054
2052
2052
2052
2052
2053
2053
2053
2053
2053
2052
2052
2051
2051
2051
2051
2051
2051
2050
2050
2049
2048
2048
2047
2046
2046
2046
2046
2045
2044
2044
2042
2042
2042
2041
2042
2041
2041
2040
2039
2038
2037
2037
2037
2037
2037
2039
2040
2041
2042
2042
2040
2035
2034
2034
2032
2023
1999
1962
1920
1886
1868
1865
1872
1879
1884
1883
1884
1885
1886
1887
1887
1887
1887
1886
1887
1889
1891
1892
1894
1895
1895
1896
1898
1899
1901
1902
1904
1904
1905
1906
1907
1907
1906
1903
1901
1900
1902
1905
1909
1911
1911
1908
1903
1898
1896
1901
1920
1960
2019
2079
2117
2115
2071
2005
1945
1913
1912
1927
1941
1943
1934
1922
1914
1910
1908
1907
1907
1909
1912
1916
1919
1921
1923
1924
1926
1929
1931
1935
1939
1942
1945
1946
1948
1951
1957
1964
1970
1973
1974
1975
1976
1978
1982
1985
1989
1991
1993
1995
1997
2002
2009
2015
2019
2017
2010
2001
1994
1992
1996
2001
2006
2007
2003
2000
1999
2000
2003
2006
2006
2002
1995
1986
1977
1966
1958
1949
1943
1941
1938
1936
1937
1945
1962
1985
2010
2029
2040
2041
2038
2034
2036
2044
2048
2047
2035
2013
1989
1970
1960
1960
1963
1968
1972
1972
1972
1971
1970
1968
1967
1966
1966
1967
1969
1972
1971
1966
1962
1958
1959
1966
1975
1982
1984
1984
1985
1985
1986
1989
1992
1993
1992
1988
1982
1975
1969
1966
1965
1967
1968
1968
1966
1965
1967
1972
1983
1995
2006
2011
2005
1994
1982
1975
1977
1982
1988
1989
1986
1980
1977
1977
1979
1982
1981
1979
1978
1979
1984
1993
2003
2012
2017
2019
2018
2017
2016
2018
2018
2019
2019
2019
2019
2019
2020
2020
2021
2022
2022
2023
2023
2021
2020
2022
2031
2046
2063
2079
2089
2092
2090
2087
2084
2084
2083
2082
2082
2082
2083
2083
2085
2086
2086
2086
2086
2086
2086
2086
2087
2087
2086
2085
2084
2083
2081
2079
2077
2075
2074
2073
2075
2078
2080
2078
2071
2058
2044
2029
2018
2013
2012
2012
2012
2011
2011
2011
2012
2013
2015
2015
2014
2010
2004
1997
1991
1991
2002
2030
2081
2149
2209
2237
2221
2167
2100
2048
2025
2028
2040
2046
2042
2030
2020
2015
2011
2009
2009
2009
2010
2011
2012
2013
2013
2013
2014
2015
2016
2017
2018
2018
2018
2019
2022
2028
2034
2039
2043
2045
2045
2046
2047
2048
2048
2050
2052
2054
2056
2059
2061
2064
2066
2068
2071
2075
2078
2082
2086
2089
2091
2093
2095
2095
2095
2095
2093
2091
2088
2083
2076
2069
2061
2053
2047
2041
2036
2032
2029
2026
2024
2022
2021
2020
2020
2019
2019
2018
2018
2019
2020
2021
2021
2021
2021
2021
2021
2022
2023
2024
2024
2025
2024
2022
2019
2016
2014
2013
2013
2012
2013
2013
2013
2013
2013
2013
2013
2013
2013
2014
2014
2015
2016
2016
2016
2017
2017
2018
2018
2019
2019
2020
2020
2020
2020
2020
2020
2021
2022
2023
2023
2023
2023
2023
2022
2022
2022
2022
2022
2023
2024
2024
2024
2024
2024
2024
2024
2025
2025
2026
2026
2026
2025
2025
2024
2023
2023
2023
2024
2025
2026
2026
2026
2026
2026
2026
2026
2026
2026
2027
2027
2027
2027
2027
2028
2029
2029
2030
2030
2031
2031
2030
2030
2030
2030
2030
2031
2032
2033
2033
2034
2034
2035
2035
2035
2034
2033
2031
2030
2030
2032
2033
2034
2035
2034
2033
2033
2032
2032
2033
2034
2035
2037
2038
2039
2041
2042
2043
2045
2046
2047
2047
2047
2046
2045
2043
2042
2041
2041
2042
2042
2043
2042
2042
2040
2039
2039
2040
2042
2044
2046
2046
2044
2040
2037
2036
2036
2038
2039
2039
2040
2040
2040
2040
2039
2036
2030
2024
2019
2021
2037
2069
2124
2187
2235
2251
2227
2174
2118
2080
2068
2075
2085
2088
2082
2070
2061
2051
2043
2037
2037
2041
2047
2050
2049
2044
2039
2036
2036
2037
2039
2040
2037
2033
2033
2039
2051
2067
2078
2077
2065
2051
2048
2076
2037
2030
2048
2118
2244
2374
2442
2407
2300
2177
2123
2099
2078
2086
2064
2162
2405
2768
3168
3512
3744
3846
3890
3941
3983
3932
3884
3762
3634
3535
3476
3400
3418
3563
3780
3948
3899
3583
2970
2239
1770
1627
1835
2289
2843
3296
3625
3836
3924
3931
3923
3923
3911
3908
3910
3915
3916
3916
3916
3916
3916
3916
3916
3916
3904
3925
3924
3932
3925
3839
3827
3884
3885
3769
3474
3059
2667
2594
2932
3526
4011
23
3705
2818
1882
1291
1148
1484
2123
2816
3319
3583
3713
3741
3749
3800
3883
3925
3916
3856
3767
3698
3689
3747
3838
3914
3948
3946
3921
3906
3911
3916
3916
3916
3916
3916
3916
3916
3916
3916
3916
3916
3916
3916
3916
3916
3916
3916
3916
3916
3916
3916
3916
3916
3916
3916
3916
3916
3916
3916
3916
3916
3916
3916
3916
3916
3916
3916
3916
3916
3916
3916
3916
3916
3916
3916
3916
3916
3916
3917
3916
3915
3916
3916
3915
3911
3907
3900
3893
3885
3873
3855
3831
3804
3778
3754
3738
3725
3718
3717
3720
3722
3718
3706
3687
3667
3650
3639
3633
3627
3620
3610
3598
3586
3578
3576
3582
3594
3607
3615
3617
3613
3605
3595
3583
3568
3551
3536
3525
3517
3511
3504
3497
3490
3484
3481
3478
3471
3458
3436
3405
3373
3345
3326
3322
3335
3370
3423
3468
3486
3466
3410
3352
3314
3298
3293
3281
3250
3212
3179
3160
3156
3153
3145
3137
3127
3121
3117
3113
3108
3107
3106
3102
3092
3079
3056
3004
3066
3135
3119
2890
2364
1612
830
251
4082
4084
106
212
253
183
179
179
179
179
179
179
179
179
179
179
179
179
179
179
179
179
192
200
181
114
78
165
374
610
762
749
621
541
659
961
1374
1868
2263
2468
2398
2040
1439
745
217
4075
4089
114
221
253
179
179
179
179
179
179
179
179
179
179
204
211
122
90
121
257
472
660
712
592
400
184
68
59
143
276
334
402
422
390
276
93
26
134
464
885
1222
1312
1103
729
391
219
213
318
399
389
387
404
426
450
472
485
491
490
484
480
485
504
539
587
636
679
709
752
760
725
670
650
738
991
1393
1853
2259
2540
2697
2778
2833
2921
3015
3099
3175
3242
3298
3345
3386
3425
3462
3498
3532
3564
3593
3619
3641
3660
3678
3698
3718
3736
3749
3754
3744
3736
3754
3779
3786
3735
3605
3410
3201
3035
3043
3155
3244
3149
2754
2084
1337
718
365
275
360
446
417
294
294
450
750
1078
1262
1202
940
630
417
350
407
492
524
509
516
527
543
583
584
545
492
490
625
940
1397
1887
2298
2567
2710
2780
2825
2901
2969
3032
3095
3164
3230
3289
3336
3368
3378
3341
3445
3617
3758
3688
3260
2490
1583
842
453
413
555
712
797
752
778
833
887
905
881
824
758
718
713
735
760
768
755
735
712
691
673
662
666
695
745
806
856
884
895
896
894
905
923
943
959
964
950
919
887
866
866
873
884
896
911
942
993
1051
1101
1133
1147
1153
1158
1167
1185
1197
1208
1220
1233
1249
1266
1283
1297
1308
1317
1325
1332
1340
1348
1353
1359
1364
1368
1371
1373
1374
1373
1371
1369
1367
1367
1367
1368
1369
1370
1371
1374
1378
1383
1389
1394
1398
1403
1407
1411
1416
1421
1428
1433
1437
1442
1448
1458
1469
1481
1489
1493
1496
1500
1504
1503
1492
1468
1440
1414
1399
1393
1391
1389
1384
1378
1376
1379
1385
1392
1398
1403
1408
1414
1420
1426
1432
1438
1443
1448
1454
1459
1464
1469
1473
1478
1483
1488
1494
1499
1504
1509
1513
1517
1520
1525
1530
1536
1541
1547
1551
1556
1561
1568
1570
1569
1573
1582
1600
1620
1635
1639
1631
1621
1614
1614
1621
1633
1642
1648
1655
1660
1664
1668
1671
1673
1674
1672
1668
1664
1662
1662
1663
1665
1667
1669
1671
1674
1676
1680
1684
1689
1694
1699
1703
1706
1710
1713
1717
1720
1724
1727
1729
1730
1732
1733
1736
1738
1741
1744
1747
1750
1752
1754
1756
1759
1761
1764
1767
1769
1773
1776
1777
1777
1778
1782
1792
1811
1833
1851
1859
1853
1836
1815
1798
1795
1810
1845
1901
1967
2021
2043
2022
1964
1896
1846
1829
1842
1868
1883
1884
1873
1864
1867
1882
1903
1923
1936
1941
1942
1941
1942
1946
1949
1950
1951
1953
1955
1957
1959
1960
1961
1963
1966
1965
1965
1969
1976
1988
2003
2014
2017
2009
1992
1974
1963
1962
1972
1984
1996
2005
2007
2009
2011
2015
2019
2023
2027
2032
2036
2045
2039
2037
2040
2048
2066
2082
2079
2061
2042
2039
2068
2124
2186
2237
2252
2246
2234
2252
2255
2228
2172
2132
2179
2368
2691
3077
3425
3670
3806
3864
3883
3910
3925
3921
3915
3912
3912
3915
3916
3916
3911
3880
3894
3947
4018
4033
3899
3573
3093
2583
2169
1921
1820
1804
1814
1784
1763
1745
1734
1725
1719
1715
1712
1706
1696
1682
1667
1655
1645
1643
1646
1654
1662
1659
1637
1602
1595
1591
1577
1562
1574
1667
1889
2245
2667
3052
3326
3485
3575
3649
3744
3814
3819
3732
3575
3434
3318
3213
3064
2815
2466
2085
1777
1605
1569
1602
1653
1664
1605
1541
1467
1401
1360
1347
1353
1366
1376
1378
1379
1382
1384
1386
1388
1392
1400
1413
1430
1446
1459
1467
1472
1474
1477
1481
1486
1491
1497
1505
1516
1528
1541
1551
1557
1558
1556
1554
1552
1553
1556
1559
1562
1565
1567
1570
1575
1580
1586
1591
1596
1601
1609
1618
1628
1638
1647
1653
1657
1656
1651
1644
1635
1630
1629
1631
1634
1639
1643
1650
1658
1668
1676
1682
1687
1690
1693
1696
1699
1702
1705
1709
1712
1715
1716
1715
1714
1712
1711
1713
1717
1731
1758
1804
1865
1923
1955
1945
1898
1838
1793
1782
1802
1833
1857
1864
1858
1849
1845
1844
1846
1848
1849
1851
1852
1853
1855
1856
1856
1859
1863
1868
1868
1862
1854
1846
1845
1854
1868
1882
1893
1897
1896
1898
1901
1904
1903
1896
1885
1874
1866
1863
1865
1870
1876
1880
1883
1888
1894
1899
1903
1907
1912
1921
1934
1951
1966
1978
1984
1985
1983
1980
1977
1974
1969
1964
1958
1954
1949
1946
1943
1940
1938
1936
1934
1933
1934
1934
1936
1937
1939
1941
1942
1943
1944
1944
1945
1946
1947
1949
1950
1952
1953
1954
1955
1955
1955
1955
1956
1957
1958
1960
1960
1961
1962
1962
1963
1964
1965
1966
1967
1968
1969
1969
1970
1971
1972
1973
1974
1975
1976
1977
1978
1978
1978
1978
1978
1978
1979
1980
1982
1983
1984
1984
1985
1984
1985
1985
1985
1986
1987
1988
1989
1989
1990
1990
1991
1991
1992
1993
1994
1995
1995
1995
1996
1996
1996
1997
1998
1999
1999
2000
2001
2002
2002
2002
2002
2002
2002
2004
2005
2005
2006
2006
2006
2006
2006
2007
2007
2008
2008
2009
2009
2010
2010
2010
2010
2010
2010
2010
2011
2011
2012
2013
2013
2013
2013
2013
2013
2013
2014
2014
2015
2015
2015
2015
2015
2016
2017
2018
2018
2018
2017
2017
2016
2016
2015
2015
2016
2016
2017
2018
2019
2019
2019
2020
2020
2021
2022
2023
2023
2022
2021
2020
2020
2021
2022
2024
2024
2024
2023
2023
2023
2024
2026
2027
2028
2026
2025
2025
2026
2027
2026
2022
2013
2003
1994
1988
1984
1982
1977
1972
1967
1964
1970
1989
2028
2083
2139
2171
2165
2122
2061
2010
1983
1982
1995
2005
2006
1998
1990
1986
1984
1983
1982
1982
1983
1984
1986
1988
1990
1992
1993
1994
1996
1997
1998
1999
2000
2001
2003
2004
2006
2007
2008
2010
2011
2013
2015
2017
2020
2022
2025
2027
2029
2030
2032
2036
2044
2054
2068
2079
2088
2091
2092
2092
2093
2095
2097
2100
2097
2093
2092
2096
2106
2119
2125
2119
2101
2078
2059
2048
2044
2045
2042
2035
2026
2014
2000
1990
1983
1980
1979
1979
1979
1977
1977
1978
1979
1980
1981
1981
1982
1983
1983
1984
1985
1986
1986
1987
1987
1987
1988
1988
1989
1989
1990
1991
1992
1993
1995
1996
1997
1996
1995
1995
1995
1997
2000
2004
2006
2008
2007
2007
2006
2005
2004
2004
2005
2006
2007
2009
2009
2009
2009
2008
2009
2009
2010
2010
2010
2010
2010
2010
2011
2011
2012
2011
2009
2006
2001
1997
1995
1995
1996
1996
1997
1997
1997
1998
1999
2000
2000
2000
2000
2000
2000
2000
2001
2002
2003
2003
2003
2003
2003
2003
2003
2004
2006
2007
2008
2008
2008
2006
2004
2002
2000
2000
2000
2001
2002
2002
2003
2003
2003
2003
2003
2004
2004
2004
2004
2007
2012
2019
2026
2031
2033
2034
2034
2035
2037
2039
2037
2032
2024
2016
2010
2007
2006
2008
2012
2017
2024
2033
2042
2047
2048
2048
2048
2047
2046
2046
2045
2044
2043
2043
2043
2043
2043
2044
2044
2045
2045
2045
2045
2044
2044
2044
2044
2044
2045
2046
2046
2046
2047
2047
2047
2047
2045
2041
2036
2033
2032
2040
2060
2099
2156
2211
2243
2235
2189
2125
2069
2043
2044
2060
2073
2077
2071
2062
2058
2058
2061
2070
2083
2095
2103
2098
2085
2069
2058
2059
2072
2088
2102
2106
2098
2086
2073
2065
2063
2063
2065
2067
2067
2067
2068
2069
2071
2073
2075
2077
2079
2081
2083
2085
2087
2090
2094
2098
2101
2105
2109
2112
2115
2118
2120
2121
2123
2124
2124
2124
2122
2118
2113
2107
2100
2093
2085
2078
2071
2064
2058
2052
2048
2045
2042
2040
2039
2038
2037
2037
2037
2036
2036
2036
2036
2036
2036
2036
2036
2036
2036
2036
2036
2036
2036
2035
2035
2035
2036
2038
2041
2043
2045
2047
2050
2056
2065
2075
2083
2089
2092
2092
2089
2084
2077
2069
2062
2057
2055
2056
2063
2073
2084
2090
2087
2078
2067
2060
2060
2067
2076
2083
2086
2082
2071
2056
2042
2033
2029
2029
2027
2021
2014
2013
2020
2034
2049
2061
2065
2063
2060
2059
2059
2060
2062
2066
2068
2066
2057
2043
2025
2010
2002
2000
2004
2010
2014
2016
2016
2014
2012
2010
2009
2008
2008
2008
2009
2009
2008
2006
2005
2004
2004
2007
2012
2016
2019
2021
2021
2019
2016
2014
2013
2015
2020
2025
2030
2033
2035
2036
2037
2039
2041
2041
2041
2041
2039
2039
2039
2040
2042
2043
2043
2042
2039
2037
2035
2034
2034
2034
2034
2034
2033
2034
2034
2035
2036
2035
2034
2033
2033
2034
2036
2037
2034
2027
2019
2016
2024
2046
2081
2130
2189
2246
2281
2281
2245
2185
2125
2087
2075
2079
2081
2072
2052
2029
2013
2004
2000
1998
1999
1999
1999
2000
2002
2005
2007
2010
2011
2012
2012
2011
2011
2010
2010
2010
2011
2012
2013
2015
2016
2017
2018
2019
2021
2023
2025
2028
2031
2033
2036
2039
2043
2046
2048
2052
2055
2059
2062
2066
2070
2072
2074
2076
2077
2081
2086
2091
2095
2096
2093
2088
2081
2073
2066
2060
2054
2048
2044
2040
2036
2033
2030
2028
2026
2026
2027
2028
2028
2028
2027
2026
2026
2026
2026
2027
2027
2027
2028
2029
2031
2032
2033
2034
2033
2033
2032
2031
2031
2031
2030
2030
2029
2029
2030
2032
2033
2033
2033
2034
2034
2034
2034
2033
2033
2034
2034
2035
2034
2033
2032
2032
2032
2033
2033
2033
2032
2032
2032
2033
2034
2034
2034
2033
2033
2034
2035
2036
2036
2037
2039
2039
2040
2040
2041
2044
2048
2051
2052
2049
2044
2038
2037
2040
2048
2056
2061
2062
2058
2052
2051
2049
2045
2037
2034
2039
2066
2118
2177
2223
2237
2215
2164
2106
2061
2044
