1961
1961
1962
1963
1964
1964
1965
1965
1965
1964
1964
1965
1966
1967
1968
1969
1969
1969
1969
1970
1970
1971
1972
1973
1975
1976
1977
1979
1980
1980
1980
1981
1982
1983
1984
1984
1984
1984
1983
1981
1979
1976
1974
1972
1970
1968
1966
1965
1963
1962
1961
1961
1961
1961
1961
1962
1962
1963
1963
1964
1964
1965
1965
1966
1966
1967
1967
1968
1968
1967
1967
1967
1968
1969
1970
1970
1970
1970
1969
1968
1968
1968
1968
1969
1969
1969
1969
1969
1969
1969
1969
1969
1970
1970
1970
1970
1970
1970
1970
1970
1970
1970
1970
1970
1971
1971
1972
1972
1971
1971
1970
1970
1970
1971
1971
1972
1972
1972
1971
1971
1970
1971
1971
1972
1973
1973
1973
1973
1973
1973
1973
1973
1973
1973
1974
1974
1975
1974
1974
1973
1972
1972
1972
1973
1974
1974
1974
1973
1973
1972
1971
1971
1971
1971
1972
1974
1975
1976
1977
1977
1977
1977
1976
1976
1975
1975
1975
1974
1973
1972
1972
1972
1972
1973
1974
1974
1974
1974
1974
1974
1974
1973
1970
1967
1964
1964
1970
1983
2004
2028
2047
2054
2048
2027
2000
1976
1960
1954
1954
1957
1959
1960
1961
1962
1963
1965
1966
1967
1967
1967
1966
1966
1966
1967
1969
1970
1970
1970
1970
1970
1970
1971
1971
1971
1972
1972
1973
1973
1972
1972
1972
1973
1974
1974
1975
1976
1976
1977
1978
1978
1978
1978
1979
1980
1982
1984
1986
1988
1989
1989
1990
1990
1991
1992
1993
1993
1993
1992
1991
1990
1988
1985
1983
1980
1978
1976
1974
1972
1970
1968
1966
1965
1965
1966
1966
1967
1968
1968
1969
1969
1969
1969
1970
1970
1971
1972
1972
1972
1972
1972
1972
1972
1973
1974
1975
1975
1976
1976
1976
1976
1975
1975
1975
1975
1976
1976
1977
1977
1976
1976
1976
1976
1976
1976
1977
1977
1977
1977
1976
1976
1975
1975
1975
1976
1976
1977
1977
1977
1976
1976
1976
1976
1977
1977
1977
1977
1976
1976
1976
1976
1976
1976
1976
1976
1977
1978
1978
1978
1977
1977
1976
1976
1977
1977
1977
1977
1978
1978
1978
1977
1977
1976
1976
1976
1976
1976
1976
1976
1976
1976
1977
1978
1980
1981
1982
1982
1981
1980
1979
1978
1977
1976
1976
1976
1977
1977
1978
1977
1977
1976
1976
1976
1976
1977
1978
1977
1975
1970
1965
1964
1969
1982
2004
2030
2053
2065
2061
2042
2014
1987
1967
1957
1956
1959
1962
1963
1964
1965
1965
1965
1965
1966
1967
1968
1970
1971
1972
1972
1971
1971
1971
1971
1972
1974
1975
1976
1976
1976
1976
1975
1976
1976
1976
1977
1977
1978
1978
1978
1978
1978
1978
1978
1979
1980
1982
1983
1984
1985
1985
1986
1986
1987
1988
1990
1991
1992
1992
1992
1992
1992
1991
1991
1990
1989
1987
1985
1983
1980
1977
1974
1971
1969
1968
1967
1967
1967
1968
1967
1967
1967
1966
1966
1967
1968
1969
1970
1971
1971
1970
1970
1970
1970
1971
1972
1972
1973
1973
1973
1973
1973
1972
1973
1973
1973
1974
1974
1974
1974
1974
1974
1973
1973
1973
1973
1974
1974
1975
1975
1974
1974
1974
1973
1973
1974
1974
1974
1975
1975
1974
1974
1973
1973
1974
1974
1975
1975
1975
1975
1974
1974
1974
1973
1974
1974
1974
1975
1975
1975
1975
1975
1974
1974
1974
1975
1975
1976
1976
1976
1975
1975
1975
1975
1975
1975
1976
1976
1976
1976
1976
1975
1975
1974
1974
1975
1975
1975
1975
1975
1975
1975
1975
1974
1974
1974
1975
1975
1975
1975
1974
1973
1973
1974
1976
1978
1980
1981
1981
1980
1979
1977
1976
1976
1976
1975
1975
1975
1975
1975
1975
1975
1974
1974
1974
1975
1977
1978
1977
1975
1970
1965
1963
1965
1975
1993
2016
2040
2056
2060
2049
2026
1998
1973
1958
1952
1953
1957
1959
1960
1961
1961
1961
1962
1964
1965
1966
1968
1969
1970
1971
1970
1970
1969
1970
1971
1972
1973
1974
1974
1974
1973
1973
1973
1973
1974
1975
1976
1976
1976
1976
1976
1976
1976
1976
1977
1979
1980
1981
1981
1981
1982
1982
1983
1984
1986
1987
1988
1989
1990
1990
1990
1990
1990
1989
1989
1989
1988
1987
1985
1982
1978
1975
1973
1971
1969
1969
1968
1968
1968
1967
1966
1966
1966
1966
1968
1969
1970
1971
1970
1970
1970
1970
1970
1971
1971
1972
1972
1973
1973
1973
1973
1973
1972
1972
1973
1973
1974
1974
1974
1974
1974
1974
1973
1974
1974
1975
1975
1975
1975
1975
1974
1974
1974
1974
1974
1974
1975
1976
1975
1975
1974
1974
1974
1974
1974
1975
1975
1975
1975
1975
1975
1974
1974
1974
1975
1975
1975
1975
1976
1976
1975
1975
1974
1974
1974
1975
1975
1975
1975
1975
1975
1975
1975
1974
1975
1975
1976
1976
1976
1976
1975
1974
1974
1974
1975
1975
1976
1975
1975
1975
1974
1974
1974
1974
1975
1975
1975
1975
1975
1974
1974
1974
1974
1975
1975
1974
1974
1973
1973
1974
1975
1976
1978
1978
1979
1979
1978
1978
1977
1975
1975
1974
1974
1974
1974
1975
1975
1975
1975
1975
1975
1975
1975
1975
1975
1973
1970
1966
1965
1968
1979
1998
2021
2044
2056
2055
2039
2014
1987
1967
1957
1955
1957
1961
1963
1964
1965
1966
1966
1967
1967
1968
1968
1969
1970
1972
1973
1973
1973
1972
1972
1971
1972
1973
1974
1974
1975
1975
1975
1975
1975
1975
1975
1975
1976
1976
1977
1977
1977
1977
1977
1977
1978
1979
1980
1981
1982
1983
1983
1984
1985
1986
1987
1988
1989
1990
1991
1991
1992
1992
1992
1991
1990
1988
1986
1984
1982
1980
1977
1975
1972
1969
1968
1967
1967
1968
1968
1968
1967
1967
1967
1967
1967
1968
1969
1970
1971
1971
1971
1970
1970
1970
1970
1971
1972
1973
1973
1973
1974
1974
1973
1973
1973
1973
1973
1973
1974
1974
1974
1974
1973
1973
1973
1973
1973
1974
1974
1974
1975
1974
1974
1973
1972
1973
1974
1975
1975
1975
1975
1974
1974
1973
1973
1973
1973
1974
1975
1975
1975
1975
1975
1975
1974
1974
1974
1974
1975
1975
1975
1975
1975
1975
1974
1974
1975
1975
1976
1977
1977
1976
1975
1974
1974
1975
1976
1976
1977
1976
1976
1976
1975
1975
1975
1975
1975
1975
1976
1976
1975
1975
1974
1973
1973
1974
1976
1978
1980
1981
1980
1979
1978
1978
1977
1977
1977
1976
1976
1976
1976
1975
1975
1975
1975
1975
1975
1976
1976
1976
1976
1975
1971
1967
1964
1964
1972
1988
2011
2037
2056
2062
2052
2030
2001
1976
1960
1955
1956
1960
1962
1963
1963
1963
1963
1964
1966
1968
1969
1970
1970
1970
1970
1971
1971
1972
1972
1973
1974
1975
1975
1975
1975
1975
1975
1975
1977
1978
1980
1982
1983
1983
1983
1982
1983
1984
1985
1986
1986
1987
1987
1987
1988
1988
1989
1991
1992
1994
1995
1996
1997
1997
1997
1997
1997
1997
1997
1998
1997
1996
1994
1991
1987
1984
1981
1979
1977
1976
1975
1973
1972
1971
1970
1969
1969
1970
1971
1972
1973
1974
1974
1973
1973
1973
1974
1974
1974
1975
1975
1976
1975
1975
1974
1974
1974
1974
1975
1976
1977
1977
1977
1976
1976
1975
1975
1975
1976
1976
1977
1977
1976
1976
1975
1975
1975
1975
1975
1976
1976
1976
1976
1976
1975
1975
1975
1975
1975
1976
1977
1977
1976
1974
1972
1970
1968
1967
1968
1968
1969
1969
1970
1970
1971
1971
1971
1972
1973
1973
1974
1975
1975
1975
1974
1974
1974
1974
1975
1975
1976
1976
1977
1976
1975
1975
1974
1974
1974
1975
1975
1976
1976
1976
1975
1974
1974
1974
1975
1976
1976
1976
1976
1976
1975
1974
1973
1973
1974
1975
1977
1978
1979
1979
1979
1979
1979
1978
1978
1977
1976
1975
1974
1974
1974
1976
1978
1979
1981
1982
1982
1983
1983
1983
1983
1981
1978
1974
1971
1971
1977
1991
2013
2037
2057
2068
2064
2046
2019
1991
1970
1959
1957
1959
1962
1964
1966
1966
1967
1968
1970
1971
1971
1972
1972
1972
1972
1973
1973
1975
1976
1976
1976
1976
1976
1976
1976
1976
1977
1978
1978
1978
1978
1977
1977
1977
1977
1978
1979
1979
1980
1981
1981
1981
1981
1982
1982
1983
1984
1986
1987
1988
1989
1990
1991
1991
1991
1990
1991
1991
1992
1992
1991
1989
1987
1984
1982
1979
1978
1977
1975
1973
1971
1969
1967
1966
1966
1966
1967
1968
1969
1969
1969
1969
1969
1969
1969
1970
1971
1972
1972
1972
1972
1972
1972
1972
1972
1972
1973
1973
1974
1974
1974
1974
1974
1973
1973
1973
1974
1974
1975
1975
1975
1974
1974
1973
1973
1973
1973
1974
1975
1975
1975
1975
1974
1973
1973
1973
1974
1975
1975
1975
1975
1974
1974
1973
1973
1974
1974
1975
1975
1975
1975
1975
1974
1974
1973
1973
1974
1975
1976
1976
1976
1976
1975
1974
1974
1974
1974
1975
1976
1976
1976
1976
1975
1975
1975
1975
1976
1976
1977
1977
1976
1976
1975
1975
1975
1975
1975
1976
1976
1976
1976
1976
1976
1976
1975
1975
1974
1974
1974
1974
1975
1975
1976
1977
1978
1979
1980
1981
1981
1980
1979
1977
1976
1974
1974
1974
1974
1975
1975
1975
1975
1975
1975
1975
1976
1977
1977
1976
1973
1969
1965
1964
1970
1982
2003
2027
2048
2058
2054
2037
2011
1984
1965
1955
1953
1955
1958
1961
1963
1964
1966
1967
1967
1967
1968
1969
1970
1971
1972
1972
1973
1973
1973
1973
1973
1973
1974
1975
1976
1976
1977
1976
1976
1975
1975
1976
1977
1978
1978
1979
1979
1979
1979
1979
1980
1981
1981
1982
1982
1983
1984
1985
1985
1986
1987
1988
1989
1990
1991
1992
1992
1992
1991
1990
1989
1988
1987
1986
1985
1983
1980
1977
1974
1972
1970
1967
1966
1965
1965
1966
1966
1967
1967
1967
1967
1968
1969
1970
1971
1972
1972
1972
1972
1972
1973
1973
1973
1974
1975
1975
1975
1974
1974
1974
1975
1975
1976
1977
1977
1977
1976
1975
1974
1973
1973
1973
1974
1974
1974
1974
1974
1973
1973
1973
1973
1973
1973
1973
1973
1973
1973
1974
1974
1975
1976
1976
1976
1977
1977
1978
1978
1978
1977
1976
1976
1976
1977
1977
1978
1978
1978
1977
1977
1977
1977
1978
1978
1979
1978
1978
1977
1977
1977
1977
1978
1978
1977
1977
1977
1977
1978
1978
1977
1976
1975
1974
1974
1975
1977
1980
1981
1982
1981
1981
1980
1979
1978
1978
1978
1978
1977
1977
1976
1975
1975
1975
1975
1976
1977
1978
1979
1979
1977
1975
1972
1969
1966
1966
1972
1985
2006
2030
2050
2059
2053
2034
2006
1980
1963
1956
1956
1959
1961
1962
1963
1963
1964
1966
1967
1968
1969
1969
1969
1970
1970
1971
1971
1972
1972
1973
1973
1974
1974
1974
1974
1974
1974
1975
1976
1976
1976
1976
1976
1977
1977
1978
1978
1979
1980
1980
1981
1981
1981
1982
1982
1984
1985
1987
1988
1989
1990
1990
1991
1991
1992
1993
1994
1994
1994
1993
1993
1992
1990
1987
1983
1980
1977
1975
1974
1972
1971
1969
1967
1965
1965
1965
1966
1967
1967
1967
1967
1967
1968
1968
1969
1970
1971
1971
1972
1972
1972
1972
1972
1971
1972
1972
1973
1974
1975
1975
1975
1975
1974
1974
1974
1975
1975
1975
1976
1976
1976
1975
1974
1974
1974
1975
1976
1976
1976
1976
1976
1975
1975
1975
1975
1975
1975
1975
1976
1976
1976
1976
1975
1975
1975
1975
1975
1975
1976
1977
1977
1977
1976
1975
1975
1975
1975
1976
1976
1976
1976
1976
1976
1975
1975
1975
1976
1976
1977
1977
1976
1976
1975
1975
1974
1974
1974
1975
1976
1978
1979
1980
1980
1980
1980
1979
1979
1978
1977
1977
1976
1975
1975
1974
1974
1975
1975
1975
1975
1976
1976
1976
1976
1975
1973
1970
1967
1966
1969
1979
1997
2021
2045
2060
2062
2048
2024
1995
1972
1959
1955
1957
1959
1961
1962
1963
1964
1966
1967
1968
1969
1969
1970
1970
1971
1972
1972
1973
1974
1974
1975
1975
1974
1974
1974
1975
1975
1976
1976
1977
1977
1978
1978
1978
1978
1978
1978
1979
1980
1981
1982
1982
1982
1983
1983
1984
1985
1986
1988
1989
1990
1990
1991
1991
1991
1992
1992
1992
1992
1991
1991
1990
1988
1986
1983
1980
1978
1976
1974
1972
1970
1969
1967
1966
1965
1966
1966
1967
1968
1968
1968
1968
1968
1968
1968
1969
1970
1971
1971
1970
1969
1966
1965
1964
1964
1964
1965
1966
1966
1967
1967
1967
1967
1967
1967
1968
1968
1969
1969
1970
1970
1970
1970
1970
1969
1970
1970
1971
1972
1972
1972
1972
1971
1970
1970
1970
1970
1971
1972
1973
1973
1973
1973
1973
1973
1974
1974
1974
1974
1974
1974
1974
1974
1974
1974
1974
1975
1976
1976
1976
1976
1976
1975
1975
1975
1975
1976
1976
1977
1977
1977
1977
1977
1976
1976
1977
1977
1978
1978
1978
1977
1977
1977
1978
1980
1982
1984
1986
1988
1988
1988
1988
1987
1985
1984
1983
1982
1983
1983
1983
1983
1983
1982
1981
1981
1981
1981
1982
1983
1984
1983
1980
1976
1971
1969
1971
1981
1999
2023
2047
2063
2067
2056
2034
2005
1980
1964
1958
1958
1962
1964
1965
1966
1965
1966
1967
1969
1971
1972
1973
1973
1974
1974
1974
1975
1975
1976
1976
1976
1977
1977
1977
1977
1977
1977
1978
1978
1979
1980
1980
1980
1979
1979
1979
1979
1980
1981
1981
1982
1983
1983
1984
1984
1985
1986
1987
1988
1990
1991
1992
1993
1993
1993
1993
1993
1993
1993
1993
1992
1991
1989
1986
1983
1980
1978
1976
1974
1973
1972
1971
1970
1969
1968
1968
1968
1969
1970
1970
1971
1971
1972
1972
1971
1971
1971
1971
1972
1973
1973
1974
1974
1974
1974
1974
1974
1974
1974
1975
1975
1976
1976
1976
1975
1975
1974
1974
1975
1976
1976
1976
1976
1976
1976
1976
1975
1975
1975
1975
1975
1975
1975
1976
1976
1976
1976
1976
1976
1976
1977
1977
1977
1977
1976
1976
1975
1976
1976
1977
1978
1978
1977
1976
1974
1972
1970
1969
1969
1970
1971
1971
1970
1969
1969
1969
1969
1970
1971
1971
1972
1972
1971
1971
1971
1971
1971
1971
1971
1971
1971
1972
1972
1971
1971
1970
1970
1971
1972
1974
1976
1977
1977
1977
1976
1975
1974
1973
1973
1973
1974
1974
1974
1974
1973
1972
1973
1973
1974
1975
1975
1976
1975
1973
1969
1964
1962
1964
1974
1992
2017
2041
2057
2060
2048
2024
1996
1974
1962
1959
1961
1964
1966
1967
1967
1967
1967
1968
1969
1970
1972
1973
1974
1974
1974
1973
1973
1973
1975
1976
1977
1977
1978
1977
1977
1976
1975
1975
1976
1977
1978
1979
1979
1979
1978
1977
1977
1977
1978
1979
1980
1981
1982
1982
1982
1983
1984
1986
1988
1990
1991
1992
1993
1993
1993
1993
1993
1994
1994
1993
1993
1992
1989
1987
1983
1980
1977
1974
1973
1972
1970
1969
1968
1967
1966
1966
1966
1966
1967
1968
1969
1969
1970
1970
1969
1969
1970
1970
1971
1971
1972
1972
1973
1973
1972
1972
1972
1973
1973
1974
1974
1975
1975
1974
1974
1975
1975
1975
1975
1975
1975
1975
1975
1975
1974
1974
1974
1974
1974
1974
1974
1974
1974
1973
1973
1973
1974
1974
1974
1975
1975
1976
1975
1975
1974
1973
1973
1973
1974
1975
1975
1976
1976
1976
1975
1975
1975
1975
1975
1975
1975
1975
1975
1975
1975
1975
1974
1974
1975
1976
1976
1976
1975
1974
1973
1973
1973
1974
1976
1977
1979
1980
1981
1980
1979
1978
1977
1977
1977
1977
1976
1976
1975
1974
1973
1974
1975
1975
1976
1976
1976
1976
1977
1976
1974
1970
1966
1964
1968
1978
1997
2021
2044
2058
2058
2043
2017
1988
1966
1955
1953
1956
1959
1960
1961
1961
1962
1963
1964
1966
1967
1968
1969
1969
1969
1969
1970
1970
1972
1973
1974
1975
1975
1975
1974
1974
1974
1974
1975
1976
1977
1977
1977
1977
1976
1976
1976
1977
1977
1978
1979
1980
1981
1982
1982
1982
1983
1984
1986
1988
1989
1990
1991
1991
1991
1991
1991
1991
1991
1991
1991
1990
1989
1987
1984
1980
1977
1975
1973
1972
1971
1969
1968
1966
1965
1965
1965
1966
1966
1967
1968
1968
1969
1969
1969
1969
1969
1969
1970
1971
1972
1972
1972
1972
1971
1971
1971
1972
1973
1973
1974
1974
1974
1974
1973
1973
1973
1973
1973
1974
1974
1974
1974
1974
1973
1972
1971
1971
1971
1972
1973
1973
1973
1972
1972
1972
1972
1972
1973
1973
1974
1974
1974
1973
1971
1970
1970
1970
1972
1973
1974
1975
1974
1974
1973
1973
1973
1973
1974
1974
1974
1973
1973
1973
1973
1974
1975
1975
1975
1973
1972
1970
1970
1971
1973
1974
1974
1973
1972
1971
1972
1972
1973
1974
1973
1971
1969
1969
1970
1972
1974
1977
1978
1979
1978
1977
1975
1974
1974
1974
1974
1974
1973
1972
1971
1970
1970
1971
1972
1973
1973
1973
1973
1974
1974
1973
1970
1966
1964
1967
1978
1999
2025
2050
2067
2069
2054
2027
1996
1970
1956
1951
1953
1956
1959
1960
1960
1960
1961
1962
1964
1966
1967
1967
1968
1968
1969
1971
1972
1974
1975
1975
1974
1974
1974
1974
1974
1975
1976
1976
1977
1977
1977
1977
1977
1977
1978
1979
1980
1980
1980
1981
1981
1981
1981
1982
1983
1984
1986
1988
1990
1990
1991
1991
1992
1993
1994
1995
1996
1996
1996
1995
1993
1990
1988
1985
1982
1980
1978
1976
1974
1972
1970
1970
1969
1969
1968
1968
1969
1970
1971
1972
1971
1971
1969
1969
1970
1972
1974
1976
1975
1974
1972
1971
1972
1973
1974
1975
1976
1976
1977
1978
1978
1977
1976
1975
1975
1976
1976
1976
1976
1975
1975
1976
1977
1978
1978
1977
1976
1976
1977
1978
1978
1978
1976
1975
1975
1975
1976
1978
1980
1981
1980
1979
1977
1976
1976
1976
1977
1978
1979
1979
1979
1980
1981
1982
1984
1985
1987
1987
1987
1987
1987
1988
1989
1989
1990
1990
1990
1991
1992
1993
1994
1995
1995
1995
1995
1995
1995
1996
1996
1997
1998
1998
1997
1996
1996
1997
1998
2000
2002
2003
2004
2005
2004
2003
2002
2001
2000
2000
1999
1999
1998
1998
1997
1997
1997
1997
1997
1997
1997
1997
1997
1997
1997
1994
1990
1985
1982
1983
1992
2009
2034
2061
2085
2095
2087
2063
2031
1999
1977
1967
1966
1969
1973
1974
1975
1975
1976
1978
1979
1981
1981
1980
1979
1978
1978
1980
1982
1984
1986
1986
1986
1985
1984
1984
1983
1983
1984
1985
1985
1986
1986
1985
1985
1984
1983
1983
1984
1986
1987
1988
1989
1988
1988
1988
1988
1989
1991
1992
1994
1995
1995
1995
1995
1994
1995
1995
1996
1996
1997
1997
1997
1995
1992
1989
1986
1983
1981
1979
1977
1975
1973
1971
1970
1969
1968
1968
1969
1969
1969
1969
1968
1969
1970
1971
1972
1972
1972
1973
1974
1975
1975
1974
1973
1971
1971
1971
1972
1972
1972
1972
1973
1973
1973
1973
1972
1971
1971
1971
1972
1972
1972
1972
1971
1971
1970
1969
1969
1967
1966
1965
1963
1961
1960
1960
1960
1960
1960
1960
1960
1960
1960
1960
1959
1958
1958
1958
1958
1959
1960
1960
1960
1959
1958
1956
1956
1956
1957
1959
1959
1959
1959
1959
1959
1959
1959
1958
1959
1959
1960
1961
1961
1961
1960
1958
1958
1958
1958
1960
1960
1961
1960
1959
1958
1957
1956
1956
1958
1959
1961
1961
1960
1959
1959
1960
1960
1961
1960
1959
1959
1959
1960
1961
1961
1961
1960
1960
1960
1961
1962
1963
1963
1964
1963
1962
1962
1961
1962
1963
1965
1967
1967
1965
1961
1957
1954
1954
1960
1975
1997
2022
2042
2050
2043
2021
1992
1967
1951
1945
1946
1950
1953
1954
1955
1955
1956
1957
1958
1959
1961
1962
1963
1964
1964
1965
1965
1965
1965
1966
1966
1966
1967
1968
1968
1968
1968
1969
1969
1970
1971
1971
1972
1972
1972
1972
1973
1973
1973
1974
1975
1976
1977
1978
1978
1978
1979
1980
1981
1983
1984
1985
1986
1986
1986
1987
1987
1987
1987
1987
1986
1986
1984
1982
1980
1977
1975
1972
1970
1968
1967
1966
1965
1964
1964
1963
1963
1963
1964
1965
1965
1966
1966
1965
1965
1965
1966
1966
1967
1968
1969
1970
1970
1969
1968
1968
1969
1971
1974
1976
1976
1975
1974
1973
1971
1971
1971
1971
1971
1972
1972
1973
1973
1973
1972
1971
1971
1971
1972
1973
1973
1974
1973
1973
1973
1972
1972
1972
1972
1973
1974
1974
1974
1973
1972
1971
1970
1970
1971
1973
1974
1975
1975
1974
1972
1971
1971
1971
1972
1973
1974
1974
1973
1972
1971
1971
1971
1972
1972
1972
1973
1973
1973
1972
1972
1971
1970
1970
1971
1972
1972
1972
1972
1972
1973
1974
1975
1976
1976
1976
1976
1975
1974
1973
1972
1971
1971
1972
1972
1973
1973
1973
1972
1972
1972
1972
1972
1973
1973
1973
1970
1966
1964
1965
1974
1991
2014
2037
2050
2049
2032
2005
1977
1958
1950
1951
1956
1960
1963
1964
1965
1965
1966
1967
1967
1968
1968
1969
1970
1971
1972
1972
1973
1973
1972
1972
1972
1973
1974
1975
1976
1975
1975
1975
1975
1976
1976
1977
1978
1978
1979
1979
1980
1980
1980
1980
1981
1982
1984
1985
1986
1987
1988
1988
1989
1989
1990
1991
1993
1994
1995
1995
1995
1994
1993
1993
1992
1991
1990
1988
1986
1983
1980
1977
1974
1971
1969
1968
1967
1967
1966
1966
1966
1966
1966
1966
1966
1967
1968
1969
1970
1970
1970
1970
1970
1970
1970
1970
1971
1973
1973
1974
1973
1973
1973
1973
1973
1973
1974
1974
1975
1975
1976
1975
1975
1975
1975
1974
1975
1975
1976
1976
1976
1975
1975
1974
1974
1974
1974
1975
1975
1975
1975
1976
1976
1975
1974
1974
1974
1975
1975
1976
1976
1975
1975
1975
1975
1975
1975
1975
1975
1975
1975
1976
1975
1975
1975
1975
1976
1976
1976
1975
1975
1974
1974
1974
1975
1976
1978
1980
1981
1981
1980
1979
1978
1977
1977
1978
1979
1980
1980
1981
1981
1980
1980
1979
1979
1979
1979
1981
1982
1981
1979
1975
1971
1968
1971
1981
2000
2025
2049
2064
2065
2049
2023
1995
1972
1960
1957
1960
1964
1967
1968
1969
1968
1968
1969
1970
1971
1972
1974
1975
1975
1976
1975
1975
1976
1976
1977
1978
1978
1979
1979
1980
1980
1979
1979
1979
1979
1979
1980
1981
1981
1981
1980
1980
1981
1981
1982
1983
1984
1985
1986
1987
1987
1988
1989
1990
1992
1994
1995
1996
1995
1995
1994
1994
1994
1994
1994
1993
1992
1990
1988
1985
1982
1979
1976
1974
1972
1971
1970
1970
1969
1969
1968
1967
1968
1968
1969
1971
1971
1972
1972
1972
1971
1971
1971
1972
1973
1974
1975
1976
1976
1975
1975
1974
1974
1975
1976
1976
1977
1977
1977
1976
1975
1975
1976
1979
1982
1985
1987
1988
1988
1987
1986
1985
1985
1985
1985
1985
1985
1985
1985
1985
1984
1983
1983
1982
1983
1983
1984
1984
1984
1983
1983
1983
1982
1982
1981
1981
1980
1980
1980
1980
1979
1979
1978
1978
1978
1979
1979
1979
1978
1978
1977
1976
1976
1976
1977
1978
1979
1981
1982
1982
1981
1981
1980
1980
1979
1979
1979
1979
1979
1978
1977
1976
1976
1976
1977
1978
1979
1979
1979
1979
1977
1975
1971
1967
1965
1967
1975
1991
2014
2037
2054
2059
2050
2029
2003
1979
1963
1956
1956
1958
1960
1962
1962
1963
1964
1966
1967
1968
1969
1969
1970
1970
1970
1970
1971
1972
1973
1974
1974
1974
1973
1973
1973
1973
1974
1975
1976
1977
1977
1976
1976
1976
1976
1977
1978
1979
1980
1980
1981
1981
1981
1981
1982
1983
1984
1986
1987
1988
1989
1990
1990
1990
1990
1991
1991
1991
1992
1992
1992
1993
1993
1992
1989
1986
1984
1981
1979
1977
1976
1975
1973
1972
1972
1972
1972
1972
1973
1974
1974
1974
1974
1974
1974
1974
1975
1975
1976
1976
1976
1976
1975
1975
1975
1975
1976
1977
1978
1978
1978
1977
1976
1975
1975
1975
1976
1977
1977
1977
1976
1976
1975
1974
1974
1974
1974
1974
1974
1974
1974
1975
1975
1976
1976
1977
1977
1977
1978
1977
1977
1976
1975
1974
1974
1974
1975
1976
1976
1977
1976
1976
1975
1974
1974
1974
1974
1975
1975
1976
1976
1975
1975
1974
1974
1974
1975
1975
1977
1978
1979
1979
1979
1978
1978
1977
1977
1976
1975
1974
1973
1973
1973
1973
1974
1975
1975
1976
1976
1975
1975
1974
1974
1972
1969
1966
1963
1965
1974
1990
2012
2034
2049
2051
2038
2013
1986
1965
1955
1953
1955
1959
1960
1960
1961
1961
1962
1964
1965
1966
1966
1966
1966
1967
1967
1967
1968
1968
1969
1970
1970
1970
1970
1970
1969
1970
1971
1972
1973
1973
1973
1973
1973
1973
1973
1974
1975
1976
1977
1977
1978
1978
1978
1978
1979
1981
1983
1985
1987
1987
1988
1988
1988
1989
1989
1990
1990
1991
1991
1991
1990
1988
1985
1982
1979
1976
1974
1972
1970
1968
1967
1965
1964
1963
1962
1962
1963
1964
1965
1966
1966
1966
1965
1965
1966
1967
1968
1969
1969
1970
1970
1970
1970
1970
1970
1971
1971
1972
1972
1972
1972
1972
1972
1972
1972
1972
1972
1973
1974
1974
1974
1973
1973
1972
1972
1972
1973
1973
1974
1974
1974
1974
1973
1972
1972
1972
1973
1973
1974
1974
1974
1974
1973
1973
1973
1973
1974
1974
1975
1974
1974
1974
1973
1972
1972
1972
1973
1974
1976
1977
1978
1978
1978
1978
1977
1977
1977
1977
1976
1975
1974
1974
1973
1973
1974
1974
1975
1975
1975
1975
1975
1975
1976
1974
1971
1967
1964
1964
1971
1985
2007
2031
2050
2058
2050
2029
2001
1976
1960
1955
1955
1958
1960
1962
1963
1964
1965
1965
1966
1966
1967
1967
1968
1969
1970
1970
1971
1972
1972
1973
1973
1973
1972
1972
1972
1972
1973
1975
1976
1976
1976
1976
1976
1976
1976
1977
1978
1979
1980
1981
1981
1981
1981
1981
1981
1982
1984
1986
1988
1990
1991
1992
1993
1994
1995
1995
1996
1996
1996
1995
1994
1992
1990
1987
1983
1980
1978
1976
1975
1973
1971
1969
1968
1967
1967
1968
1969
1970
1970
1971
1971
1971
1971
1971
1971
1971
1972
1973
1974
1974
1974
1974
1973
1973
1973
1974
1974
1975
1976
1976
1976
1976
1975
1975
1975
1975
1976
1977
1977
1977
1977
1977
1976
1976
1976
1976
1976
1976
1977
1977
1978
1977
1976
1976
1975
1976
1976
1976
1977
1977
1978
1978
1977
1976
1976
1976
1976
1977
1978
1978
1978
1978
1978
1977
1977
1977
1978
1978
1978
1978
1977
1976
1975
1975
1975
1975
1976
1978
1980
1981
1982
1982
1981
1980
1979
1978
1978
1978
1978
1978
1978
1978
1978
1977
1977
1977
1977
1977
1978
1979
1979
1979
1978
1975
1972
1968
1966
1970
1981
2000
2023
2046
2059
2060
2047
2022
1995
1973
1960
1956
1957
1960
1962
1963
1964
1964
1965
1966
1968
1969
1970
1970
1970
1970
1971
1972
1974
1974
1975
1975
1976
1976
1976
1976
1976
1976
1976
1977
1977
1978
1979
1979
1979
1978
1978
1979
1980
1981
1982
1983
1984
1984
1984
1984
1985
1986
1988
1989
1991
1993
1994
1994
1994
1994
1994
1994
1995
1995
1995
1995
1993
1990
1987
1984
1982
1979
1977
1976
1974
1973
1972
1971
1970
1969
1968
1968
1969
1970
1972
1974
1975
1977
1978
1978
1979
1979
1980
1980
1980
1980
1978
1977
1977
1976
1976
1976
1977
1977
1977
1977
1977
1977
1976
1976
1976
1976
1976
1977
1977
1977
1977
1977
1976
1976
1976
1976
1976
1977
1977
1977
1977
1977
1976
1975
1975
1975
1976
1977
1977
1977
1977
1977
1976
1976
1976
1976
1977
1977
1978
1978
1978
1977
1977
1976
1976
1976
1977
1978
1978
1978
1978
1977
1976
1976
1976
1977
1977
1978
1978
1978
1978
1978
1977
1977
1977
1977
1977
1977
1977
1976
1976
1975
1975
1975
1976
1978
1980
1981
1982
1981
1981
1979
1978
1976
1975
1975
1975
1975
1976
1977
1977
1977
1976
1975
1974
1975
1975
1977
1978
1977
1975
1971
1967
1965
1966
1975
1992
2015
2038
2054
2058
2048
2025
1997
1974
1960
1955
1957
1960
1962
1963
1963
1963
1963
1964
1966
1967
1969
1970
1971
1971
1971
1971
1971
1972
1972
1973
1974
1975
1975
1976
1976
1976
1976
1976
1976
1977
1977
1978
1978
1979
1979
1979
1979
1978
1979
1979
1980
1981
1982
1983
1983
1983
1984
1986
1987
1988
1990
1991
1991
1992
1993
1993
1994
1994
1994
1994
1993
1992
1990
1988
1985
1982
1979
1976
1974
1972
1971
1971
1970
1969
1969
1968
1968
1968
1968
1969
1971
1972
1974
1974
1974
1973
1973
1973
1973
1974
1974
1975
1975
1975
1975
1974
1974
1974
1974
1974
1974
1975
1975
1974
1974
1973
1973
1973
1973
1973
1974
1974
1974
1974
1973
1973
1973
1973
1974
1974
1975
1975
1974
1974
1973
1973
1973
1973
1973
1974
1975
1975
1975
1974
1973
1973
1973
1973
1973
1973
1974
1975
1975
1975
1975
1974
1973
1974
1974
1975
1976
1977
1977
1977
1976
1976
1976
1976
1976
1976
1977
1977
1977
1977
1976
1975
1974
1974
1973
1974
1974
1973
1973
1972
1972
1973
1974
1975
1977
1978
1978
1977
1976
1976
1975
1974
1973
1972
1972
1972
1973
1973
1973
1973
1972
1972
1971
1971
1972
1973
1973
1973
1970
1967
1963
1963
1968
1981
2002
2026
2047
2054
2047
2025
1998
1973
1957
1951
1952
1956
1959
1961
1963
1963
1963
1963
1963
1964
1965
1966
1968
1969
1970
1970
1970
1970
1970
1970
1971
1972
1972
1973
1973
1973
1973
1973
1972
1972
1973
1974
1975
1976
1976
1976
1976
1976
1976
1976
1977
1978
1979
1981
1982
1984
1985
1987
1988
1990
1992
1993
1995
1996
1997
1997
1996
1996
1995
1995
1994
1993
1992
1990
1988
1985
1981
1978
1975
1973
1972
1971
1971
1971
1971
1971
1970
1970
1970
1970
1970
1971
1972
1973
1973
1974
1973
1973
1972
1972
1973
1973
1974
1975
1975
1975
1975
1975
1975
1975
1975
1976
1976
1977
1978
1977
1977
1976
1975
1975
1975
1975
1975
1976
1976
1976
1976
1975
1975
1974
1974
1974
1975
1975
1975
1975
1975
1974
1974
1974
1974
1974
1975
1977
1978
1980
1980
1980
1980
1980
1980
1980
1981
1981
1981
1981
1980
1979
1979
1979
1979
1979
1980
1980
1980
1979
1978
1977
1977
1977
1978
1978
1978
1978
1977
1977
1976
1976
1975
1975
1975
1976
1977
1978
1979
1979
1979
1978
1977
1976
1976
1976
1977
1978
1980
1981
1982
1982
1981
1981
1980
1980
1979
1979
1978
1978
1978
1978
1977
1977
1977
1978
1978
1978
1978
1978
1978
1978
1978
1975
1972
1968
1966
1968
1977
1994
2016
2039
2055
2059
2049
2029
2002
1978
1963
1957
1956
1958
1960
1960
1961
1962
1964
1966
1967
1967
1968
1968
1968
1969
1969
1971
1972
1974
1975
1975
1975
1974
1974
1974
1975
1976
1976
1977
1977
1976
1976
1976
1976
1977
1977
1978
1979
1979
1980
1980
1980
1980
1980
1981
1982
1984
1986
1988
1989
1991
1991
1991
1991
1991
1991
1992
1993
1994
1994
1993
1991
1989
1987
1984
1982
1980
1979
1976
1974
1972
1970
1969
1968
1967
1967
1968
1968
1969
1969
1969
1969
1969
1969
1969
1970
1971
1972
1973
1973
1973
1973
1972
1972
1972
1972
1972
1973
1974
1975
1975
1975
1975
1975
1975
1975
1974
1975
1975
1976
1977
1977
1976
1975
1975
1974
1974
1974
1975
1975
1976
1976
1975
1975
1975
1976
1977
1978
1979
1979
1978
1977
1977
1977
1976
1977
1977
1978
1978
1979
1978
1978
1977
1977
1977
1977
1977
1978
1978
1978
1977
1977
1977
1977
1978
1978
1979
1979
1979
1978
1978
1978
1978
1977
1977
1977
1978
1979
1979
1979
1979
1978
1977
1977
1977
1977
1978
1979
1980
1979
1979
1978
1977
1977
1977
1977
1977
1978
1978
1979
1979
1979
1978
1977
1977
1977
1977
1977
1977
1977
1978
1978
1978
1978
1979
1980
1981
1982
1983
1983
1982
1981
1979
1978
1977
1977
1978
1978
1979
1979
1979
1978
1977
1977
1977
1978
1979
1979
1978
1974
1970
1968
1970
1978
1995
2018
2041
2056
2059
2048
2024
1997
1974
1960
1955
1956
1960
1963
1965
1966
1966
1966
1966
1966
1967
1968
1969
1970
1972
1972
1972
1972
1971
1971
1972
1973
1974
1974
1974
1974
1974
1974
1973
1973
1972
1972
1973
1974
1976
1977
1977
1977
1976
1975
1976
1977
1978
1980
1981
1982
1982
1983
1984
1985
1986
1987
1988
1989
1990
1991
1992
1992
1991
1991
1989
1988
1987
1986
1984
1982
1979
1976
1973
1971
1969
1967
1966
1966
1965
1965
1965
1965
1965
1965
1965
1966
1967
1967
1968
1968
1968
1968
1967
1968
1968
1969
1970
1971
1972
1972
1972
1972
1971
1971
1971
1971
1972
1972
1973
1973
1973
1973
1973
1972
1972
1972
1973
1974
1975
1975
1975
1975
1974
1973
1973
1973
1973
1973
1974
1974
1974
1974
1974
1974
1974
1974
1974
1975
1975
1975
1975
1974
1974
1974
1974
1974
1975
1975
1975
1976
1976
1976
1975
1975
1974
1974
1974
1975
1976
1976
1976
1976
1976
1976
1976
1976
1976
1976
1976
1977
1977
1976
1976
1975
1975
1975
1975
1976
1976
1976
1976
1976
1976
1976
1976
1976
1976
1976
1976
1976
1975
1975
1975
1975
1976
1977
1979
1980
1981
1981
1981
1980
1979
1977
1977
1976
1976
1976
1977
1977
1978
1977
1976
1975
1975
1975
1976
1978
1978
1976
1973
1968
1964
1966
1974
1991
2016
2040
2057
2061
2049
2026
1997
1973
1959
1955
1957
1960
1963
1964
1965
1965
1965
1966
1967
1967
1968
1969
1971
1972
1972
1972
1971
1971
1972
1972
1974
1975
1975
1975
1975
1975
1975
1975
1975
1975
1976
1977
1977
1978
1978
1978
1978
1978
1979
1979
1981
1982
1983
1984
1985
1986
1986
1986
1987
1987
1989
1991
1992
1994
1995
1995
1995
1994
1994
1993
1993
1992
1991
1989
1986
1983
1979
1976
1973
1971
1970
1970
1969
1969
1968
1967
1967
1967
1968
1968
1969
1970
1970
1971
1972
1972
1972
1972
1972
1972
1973
1974
1975
1975
1975
1974
1974
1973
1974
1974
1975
1976
1976
1976
1976
1975
1975
1975
1975
1976
1976
1977
1977
1977
1977
1976
1975
1975
1974
1974
1974
1975
1975
1976
1977
1977
1977
1977
1978
1978
1978
1979
1979
1979
1978
1978
1977
1977
1976
1976
1976
1977
1977
1978
1978
1977
1977
1977
1977
1977
1978
1978
1978
1978
1978
1978
1978
1977
1977
1976
1977
1978
1979
1979
1979
1979
1978
1977
1977
1977
1978
1979
1979
1979
1979
1979
1979
1979
1978
1978
1978
1979
1979
1979
1979
1979
1979
1978
1978
1978
1978
1979
1979
1979
1979
1978
1978
1977
1976
1976
1977
1978
1979
1980
1981
1980
1980
1979
1978
1977
1977
1977
1977
1977
1976
1976
1975
1975
1975
1976
1976
1977
1977
1978
1978
1976
1973
1969
1965
1964
1970
1983
2003
2027
2048
2058
2054
2039
2013
1987
1968
1958
1955
1957
1959
1961
1962
1962
1963
1964
1966
1967
1968
1969
1970
1970
1970
1970
1971
1972
1972
1973
1973
1973
1974
1974
1974
1973
1973
1973
1974
1975
1977
1977
1977
1976
1975
1975
1975
1975
1977
1978
1979
1980
1980
1980
1981
1981
1982
1982
1984
1986
1987
1989
1990
1990
1990
1989
1989
1990
1991
1992
1992
1991
1989
1986
1983
1980
1978
1976
1974
1972
1971
1970
1969
1967
1966
1965
1965
1965
1966
1967
1968
1968
1968
1968
1968
1969
1969
1970
1971
1971
1972
1971
1971
1971
1971
1972
1972
1973
1973
1973
1973
1973
1973
1973
1973
1973
1972
1972
1972
1973
1973
1974
1974
1974
1974
1973
1973
1973
1973
1974
1974
1974
1974
1973
1973
1973
1973
1974
1974
1974
1975
1975
1975
1975
1975
1974
1974
1974
1974
1975
1975
1976
1976
1975
1974
1974
1974
1974
1974
1975
1975
1976
1976
1975
1975
1974
1974
1974
1975
1976
1976
1976
1976
1975
1975
1975
1975
1975
1975
1975
1976
1976
1976
1976
1975
1975
1975
1975
1976
1975
1975
1975
1974
1974
1973
1973
1974
1975
1977
1978
1979
1979
1979
1978
1978
1977
1976
1975
1975
1976
1976
1976
1975
1974
1974
1974
1974
1974
1975
1975
1977
1977
1975
1972
1967
1964
1965
1973
1989
2013
2036
2052
2055
2043
2018
1991
1969
1958
1956
1959
1963
1964
1965
1965
1965
1965
1966
1967
1968
1969
1969
1970
1971
1971
1971
1971
1971
1972
1973
1974
1974
1975
1975
1975
1975
1975
1975
1976
1977
1978
1979
1979
1979
1979
1978
1978
1978
1979
1980
1982
1983
1983
1983
1984
1984
1985
1986
1988
1990
1991
1993
1994
1995
1994
1994
1993
1993
1993
1994
1994
1993
1991
1989
1986
1982
1979
1976
1974
1972
1971
1970
1969
1968
1967
1966
1966
1966
1966
1967
1968
1969
1969
1969
1970
1970
1970
1970
1970
1971
1971
1972
1972
1973
1972
1972
1972
1972
1973
1974
1974
1975
1975
1974
1974
1974
1973
1973
1973
1974
1974
1975
1975
1975
1975
1975
1974
1974
1974
1974
1974
1975
1975
1975
1975
1975
1974
1974
1974
1975
1975
1976
1976
1976
1975
1975
1974
1974
1974
1975
1975
1976
1976
1976
1976
1975
1975
1975
1975
1975
1975
1976
1977
1977
1976
1976
1975
1975
1975
1976
1976
1977
1977
1977
1977
1976
1975
1975
1975
1975
1976
1976
1977
1976
1976
1976
1975
1975
1974
1974
1975
1975
1977
1978
1978
1979
1979
1979
1979
1979
1979
1978
1977
1976
1976
1975
1975
1974
1975
1975
1976
1976
1976
1976
1976
1976
1976
1976
1975
1972
1968
1966
1967
1974
1988
2010
2033
2051
2059
2051
2032
2006
1980
1963
1955
1954
1956
1959
1960
1962
1963
1964
1965
1966
1966
1966
1966
1967
1968
1969
1970
1971
1972
1972
1972
1972
1972
1972
1972
1973
1974
1974
1975
1975
1975
1975
1974
1974
1974
1975
1976
1977
1978
1979
1979
1978
1978
1979
1980
1981
1983
1985
1986
1987
1988
1988
1989
1990
1991
1993
1994
1995
1996
1995
1994
1992
1991
1989
1988
1986
1983
1981
1979
1976
1974
1971
1970
1969
1969
1969
1969
1969
1969
1969
1970
1970
1970
1970
1970
1970
1971
1972
1972
1973
1973
1972
1972
1972
1972
1973
1974
1975
1975
1975
1975
1974
1974
1974
1973
1974
1974
1975
1975
1975
1975
1975
1974
1974
1974
1974
1975
1975
1976
1976
1975
1975
1975
1975
1975
1975
1975
1975
1975
1975
1975
1975
1975
1975
1974
1974
1974
1975
1976
1977
1977
1976
1975
1975
1975
1976
1976
1977
1977
1977
1976
1975
1975
1975
1975
1976
1977
1977
1977
1977
1976
1976
1975
1975
1975
1976
1977
1977
1977
1977
1976
1976
1975
1975
1975
1976
1976
1977
1977
1976
1976
1975
1974
1974
1974
1976
1978
1980
1981
1981
1981
1980
1979
1978
1977
1976
1976
1976
1976
1975
1975
1975
1974
1974
1975
1975
1976
1977
1977
1977
1976
1973
1969
1966
1965
1969
1980
1999
2022
2044
2057
2057
2044
2019
1991
1969
1957
1954
1956
1959
1961
1962
1962
1963
1964
1966
1967
1969
1970
1970
1970
1970
1970
1970
1971
1972
1973
1974
1975
1975
1974
1974
1973
1973
1974
1975
1976
1977
1977
1977
1977
1977
1977
1977
1978
1978
1979
1980
1981
1981
1982
1982
1983
1984
1985
1986
1988
1989
1990
1990
1991
1991
1991
1992
1992
1992
1993
1993
1993
1991
1988
1985
1982
1979
1977
1975
1974
1973
1971
1970
1968
1967
1967
1966
1967
1967
1969
1970
1971
1971
1972
1972
1971
1971
1971
1972
1973
1974
1974
1975
1975
1974
1974
1973
1973
1974
1975
1976
1976
1976
1975
1975
1975
1975
1975
1975
1975
1975
1975
1976
1976
1975
1975
1975
1974
1974
1975
1975
1976
1976
1976
1975
1974
1974
1973
1974
1975
1976
1976
1976
1975
1975
1975
1974
1974
1974
1974
1974
1975
1976
1976
1976
1975
1974
1974
1974
1975
1976
1977
1977
1976
1975
1974
1974
1974
1975
1975
1976
1976
1976
1976
1976
1975
1975
1975
1976
1976
1976
1975
1974
1974
1975
1976
1978
1979
1980
1980
1980
1980
1979
1978
1977
1976
1975
1974
1974
1975
1975
1976
1976
1976
1976
1975
1975
1976
1976
1977
1976
1973
1970
1967
1968
1975
1991
2013
2036
2052
2055
2043
2019
1991
1969
1958
1956
1959
1963
1966
1966
1967
1967
1967
1967
1967
1968
1969
1970
1972
1972
1973
1974
1974
1974
1974
1975
1975
1976
1977
1977
1977
1977
1977
1977
1977
1977
1977
1978
1979
1979
1980
1980
1980
1980
1979
1979
1980
1981
1983
1984
1986
1986
1987
1987
1987
1988
1990
1992
1994
1995
1996
1996
1995
1994
1993
1993
1992
1991
1990
1988
1986
1983
1980
1976
1973
1971
1969
1969
1968
1968
1967
1967
1966
1966
1966
1967
1968
1969
1970
1971
1971
1970
1970
1970
1970
1971
1972
1972
1973
1974
1974
1974
1973
1972
1972
1973
1974
1975
1976
1976
1976
1975
1975
1975
1975
1975
1976
1976
1976
1976
1977
1977
1976
1976
1976
1975
1975
1976
1976
1976
1976
1976
1976
1975
1975
1975
1975
1975
1976
1977
1977
1977
1977
1976
1976
1976
1976
1976
1977
1977
1977
1977
1977
1977
1976
1976
1976
1976
1977
1977
1977
1976
1976
1975
1975
1975
1977
1978
1980
1981
1982
1982
1981
1980
1978
1977
1977
1977
1977
1977
1977
1977
1976
1976
1976
1976
1977
1977
1978
1979
1979
1977
1974
1969
1966
1967
1974
1989
2012
2037
2055
2061
2051
2028
1999
1975
1960
1955
1957
1961
1964
1965
1966
1965
1965
1966
1967
1969
1970
1971
1971
1971
1971
1972
1972
1973
1973
1974
1975
1975
1976
1976
1976
1976
1975
1975
1976
1976
1977
1978
1978
1978
1978
1978
1978
1979
1980
1980
1981
1982
1983
1984
1984
1984
1985
1986
1988
1990
1991
1993
1993
1994
1994
1994
1993
1993
1993
1994
1993
1992
1990
1988
1984
1981
1977
1975
1973
1972
1971
1971
1970
1969
1968
1968
1968
1968
1968
1969
1970
1970
1971
1971
1971
1972
1972
1972
1973
1974
1975
1975
1976
1976
1975
1975
1974
1974
1974
1974
1975
1976
1977
1977
1977
1976
1976
1975
1975
1975
1976
1976
1977
1977
1976
1976
1975
1975
1976
1976
1977
1977
1977
1977
1977
1976
1976
1976
1975
1975
1976
1977
1977
1978
1978
1977
1976
1976
1976
1976
1976
1977
1978
1978
1977
1976
1976
1976
1976
1977
1978
1978
1978
1978
1977
1977
1976
1976
1975
1975
1975
1976
1977
1978
1980
1980
1981
1980
1980
1980
1980
1980
1980
1978
1977
1976
1975
1975
1975
1976
1977
1978
1978
1978
1977
1977
1977
1977
1977
1975
1972
1968
1966
1969
1977
1994
2017
2040
2056
2059
2048
2025
1998
1974
1960
1955
1955
1958
1960
1962
1963
1964
1965
1966
1967
1967
1968
1968
1969
1970
1971
1972
1972
1972
1972
1973
1973
1973
1974
1974
1975
1975
1975
1975
1975
1975
1975
1975
1976
1976
1977
1978
1979
1979
1979
1979
1979
1979
1980
1981
1983
1984
1986
1986
1987
1988
1988
1989
1990
1991
1992
1993
1994
1994
1993
1992
1990
1989
1987
1985
1983
1980
1978
1975
1973
1971
1969
1968
1967
1967
1968
1968
1968
1968
1968
1968
1968
1968
1969
1970
1971
1972
1972
1972
1972
1971
1971
1971
1971
1972
1974
1974
1975
1975
1974
1973
1973
1973
1973
1974
1975
1976
1976
1975
1975
1974
1974
1974
1974
1975
1975
1976
1976
1975
1975
1974
1974
1974
1975
1975
1976
1975
1975
1974
1974
1974
1974
1974
1975
1975
1975
1976
1976
1976
1976
1976
1975
1975
1975
1976
1976
1977
1978
1977
1977
1976
1974
1974
1974
1975
1976
1977
1978
1977
1977
1976
1975
1975
1975
1976
1976
1977
1977
1976
1975
1974
1974
1975
1976
1978
1980
1981
1982
1981
1980
1978
1977
1976
1975
1975
1976
1976
1976
1975
1974
1974
1974
1974
1975
1975
1975
1976
1977
1977
1974
1970
1966
1963
1966
1976
1995
2018
2041
2055
2058
2046
2022
1994
1971
1958
1953
1955
1959
1961
1962
1962
1962
1962
1963
1965
1967
1969
1970
1970
1970
1970
1969
1970
1971
1972
1973
1974
1974
1974
1974
1974
1973
1974
1974
1975
1976
1977
1977
1977
1976
1976
1976
1976
1976
1977
1978
1980
1981
1982
1982
1982
1983
1984
1985
1986
1988
1989
1990
1990
1991
1991
1991
1991
1991
1991
1991
1991
1990
1987
1985
1982
1979
1976
1974
1972
1970
1969
1968
1968
1968
1967
1966
1966
1967
1967
1969
1970
1971
1971
1971
1970
1970
1970
1970
1971
1972
1973
1973
1974
1974
1973
1973
1973
1973
1974
1974
1975
1975
1975
1975
1975
1975
1974
1974
1975
1976
1976
1976
1976
1975
1975
1975
1975
1975
1975
1976
1978
1979
1980
1980
1980
1980
1980
1980
1980
1980
1981
1981
1981
1980
1978
1977
1977
1977
1977
1978
1978
1978
1977
1977
1976
1976
1976
1976
1976
1977
1977
1977
1977
1976
1976
1976
1977
1977
1976
1976
1975
1975
1975
1975
1975
1975
1974
1974
1974
1974
1974
1974
1975
1976
1977
1978
1979
1979
1978
1978
1978
1978
1977
1977
1976
1976
1976
1977
1978
1979
1980
1980
1980
1980
1979
1978
1979
1979
1979
1977
1975
1971
1968
1970
1978
1994
2016
2038
2053
2056
2044
2020
1993
1972
1960
1958
1960
1963
1966
1967
1968
1968
1968
1967
1967
1968
1969
1971
1972
1973
1974
1974
1974
1974
1973
1974
1974
1975
1976
1976
1977
1977
1977
1977
1977
1977
1977
1976
1977
1978
1978
1979
1980
1980
1980
1980
1980
1981
1982
1984
1985
1986
1987
1988
1988
1989
1989
1990
1991
1993
1994
1995
1995
1995
1994
1993
1992
1991
1990
1988
1986
1983
1980
1977
1974
1971
1969
1968
1968
1968
1968
1968
1968
1968
1968
1968
1968
1969
1969
1970
1971
1972
1972
1972
1972
1972
1972
1972
1973
1973
1974
1974
1975
1975
1975
1974
1974
1974
1974
1975
1976
1977
1977
1977
1976
1975
1975
1975
1976
1977
1977
1978
1977
1976
1976
1975
1975
1975
1975
1976
1976
1976
1976
1976
1975
1975
1975
1975
1976
1976
1976
1976
1977
1977
1977
1976
1976
1976
1976
1976
1977
1977
1977
1977
1976
1975
1974
1975
1975
1976
1977
1977
1978
1977
1977
1976
1976
1975
1975
1975
1976
1975
1975
1975
1975
1976
1977
1979
1980
1981
1982
1981
1980
1979
1977
1976
1975
1975
1975
1976
1976
1977
1977
1977
1976
1975
1975
1976
1977
1978
1977
1975
1970
1966
1964
1967
1977
1996
2021
2044
2058
2059
2045
2020
1992
1969
1956
1952
1955
1958
1961
1963
1964
1964
1964
1964
1965
1966
1967
1969
1970
1970
1971
1971
1971
1972
1972
1972
1973
1973
1974
1974
1974
1974
1974
1974
1974
1975
1976
1977
1977
1977
1978
1977
1977
1977
1977
1978
1979
1981
1982
1983
1983
1983
1983
1983
1984
1986
1988
1990
1991
1992
1992
1992
1992
1991
1991
1990
1990
1989
1987
1985
1982
1979
1976
1973
1971
1970
1969
1968
1968
1968
1967
1966
1966
1966
1967
1967
1968
1969
1970
1970
1971
1971
1971
1970
1971
1971
1971
1972
1973
1973
1974
1974
1974
1973
1972
1972
1973
1974
1975
1976
1975
1975
1974
1973
1973
1973
1974
1974
1975
1975
1975
1976
1975
1975
1975
1974
1975
1975
1975
1975
1975
1975
1974
1974
1974
1975
1976
1976
1976
1976
1976
1976
1976
1975
1975
1975
1975
1976
1976
1977
1977
1976
1976
1975
1975
1975
1975
1976
1976
1976
1976
1977
1977
1977
1977
1977
1977
1977
1977
1977
1977
1976
1976
1975
1975
1976
1977
1977
1977
1977
1976
1976
1976
1975
1975
1975
1975
1976
1978
1979
1980
1981
1980
1980
1979
1979
1978
1978
1978
1978
1977
1976
1976
1975
1974
1974
1975
1975
1976
1976
1977
1978
1978
1977
1974
1970
1966
1965
1970
1981
2000
2023
2045
2057
2057
2043
2018
1992
1970
1958
1955
1957
1960
1961
1962
1962
1963
1965
1967
1968
1969
1969
1969
1969
1970
1970
1972
1973
1974
1974
1974
1974
1974
1974
1974
1974
1975
1975
1976
1976
1976
1976
1976
1977
1977
1978
1978
1978
1979
1979
1979
1980
1980
1980
1980
1981
1983
1985
1987
1988
1989
1989
1990
1990
1991
1991
1992
1993
1993
1994
1993
1991
1989
1986
1984
1981
1980
1978
1977
1975
1973
1970
1968
1966
1966
1967
1967
1968
1968
1968
1968
1969
1969
1970
1971
1971
1972
1972
1972
1973
1973
1973
1973
1973
1973
1973
1973
1974
1975
1976
1975
1975
1974
1973
1973
1973
1974
1975
1976
1976
1975
1975
1975
1975
1975
1976
1976
1976
1977
1976
1976
1975
1974
1974
1974
1974
1975
1976
1976
1977
1976
1976
1975
1974
1974
1975
1975
1976
1977
1977
1977
1976
1976
1976
1976
1976
1976
1976
1976
1976
1976
1976
1976
1975
1975
1975
1975
1976
1977
1978
1978
1977
1976
1976
1975
1975
1975
1976
1976
1977
1977
1976
1975
1974
1973
1973
1974
1976
1978
1980
1981
1981
1980
1980
1980
1980
1979
1978
1978
1977
1977
1977
1977
1977
1977
1977
1977
1977
1978
1978
1978
1978
1978
1977
1974
1970
1968
1969
1976
1989
2009
2032
2049
2055
2048
2027
2001
1978
1963
1958
1959
1962
1964
1965
1965
1966
1967
1968
1969
1970
1970
1971
1971
1971
1972
1972
1973
1974
1975
1976
1976
1977
1976
1975
1975
1975
1975
1976
1977
1977
1978
1978
1978
1978
1977
1978
1979
1980
1981
1982
1982
1982
1982
1983
1984
1985
1987
1988
1989
1990
1991
1991
1992
1992
1993
1994
1994
1995
1996
1996
1995
1994
1991
1989
1986
1983
1981
1979
1977
1974
1972
1970
1969
1968
1967
1968
1968
1969
1969
1969
1969
1969
1970
1970
1971
1971
1971
1972
1973
1974
1974
1974
1974
1973
1973
1973
1974
1975
1976
1977
1977
1976
1975
1974
1974
1975
1976
1977
1978
1978
1978
1977
1977
1976
1976
1976
1977
1977
1977
1977
1977
1977
1977
1976
1976
1976
1976
1977
1977
1978
1978
1977
1977
1976
1975
1975
1976
1976
1977
1977
1978
1978
1977
1977
1977
1977
1977
1978
1978
1978
1978
1978
1977
1977
1976
1976
1977
1978
1978
1979
1978
1978
1977
1976
1976
1976
1977
1977
1977
1976
1976
1975
1975
1975
1976
1977
1979
1981
1981
1981
1980
1979
1978
1977
1976
1976
1976
1976
1976
1976
1977
1977
1976
1975
1975
1975
1976
1977
1978
1978
1976
1972
1968
1964
1966
1974
1991
2014
2038
2056
2061
2050
2028
2000
1976
1961
1955
1955
1959
1961
1963
1964
1964
1964
1965
1967
1968
1969
1970
1970
1971
1971
1971
1971
1972
1972
1973
1974
1975
1975
1975
1975
1975
1975
1975
1975
1975
1975
1976
1977
1978
1978
1978
1978
1977
1977
1978
1979
1981
1982
1983
1983
1983
1983
1984
1985
1987
1989
1990
1992
1992
1992
1992
1992
1991
1992
1992
1992
1991
1989
1986
1983
1980
1977
1974
1972
1971
1970
1969
1969
1968
1967
1967
1967
1967
1968
1969
1969
1970
1971
1971
1972
1972
1971
1971
1971
1971
1972
1973
1974
1974
1974
1973
1972
1972
1972
1973
1974
1975
1975
1975
1974
1974
1974
1974
1975
1975
1976
1976
1976
1975
1975
1974
1974
1974
1974
1975
1975
1975
1976
1976
1976
1975
1975
1974
1974
1975
1976
1976
1977
1977
1976
1975
1974
1973
1974
1975
1976
1976
1976
1976
1975
1975
1975
1975
1975
1976
1977
1978
1978
1978
1977
1976
1976
1975
1976
1976
1977
1978
1978
1978
1977
1976
1976
1976
1976
1977
1977
1977
1977
1977
1977
1976
1976
1975
1975
1975
1975
1977
1978
1980
1980
1981
1981
1980
1980
1980
1979
1979
1978
1978
1977
1977
1976
1975
1975
1975
1976
1977
1978
1979
1978
1978
1977
1975
1972
1969
1967
1967
1973
1987
2007
2030
2048
2058
2053
2036
2011
1985
1967
1957
1955
1957
1959
1961
1962
1963
1965
1966
1967
1968
1968
1968
1969
1969
1970
1971
1972
1973
1974
1974
1973
1973
1973
1973
1974
1975
1976
1976
1976
1976
1976
1976
1976
1976
1976
1977
1978
1978
1979
1979
1979
1979
1979
1979
1981
1982
1984
1985
1987
1987
1988
1989
1989
1989
1990
1991
1992
1992
1993
1992
1991
1990
1987
1985
1982
1980
1979
1977
1975
1973
1971
1969
1967
1966
1966
1967
1968
1968
1968
1968
1968
1968
1968
1969
1969
1970
1970
1971
1972
1972
1972
1972
1972
1971
1972
1972
1973
1973
1974
1974
1973
1973
1973
1973
1974
1974
1975
1975
1975
1975
1974
1974
1974
1974
1975
1975
1975
1975
1974
1974
1974
1974
1974
1974
1975
1975
1976
1976
1976
1975
1975
1974
1974
1974
1974
1975
1976
1976
1976
1976
1976
1975
1975
1975
1975
1975
1975
1975
1975
1975
1975
1975
1975
1974
1974
1975
1976
1976
1977
1976
1975
1975
1975
1975
1976
1977
1977
1978
1978
1978
1977
1977
1976
1975
1975
1975
1975
1977
1978
1980
1981
1981
1981
1980
1979
1979
1979
1979
1979
1978
1977
1977
1976
1976
1976
1976
1976
1977
1977
1978
1978
1978
1977
1976
1973
1970
1968
1968
1975
1989
2009
2032
2048
2054
2046
2025
1999
1976
1962
1957
1959
1962
1964
1964
1964
1965
1966
1968
1969
1970
1970
1970
1970
1970
1971
1972
1973
1974
1974
1974
1974
1974
1974
1975
1975
1976
1977
1977
1977
1977
1977
1977
1977
1977
1977
1977
1978
1979
1980
1981
1981
1981
1981
1982
1983
1984
1986
1987
1988
1989
1990
1991
1992
1992
1992
1993
1994
1995
1995
1995
1994
1992
1989
1986
1984
1981
1979
1978
1976
1975
1972
1970
1968
1967
1966
1966
1967
1968
1968
1969
1969
1969
1969
1969
1969
1970
1970
1971
1972
1972
1972
1971
1971
1971
1972
1973
1974
1974
1974
1974
1974
1974
1974
1974
1974
1974
1974
1975
1975
1975
1975
1974
1974
1974
1975
1975
1975
1975
1976
1976
1976
1975
1975
1974
1974
1974
1975
1975
1976
1975
1975
1974
1973
1973
1974
1975
1976
1977
1978
1978
1977
1977
1976
1976
1976
1976
1977
1978
1978
1978
1977
1976
1976
1976
1976
1977
1977
1977
1977
1977
1977
1976
1976
1976
1976
1976
1976
1977
1976
1976
1975
1974
1974
1974
1975
1976
1978
1980
1981
1981
1980
1979
1978
1977
1977
1977
1977
1977
1976
1976
1975
1974
1974
1974
1974
1975
1976
1977
1977
1977
1976
1973
1969
1965
1964
1967
1978
1996
2019
2042
2056
2058
2046
2022
1994
1971
1958
1954
1956
1959
1961
1962
1962
1961
1962
1964
1966
1968
1969
1970
1970
1970
1969
1970
1970
1972
1973
1974
1974
1974
1974
1974
1974
1974
1974
1975
1975
1975
1976
1976
1976
1976
1976
1975
1976
1977
1978
1980
1981
1981
1981
1981
1981
1982
1983
1985
1986
1988
1989
1990
1991
1991
1991
1991
1991
1992
1992
1993
1992
1991
1989
1985
1982
1979
1976
1975
1974
1972
1971
1970
1969
1968
1967
1967
1967
1968
1969
1970
1970
1970
1969
1969
1969
1970
1971
1972
1972
1973
1973
1974
1973
1973
1973
1972
1972
1973
1973
1974
1974
1974
1975
1975
1974
1974
1974
1975
1975
1976
1976
1976
1976
1976
1975
1974
1974
1974
1975
1976
1976
1976
1976
1975
1975
1975
1975
1975
1975
1975
1976
1976
1976
1976
1975
1975
1975
1975
1976
1976
1977
1977
1976
1976
1975
1975
1976
1976
1977
1977
1977
1976
1976
1976
1975
1975
1976
1976
1977
1977
1977
1976
1976
1976
1976
1976
1976
1976
1976
1976
1976
1976
1975
1975
1974
1974
1975
1976
1977
1978
1979
1979
1980
1980
1979
1979
1978
1978
1977
1976
1976
1975
1975
1975
1975
1975
1975
1976
1976
1977
1977
1977
1977
1975
1973
1969
1966
1965
1968
1978
1996
2018
2040
2054
2055
2043
2019
1993
1972
1959
1956
1957
1960
1962
1962
1962
1963
1964
1965
1966
1968
1969
1969
1969
1969
1969
1970
1971
1973
1974
1974
1974
1973
1973
1973
1973
1973
1974
1975
1975
1976
1976
1976
1975
1975
1975
1976
1976
1978
1979
1980
1980
1980
1980
1980
1981
1981
1983
1985
1987
1988
1989
1990
1990
1990
1991
1991
1992
1993
1993
1993
1991
1989
1987
1984
1981
1979
1977
1976
1974
1973
1971
1969
1968
1967
1966
1966
1967
1967
1968
1968
1969
1969
1969
1969
1969
1970
1971
1971
1972
1972
1972
1972
1972
1972
1971
1972
1972
1973
1974
1975
1975
1975
1974
1974
1974
1974
1975
1975
1976
1976
1976
1976
1975
1975
1975
1975
1975
1976
1976
1976
1976
1975
1975
1975
1975
1975
1975
1975
1974
1974
1974
1975
1975
1975
1975
1975
1975
1975
1975
1975
1975
1975
1975
1975
1974
1975
1976
1976
1977
1977
1977
1976
1975
1974
1974
1974
1975
1975
1976
1977
1977
1976
1975
1975
1974
1974
1974
1975
1977
1978
1980
1980
1980
1980
1979
1979
1979
1978
1977
1977
1977
1977
1977
1976
1976
1976
1977
1978
1978
1979
1979
1979
1979
1978
1976
1973
1970
1968
1971
1980
1998
2020
2042
2055
2054
2040
2016
1990
1970
1960
1958
1960
1963
1965
1965
1966
1967
1968
1969
1970
1971
1971
1971
1972
1972
1973
1974
1975
1975
1975
1975
1975
1975
1975
1976
1976
1977
1977
1978
1978
1979
1979
1978
1978
1978
1978
1979
1980
1981
1981
1981
1981
1981
1981
1982
1983
1985
1987
1988
1989
1990
1991
1992
1992
1992
1992
1993
1994
1994
1995
1994
1993
1991
1989
1986
1984
1981
1979
1976
1974
1972
1971
1969
1968
1967
1967
1967
1968
1969
1969
1969
1969
1969
1969
1969
1970
1971
1971
1972
1972
1972
1973
1972
1972
1972
1972
1973
1974
1975
1975
1976
1976
1975
1975
1974
1974
1975
1975
1976
1977
1977
1976
1975
1975
1975
1975
1976
1976
1976
1976
1976
1976
1975
1975
1976
1976
1977
1977
1977
1976
1976
1976
1975
1975
1975
1975
1975
1976
1977
1977
1977
1977
1976
1976
1976
1976
1977
1978
1978
1978
1978
1977
1977
1977
1976
1977
1977
1977
1978
1978
1978
1978
1977
1976
1976
1976
1976
1976
1976
1976
1976
1975
1975
1976
1976
1978
1979
1981
1981
1982
1981
1979
1978
1977
1977
1977
1977
1977
1977
1977
1977
1976
1976
1976
1976
1976
1977
1978
1979
1978
1975
1971
1967
1965
1970
1982
2003
2027
2048
2060
2057
2041
2015
1988
1968
1957
1956
1958
1961
1963
1964
1964
1964
1965
1965
1967
1968
1970
1971
1972
1972
1972
1971
1972
1972
1973
1974
1975
1975
1975
1975
1975
1974
1975
1975
1976
1976
1977
1978
1979
1979
1980
1980
1979
1979
1980
1981
1982
1983
1984
1984
1984
1985
1985
1986
1988
1990
1992
1993
1994
1994
1994
1993
1993
1993
1994
1994
1993
1992
1990
1987
1984
1982
1979
1976
1974
1973
1971
1970
1970
1969
1969
1969
1969
1969
1970
1970
1971
1971
1972
1973
1973
1973
1973
1973
1973
1974
1974
1975
1975
1975
1975
1975
1975
1975
1975
1976
1976
1976
1977
1977
1977
1977
1976
1975
1975
1976
1977
1979
1979
1979
1979
1978
1978
1977
1977
1977
1977
1978
1978
1978
1977
1977
1976
1976
1976
1977
1978
1979
1979
1979
1979
1978
1977
1977
1977
1978
1978
1979
1979
1979
1979
1978
1978
1978
1978
1979
1979
1979
1979
1979
1979
1978
1978
1978
1979
1980
1981
1981
1980
1980
1979
1979
1978
1978
1977
1977
1977
1978
1979
1980
1982
1983
1983
1983
1983
1983
1983
1982
1982
1981
1979
1979
1978
1978
1978
1978
1979
1979
1980
1980
1980
1980
1979
1979
1978
1976
1973
1970
1969
1974
1985
2004
2027
2049
2062
2061
2047
2021
1994
1972
1960
1956
1958
1961
1963
1965
1966
1967
1968
1969
1969
1970
1970
1971
1971
1972
1973
1974
1975
1975
1975
1975
1975
1975
1976
1977
1978
1978
1978
1978
1978
1977
1978
1978
1979
1979
1980
1980
1981
1981
1981
1981
1981
1982
1982
1984
1985
1986
1987
1988
1988
1989
1989
1990
1991
1992
1993
1994
1994
1994
1993
1992
1990
1989
1987
1985
1983
1981
1978
1976
1974
1972
1970
1968
1967
1967
1968
1969
1969
1969
1969
1968
1968
1969
1970
1970
1971
1971
1972
1972
1972
1972
1971
1971
1972
1972
1973
1974
1974
1974
1974
1973
1972
1972
1972
1972
1973
1974
1974
1974
1973
1973
1972
1972
1972
1973
1974
1974
1975
1975
1975
1974
1974
1973
1973
1974
1974
1975
1975
1975
1974
1974
1973
1973
1974
1975
1975
1976
1975
1975
1974
1973
1973
1973
1973
1974
1975
1975
1975
1975
1974
1974
1974
1974
1975
1975
1975
1976
1976
1976
1976
1975
1974
1974
1973
1974
1974
1974
1974
1974
1974
1973
1972
1972
1973
1975
1977
1979
1980
1980
1979
1978
1976
1974
1973
1973
1973
1973
1974
1974
1974
1973
1973
1973
1973
1973
1974
1975
1976
1975
1973
1969
1965
1964
1968
1980
1999
2022
2042
2052
2048
2029
2002
1977
1960
1954
1955
1960
1963
1964
1964
1963
1963
1964
1966
1967
1968
1969
1969
1970
1970
1970
1970
1970
1970
1971
1971
1972
1973
1974
1974
1974
1974
1974
1974
1974
1975
1976
1976
1976
1976
1976
1976
1976
1977
1978
1979
1980
1981
1982
1983
1983
1983
1984
1985
1986
1988
1989
1990
1991
1991
1992
1992
1992
1992
1992
1992
1992
1990
1987
1984
1981
1979
1976
1974
1971
1970
1968
1967
1967
1966
1965
1964
1964
1964
1965
1966
1967
1968
1969
1969
1969
1970
1970
1970
1971
1971
1972
1973
1973
1973
1973
1973
1972
1973
1973
1974
1975
1976
1976
1976
1975
1975
1974
1974
1975
1975
1976
1976
1975
1974
1974
1973
1973
1974
1975
1975
1975
1975
1975
1974
1973
1973
1973
1974
1974
1975
1975
1975
1975
1975
1975
1974
1974
1974
1975
1975
1975
1975
1975
1975
1975
1975
1975
1975
1975
1976
1976
1976
1976
1975
1974
1974
1974
1974
1975
1976
1978
1979
1980
1981
1980
1979
1978
1977
1976
1976
1976
1976
1976
1976
1975
1974
1973
1973
1974
1975
1976
1977
1978
1977
1975
1972
1967
1964
1964
1971
1985
2007
2031
2049
2057
2050
2030
2003
1978
1962
1955
1956
1959
1962
1963
1963
1963
1963
1964
1966
1968
1969
1970
1970
1970
1970
1970
1971
1972
1973
1974
1974
1974
1974
1973
1973
1974
1974
1975
1976
1977
1977
1977
1977
1977
1977
1977
1977
1978
1979
1980
1980
1981
1981
1982
1982
1983
1984
1985
1987
1989
1990
1991
1991
1991
1991
1992
1992
1993
1993
1993
1992
1991
1988
1986
1983
1980
1977
1974
1972
1971
1970
1969
1968
1967
1966
1966
1966
1967
1967
1968
1969
1969
1969
1969
1969
1969
1970
1971
1971
1972
1973
1973
1973
1973
1972
1972
1972
1972
1973
1974
1974
1974
1974
1973
1973
1973
1973
1974
1975
1976
1976
1975
1974
1974
1973
1974
1974
1975
1976
1976
1976
1975
1974
1974
1973
1973
1973
1974
1975
1976
1976
1976
1975
1974
1974
1974
1974
1975
1976
1976
1976
1976
1976
1975
1975
1975
1975
1975
1976
1976
1977
1977
1976
1976
1975
1975
1975
1975
1975
1975
1975
1975
1975
1976
1977
1978
1979
1980
1980
1980
1980
1979
1978
1976
1975
1974
1974
1975
1976
1976
1977
1977
1976
1975
1975
1975
1975
1976
1976
1974
1971
1967
1965
1967
1976
1994
2017
2040
2054
2056
2044
2020
1993
1971
1958
1954
1956
1959
1961
1963
1963
1964
1965
1966
1966
1966
1967
1968
1969
1971
1971
1972
1972
1972
1972
1972
1973
1973
1974
1974
1975
1975
1975
1975
1975
1974
1975
1975
1976
1977
1977
1978
1978
1978
1977
1977
1978
1979
1981
1983
1984
1984
1985
1985
1985
1986
1987
1988
1990
1991
1992
1992
1992
1992
1991
1990
1989
1987
1986
1984
1982
1981
1978
1976
1973
1971
1969
1968
1968
1968
1968
1968
1968
1968
1967
1967
1967
1968
1969
1970
1972
1972
1972
1971
1971
1971
1972
1972
1972
1973
1973
1973
1974
1974
1974
1973
1973
1973
1974
1975
1976
1976
1976
1976
1975
1974
1974
1975
1976
1976
1977
1976
1975
1975
1974
1974
1974
1975
1975
1976
1976
1976
1975
1975
1975
1975
1975
1976
1976
1976
1976
1975
1975
1975
1975
1976
1976
1975
1975
1974
1975
1975
1975
1975
1975
1975
1975
1975
1975
1975
1975
1976
1976
1975
1975
1974
1974
1975
1976
1977
1978
1979
1979
1979
1979
1979
1978
1978
1977
1976
1975
1975
1975
1975
1974
1974
1975
1975
1976
1976
1976
1976
1976
1976
1975
1972
1969
1965
1964
1970
1982
2002
2025
2044
2052
2047
2027
2001
1977
1962
1956
1957
1960
1962
1963
1964
1964
1965
1966
1967
1969
1970
1970
1970
1970
1970
1970
1970
1971
1973
1974
1974
1974
1974
1973
1973
1973
1974
1975
1975
1976
1977
1977
1977
1977
1977
1977
1978
1978
1979
1980
1980
1981
1981
1981
1982
1982
1983
1985
1987
1988
1989
1990
1990
1990
1991
1992
1993
1993
1994
1993
1992
1991
1988
1985
1982
1979
1977
1975
1974
1972
1970
1968
1966
1965
1965
1965
1965
1966
1966
1967
1967
1967
1967
1967
1968
1968
1969
1970
1971
1971
1971
1970
1971
1971
1973
1974
1974
1974
1973
1973
1973
1973
1974
1974
1974
1974
1975
1975
1975
1975
1975
1975
1974
1974
1974
1974
1975
1975
1976
1976
1975
1974
1973
1973
1973
1974
1975
1976
1976
1976
1975
1974
1974
1974
1973
1974
1974
1975
1975
1976
1976
1975
1975
1974
1974
1974
1974
1974
1974
1974
1974
1974
1974
1974
1975
1977
1979
1981
1982
1982
1981
1979
1977
1975
1974
1974
1975
1976
1977
1976
1976
1975
1974
1974
1975
1975
1976
1977
1977
1975
1972
1967
1964
1966
1975
1993
2017
2042
2059
2061
2048
2023
1993
1970
1956
1952
1955
1959
1961
1963
1964
1964
1964
1964
1965
1966
1967
1969
1970
1970
1971
1971
1971
1971
1971
1971
1972
1974
1975
1976
1976
1976
1976
1975
1974
1974
1975
1976
1976
1977
1977
1977
1978
1978
1978
1979
1980
1981
1982
1983
1984
1984
1985
1986
1987
1988
1990
1991
1992
1993
1994
1995
1995
1994
1993
1992
1991
1990
1988
1986
1983
1980
1977
1974
1972
1970
1969
1969
1969
1969
1969
1969
1968
1968
1967
1968
1969
1970
1971
1972
1972
1972
1972
1972
1972
1972
1973
1973
1974
1975
1975
1974
1973
1973
1973
1973
1974
1975
1976
1976
1976
1976
1975
1975
1974
1974
1975
1976
1977
1977
1977
1976
1975
1975
1975
1975
1976
1977
1977
1977
1977
1977
1976
1976
1975
1975
1976
1977
1977
1977
1977
1977
1976
1976
1976
1976
1976
1977
1977
1978
1978
1978
1977
1977
1977
1977
1977
1978
1978
1977
1977
1976
1975
1975
1976
1977
1979
1981
1982
1983
1982
1981
1980
1979
1978
1977
1976
1977
1977
1977
1977
1977
1976
1975
1975
1976
1977
1979
1980
1979
1978
1974
1970
1966
1965
1969
1980
2000
2024
2046
2058
2057
2041
2016
1989
1968
1957
1955
1958
1961
1962
1963
1963
1963
1964
1965
1967
1969
1970
1970
1970
1970
1970
1970
1971
1971
1972
1973
1974
1975
1975
1975
1974
1973
1973
1973
1974
1975
1976
1977
1977
1977
1976
1976
1976
1977
1978
1980
1981
1982
1983
1983
1983
1984
1984
1985
1987
1988
1990
1991
1991
1991
1991
1991
1991
1992
1992
1992
1992
1990
1987
1984
1980
1978
1976
1974
1973
1971
1971
1970
1970
1969
1969
1968
1968
1968
1969
1970
1971
1971
1971
1971
1971
1971
1972
1972
1974
1975
1975
1975
1975
1974
1973
1973
1974
1974
1975
1976
1976
1976
1976
1976
1976
1976
1975
1975
1975
1976
1976
1977
1977
1976
1975
1975
1975
1975
1976
1976
1976
1976
1976
1975
1975
1975
1975
1975
1975
1976
1977
1977
1977
1976
1976
1975
1975
1976
1976
1976
1976
1976
1975
1975
1975
1975
1975
1975
1976
1976
1976
1976
1976
1976
1975
1975
1975
1975
1975
1976
1976
1975
1975
1974
1974
1974
1975
1976
1977
1979
1980
1981
1981
1980
1978
1976
1975
1974
1974
1975
1976
1976
1976
1975
1975
1974
1974
1974
1975
1976
1977
1977
1975
1971
1967
1964
1965
1973
1988
2011
2034
2050
2054
2044
2021
1994
1972
1958
1955
1956
1960
1963
1964
1964
1964
1965
1966
1966
1967
1968
1969
1969
1970
1971
1971
1971
1971
1972
1973
1975
1975
1975
1975
1974
1974
1974
1974
1975
1976
1976
1977
1977
1977
1977
1977
1977
1977
1977
1978
1980
1980
1981
1982
1982
1982
1983
1984
1985
1988
1990
1991
1992
1992
1991
1991
1991
1991
1992
1992
1991
1990
1988
1986
1983
1980
1976
1973
1971
1969
1968
1967
1966
1966
1965
1965
1964
1964
1965
1966
1967
1969
1969
1969
1969
1969
1969
1969
1970
1970
1971
1972
1972
1972
1972
1971
1971
1971
1972
1973
1974
1974
1974
1974
1974
1974
1973
1973
1973
1973
1974
1974
1975
1976
1975
1975
1974
1973
1973
1973
1974
1974
1975
1974
1974
1973
1973
1973
1974
1974
1975
1975
1974
1974
1973
1973
1973
1973
1974
1974
1974
1975
1975
1975
1975
1975
1975
1974
1974
1974
1974
1975
1975
1974
1973
1972
1972
1973
1974
1976
1979
1980
1980
1980
1978
1976
1975
1974
1974
1974
1975
1975
1976
1976
1976
1976
1975
1975
1975
1975
1976
1977
1978
1977
1974
1969
1965
1963
1967
1978
1998
2022
2045
2057
2056
2041
2014
1987
1966
1956
1954
1957
1961
1962
1963
1963
1963
1964
1965
1967
1968
1969
1969
1969
1970
1970
1970
1970
1971
1971
1972
1973
1973
1973
1973
1973
1973
1973
1973
1974
1974
1975
1975
1976
1975
1975
1976
1976
1977
1978
1979
1980
1980
1980
1981
1981
1982
1984
1985
1987
1988
1989
1990
1990
1990
1990
1991
1991
1991
1991
1991
1990
1988
1986
1983
1980
1977
1974
1972
1970
1969
1968
1968
1967
1967
1966
1965
1965
1965
1966
1967
1969
1970
1970
1969
1969
1968
1969
1970
1971
1973
1974
1974
1973
1973
1972
1972
1972
1973
1974
1975
1976
1976
1976
1975
1974
1973
1974
1974
1975
1975
1975
1975
1975
1975
1974
1974
1973
1973
1974
1975
1975
1976
1976
1975
1974
1974
1974
1974
1974
1975
1976
1976
1976
1975
1975
1974
1974
1974
1975
1975
1976
1976
1975
1975
1975
1974
1974
1974
1975
1975
1976
1976
1976
1975
1974
1973
1973
1973
1973
1975
1976
1977
1977
1976
1975
1974
1974
1973
1973
1973
1973
1974
1975
1975
1976
1977
1977
1978
1979
1979
1979
1978
1977
1975
1974
1974
1974
1974
1974
1974
1974
1974
1975
1975
1975
1974
1975
1975
1975
1974
1971
1967
1965
1967
1975
1992
2014
2037
2053
2057
2047
2025
1998
1974
1959
1953
1953
1956
1959
1961
1963
1964
1965
1965
1966
1966
1967
1968
1969
1970
1970
1971
1971
1971
1971
1971
1971
1972
1973
1973
1974
1974
1974
1974
1974
1974
1974
1974
1974
1975
1976
1977
1977
1977
1977
1977
1977
1978
1979
1980
1982
1983
1983
1984
1984
1985
1986
1987
1988
1989
1990
1990
1990
1990
1989
1989
1988
1987
1985
1984
1981
1978
1975
1972
1970
1968
1968
1967
1967
1967
1966
1966
1966
1966
1966
1966
1967
1968
1968
1969
1970
1970
1971
1971
1971
1970
1970
1970
1971
1972
1972
1973
1973
1973
1972
1971
1971
1971
1972
1973
1974
1975
1975
1974
1973
1972
1972
1972
1973
1974
1974
1974
1973
1973
1972
1972
1973
1973
1974
1974
1974
1974
1974
1974
1974
1974
1973
1973
1973
1974
1975
1976
1976
1975
1973
1972
1972
1973
1974
1974
1975
1975
1975
1974
1974
1973
1973
1973
1974
1974
1974
1975
1975
1974
1974
1973
1973
1973
1974
1974
1975
1975
1975
1975
1975
1974
1973
1973
1973
1974
1974
1975
1974
1974
1974
1973
1973
1974
1976
1977
1978
1979
1979
1978
1978
1977
1975
1974
1974
1974
1975
1976
1976
1975
1974
1973
1972
1973
1974
1974
1975
1975
1974
1971
1967
1963
1962
1968
1981
2002
2026
2045
2052
2046
2025
1999
1975
1959
1954
1955
1958
1961
1962
1963
1963
1963
1963
1964
1965
1966
1967
1968
1968
1969
1969
1969
1969
1970
1970
1970
1971
1971
1971
1971
1971
1971
1971
1972
1972
1973
1974
1974
1974
1974
1975
1975
1975
1976
1977
1977
1978
1979
1980
1980
1980
1981
1982
1983
1985
1987
1988
1989
1989
1989
1989
1989
1989
1990
1990
1990
1989
1988
1986
1983
1981
1977
1974
1972
1970
1968
1967
1967
1966
1965
1964
1964
1964
1964
1965
1966
1967
1967
1967
1967
1967
1968
1968
1969
1969
1969
1970
1970
1971
1972
1971
1971
1970
1970
1971
1972
1973
1973
1973
1973
1972
1972
1972
1973
1973
1973
1974
1974
1974
1974
1973
1973
1972
1972
1972
1972
1973
1973
1973
1973
1973
1972
1972
1972
1972
1973
1973
1974
1974
1973
1973
1972
1972
1973
1973
1974
1974
1974
1974
1974
1973
1973
1973
1973
1973
1974
1974
1975
1975
1975
1974
1973
1973
1973
1973
1974
1975
1975
1975
1974
1973
1972
1971
1971
1971
1972
1973
1974
1974
1975
1977
1978
1978
1979
1979
1978
1978
1977
1976
1975
1974
1973
1973
1973
1973
1974
1974
1975
1975
1974
1973
1973
1973
1972
1971
1969
1965
1964
1966
1974
1991
2013
2036
2052
2056
2045
2021
1994
1970
1956
1951
1952
1956
1959
1960
1962
1962
1963
1964
1965
1965
1965
1966
1966
1967
1969
1970
1970
1970
1970
1970
1970
1971
1971
1972
1972
1972
1973
1973
1973
1973
1973
1973
1974
1975
1976
1976
1977
1977
1977
1977
1977
1977
1978
1979
1981
1982
1984
1985
1985
1985
1986
1987
1988
1989
1990
1991
1992
1992
1991
1990
1989
1987
1985
1983
1981
1979
1977
1975
1972
1969
1967
1966
1965
1965
1966
1967
1967
1967
1967
1966
1966
1966
1967
1967
1969
1970
1970
1971
1970
1970
1969
1969
1970
1971
1972
1972
1972
1972
1972
1971
1970
1970
1970
1971
1972
1974
1974
1974
1974
1973
1972
1972
1972
1973
1974
1974
1974
1974
1974
1973
1973
1973
1973
1973
1973
1974
1974
1974
1974
1973
1972
1972
1972
1973
1974
1975
1975
1975
1974
1973
1973
1973
1973
1973
1973
1974
1974
1974
1974
1973
1973
1973
1973
1973
1974
1974
1974
1975
1975
1974
1974
1973
1972
1972
1973
1974
1975
1975
1975
1974
1973
1973
1974
1974
1975
1975
1975
1974
1973
1972
1971
1971
1972
1973
1975
1977
1978
1978
1978
1977
1976
1976
1975
1974
1974
1974
1973
1973
1973
1973
1973
1973
1972
1973
1973
1974
1975
1975
1975
1973
1970
1966
1963
1963
1968
1981
2001
2025
2045
2055
2052
2036
2011
1985
1965
1954
1951
1953
1956
1958
1958
1958
1959
1961
1963
1964
1966
1966
1967
1967
1968
1968
1968
1968
1969
1970
1971
1972
1972
1971
1971
1971
1972
1972
1973
1973
1974
1974
1974
1974
1973
1974
1975
1976
1977
1978
1978
1978
1978
1978
1978
1979
1980
1982
1984
1986
1987
1987
1988
1988
1988
1988
1989
1990
1990
1990
1990
1989
1988
1985
1983
1980
1977
1975
1973
1972
1970
1969
1967
1966
1965
1964
1964
1965
1966
1967
1967
1968
1968
1968
1968
1969
1969
1969
1970
1970
1970
1970
1970
1970
1970
1971
1972
1973
1974
1974
1975
1974
1974
1973
1972
1973
1973
1974
1975
1975
1975
1974
1974
1973
1973
1973
1973
1974
1975
1975
1975
1975
1974
1973
1973
1972
1973
1973
1974
1975
1975
1975
1974
1973
1973
1973
1973
1974
1974
1975
1975
1974
1974
1974
1973
1973
1974
1974
1975
1975
1975
1975
1974
1974
1973
1973
1973
1974
1975
1976
1976
1976
1975
1974
1974
1973
1974
1975
1975
1976
1976
1975
1974
1973
1973
1973
1973
1973
1974
1974
1974
1973
1972
1971
1971
1972
1973
1975
1976
1977
1977
1977
1975
1974
1973
1972
1972
1972
1973
1973
1974
1974
1973
1973
1972
1972
1972
1973
1974
1974
1973
1969
1965
1962
1964
1973
1990
2013
2035
2049
2050
2038
2013
1987
1966
1955
1953
1956
1960
1962
1964
1964
1964
1964
1964
1964
1965
1967
1968
1969
1970
1970
1970
1969
1969
1969
1970
1971
1972
1973
1974
1974
1973
1973
1972
1972
1973
1974
1975
1976
1977
1977
1976
1975
1975
1975
1976
1977
1979
1980
1981
1982
1983
1983
1984
1985
1986
1988
1990
1991
1992
1993
1992
1992
1992
1991
1990
1990
1989
1988
1987
1984
1981
1978
1975
1972
1970
1969
1968
1967
1966
1965
1965
1965
1965
1965
1965
1966
1967
1968
1968
1969
1968
1968
1968
1969
1969
1970
1971
1971
1971
1971
1971
1971
1971
1971
1972
1972
1973
1973
1973
1973
1973
1972
1972
1972
1972
1973
1973
1974
1974
1974
1973
1972
1972
1972
1972
1972
1973
1973
1974
1974
1973
1972
1972
1972
1972
1973
1974
1974
1975
1975
1975
1974
1974
1973
1973
1973
1974
1975
1976
1975
1974
1973
1973
1973
1973
1974
1974
1975
1975
1975
1975
1974
1973
1973
1973
1973
1974
1975
1976
1976
1976
1976
1975
1974
1974
1974
1975
1975
1975
1975
1974
1973
1972
1972
1972
1974
1975
1977
1979
1979
1979
1979
1978
1977
1977
1976
1976
1976
1976
1976
1976
1975
1974
1974
1974
1975
1975
1976
1976
1976
1976
1974
1970
1965
1962
1964
1972
1988
2011
2034
2052
2059
2050
2029
2002
1977
1961
1954
1955
1958
1960
1961
1961
1962
1963
1965
1966
1967
1968
1968
1969
1969
1970
1970
1970
1970
1970
1971
1972
1973
1973
1973
1973
1972
1972
1973
1974
1974
1975
1975
1975
1975
1975
1975
1975
1976
1977
1978
1978
1979
1980
1980
1980
1981
1982
1983
1984
1986
1987
1987
1988
1988
1988
1989
1989
1990
1991
1992
1992
1990
1988
1985
1982
1979
1977
1975
1973
1972
1970
1968
1966
1965
1965
1965
1966
1966
1967
1967
1967
1967
1968
1968
1968
1969
1969
1969
1970
1971
1971
1972
1971
1971
1971
1971
1972
1972
1973
1974
1975
1975
1974
1974
1973
1973
1973
1974
1975
1975
1975
1975
1974
1974
1973
1974
1974
1975
1975
1976
1976
1976
1975
1975
1974
1974
1974
1974
1975
1975
1975
1975
1975
1974
1974
1974
1974
1974
1974
1975
1975
1975
1975
1975
1974
1974
1974
1975
1975
1976
1976
1976
1976
1975
1975
1975
1975
1975
1975
1975
1975
1975
1975
1975
1975
1975
1975
1975
1976
1976
1976
1976
1975
1974
1973
1973
1974
1975
1975
1975
1975
1974
1973
1972
1972
1973
1974
1976
1978
1979
1980
1979
1979
1978
1977
1976
1976
1975
1975
1975
1975
1975
1975
1974
1974
1973
1974
1974
1975
1976
1977
1976
1974
1970
1965
1963
1966
1976
1994
2017
2040
2054
2056
2044
2020
1993
1971
1959
1954
1956
1959
1962
1963
1963
1963
1963
1964
1965
1966
1967
1969
1970
1970
1970
1970
1970
1970
1972
1973
1973
1974
1973
1973
1973
1972
1973
1973
1974
1975
1976
1976
1976
1976
1975
1975
1976
1976
1977
1978
1979
1980
1981
1982
1982
1983
1983
1984
1985
1987
1988
1990
1991
1991
1991
1990
1990
1990
1991
1991
1991
1990
1988
1986
1983
1980
1978
1975
1973
1971
1969
1969
1968
1967
1967
1966
1966
1966
1967
1968
1969
1970
1970
1970
1970
1970
1970
1970
1971
1971
1971
1972
1972
1972
1972
1972
1973
1973
1973
1973
1973
1974
1974
1973
1973
1973
1974
1974
1974
1975
1975
1975
1975
1974
1974
1974
1973
1973
1974
1974
1975
1975
1974
1973
1973
1972
1973
1973
1974
1974
1975
1974
1974
1974
1973
1973
1973
1974
1975
1976
1976
1976
1975
1975
1974
1973
1973
1974
1974
1975
1975
1975
1975
1974
1974
1974
1974
1974
1974
1975
1975
1975
1975
1974
1974
1973
1973
1973
1973
1974
1974
1975
1975
1976
1976
1977
1977
1978
1978
1978
1978
1977
1976
1975
1974
1973
1973
1974
1974
1975
1975
1975
1975
1975
1975
1975
1975
1975
1973
1970
1967
1965
1969
1980
1999
2022
2043
2053
2049
2031
2005
1980
1963
1955
1955
1959
1962
1963
1964
1965
1965
1966
1967
1967
1968
1968
1968
1969
1970
1971
1972
1972
1973
1973
1973
1973
1972
1972
1973
1973
1974
1974
1975
1975
1975
1975
1975
1975
1976
1977
1978
1979
1979
1979
1979
1979
1980
1980
1982
1983
1985
1986
1987
1987
1988
1989
1990
1991
1993
1993
1994
1994
1994
1993
1992
1991
1989
1987
1984
1982
1980
1978
1976
1973
1971
1969
1968
1967
1967
1967
1967
1968
1968
1968
1968
1967
1967
1968
1969
1971
1972
1972
1972
1971
1971
1971
1971
1972
1973
1974
1974
1974
1974
1974
1974
1973
1974
1974
1974
1975
1975
1975
1975
1975
1975
1974
1974
1974
1975
1975
1976
1976
1976
1975
1975
1974
1974
1974
1975
1975
1976
1976
1976
1975
1975
1974
1974
1974
1975
1975
1976
1976
1975
1975
1975
1975
1975
1976
1977
1977
1978
1978
1978
1977
1976
1976
1976
1976
1977
1978
1978
1979
1979
1978
1978
1977
1976
1976
1977
1978
1979
1979
1979
1978
1977
1976
1975
1975
1975
1976
1976
1978
1979
1980
1980
1981
1981
1981
1981
1981
1980
1979
1977
1976
1976
1976
1976
1976
1976
1977
1977
1977
1977
1977
1977
1978
1978
1976
1974
1970
1967
1967
1974
1988
2009
2032
2051
2060
2054
2035
2008
1982
1964
1955
1954
1957
1960
1962
1964
1964
1965
1967
1968
1969
1969
1969
1969
1970
1971
1972
1973
1974
1974
1974
1973
1973
1973
1974
1974
1975
1976
1976
1976
1976
1975
1975
1976
1976
1977
1978
1979
1979
1980
1980
1980
1980
1980
1981
1982
1983
1984
1986
1986
1987
1988
1988
1989
1990
1991
1991
1992
1992
1992
1991
1990
1989
1987
1986
1984
1981
1979
1977
1975
1972
1970
1969
1967
1967
1967
1967
1968
1968
1969
1969
1969
1969
1970
1970
1971
1971
1972
1972
1973
1973
1973
1973
1973
1973
1973
1974
1974
1974
1974
1974
1974
1973
1973
1974
1974
1974
1975
1975
1975
1975
1975
1975
1975
1975
1975
1975
1976
1976
1976
1976
1976
1975
1975
1975
1975
1976
1976
1977
1977
1976
1976
1975
1975
1975
1975
1975
1975
1976
1976
1976
1975
1975
1974
1974
1974
1975
1976
1976
1976
1976
1976
1975
1975
1975
1975
1975
1976
1976
1976
1976
1975
1975
1975
1975
1976
1976
1976
1975
1975
1974
1974
1973
1973
1973
1973
1974
1976
1978
1980
1980
1980
1979
1978
1978
1977
1977
1977
1976
1976
1975
1975
1975
1975
1976
1976
1976
1976
1976
1976
1976
1976
1974
1970
1966
1965
1968
1978
1996
2019
2040
2053
2052
2037
2013
1987
1968
1958
1957
1959
1961
1962
1962
1963
1964
1965
1967
1968
1969
1969
1969
1970
1970
1971
1971
1971
1972
1973
1973
1974
1974
1974
1974
1974
1974
1975
1975
1976
1976
1976
1976
1975
1975
1976
1976
1977
1978
1979
1979
1979
1979
1979
1980
1980
1981
1982
1984
1986
1987
1989
1989
1990
1990
1991
1991
1992
1992
1992
1992
1991
1989
1987
1984
1981
1978
1977
1975
1973
1971
1969
1967
1966
1965
1965
1965
1965
1966
1967
1968
1969
1969
1969
1969
1969
1969
1970
1971
1972
1973
1973
1973
1972
1972
1972
1972
1973
1974
1975
1975
1975
1975
1975
1974
1974
1974
1975
1975
1976
1976
1975
1975
1975
1975
1975
1975
1975
1975
1975
1975
1975
1975
1975
1975
1974
1974
1974
1975
1975
1976
1976
1975
1975
1975
1975
1974
1975
1975
1975
1976
1976
1976
1976
1975
1975
1975
1975
1976
1976
1976
1976
1975
1975
1974
1974
1974
1975
1976
1976
1976
1975
1975
1975
1976
1978
1980
1981
1981
1981
1980
1979
1979
1978
1977
1977
1977
1977
1978
1978
1978
1978
1977
1977
1977
1977
1978
1978
1977
1975
1971
1968
1968
1973
1986
2007
2031
2050
2059
2052
2031
2003
1978
1962
1956
1957
1961
1963
1965
1966
1967
1967
1968
1968
1968
1969
1970
1970
1971
1972
1973
1974
1973
1973
1973
1973
1973
1974
1975
1975
1976
1976
1976
1976
1975
1975
1976
1977
1978
1979
1980
1980
1980
1979
1979
1979
1980
1981
1983
1984
1986
1987
1988
1988
1989
1990
1991
1992
1994
1995
1995
1995
1995
1994
1993
1992
1991
1989
1987
1985
1982
1980
1977
1974
1971
1969
1967
1967
1968
1968
1969
1969
1968
1968
1967
1967
1968
1969
1970
1971
1972
1972
1972
1971
1971
1971
1971
1972
1974
1975
1975
1975
1975
1975
1974
1974
1974
1975
1975
1976
1977
1977
1977
1976
1976
1975
1975
1975
1975
1976
1976
1976
1976
1975
1974
1973
1973
1974
1975
1976
1977
1976
1976
1975
1974
1974
1975
1975
1976
1976
1976
1976
1976
1976
1975
1975
1975
1976
1977
1977
1977
1976
1975
1975
1975
1975
1975
1975
1976
1976
1977
1977
1977
1977
1976
1976
1975
1975
1975
1975
1975
1975
1975
1975
1976
1977
1979
1980
1981
1982
1982
1981
1980
1978
1977
1975
1975
1975
1975
1976
1976
1977
1976
1976
1976
1976
1976
1976
1977
1978
1977
1973
1969
1965
1965
1972
1987
2010
2035
2053
2061
2054
2034
2006
1980
1962
1954
1954
1957
1961
1963
1964
1964
1964
1965
1965
1966
1968
1969
1971
1972
1972
1971
1971
1971
1971
1972
1973
1974
1974
1975
1975
1975
1975
1974
1974
1974
1975
1976
1977
1977
1978
1978
1977
1977
1978
1978
1979
1980
1981
1981
1982
1983
1984
1985
1986
1987
1988
1990
1991
1992
1993
1993
1992
1992
1991
1991
1991
1990
1989
1987
1984
1981
1978
1975
1972
1971
1970
1970
1969
1969
1968
1967
1967
1967
1967
1968
1968
1969
1969
1970
1970
1971
1971
1970
1970
1971
1971
1972
1973
1973
1974
1974
1973
1972
1972
1973
1973
1974
1975
1974
1974
1974
1974
1974
1974
1973
1974
1974
1975
1975
1975
1975
1974
1974
1974
1974
1975
1975
1976
1976
1976
1975
1975
1974
1973
1973
1974
1974
1975
1975
1975
1975
1975
1975
1975
1975
1975
1975
1975
1976
1976
1976
1976
1976
1976
1976
1976
1976
1977
1977
1977
1977
1976
1975
1974
1974
1974
1975
1976
1976
1976
1975
1974
1973
1974
1975
1977
1979
1980
1981
1981
1980
1979
1978
1977
1977
1976
1975
1975
1975
1976
1976
1976
1975
1975
1974
1974
1974
1975
1976
1977
1976
1974
1970
1966
1965
1968
1979
1997
2019
2041
2053
2053
2040
2017
1991
1971
1959
1956
1957
1960
1962
1963
1964
1964
1965
1966
1967
1968
1969
1970
1970
1970
1970
1970
1971
1972
1972
1973
1974
1974
1975
1975
1975
1974
1974
1974
1975
1976
1977
1977
1977
1977
1976
1977
1977
1978
1979
1980
1980
1981
1982
1982
1982
1983
1984
1985
1987
1989
1990
1991
1991
1991
1991
1991
1992
1993
1993
1993
1992
1991
1988
1985
1982
1979
1977
1975
1973
1971
1970
1968
1967
1966
1966
1966
1966
1967
1968
1969
1969
1970
1970
1969
1969
1969
1969
1970
1971
1972
1972
1972
1971
1971
1971
1971
1972
1973
1973
1973
1974
1974
1973
1973
1973
1973
1973
1974
1974
1975
1975
1974
1974
1973
1973
1973
1974
1974
1975
1976
1976
1976
1975
1975
1975
1975
1975
1975
1975
1976
1976
1976
1976
1975
1975
1975
1975
1976
1977
1978
1979
1978
1977
1976
1975
1974
1975
1976
1977
1977
1977
1977
1976
1975
1975
1975
1975
1975
1976
1977
1978
1980
1980
1980
1980
1979
1979
1979
1979
1979
1978
1977
1976
1976
1975
1975
1975
1976
1977
1977
1977
1977
1977
1977
1976
1974
1971
1967
1966
1969
1979
1997
2020
2042
2054
2052
2036
2011
1985
1966
1958
1957
1960
1963
1964
1964
1964
1965
1966
1967
1968
1969
1969
1970
1970
1970
1971
1971
1972
1973
1974
1974
1974
1973
1973
1973
1974
1974
1975
1976
1977
1977
1977
1977
1977
1977
1977
1978
1979
1980
1981
1981
1981
1981
1981
1982
1983
1984
1986
1988
1989
1990
1990
1991
1991
1991
1992
1992
1993
1993
1993
1992
1991
1989
1987
1984
1981
1979
1976
1974
1972
1970
1968
1967
1966
1966
1966
1966
1967
1968
1968
1969
1969
1969
1969
1969
1969
1970
1971
1971
1971
1971
1971
1971
1972
1972
1973
1973
1973
1974
1974
1974
1975
1975
1974
1974
1974
1974
1975
1976
1977
1977
1976
1976
1975
1975
1975
1976
1976
1976
1976
1976
1976
1976
1976
1975
1975
1975
1976
1976
1977
1977
1976
1976
1975
1975
1975
1976
1977
1978
1978
1978
1977
1976
1976
1976
1977
1978
1978
1978
1978
1977
1977
1976
1976
1976
1977
1977
1978
1979
1979
1978
1977
1976
1975
1975
1975
1976
1978
1980
1982
1982
1982
1982
1980
1979
1979
1978
1978
1978
1978
1977
1977
1977
1976
1976
1976
1977
1977
1978
1978
1978
1978
1978
1976
1973
1969
1966
1967
1973
1988
2009
2032
2051
2060
2054
2036
2010
1985
1968
1959
1958
1960
1962
1963
1964
1965
1966
1968
1970
1971
1971
1971
1971
1971
1972
1973
1974
1975
1976
1976
1976
1976
1976
1976
1976
1976
1977
1977
1978
1978
1979
1979
1978
1978
1978
1978
1978
1980
1981
1982
1982
1982
1982
1982
1983
1984
1985
1987
1989
1990
1991
1991
1991
1991
1992
1993
1994
1994
1995
1994
1993
1991
1989
1986
1984
1981
1980
1978
1977
1975
1973
1971
1970
1968
1968
1968
1969
1969
1970
1970
1970
1971
1971
1971
1972
1972
1973
1974
1974
1974
1974
1974
1974
1974
1974
1975
1975
1976
1976
1975
1975
1974
1974
1974
1975
1975
1976
1976
1976
1976
1976
1975
1975
1975
1975
1975
1975
1975
1976
1976
1976
1976
1976
1975
1975
1975
1975
1975
1976
1976
1976
1976
1976
1975
1975
1975
1975
1976
1976
1976
1976
1975
1974
1974
1974
1974
1974
1975
1975
1975
1975
1975
1974
1974
1974
1974
1975
1976
1976
1976
1976
1975
1975
1974
1974
1974
1974
1975
1976
1975
1975
1975
1975
1976
1977
1979
1980
1981
1980
1980
1979
1978
1976
1975
1974
1974
1975
1976
1976
1976
1975
1974
1974
1974
1975
1975
1976
1976
1976
1974
1971
1968
1966
1970
1981
2001
2024
2045
2055
2051
2033
2006
1980
1963
1956
1957
1961
1964
1966
1967
1967
1967
1967
1967
1967
1968
1969
1971
1972
1972
1972
1972
1973
1973
1974
1974
1975
1975
1976
1976
1976
1976
1976
1975
1976
1976
1977
1978
1978
1979
1979
1979
1978
1978
1978
1979
1981
1983
1984
1984
1984
1985
1986
1987
1988
1990
1991
1992
1993
1993
1994
1994
1994
1993
1993
1992
1992
1990
1988
1986
1983
1980
1977
1975
1973
1971
1969
1969
1969
1968
1968
1968
1967
1967
1967
1967
1968
1969
1970
1971
1971
1971
1971
1970
1970
1971
1971
1972
1973
1973
1974
1974
1974
1973
1973
1973
1974
1974
1975
1976
1976
1976
1976
1975
1974
1974
1974
1975
1976
1976
1976
1975
1975
1974
1974
1974
1974
1975
1975
1976
1976
1976
1975
1975
1974
1974
1974
1975
1975
1976
1976
1976
1976
1975
1974
1974
1974
1975
1976
1977
1977
1977
1976
1975
1975
1975
1976
1976
1977
1977
1977
1977
1976
1976
1976
1976
1976
1976
1976
1976
1975
1975
1975
1975
1975
1976
1977
1978
1980
1981
1981
1981
1980
1979
1978
1978
1977
1977
1977
1977
1977
1976
1976
1976
1976
1976
1976
1977
1977
1978
1978
1976
1974
1970
1966
1965
1968
1978
1996
2019
2042
2057
2058
2045
2021
1993
1971
1958
1955
1956
1960
1962
1963
1963
1963
1964
1965
1966
1967
1968
1969
1969
1970
1970
1971
1972
1972
1973
1973
1974
1975
1975
1975
1974
1974
1975
1976
1977
1978
1980
1982
1984
1985
1987
1988
1989
1990
1992
1994
1996
1998
1999
1999
2000
2001
2003
2005
2007
2008
2009
2010
2010
2010
2010
2010
2011
2011
2012
2012
2011
2008
2005
2002
1999
1997
1994
1992
1990
1988
1986
1985
1983
1982
1981
1981
1982
1983
1984
1984
1985
1985
1984
1984
1984
1984
1985
1985
1986
1987
1987
1987
1987
1986
1986
1986
1986
1987
1988
1989
1989
1989
1989
1989
1988
1988
1988
1989
1990
1990
1991
1991
1990
1990
1990
1990
1990
1991
1991
1991
1991
1991
1991
1990
1990
1989
1989
1989
1990
1990
1990
1990
1989
1989
1989
1989
1988
1988
1988
1987
1987
1987
1987
1987
1987
1986
1986
1986
1986
1986
1986
1986
1986
1986
1985
1985
1984
1984
1984
1984
1985
1985
1985
1986
1985
1985
1985
1985
1985
1986
1986
1986
1986
1985
1985
1985
1986
1986
1986
1986
1986
1986
1986
1987
1988
1989
1990
1991
1992
1992
1992
1991
1990
1989
1987
1986
1986
1986
1986
1987
1987
1987
1987
1986
1986
1986
1986
1988
1989
1988
1986
1982
1978
1977
1981
1992
2011
2034
2053
2065
2062
2046
2020
1995
1976
1967
1966
1968
1971
1973
1974
1975
1975
1975
1975
1975
1976
1977
1978
1980
1981
1981
1981
1980
1980
1981
1982
1983
1984
1985
1985
1985
1985
1985
1984
1984
1984
1985
1987
1987
1987
1987
1987
1987
1987
1987
1988
1989
1990
1991
1992
1993
1993
1994
1995
1996
1997
1998
1999
2000
2001
2001
2001
2001
2001
2000
2000
2000
1999
1997
1995
1992
1988
1985
1982
1980
1978
1977
1976
1976
1976
1975
1975
1975
1975
1976
1977
1978
1979
1980
1980
1980
1979
1979
1980
1980
1981
1982
1983
1983
1984
1984
1984
1983
1983
1984
1985
1987
1988
1989
1989
1989
1988
1987
1986
1985
1985
1986
1986
1987
1988
1988
1988
1988
1987
1986
1986
1987
1988
1989
1989
1989
1989
1988
1988
1988
1988
1989
1989
1989
1990
1990
1990
1990
1990
1990
1990
1990
1991
1992
1993
1993
1993
1992
1991
1991
1991
1992
1993
1994
1994
1994
1994
1993
1992
1991
1991
1991
1991
1992
1992
1992
1992
1992
1992
1992
1993
1995
1996
1997
1998
1997
1996
1994
1993
1991
1991
1991
1991
1992
1992
1993
1992
1992
1991
1990
1990
1990
1991
1993
1993
1992
1988
1983
1980
1982
1992
2010
2034
2057
2073
2074
2058
2032
2004
1982
1971
1970
1973
1977
1979
1980
1980
1980
1980
1980
1981
1982
1983
1984
1985
1986
1987
1987
1987
1988
1988
1988
1988
1989
1989
1990
1990
1989
1989
1989
1989
1990
1991
1991
1992
1992
1992
1993
1993
1994
1995
1995
1996
1997
1998
1999
2000
2000
2001
2002
2003
2005
2006
2008
2008
2008
2008
2007
2007
2007
2007
2007
2007
2006
2004
2000
1996
1992
1989
1986
1984
1982
1981
1980
1979
1978
1977
1977
1977
1977
1977
1978
1979
1979
1980
1980
1980
1980
1980
1981
1981
1982
1982
1982
1983
1982
1982
1982
1982
1982
1982
1983
1983
1984
1984
1984
1983
1983
1983
1983
1983
1984
1984
1984
1984
1984
1983
1983
1982
1981
1981
1982
1982
1983
1983
1983
1982
1981
1981
1980
1980
1980
1981
1981
1981
1981
1981
1980
1980
1980
1980
1980
1981
1982
1982
1982
1981
1980
1979
1980
1980
1981
1981
1981
1981
1980
1980
1979
1978
1978
1979
1980
1982
1984
1985
1986
1986
1984
1983
1981
1980
1980
1980
1980
1981
1980
1980
1979
1978
1978
1978
1978
1980
1981
1982
1981
1979
1975
1970
1967
1968
1975
1989
2011
2037
2058
2069
2063
2044
2015
1987
1968
1960
1959
1963
1966
1967
1968
1968
1969
1969
1971
1972
1973
1974
1975
1975
1974
1974
1974
1975
1976
1977
1978
1978
1978
1977
1977
1976
1976
1976
1976
1977
1977
1978
1978
1978
1978
1978
1977
1978
1979
1980
1981
1982
1982
1982
1983
1983
1984
1985
1987
1989
1990
1992
1992
1993
1992
1993
1993
1994
1994
1994
1992
1991
1988
1986
1983
1980
1977
1974
1973
1971
1970
1969
1968
1967
1966
1966
1966
1966
1966
1967
1968
1968
1969
1969
1969
1968
1968
1969
1970
1971
1971
1971
1971
1971
1970
1970
1970
1970
1971
1972
1972
1973
1973
1973
1972
1971
1970
1970
1971
1971
1972
1972
1972
1972
1971
1971
1971
1971
1971
1972
1973
1973
1973
1972
1971
1971
1971
1971
1972
1972
1973
1973
1973
1972
1972
1971
1971
1971
1971
1972
1972
1973
1973
1972
1972
1972
1972
1971
1972
1972
1973
1973
1973
1973
1973
1972
1972
1972
1973
1973
1973
1972
1972
1971
1970
1969
1969
1969
1970
1971
1973
1974
1974
1973
1972
1971
1970
1969
1969
1968
1967
1967
1967
1966
1966
1965
1965
1965
1965
1966
1966
1966
1966
1966
1964
1961
1957
1954
1954
1960
1973
1994
2018
2039
2048
2045
2026
1999
1973
1954
1944
1943
1945
1948
1949
1950
1950
1951
1953
1955
1956
1957
1958
1958
1958
1958
1959
1959
1960
1961
1962
1963
1963
1963
1963
1963
1963
1964
1964
1965
1965
1965
1966
1966
1966
1967
1967
1967
1967
1968
1969
1970
1971
1971
1972
1972
1973
1975
1976
1978
1979
1980
1981
1981
1982
1982
1983
1983
1984
1985
1985
1985
1983
1981
1978
1975
1972
1970
1968
1966
1965
1963
1962
1961
1959
1959
1959
1959
1960
1961
1962
1963
1963
1963
1963
1963
1963
1964
1965
1966
1966
1967
1967
1967
1966
1966
1966
1967
1967
1967
1967
1967
1967
1967
1968
1968
1968
1968
1969
1969
1970
1970
1970
1970
1969
1969
1969
1969
1970
1970
1971
1972
1972
1971
1970
1969
1969
1969
1970
1971
1972
1972
1972
1971
1971
1971
1971
1971
1971
1972
1972
1972
1972
1972
1971
1971
1971
1971
1972
1972
1973
1972
1971
1970
1970
1970
1970
1971
1973
1975
1977
1977
1977
1976
1975
1973
1972
1972
1972
1973
1973
1973
1973
1973
1972
1971
1971
1971
1972
1973
1974
1975
1974
1971
1967
1962
1960
1963
1972
1990
2014
2038
2054
2057
2045
2021
1993
1969
1955
1951
1952
1955
1958
1959
1960
1960
1961
1962
1963
1964
1965
1966
1967
1967
1967
1967
1968
1968
1969
1970
1970
1971
1971
1971
1970
1970
1969
1970
1970
1971
1972
1973
1973
1974
1973
1973
1972
1972
1973
1974
1976
1977
1978
1978
1979
1979
1980
1980
1982
1983
1985
1986
1987
1988
1987
1987
1986
1984
1983
1981
1979
1976
1972
1969
1965
1962
1959
1956
1955
1953
1952
1951
1951
1950
1949
1949
1948
1948
1949
1950
1951
1952
1952
1952
1952
1952
1952
1953
1954
1954
1955
1955
1955
1955
1955
1955
1955
1954
1954
1955
1955
1955
1954
1953
1952
1952
1952
1952
1953
1954
1954
1954
1954
1953
1953
1953
1953
1954
1954
1955
1955
1955
1955
1955
1955
1955
1955
1955
1955
1956
1957
1958
1958
1957
1956
1955
1955
1956
1957
1958
1958
1959
1959
1958
1958
1958
1958
1959
1959
1960
1959
1959
1959
1959
1959
1960
1960
1960
1960
1960
1960
1960
1960
1961
1962
1963
1965
1965
1966
1966
1966
1966
1966
1965
1964
1963
1962
1961
1962
1963
1964
1965
1966
1965
1965
1964
1964
1965
1966
1967
1966
1964
1960
1957
1958
1966
1983
2005
2028
2045
2049
2040
2020
1995
1974
1960
1955
1956
1960
1965
1968
1971
1972
1973
1973
1974
1974
1975
1977
1979
1981
1983
1984
1984
1983
1982
1981
1982
1983
1985
1986
1986
1986
1985
1985
1984
1984
1984
1985
1985
1985
1986
1986
1985
1985
1984
1984
1984
1985
1987
1988
1989
1989
1990
1990
1990
1991
1992
1992
1993
1994
1995
1996
1996
1996
1995
1993
1992
1992
1991
1989
1987
1984
1981
1978
1975
1974
1973
1973
1973
1973
1972
1972
1972
1972
1972
1973
1974
1975
1975
1976
1976
1976
1977
1978
1979
1979
1979
1980
1980
1981
1982
1982
1981
1981
1980
1980
1981
1982
1983
1984
1985
1984
1984
1983
1983
1984
1985
1986
1986
1985
1985
1985
1984
1985
1985
1985
1986
1987
1987
1987
1986
1985
1985
1985
1985
1986
1985
1985
1985
1985
1985
1986
1986
1986
1985
1984
1984
1984
1985
1986
1987
1987
1986
1985
1983
1983
1983
1984
1985
1986
1986
1986
1985
1984
1984
1984
1984
1985
1985
1985
1984
1984
1984
1985
1986
1988
1988
1989
1989
1988
1988
1987
1985
1984
1983
1983
1983
1984
1984
1984
1984
1984
1983
1983
1982
1982
1983
1983
1983
1982
1979
1975
1972
1973
1980
1994
2016
2038
2053
2056
2045
2022
1996
1975
1964
1962
1964
1967
1969
1970
1971
1972
1972
1973
1972
1972
1973
1974
1975
1976
1977
1977
1977
1977
1977
1977
1977
1978
1979
1979
1980
1980
1979
1979
1978
1978
1978
1979
1980
1981
1982
1982
1982
1981
1981
1982
1982
1983
1984
1985
1986
1987
1988
1989
1989
1990
1990
1991
1993
1994
1995
1995
1994
1994
1993
1993
1993
1992
1990
1988
1985
1983
1980
1977
1974
1972
1971
1970
1970
1969
1969
1969
1968
1968
1969
1969
1969
1970
1970
1971
1972
1973
1972
1972
1972
1972
1972
1973
1974
1974
1974
1974
1974
1974
1974
1974
1975
1975
1975
1976
1976
1976
1976
1976
1975
1975
1975
1975
1975
1976
1976
1975
1975
1975
1974
1974
1974
1974
1975
1976
1976
1976
1975
1975
1974
1974
1974
1975
1975
1976
1976
1976
1975
1974
1974
1973
1974
1974
1975
1975
1976
1976
1976
1975
1974
1974
1974
1975
1975
1976
1976
1976
1976
1975
1975
1975
1974
1974
1975
1975
1975
1975
1975
1974
1974
1974
1974
1975
1975
1975
1975
1975
1975
1974
1974
1973
1973
1973
1974
1976
1978
1979
1979
1979
1978
1978
1978
1978
1977
1977
1976
1975
1974
1974
1974
1974
1974
1975
1976
1976
1976
1976
1976
1976
1976
1974
1971
1968
1965
1966
1973
1986
2006
2028
2047
2054
2049
2032
2007
1983
1966
1957
1956
1957
1960
1962
1963
1964
1965
1965
1966
1966
1967
1968
1968
1969
1970
1971
1972
1973
1973
1973
1973
1973
1973
1973
1973
1974
1975
1976
1976
1977
1976
1976
1975
1975
1976
1977
1978
1979
1979
1979
1980
1980
1980
1981
1982
1982
1983
1984
1986
1987
1988
1989
1989
1990
1990
1991
1992
1992
1992
1992
1991
1990
1988
1986
1984
1982
1981
1979
1977
1975
1973
1971
1970
1969
1968
1968
1969
1970
1971
1971
1971
1971
1971
1971
1972
1973
1974
1975
1976
1976
1975
1975
1974
1974
1974
1975
1976
1976
1976
1976
1976
1975
1975
1975
1975
1976
1976
1977
1977
1977
1976
1976
1975
1975
1975
1976
1976
1977
1977
1977
1977
1976
1976
1975
1975
1976
1977
1978
1978
1978
1977
1976
1976
1976
1976
1977
1978
1978
1978
1978
1977
1977
1976
1976
1977
1977
1978
1978
1978
1978
1978
1977
1977
1976
1976
1977
1978
1979
1980
1980
1979
1978
1977
1977
1978
1978
1978
1978
1979
1980
1980
1979
1979
1978
1978
1979
1980
1980
1980
1980
1980
1980
1979
1979
1978
1978
1979
1979
1979
1979
1979
1979
1980
1981
1982
1982
1983
1983
1982
1982
1980
1979
1978
1978
1979
1979
1980
1980
1981
1981
1980
1980
1980
1980
1980
1981
1980
1978
1975
1971
1971
1976
1988
2007
2029
2048
2055
2049
2032
2007
1984
1969
1962
1962
1964
1967
1969
1971
1972
1972
1972
1972
1972
1972
1973
1974
1975
1976
1977
1977
1977
1977
1977
1977
1978
1978
1978
1978
1978
1979
1979
1979
1979
1979
1979
1979
1980
1981
1982
1982
1982
1982
1982
1982
1983
1984
1985
1987
1987
1988
1988
1988
1988
1989
1990
1991
1993
1994
1994
1994
1994
1994
1993
1993
1992
1990
1989
1987
1985
1983
1980
1977
1974
1971
1970
1969
1968
1967
1966
1965
1964
1964
1963
1963
1963
1963
1964
1964
1964
1964
1964
1963
1963
1962
1963
1963
1963
1963
1963
1963
1962
1961
1960
1960
1960
1960
1961
1961
1961
1961
1960
1960
1959
1958
1958
1959
1959
1960
1960
1959
1958
1957
1956
1956
1957
1957
1958
1958
1958
1958
1957
1957
1956
1956
1956
1956
1957
1957
1958
1958
1957
1957
1956
1955
1956
1956
1957
1958
1959
1959
1959
1958
1958
1957
1957
1957
1958
1959
1960
1960
1960
1959
1958
1958
1958
1959
1960
1961
1961
1961
1960
1960
1960
1960
1960
1960
1961
1962
1962
1963
1963
1962
1961
1961
1962
1963
1965
1967
1969
1970
1971
1970
1970
1969
1969
1968
1969
1969
1970
1970
1970
1969
1968
1968
1968
1969
1969
1970
1971
1972
1971
1968
1964
1960
1957
1960
1971
1990
2013
2035
2048
2047
2031
2007
1981
1961
1951
1948
1949
1952
1954
1954
1955
1955
1957
1958
1960
1961
1962
1962
1962
1963
1963
1964
1964
1964
1964
1965
1966
1966
1967
1967
1967
1966
1967
1968
1970
1973
1975
1976
1976
1976
1975
1976
1976
1977
1978
1979
1979
1979
1979
1978
1978
1979
1980
1981
1983
1984
1985
1986
1986
1986
1986
1986
1987
1987
1988
1988
1988
1986
1984
1982
1979
1976
1974
1972
1971
1970
1968
1967
1966
1965
1964
1964
1964
1965
1966
1966
1967
1967
1966
1966
1966
1966
1967
1968
1969
1970
1971
1971
1971
1970
1970
1970
1970
1971
1972
1972
1972
1972
1972
1971
1971
1971
1972
1972
1972
1972
1972
1972
1972
1971
1971
1971
1971
1971
1972
1972
1973
1973
1972
1972
1971
1971
1971
1971
1972
1972
1973
1973
1972
1972
1971
1971
1971
1972
1973
1973
1973
1973
1973
1972
1972
1971
1971
1972
1972
1973
1974
1974
1974
1974
1974
1975
1975
1975
1976
1977
1977
1976
1976
1975
1975
1975
1975
1975
1975
1976
1976
1976
1976
1976
1975
1975
1975
1975
1976
1976
1975
1975
1975
1974
1974
1974
1975
1976
1977
1979
1979
1980
1979
1978
1977
1976
1975
1975
1975
1975
1976
1976
1975
1975
1974
1974
1974
1974
1975
1976
1977
1977
1975
1971
1967
1964
1964
1971
1986
2006
2028
2045
2050
2043
2023
1999
1977
1962
1956
1956
1959
1961
1962
1963
1962
1963
1964
1965
1967
1968
1969
1969
1969
1969
1969
1969
1970
1970
1971
1972
1972
1973
1973
1972
1972
1972
1973
1973
1974
1975
1975
1975
1975
1975
1975
1975
1976
1976
1977
1977
1977
1978
1978
1978
1979
1980
1981
1983
1984
1986
1987
1988
1988
1988
1988
1989
1989
1989
1990
1990
1989
1988
1985
1983
1980
1977
1974
1972
1971
1969
1968
1968
1967
1967
1966
1966
1966
1966
1966
1966
1967
1967
1968
1968
1967
1967
1967
1967
1969
1970
1970
1971
1970
1969
1969
1969
1970
1971
1972
1972
1972
1973
1973
1974
1975
1975
1975
1975
1976
1976
1977
1977
1977
1976
1976
1975
1976
1976
1977
1977
1977
1977
1977
1976
1976
1975
1976
1977
1978
1978
1979
1978
1978
1977
1977
1977
1977
1978
1978
1978
1978
1978
1978
1978
1977
1977
1977
1978
1978
1979
1979
1979
1979
1978
1978
1977
1978
1978
1979
1979
1979
1979
1978
1978
1977
1977
1978
1978
1978
1978
1977
1977
1977
1978
1979
1980
1981
1981
1982
1981
1981
1980
1979
1977
1976
1975
1976
1976
1977
1977
1977
1977
1977
1977
1976
1976
1977
1977
1976
1973
1970
1967
1969
1977
1993
2015
2037
2051
2052
2039
2014
1988
1969
1959
1957
1959
1962
1964
1965
1966
1967
1969
1969
1969
1968
1968
1969
1971
1972
1974
1974
1974
1973
1973
1973
1973
1974
1974
1975
1976
1976
1976
1976
1976
1976
1976
1977
1977
1978
1978
1979
1979
1979
1979
1979
1979
1980
1981
1982
1983
1984
1985
1986
1987
1988
1989
1990
1990
1991
1992
1993
1993
1993
1992
1992
1991
1990
1988
1987
1984
1982
1979
1977
1973
1971
1968
1967
1967
1967
1967
1967
1967
1968
1968
1968
1968
1968
1969
1969
1970
1970
1971
1971
1971
1971
1971
1971
1972
1972
1973
1974
1974
1974
1973
1973
1973
1973
1973
1974
1975
1975
1975
1975
1974
1974
1974
1974
1974
1975
1976
1976
1976
1975
1975
1974
1974
1974
1974
1975
1975
1976
1976
1976
1975
1974
1973
1973
1974
1975
1975
1975
1975
1974
1974
1974
1974
1974
1975
1976
1976
1976
1976
1975
1974
1974
1974
1975
1976
1976
1976
1977
1976
1976
1976
1975
1975
1975
1975
1975
1976
1976
1977
1977
1978
1979
1980
1980
1981
1981
1980
1979
1978
1977
1976
1976
1975
1975
1975
1976
1977
1977
1977
1977
1977
1977
1977
1977
1975
1973
1969
1966
1967
1975
1989
2011
2034
2051
2057
2048
2027
2000
1977
1961
1955
1956
1959
1961
1963
1964
1965
1967
1968
1968
1968
1968
1969
1970
1971
1972
1974
1974
1974
1974
1974
1973
1973
1974
1975
1975
1976
1977
1977
1977
1977
1976
1976
1976
1977
1978
1979
1979
1980
1980
1980
1980
1980
1980
1981
1982
1984
1985
1986
1987
1987
1987
1987
1987
1988
1989
1989
1990
1990
1990
1989
1988
1986
1985
1983
1981
1978
1976
1974
1971
1969
1966
1965
1964
1964
1964
1965
1965
1965
1965
1965
1964
1964
1965
1966
1967
1968
1969
1969
1969
1968
1968
1968
1969
1970
1971
1971
1971
1972
1972
1972
1971
1971
1971
1971
1972
1972
1973
1973
1973
1973
1972
1972
1972
1971
1972
1972
1973
1973
1973
1972
1971
1972
1973
1975
1976
1978
1979
1979
1979
1978
1978
1978
1978
1979
1980
1980
1981
1980
1979
1979
1978
1978
1979
1979
1979
1978
1977
1976
1976
1975
1975
1975
1975
1975
1976
1976
1976
1976
1976
1975
1975
1974
1974
1975
1975
1975
1974
1974
1974
1974
1975
1975
1976
1977
1978
1978
1978
1978
1977
1976
1974
1973
1973
1973
1973
1974
1975
1975
1974
1974
1973
1973
1974
1974
1975
1975
1973
1970
1965
1963
1964
1972
1988
2010
2034
2051
2056
2047
2024
1997
1973
1958
1952
1953
1957
1960
1961
1962
1962
1963
1964
1965
1965
1966
1967
1968
1969
1970
1970
1970
1970
1970
1971
1972
1973
1973
1974
1973
1973
1973
1972
1972
1973
1974
1975
1975
1976
1976
1976
1976
1976
1976
1977
1978
1978
1979
1980
1981
1982
1982
1983
1984
1985
1986
1987
1988
1989
1989
1989
1989
1989
1989
1989
1989
1989
1987
1985
1982
1979
1976
1974
1971
1969
1968
1968
1967
1967
1967
1966
1966
1966
1966
1967
1967
1968
1969
1969
1970
1970
1970
1970
1970
1970
1970
1971
1972
1973
1973
1972
1972
1971
1971
1971
1972
1974
1974
1974
1974
1974
1973
1973
1973
1972
1972
1973
1973
1974
1974
1974
1973
1972
1972
1972
1972
1972
1973
1973
1975
1976
1978
1980
1981
1982
1983
1983
1983
1983
1982
1980
1979
1979
1978
1977
1977
1977
1977
1978
1979
1981
1982
1982
1983
1983
1983
1983
1983
1983
1983
1983
1983
1982
1982
1982
1983
1983
1984
1984
1983
1983
1982
1981
1981
1981
1981
1981
1981
1981
1981
1982
1983
1984
1985
1986
1986
1986
1985
1985
1984
1983
1982
1982
1981
1980
1979
1979
1980
1980
1979
1978
1977
1977
1976
1977
1976
1975
1972
1968
1967
1970
1980
1999
2022
2043
2053
2048
2031
2006
1981
1963
1956
1955
1958
1961
1963
1964
1965
1966
1968
1969
1971
1972
1974
1975
1976
1977
1978
1978
1979
1979
1979
1979
1979
1979
1980
1980
1981
1981
1981
1981
1981
1981
1981
1981
1982
1982
1982
1983
1983
1984
1984
1984
1984
1984
1985
1986
1987
1989
1990
1990
1991
1991
1992
1993
1994
1995
1996
1996
1997
1996
1995
1994
1993
1992
1991
1989
1987
1984
1980
1977
1975
1973
1972
1971
1970
1970
1970
1970
1970
1970
1970
1970
1970
1970
1971
1972
1973
1973
1973
1973
1973
1973
1973
1973
1974
1975
1975
1975
1975
1975
1975
1975
1975
1975
1975
1976
1976
1977
1977
1977
1976
1975
1975
1975
1976
1977
1978
1978
1977
1976
1975
1974
1974
1975
1976
1977
1977
1978
1977
1976
1975
1975
1975
1975
1976
1977
1977
1977
1977
1977
1977
1976
1976
1976
1976
1977
1977
1977
1978
1978
1977
1976
1975
1975
1975
1976
1978
1978
1978
1977
1976
1976
1976
1976
1976
1976
1976
1976
1975
1975
1976
1977
1978
1980
1981
1982
1982
1981
1980
1979
1978
1977
1976
1976
1976
1977
1978
1978
1978
1977
1977
1977
1977
1978
1979
1980
1979
1977
1972
1968
1967
1971
1983
2003
2027
2048
2058
2055
2038
2012
1986
1968
1959
1958
1960
1963
1965
1966
1966
1967
1967
1968
1969
1969
1970
1971
1972
1973
1974
1974
1974
1974
1974
1975
1975
1976
1976
1977
1977
1977
1977
1977
1977
1977
1978
1978
1978
1979
1979
1980
1980
1980
1980
1980
1981
1982
1983
1985
1986
1987
1987
1988
1988
1989
1991
1992
1993
1993
1993
1993
1993
1992
1992
1992
1991
1990
1989
1987
1984
1981
1977
1975
1973
1972
1971
1970
1970
1969
1969
1969
1969
1969
1970
1970
1970
1970
1971
1971
1972
1972
1972
1972
1972
1972
1973
1974
1975
1975
1975
1975
1975
1974
1974
1975
1976
1977
1977
1978
1978
1978
1978
1977
1977
1977
1978
1978
1979
1979
1979
1978
1978
1978
1978
1978
1978
1979
1979
1980
1980
1979
1978
1977
1977
1977
1977
1978
1978
1978
1978
1977
1977
1976
1976
1976
1977
1977
1978
1978
1978
1978
1977
1976
1976
1976
1976
1977
1978
1977
1977
1976
1975
1974
1973
1974
1974
1974
1974
1973
1973
1972
1972
1973
1974
1975
1977
1978
1979
1979
1978
1977
1975
1974
1974
1973
1973
1973
1974
1974
1974
1973
1973
1972
1972
1972
1974
1976
1977
1978
1976
1972
1967
1964
1968
1979
1999
2023
2045
2057
2055
2040
2014
1988
1967
1956
1953
1955
1958
1960
1962
1962
1963
1964
1966
1968
1969
1971
1972
1973
1974
1974
1974
1974
1974
1974
1974
1975
1976
1977
1977
1977
1977
1977
1977
1977
1978
1979
1979
1979
1979
1978
1977
1977
1977
1978
1978
1978
1978
1979
1979
1980
1981
1982
1983
1984
1985
1986
1987
1988
1989
1989
1988
1988
1987
1987
1987
1987
1986
1984
1982
1979
1976
1973
1970
1968
1967
1967
1966
1965
1964
1964
1964
1965
1967
1968
1970
1971
1972
1973
1974
1974
1974
1974
1973
1973
1974
1975
1976
1977
1977
1976
1976
1975
1975
1976
1977
1978
1978
1977
1977
1976
1975
1975
1976
1976
1977
1977
1978
1978
1978
1977
1976
1976
1975
1976
1976
1977
1978
1978
1978
1977
1976
1976
1976
1976
1977
1977
1977
1977
1977
1977
1976
1976
1976
1977
1977
1977
1978
1978
1978
1978
1977
1977
1976
1976
1977
1978
1978
1978
1978
1977
1977
1976
1976
1976
1977
1977
1977
1977
1977
1977
1977
1978
1979
1980
1981
1981
1981
1980
1980
1978
1977
1976
1975
1975
1975
1976
1976
1977
1977
1976
1976
1975
1975
1976
1977
1977
1975
1972
1968
1965
1966
1974
1990
2012
2034
2048
2052
2042
2021
1997
1975
1962
1957
1957
1961
1963
1965
1966
1966
1966
1966
1966
1967
1969
1970
1971
1972
1972
1973
1973
1973
1973
1972
1972
1972
1973
1974
1975
1976
1976
1976
1976
1976
1976
1976
1977
1978
1978
1978
1978
1978
1979
1979
1980
1981
1982
1983
1984
1985
1985
1986
1987
1988
1989
1989
1990
1991
1992
1993
1993
1993
1993
1992
1991
1990
1989
1987
1985
1982
1979
1977
1974
1972
1971
1971
1971
1971
1971
1970
1970
1970
1969
1970
1971
1972
1973
1974
1974
1974
1974
1973
1973
1973
1974
1975
1976
1977
1977
1977
1976
1976
1976
1976
1977
1978
1978
1978
1978
1978
1978
1978
1978
1978
1979
1979
1980
1980
1980
1980
1979
1979
1979
1979
1980
1981
1981
1982
1983
1983
1983
1984
1984
1985
1986
1988
1990
1991
1992
1992
1992
1991
1991
1991
1991
1992
1993
1994
1994
1994
1994
1993
1992
1992
1992
1993
1993
1993
1993
1993
1993
1993
1993
1993
1995
1996
1998
1999
2000
1999
1998
1996
1994
1993
1992
1992
1992
1993
1993
1993
1993
1992
1992
1992
1992
1992
1994
1995
1994
1993
1989
1984
1981
1983
1992
2009
2032
2053
2067
2067
2051
2027
2001
1982
1973
1972
1976
1979
1981
1981
1981
1981
1981
1981
1982
1983
1985
1986
1987
1987
1987
1986
1985
1985
1986
1987
1988
1989
1989
1989
1988
1987
1987
1987
1988
1989
1990
1990
1991
1990
1990
1989
1989
1989
1989
1990
1992
1993
1994
1994
1995
1995
1995
1996
1998
1999
2001
2002
2002
2003
2003
2003
2003
2002
2002
2002
2001
2000
1998
1996
1992
1989
1986
1984
1982
1980
1979
1978
1978
1977
1976
1976
1975
1975
1975
1976
1977
1978
1979
1979
1979
1978
1978
1978
1978
1979
1980
1980
1981
1981
1980
1980
1980
1980
1980
1981
1981
1981
1982
1982
1982
1982
1981
1980
1980
1981
1982
1983
1983
1983
1982
1981
1981
1980
1980
1981
1981
1981
1981
1981
1980
1979
1979
1979
1979
1980
1980
1980
1979
1978
1978
1979
1979
1979
1979
1979
1980
1980
1981
1981
1981
1980
1979
1979
1979
1979
1980
1980
1980
1980
1979
1978
1978
1978
1979
1981
1983
1984
1984
1984
1983
1982
1982
1981
1981
1980
1980
1979
1979
1980
1980
1980
1979
1979
1979
1979
1979
1980
1980
1981
1979
1976
1972
1968
1967
1972
1984
2005
2028
2048
2058
2054
2038
2013
1988
1969
1960
1958
1961
1963
1964
1965
1964
1964
1966
1967
1969
1970
1971
1971
1971
1971
1971
1972
1972
1973
1974
1975
1975
1975
1975
1975
1975
1974
1974
1975
1976
1977
1978
1978
1977
1976
1976
1976
1976
1978
1979
1980
1980
1981
1981
1981
1981
1981
1982
1983
1985
1986
1987
1988
1988
1988
1988
1988
1988
1988
1987
1987
1985
1983
1980
1977
1974
1971
1968
1967
1966
1966
1965
1964
1963
1963
1962
1962
1963
1963
1963
1964
1964
1964
1964
1964
1963
1963
1963
1963
1964
1965
1965
1965
1965
1964
1964
1963
1963
1964
1965
1966
1966
1966
1966
1965
1965
1965
1965
1965
1966
1967
1967
1967
1967
1966
1966
1966
1965
1966
1966
1966
1967
1967
1967
1967
1967
1967
1967
1967
1967
1967
1967
1967
1967
1967
1967
1967
1967
1967
1967
1968
1968
1968
1968
1968
1967
1967
1967
1968
1968
1969
1969
1969
1969
1968
1968
1967
1968
1968
1968
1968
1968
1968
1969
1969
1970
1971
1972
1974
1975
1975
1975
1974
1973
1971
1970
1970
1970
1971
1971
1972
1972
1972
1971
1971
1971
1971
1972
1973
1974
1973
1971
1967
1965
1966
1974
1990
2012
2035
2051
2057
2049
2031
2006
1984
1969
1963
1963
1966
1969
1970
1971
1971
1971
1972
1973
1974
1975
1976
1976
1977
1978
1978
1979
1979
1979
1979
1980
1980
1981
1983
1983
1983
1983
1982
1981
1981
1982
1984
1985
1986
1986
1986
1986
1986
1986
1987
1988
1989
1990
1991
1992
1993
1994
1994
1995
1996
1997
1998
2000
2001
2001
2002
2002
2002
2001
2000
1999
1999
1998
1996
1994
1991
1987
1983
1981
1979
1978
1978
1978
1977
1977
1977
1976
1976
1976
1976
1977
1978
1979
1980
1980
1981
1980
1980
1980
1980
1980
1981
1982
1983
1983
1982
1982
1981
1981
1981
1982
1982
1983
1983
1983
1983
1983
1982
1982
1982
1983
1983
1983
1983
1983
1983
1983
1983
1983
1982
1983
1983
1983
1984
1984
1983
1983
1982
1981
1980
1980
1981
1982
1983
1983
1983
1982
1981
1981
1981
1982
1983
1983
1983
1983
1983
1982
1982
1981
1981
1981
1981
1981
1981
1981
1981
1982
1983
1984
1984
1984
1984
1984
1984
1984
1983
1982
1981
