2005
2005
2006
2008
2009
2010
2011
2010
2009
2006
2003
1998
1994
1990
1986
1983
1980
1978
1976
1974
1973
1971
1970
1969
1969
1968
1969
1969
1970
1970
1971
1971
1971
1971
1972
1972
1972
1972
1972
1972
1972
1971
1970
1970
1971
1971
1972
1973
1972
1971
1970
1969
1969
1970
1970
1971
1971
1972
1972
1971
1971
1972
1972
1971
1967
1962
1955
1950
1946
1944
1944
1944
1943
1943
1943
1944
1944
1944
1945
1945
1945
1944
1944
1943
1943
1943
1944
1945
1946
1946
1945
1945
1944
1944
1943
1943
1944
1944
1945
1946
1946
1946
1945
1944
1944
1944
1945
1946
1946
1946
1945
1944
1944
1944
1944
1945
1946
1947
1947
1947
1946
1945
1944
1943
1944
1947
1950
1953
1955
1956
1956
1956
1955
1953
1951
1950
1950
1950
1950
1949
1948
1948
1947
1948
1949
1950
1949
1945
1940
1935
1935
1942
1962
1996
2043
2097
2148
2178
2175
2139
2080
2020
1973
1947
1940
1942
1945
1945
1944
1944
1943
1942
1941
1940
1940
1941
1942
1943
1944
1944
1944
1944
1944
1945
1946
1946
1947
1949
1949
1950
1951
1951
1952
1952
1953
1954
1955
1956
1957
1959
1961
1962
1963
1964
1965
1966
1968
1971
1975
1978
1981
1983
1985
1987
1989
1991
1994
1996
1998
1999
2000
2000
1999
1997
1995
1991
1987
1983
1978
1974
1970
1966
1962
1960
1957
1956
1955
1955
1955
1955
1955
1954
1954
1954
1954
1955
1956
1957
1957
1957
1957
1957
1957
1958
1959
1960
1961
1961
1962
1961
1961
1961
1961
1961
1961
1962
1963
1963
1964
1964
1964
1963
1963
1963
1963
1964
1964
1965
1965
1965
1965
1965
1965
1964
1964
1964
1965
1966
1966
1967
1967
1967
1966
1967
1967
1967
1967
1968
1968
1969
1969
1968
1968
1968
1968
1968
1969
1969
1969
1969
1969
1969
1969
1969
1971
1973
1976
1979
1980
1981
1981
1980
1978
1976
1975
1974
1974
1974
1975
1975
1975
1975
1976
1976
1977
1975
1971
1965
1960
1959
1965
1983
2014
2059
2114
2167
2202
2205
2172
2114
2050
2001
1972
1963
1965
1969
1970
1968
1967
1966
1965
1965
1964
1964
1965
1966
1966
1967
1967
1968
1968
1968
1968
1968
1968
1969
1970
1971
1972
1973
1973
1973
1973
1974
1975
1976
1978
1980
1981
1982
1982
1983
1984
1985
1987
1989
1992
1995
1998
2001
2003
2004
2006
2008
2009
2011
2013
2015
2016
2017
2017
2015
2012
2008
2004
2000
1996
1992
1988
1984
1981
1978
1975
1974
1973
1973
1974
1974
1974
1974
1973
1973
1973
1973
1973
1974
1975
1975
1976
1976
1976
1976
1975
1975
1975
1975
1975
1976
1976
1977
1977
1977
1977
1976
1976
1977
1977
1978
1978
1978
1978
1977
1977
1976
1977
1977
1978
1979
1979
1979
1978
1978
1977
1977
1977
1978
1978
1979
1979
1979
1978
1978
1977
1978
1978
1978
1978
1979
1979
1979
1979
1978
1978
1977
1978
1978
1979
1980
1980
1980
1979
1979
1978
1978
1978
1978
1979
1979
1980
1980
1980
1979
1979
1978
1978
1979
1979
1980
1980
1980
1979
1979
1978
1978
1979
1979
1979
1979
1980
1981
1982
1983
1984
1986
1987
1988
1988
1988
1987
1986
1985
1983
1981
1980
1980
1980
1981
1982
1982
1983
1983
1981
1976
1970
1965
1963
1968
1984
2012
2053
2106
2160
2201
2211
2187
2133
2069
2015
1982
1969
1969
1973
1973
1972
1970
1970
1970
1970
1970
1970
1970
1969
1969
1969
1970
1971
1971
1972
1972
1972
1973
1973
1973
1973
1974
1975
1976
1977
1977
1978
1978
1978
1978
1979
1980
1981
1983
1984
1986
1988
1989
1990
1991
1993
1994
1997
2000
2002
2005
2007
2009
2010
2011
2012
2013
2014
2015
2015
2015
2013
2010
2006
2001
1997
1993
1989
1987
1984
1982
1980
1978
1976
1975
1974
1974
1974
1975
1976
1976
1976
1975
1975
1975
1975
1975
1976
1976
1977
1977
1977
1977
1977
1977
1976
1976
1977
1978
1978
1978
1978
1978
1978
1977
1977
1976
1977
1977
1978
1978
1978
1978
1977
1977
1976
1976
1977
1977
1977
1977
1977
1977
1977
1977
1976
1976
1977
1978
1978
1978
1978
1977
1977
1976
1976
1976
1977
1977
1978
1978
1978
1978
1978
1977
1977
1977
1977
1978
1978
1978
1978
1978
1978
1977
1976
1977
1977
1978
1979
1979
1979
1978
1978
1978
1978
1978
1978
1978
1979
1979
1979
1979
1979
1978
1978
1978
1979
1979
1980
1980
1980
1979
1979
1978
1978
1978
1978
1979
1979
1979
1979
1979
1980
1981
1982
1984
1986
1987
1988
1988
1988
1986
1984
1982
1980
1979
1979
1980
1980
1980
1981
1981
1982
1980
1977
1972
1966
1963
1965
1976
1999
2035
2082
2137
2183
2206
2195
2151
2090
2032
1990
1970
1966
1969
1971
1970
1969
1968
1968
1968
1968
1967
1967
1966
1967
1968
1969
1969
1970
1970
1970
1970
1970
1969
1969
1970
1971
1972
1973
1974
1975
1975
1975
1975
1976
1976
1978
1979
1981
1983
1984
1985
1985
1986
1988
1990
1992
1995
1998
2000
2002
2004
2005
2006
2007
2009
2010
2012
2013
2013
2013
2011
2008
2005
2000
1996
1992
1988
1984
1981
1978
1976
1973
1971
1969
1968
1967
1967
1967
1967
1967
1966
1966
1965
1965
1965
1966
1967
1967
1967
1967
1967
1966
1965
1965
1964
1965
1965
1966
1966
1966
1966
1965
1965
1965
1965
1965
1965
1965
1965
1965
1965
1965
1964
1964
1964
1965
1965
1965
1965
1965
1965
1965
1965
1964
1964
1964
1965
1965
1966
1966
1966
1965
1965
1964
1964
1964
1965
1965
1965
1965
1965
1965
1964
1964
1964
1965
1965
1966
1966
1967
1966
1966
1965
1964
1964
1964
1965
1966
1967
1968
1967
1967
1966
1965
1965
1966
1967
1968
1968
1968
1967
1966
1966
1967
1968
1971
1973
1976
1978
1978
1978
1977
1975
1973
1971
1969
1969
1969
1970
1971
1971
1971
1971
1972
1971
1968
1963
1957
1954
1957
1971
1998
2038
2087
2140
2180
2194
2175
2128
2068
2015
1980
1964
1962
1965
1967
1967
1965
1965
1964
1963
1963
1963
1963
1963
1964
1965
1966
1966
1967
1967
1968
1968
1968
1969
1969
1970
1972
1973
1973
1974
1974
1975
1976
1977
1978
1979
1981
1982
1983
1984
1985
1986
1988
1990
1993
1996
1998
2001
2004
2006
2008
2010
2012
2014
2016
2018
2020
2022
2022
2022
2020
2018
2014
2011
2007
2002
1998
1993
1988
1984
1980
1978
1976
1974
1974
1973
1973
1973
1973
1972
1972
1972
1972
1972
1973
1974
1974
1974
1974
1975
1975
1975
1975
1975
1976
1976
1977
1978
1978
1978
1977
1977
1976
1977
1977
1978
1979
1979
1979
1979
1978
1977
1977
1977
1978
1978
1979
1979
1979
1979
1978
1978
1978
1978
1978
1979
1979
1979
1979
1979
1978
1978
1978
1978
1978
1979
1979
1980
1980
1979
1979
1978
1978
1978
1979
1979
1980
1980
1980
1980
1979
1979
1979
1979
1979
1980
1981
1981
1980
1980
1979
1978
1978
1978
1978
1978
1979
1980
1981
1982
1983
1984
1985
1987
1988
1989
1989
1989
1987
1985
1984
1982
1981
1981
1982
1982
1982
1983
1983
1984
1983
1979
1974
1968
1964
1965
1977
2000
2036
2085
2141
2189
2214
2204
2161
2098
2038
1994
1973
1969
1973
1975
1974
1972
1971
1971
1971
1971
1971
1971
1971
1971
1971
1971
1971
1972
1973
1973
1974
1975
1975
1975
1975
1975
1976
1977
1978
1979
1980
1980
1980
1980
1981
1982
1983
1985
1986
1988
1989
1991
1992
1993
1995
1996
1998
2001
2004
2006
2009
2010
2011
2012
2013
2015
2017
2019
2019
2019
2017
2013
2009
2004
2000
1996
1992
1989
1986
1984
1982
1980
1978
1977
1976
1976
1976
1976
1976
1976
1976
1976
1975
1975
1976
1977
1977
1978
1978
1979
1979
1978
1978
1978
1978
1979
1979
1980
1980
1980
1980
1980
1979
1979
1978
1979
1979
1980
1981
1981
1981
1980
1979
1979
1978
1979
1979
1980
1980
1980
1980
1979
1979
1979
1979
1979
1979
1980
1981
1981
1981
1981
1980
1980
1980
1980
1980
1980
1980
1980
1980
1980
1981
1981
1981
1981
1981
1982
1982
1982
1982
1982
1981
1981
1981
1981
1981
1981
1981
1982
1982
1982
1982
1982
1981
1981
1981
1982
1983
1983
1983
1983
1982
1982
1981
1981
1982
1982
1981
1981
1981
1983
1988
1995
2004
2011
2015
2015
2014
2014
2014
2015
2017
2017
2017
2017
2016
2015
2014
2012
2010
2007
2004
2003
2002
2003
2005
2006
2007
2007
2006
2002
1997
1991
1986
1987
1997
2019
2053
2100
2154
2202
2228
2220
2179
2117
2056
2013
1992
1988
1992
1994
1993
1991
1989
1988
1987
1987
1987
1988
1988
1988
1987
1986
1986
1986
1987
1988
1988
1989
1989
1989
1989
1989
1990
1990
1990
1991
1991
1992
1993
1993
1994
1995
1996
1997
1998
1999
2000
2001
2003
2004
2006
2007
2009
2011
2013
2016
2018
2021
2023
2024
2025
2026
2026
2027
2028
2028
2028
2027
2024
2020
2016
2012
2007
2002
1998
1995
1992
1991
1989
1988
1987
1985
1985
1985
1985
1986
1986
1987
1986
1985
1984
1984
1985
1987
1987
1984
1979
1972
1966
1963
1961
1961
1961
1961
1961
1962
1962
1962
1961
1960
1958
1957
1959
1964
1973
1982
1989
1992
1992
1990
1987
1985
1984
1984
1984
1984
1984
1985
1985
1984
1984
1983
1983
1983
1984
1985
1983
1978
1971
1964
1959
1957
1957
1957
1958
1958
1958
1958
1957
1957
1957
1957
1957
1958
1958
1958
1959
1959
1959
1958
1958
1958
1959
1959
1960
1961
1962
1963
1963
1963
1962
1961
1961
1961
1962
1963
1964
1965
1966
1966
1965
1964
1963
1963
1963
1964
1965
1965
1966
1967
1969
1970
1972
1974
1975
1975
1975
1974
1973
1972
1970
1970
1969
1969
1968
1969
1969
1971
1972
1971
1967
1961
1955
1952
1956
1971
1999
2039
2089
2143
2185
2202
2184
2137
2075
2020
1982
1966
1963
1966
1967
1966
1964
1963
1963
1964
1965
1965
1965
1965
1965
1965
1966
1966
1968
1969
1970
1971
1971
1970
1971
1971
1972
1974
1975
1976
1977
1978
1979
1979
1980
1981
1981
1983
1984
1986
1988
1989
1991
1992
1993
1995
1998
2001
2004
2008
2011
2013
2015
2017
2018
2019
2021
2023
2024
2025
2025
2023
2020
2016
2011
2005
2000
1995
1991
1987
1984
1981
1979
1977
1975
1974
1973
1973
1973
1973
1974
1975
1975
1975
1975
1975
1975
1976
1977
1978
1979
1979
1980
1979
1979
1978
1978
1979
1980
1980
1980
1980
1980
1979
1979
1980
1980
1980
1980
1981
1981
1981
1982
1982
1981
1981
1981
1982
1982
1983
1984
1984
1984
1983
1982
1982
1982
1982
1982
1983
1984
1984
1984
1984
1984
1985
1986
1988
1988
1988
1987
1987
1986
1986
1984
1983
1981
1981
1981
1982
1984
1987
1989
1991
1992
1993
1996
2002
2009
2017
2022
2024
2023
2021
2019
2019
2019
2019
2020
2021
2022
2021
2018
2012
2005
2000
2002
2013
2037
2073
2123
2179
2228
2253
2245
2201
2138
2075
2031
2009
2006
2009
2012
2011
2009
2007
2006
2006
2006
2006
2006
2006
2006
2006
2007
2007
2006
2006
2005
2005
2005
2006
2007
2008
2008
2008
2008
2007
2007
2009
2011
2013
2014
2014
2012
2011
2010
2010
2012
2014
2016
2019
2021
2022
2024
2025
2026
2028
2031
2034
2037
2039
2040
2041
2040
2040
2040
2039
2039
2037
2035
2032
2027
2021
2015
2009
2005
2002
2000
1998
1998
1997
1996
1995
1994
1993
1993
1992
1993
1995
1997
1997
1995
1990
1983
1975
1969
1965
1963
1962
1962
1961
1959
1957
1955
1953
1952
1951
1952
1952
1953
1954
1955
1956
1957
1958
1959
1961
1963
1965
1967
1969
1970
1971
1971
1969
1968
1967
1967
1967
1969
1970
1970
1969
1968
1967
1966
1966
1966
1967
1968
1968
1968
1968
1968
1967
1967
1967
1968
1969
1970
1971
1972
1973
1973
1973
1973
1974
1975
1975
1976
1976
1976
1976
1976
1975
1975
1976
1977
1978
1979
1981
1983
1985
1986
1987
1987
1987
1986
1984
1983
1981
1979
1979
1979
1979
1980
1981
1982
1982
1982
1979
1974
1967
1961
1960
1969
1990
2026
2074
2131
2183
2214
2211
2172
2109
2045
1995
1968
1962
1965
1968
1968
1966
1964
1962
1961
1960
1960
1961
1962
1962
1962
1962
1962
1963
1964
1964
1965
1966
1966
1967
1967
1968
1968
1968
1968
1968
1968
1969
1971
1973
1975
1976
1977
1977
1977
1978
1979
1980
1982
1984
1986
1988
1990
1992
1995
1997
2000
2002
2004
2005
2006
2007
2007
2008
2008
2008
2007
2005
2000
1995
1989
1985
1980
1977
1975
1973
1972
1971
1972
1973
1973
1971
1970
1969
1968
1967
1965
1965
1969
1977
1988
1999
2005
2007
2006
2005
2005
2006
2006
2005
2004
2003
2002
2001
2000
2000
1999
1999
1999
1998
1998
1996
1995
1994
1994
1995
1995
1996
1996
1995
1994
1993
1992
1992
1991
1990
1990
1991
1992
1993
1993
1992
1991
1992
1995
2000
2004
2007
2008
2007
2006
2006
2006
2006
2008
2010
2012
2012
2009
2006
2003
2001
2000
2000
2000
1999
1999
1999
2000
2001
2002
2003
2003
2004
2004
2004
2004
2004
2003
2003
2002
2002
2002
2002
2002
2001
2002
2002
2003
2004
2004
2003
2002
2002
2003
2004
2007
2011
2015
2018
2020
2020
2019
2017
2015
2012
2010
2008
2008
2008
2008
2008
2007
2006
2005
2004
2001
1997
1992
1987
1986
1993
2012
2045
2091
2147
2198
2230
2229
2193
2133
2070
2022
1995
1986
1988
1991
1991
1989
1988
1986
1985
1984
1983
1982
1982
1982
1983
1983
1983
1983
1982
1982
1981
1980
1979
1978
1977
1975
1973
1972
1972
1972
1974
1975
1975
1976
1976
1978
1980
1983
1986
1988
1989
1990
1992
1995
1998
2002
2005
2007
2009
2010
2012
2013
2014
2016
2017
2018
2019
2020
2020
2020
2018
2016
2013
2010
2006
2002
1999
1995
1992
1989
1986
1984
1982
1981
1981
1982
1983
1983
1984
1983
1982
1980
1980
1980
1981
1981
1982
1982
1981
1981
1981
1981
1980
1979
1979
1979
1980
1981
1981
1981
1981
1980
1980
1979
1979
1979
1980
1980
1980
1979
1979
1978
1978
1978
1978
1979
1979
1978
1978
1977
1977
1976
1976
1977
1978
1979
1979
1979
1979
1978
1977
1977
1977
1977
1977
1978
1978
1978
1978
1977
1976
1976
1975
1975
1976
1976
1976
1976
1976
1976
1976
1975
1975
1976
1976
1977
1977
1977
1977
1977
1977
1976
1975
1975
1976
1977
1978
1978
1978
1977
1976
1975
1975
1975
1976
1977
1978
1980
1982
1984
1985
1986
1985
1984
1983
1981
1981
1980
1980
1979
1978
1977
1977
1977
1979
1981
1980
1977
1970
1963
1960
1963
1978
2007
2048
2099
2153
2195
2210
2191
2143
2080
2025
1987
1971
1969
1971
1973
1971
1969
1968
1968
1968
1968
1969
1969
1969
1970
1970
1970
1970
1970
1970
1971
1972
1973
1974
1975
1976
1976
1976
1976
1976
1976
1977
1978
1979
1980
1980
1981
1982
1983
1985
1987
1989
1991
1993
1995
1997
1998
2000
2002
2005
2008
2011
2014
2016
2018
2019
2020
2021
2021
2021
2020
2019
2017
2013
2008
2003
1998
1994
1990
1987
1984
1981
1980
1978
1977
1975
1974
1973
1972
1973
1974
1976
1977
1978
1978
1978
1976
1975
1975
1975
1976
1976
1976
1976
1975
1975
1975
1975
1976
1976
1976
1976
1976
1976
1975
1975
1974
1974
1973
1973
1973
1974
1975
1975
1975
1975
1974
1973
1972
1972
1973
1973
1974
1974
1975
1975
1975
1975
1974
1974
1973
1973
1973
1974
1974
1974
1974
1974
1973
1973
1974
1976
1977
1978
1979
1979
1979
1979
1978
1977
1975
1974
1975
1976
1977
1977
1976
1974
1973
1972
1972
1973
1975
1977
1978
1978
1977
1975
1974
1974
1974
1975
1977
1978
1978
1977
1976
1975
1975
1977
1980
1984
1987
1990
1991
1991
1990
1988
1986
1984
1982
1981
1982
1982
1983
1982
1982
1982
1983
1983
1980
1976
1971
1968
1973
1988
2016
2056
2109
2164
2206
2221
2199
2147
2081
2025
1987
1971
1970
1973
1974
1972
1971
1970
1971
1972
1973
1973
1972
1972
1973
1974
1976
1976
1975
1974
1974
1974
1974
1976
1977
1979
1980
1981
1982
1984
1985
1987
1988
1989
1990
1991
1992
1993
1995
1997
1998
1999
2000
2001
2002
2004
2007
2011
2014
2017
2019
2021
2022
2023
2024
2026
2028
2030
2031
2031
2030
2027
2024
2020
2015
2011
2006
2002
1999
1997
1995
1993
1991
1990
1989
1989
1989
1989
1989
1988
1987
1986
1986
1987
1988
1990
1992
1993
1993
1993
1992
1991
1990
1990
1991
1993
1994
1994
1994
1993
1992
1991
1992
1992
1993
1993
1993
1993
1993
1993
1993
1993
1994
1994
1994
1995
1995
1995
1995
1995
1994
1993
1992
1992
1993
1993
1994
1994
1993
1992
1991
1991
1991
1991
1991
1991
1992
1992
1992
1992
1991
1990
1990
1991
1991
1992
1992
1991
1990
1990
1991
1992
1993
1994
1994
1993
1993
1992
1992
1992
1992
1991
1990
1990
1990
1990
1990
1990
1990
1990
1990
1989
1988
1988
1989
1990
1992
1993
1993
1993
1993
1994
1994
1995
1996
1998
1999
2000
2000
1997
1994
1990
1988
1987
1988
1990
1991
1992
1993
1992
1990
1985
1978
1972
1970
1975
1991
2018
2058
2109
2163
2205
2220
2200
2150
2086
2031
1995
1979
1978
1981
1981
1979
1977
1977
1978
1979
1979
1978
1978
1977
1977
1977
1978
1979
1980
1980
1981
1981
1981
1982
1983
1983
1984
1984
1985
1985
1986
1986
1987
1987
1988
1989
1990
1991
1993
1994
1996
1997
1998
2000
2001
2003
2005
2007
2010
2012
2015
2017
2019
2021
2022
2023
2024
2025
2026
2027
2027
2026
2023
2020
2015
2011
2007
2003
2000
1998
1995
1993
1990
1988
1986
1985
1984
1984
1985
1986
1987
1987
1987
1987
1987
1987
1988
1988
1989
1990
1990
1990
1989
1989
1989
1989
1989
1989
1989
1989
1989
1989
1989
1990
1991
1991
1991
1990
1989
1989
1988
1988
1988
1988
1988
1987
1987
1987
1988
1989
1989
1989
1988
1987
1986
1987
1987
1988
1988
1988
1987
1987
1987
1987
1987
1987
1987
1987
1987
1988
1988
1988
1988
1988
1988
1988
1988
1987
1987
1988
1988
1989
1989
1988
1988
1988
1988
1988
1989
1989
1989
1989
1989
1989
1989
1989
1989
1989
1990
1990
1991
1991
1991
1991
1990
1989
1989
1989
1989
1989
1990
1990
1990
1990
1990
1991
1993
1995
1998
1999
2000
1999
1998
1997
1995
1993
1992
1991
1992
1992
1992
1992
1992
1993
1993
1991
1987
1982
1977
1975
1981
1998
2028
2070
2123
2176
2214
2223
2197
2143
2080
2028
1994
1981
1981
1984
1985
1983
1982
1982
1982
1981
1981
1980
1980
1980
1980
1981
1983
1984
1984
1984
1984
1983
1982
1982
1982
1983
1984
1985
1986
1986
1986
1987
1988
1989
1990
1991
1993
1994
1995
1996
1998
2000
2001
2003
2005
2007
2009
2013
2016
2019
2021
2023
2025
2026
2027
2029
2031
2033
2035
2035
2034
2032
2028
2023
2018
2013
2009
2005
2001
1997
1994
1990
1988
1986
1985
1984
1984
1983
1984
1984
1984
1984
1983
1982
1982
1982
1983
1984
1985
1986
1987
1986
1985
1984
1983
1983
1985
1987
1988
1989
1988
1988
1987
1987
1986
1986
1985
1986
1986
1986
1987
1986
1985
1985
1985
1985
1987
1988
1989
1989
1989
1988
1987
1986
1985
1986
1986
1987
1987
1987
1988
1987
1987
1987
1987
1987
1987
1988
1988
1989
1989
1989
1989
1988
1988
1989
1990
1991
1991
1992
1992
1992
1992
1992
1992
1993
1993
1993
1992
1990
1989
1989
1989
1991
1993
1996
1998
2001
2002
2003
2003
2003
2002
2002
2001
2000
2000
1999
1999
1998
1997
1996
1996
1998
1999
1998
1994
1987
1981
1980
1988
2010
2046
2095
2151
2202
2231
2227
2190
2130
2068
2021
1995
1987
1989
1993
1994
1993
1991
1990
1990
1989
1989
1989
1989
1989
1989
1990
1990
1989
1989
1989
1989
1990
1991
1992
1992
1992
1992
1992
1992
1993
1993
1993
1994
1994
1996
1998
2000
2002
2004
2004
2003
2004
2005
2007
2010
2013
2016
2018
2020
2021
2022
2023
2026
2029
2032
2034
2035
2035
2034
2032
2031
2029
2025
2021
2016
2011
2006
2003
1999
1995
1990
1987
1985
1986
1988
1989
1988
1986
1984
1983
1982
1982
1983
1983
1983
1983
1983
1983
1983
1983
1984
1985
1986
1987
1987
1988
1989
1989
1989
1988
1988
1988
1988
1988
1987
1987
1988
1988
1989
1989
1989
1988
1987
1986
1986
1988
1990
1991
1992
1990
1988
1987
1986
1987
1989
1991
1991
1990
1989
1987
1986
1987
1988
1989
1990
1990
1989
1988
1987
1987
1986
1986
1986
1986
1986
1986
1987
1987
1987
1987
1987
1987
1987
1987
1987
1988
1989
1990
1990
1988
1986
1984
1982
1983
1984
1987
1990
1993
1996
1998
1998
1996
1995
1993
1992
1991
1991
1990
1989
1987
1986
1986
1986
1988
1990
1991
1988
1983
1977
1973
1973
1980
1997
2025
2065
2116
2168
2206
2215
2189
2136
2073
2021
1989
1977
1978
1980
1981
1979
1977
1976
1976
1975
1976
1976
1978
1979
1980
1980
1979
1978
1977
1976
1976
1977
1978
1980
1982
1982
1982
1981
1980
1980
1981
1983
1985
1986
1987
1988
1987
1987
1986
1986
1988
1990
1994
1998
2001
2002
2003
2004
2005
2008
2011
2015
2019
2021
2021
2021
2021
2021
2022
2023
2023
2022
2018
2014
2009
2004
2000
1996
1993
1991
1989
1988
1987
1985
1983
1982
1980
1979
1979
1979
1980
1982
1983
1984
1984
1983
1982
1982
1981
1981
1981
1982
1983
1984
1985
1985
1984
1983
1983
1982
1983
1984
1985
1985
1985
1983
1981
1980
1980
1981
1983
1984
1984
1983
1982
1982
1982
1983
1983
1983
1982
1981
1980
1980
1980
1981
1981
1980
1979
1978
1977
1977
1979
1980
1981
1982
1981
1980
1979
1979
1980
1981
1981
1981
1980
1978
1978
1977
1978
1980
1981
1982
1982
1982
1982
1982
1982
1981
1980
1978
1976
1976
1977
1979
1981
1982
1981
1980
1979
1979
1980
1981
1983
1986
1988
1989
1989
1987
1984
1982
1982
1981
1980
1978
1976
1974
1974
1974
1977
1979
1981
1980
1977
1971
1965
1962
1969
1987
2017
2059
2111
2161
2195
2200
2171
2116
2054
2005
1976
1968
1970
1974
1973
1971
1969
1968
1968
1967
1967
1967
1968
1969
1970
1971
1971
1971
1971
1971
1970
1969
1969
1971
1974
1976
1976
1974
1972
1972
1973
1976
1979
1980
1980
1980
1981
1982
1982
1982
1982
1983
1985
1988
1990
1991
1991
1992
1994
1996
2000
2003
2005
2007
2009
2011
2012
2013
2012
2011
2010
2009
2009
2007
2003
1997
1990
1985
1981
1979
1977
1975
1973
1971
1970
1969
1970
1970
1970
1969
1968
1967
1967
1968
1968
1969
1968
1969
1970
1971
1972
1973
1973
1972
1971
1971
1972
1972
1973
1972
1971
1970
1969
1970
1971
1971
1970
1969
1969
1969
1970
1972
1973
1972
1971
1969
1969
1969
1969
1969
1968
1967
1966
1967
1968
1968
1968
1967
1967
1966
1967
1967
1968
1968
1968
1968
1968
1968
1968
1966
1964
1962
1962
1964
1966
1968
1968
1967
1964
1963
1962
1963
1964
1964
1963
1961
1959
1959
1960
1961
1962
1962
1962
1962
1962
1963
1963
1962
1960
1958
1957
1956
1958
1960
1962
1964
1966
1967
1967
1967
1966
1965
1964
1963
1962
1961
1960
1960
1959
1959
1958
1958
1960
1961
1961
1957
1951
1945
1943
1949
1968
1999
2043
2093
2143
2177
2182
2155
2103
2044
1993
1962
1950
1949
1952
1954
1952
1949
1948
1947
1947
1947
1947
1947
1947
1947
1947
1947
1948
1949
1950
1951
1952
1953
1953
1953
1952
1952
1952
1953
1953
1954
1955
1956
1957
1959
1960
1962
1962
1963
1963
1964
1966
1968
1970
1973
1976
1979
1981
1983
1986
1988
1990
1992
1994
1996
1998
1999
2001
2002
2003
2002
2001
1998
1993
1987
1981
1976
1971
1966
1962
1959
1956
1954
1952
1950
1949
1948
1948
1947
1947
1947
1948
1948
1949
1950
1950
1950
1949
1949
1948
1948
1949
1951
1952
1953
1954
1953
1952
1952
1953
1954
1956
1957
1958
1957
1957
1956
1956
1957
1957
1958
1958
1958
1959
1959
1959
1958
1958
1958
1958
1959
1959
1960
1960
1961
1961
1961
1961
1961
1960
1960
1961
1962
1963
1964
1964
1963
1962
1962
1962
1961
1962
1962
1963
1965
1966
1968
1969
1970
1971
1972
1974
1975
1977
1976
1975
1972
1969
1967
1966
1966
1967
1968
1969
1970
1971
1971
1968
1963
1956
1950
1950
1959
1981
2017
2065
2122
2174
2205
2203
2166
2105
2041
1991
1964
1957
1960
1963
1964
1962
1961
1961
1961
1961
1961
1960
1959
1959
1960
1961
1963
1964
1964
1964
1964
1964
1964
1965
1965
1966
1967
1967
1969
1970
1971
1972
1973
1973
1973
1974
1975
1977
1979
1981
1984
1985
1987
1988
1989
1991
1993
1997
2000
2003
2006
2008
2010
2012
2013
2013
2013
2014
2015
2015
2014
2011
2007
2001
1995
1991
1986
1983
1980
1977
1975
1973
1972
1971
1970
1969
1970
1970
1970
1971
1971
1971
1971
1972
1972
1972
1972
1972
1973
1974
1975
1975
1975
1974
1973
1973
1974
1975
1976
1977
1977
1978
1977
1976
1975
1974
1974
1974
1975
1976
1977
1977
1976
1975
1974
1974
1975
1975
1976
1977
1976
1976
1975
1975
1975
1975
1975
1974
1974
1974
1975
1975
1975
1974
1974
1974
1974
1974
1975
1975
1975
1975
1975
1973
1972
1972
1971
1971
1971
1971
1971
1970
1970
1971
1972
1973
1976
1978
1980
1982
1982
1982
1980
1978
1975
1974
1973
1973
1973
1973
1972
1972
1972
1973
1974
1975
1974
1970
1965
1960
1958
1964
1981
2011
2053
2107
2161
2197
2203
2174
2118
2054
2003
1972
1962
1962
1966
1967
1966
1965
1965
1965
1964
1964
1964
1964
1964
1964
1965
1965
1965
1966
1966
1966
1966
1967
1967
1967
1968
1969
1971
1972
1973
1974
1974
1974
1975
1976
1978
1979
1980
1981
1982
1983
1984
1985
1986
1988
1990
1993
1996
1999
2001
2002
2003
2004
2006
2008
2010
2013
2015
2016
2015
2013
2011
2007
2003
1999
1995
1992
1988
1985
1981
1978
1976
1974
1974
1973
1973
1973
1973
1973
1973
1973
1972
1972
1972
1972
1973
1974
1975
1976
1976
1976
1976
1975
1974
1974
1975
1975
1976
1976
1976
1976
1975
1975
1975
1975
1975
1976
1976
1976
1975
1975
1975
1974
1974
1974
1974
1975
1974
1974
1974
1973
1973
1973
1973
1973
1973
1974
1974
1974
1974
1974
1973
1973
1973
1973
1973
1974
1974
1974
1973
1973
1972
1971
1972
1972
1972
1973
1973
1972
1972
1972
1971
1971
1971
1971
1971
1971
1972
1972
1971
1971
1970
1971
1972
1974
1976
1978
1980
1980
1980
1979
1977
1976
1974
1972
1972
1971
1971
1971
1970
1970
1970
1971
1972
1971
1968
1962
1957
1954
1958
1973
2000
2039
2090
2144
2186
2199
2178
2127
2063
2007
1971
1957
1956
1960
1962
1961
1959
1958
1957
1956
1956
1957
1958
1958
1959
1959
1959
1960
1960
1960
1959
1959
1960
1960
1961
1961
1963
1963
1964
1964
1964
1964
1965
1965
1967
1968
1969
1970
1971
1972
1973
1974
1977
1979
1982
1984
1986
1988
1989
1991
1994
1997
1999
2002
2005
2007
2008
2009
2009
2008
2007
2004
2001
1998
1994
1989
1985
1980
1975
1971
1967
1964
1961
1960
1960
1961
1961
1961
1961
1960
1959
1959
1959
1959
1960
1961
1962
1962
1961
1961
1961
1961
1962
1962
1962
1962
1963
1963
1964
1964
1964
1963
1963
1963
1964
1964
1964
1964
1964
1963
1963
1963
1963
1964
1965
1966
1966
1966
1965
1964
1964
1964
1964
1965
1965
1965
1966
1966
1966
1966
1965
1965
1966
1966
1967
1967
1967
1966
1966
1965
1964
1964
1965
1967
1969
1971
1973
1975
1977
1978
1977
1976
1974
1973
1972
1971
1971
1971
1970
1970
1970
1970
1971
1972
1974
1972
1968
1961
1955
1954
1961
1982
2017
2063
2119
2169
2199
2197
2162
2105
2045
1998
1972
1965
1967
1970
1971
1969
1967
1966
1966
1966
1967
1967
1968
1969
1969
1970
1971
1971
1971
1972
1973
1974
1975
1976
1977
1978
1978
1978
1978
1978
1979
1980
1982
1984
1985
1987
1988
1988
1989
1991
1992
1995
1997
1999
2002
2004
2006
2009
2011
2014
2016
2019
2021
2024
2026
2028
2029
2030
2029
2028
2026
2023
2019
2016
2012
2007
2002
1997
1992
1989
1987
1985
1984
1983
1982
1981
1980
1980
1980
1980
1980
1981
1982
1982
1983
1984
1984
1983
1983
1983
1984
1984
1985
1986
1986
1986
1986
1986
1985
1985
1986
1986
1986
1987
1987
1987
1987
1986
1985
1984
1984
1985
1986
1987
1988
1988
1988
1987
1986
1986
1986
1986
1987
1987
1987
1987
1987
1987
1987
1987
1987
1987
1987
1988
1988
1988
1988
1987
1987
1986
1986
1986
1986
1986
1986
1986
1985
1984
1983
1984
1984
1985
1987
1988
1990
1992
1994
1995
1994
1994
1993
1992
1991
1989
1988
1988
1987
1986
1986
1986
1986
1987
1988
1989
1988
1984
1977
1971
1969
1975
1992
2024
2069
2125
2180
2217
2221
2189
2130
2064
2012
1983
1974
1977
1981
1981
1978
1976
1975
1975
1975
1975
1975
1976
1977
1978
1978
1977
1977
1977
1977
1978
1979
1980
1981
1981
1981
1981
1981
1982
1982
1983
1983
1984
1985
1986
1987
1987
1988
1989
1990
1992
1994
1996
1998
2000
2001
2003
2005
2007
2010
2012
2015
2017
2019
2020
2022
2022
2023
2023
2022
2021
2019
2017
2013
2009
2005
2000
1996
1992
1989
1986
1984
1983
1983
1982
1982
1982
1981
1981
1981
1981
1981
1982
1983
1983
1982
1982
1982
1982
1983
1984
1985
1986
1985
1985
1983
1982
1982
1982
1983
1984
1984
1985
1985
1984
1984
1983
1982
1982
1982
1982
1983
1984
1985
1985
1984
1983
1982
1981
1981
1982
1983
1983
1984
1983
1983
1982
1981
1981
1981
1982
1983
1984
1984
1983
1982
1981
1981
1981
1982
1982
1982
1983
1983
1983
1982
1981
1981
1980
1981
1981
1982
1982
1982
1982
1981
1981
1981
1981
1982
1982
1982
1982
1982
1981
1981
1981
1980
1981
1982
1984
1986
1988
1990
1991
1992
1991
1989
1988
1986
1984
1983
1983
1983
1983
1982
1982
1982
1982
1983
1982
1979
1975
1970
1966
1966
1976
1998
2034
2082
2139
2188
2214
2205
2161
2098
2036
1992
1970
1967
1971
1974
1974
1972
1971
1971
1970
1969
1968
1968
1969
1970
1970
1971
1971
1971
1970
1970
1970
1971
1972
1973
1973
1974
1974
1974
1975
1975
1976
1976
1977
1978
1979
1980
1981
1982
1984
1985
1986
1987
1989
1991
1993
1996
1998
1999
2000
2001
2003
2005
2008
2010
2013
2014
2015
2015
2014
2013
2012
2011
2008
2005
2002
1998
1994
1990
1986
1982
1979
1977
1976
1976
1975
1975
1974
1973
1973
1973
1972
1972
1972
1972
1973
1974
1974
1974
1975
1975
1975
1976
1976
1976
1977
1977
1976
1975
1974
1973
1973
1973
1973
1974
1975
1976
1976
1975
1975
1974
1973
1973
1973
1973
1974
1975
1975
1975
1974
1974
1973
1973
1973
1973
1974
1974
1974
1973
1972
1972
1971
1972
1972
1973
1974
1974
1974
1974
1974
1974
1973
1973
1972
1973
1973
1974
1974
1974
1973
1973
1973
1973
1973
1974
1975
1975
1975
1974
1974
1973
1973
1973
1973
1974
1975
1975
1975
1974
1974
1973
1973
1973
1973
1974
1975
1976
1977
1979
1980
1981
1982
1982
1981
1980
1979
1978
1977
1975
1974
1974
1974
1974
1975
1975
1976
1977
1976
1972
1966
1960
1957
1962
1980
2012
2056
2111
2164
2202
2210
2182
2127
2063
2011
1978
1966
1966
1970
1970
1967
1965
1963
1962
1962
1963
1963
1964
1965
1966
1966
1967
1967
1967
1968
1968
1969
1969
1970
1970
1970
1970
1971
1971
1973
1974
1975
1976
1977
1978
1979
1979
1980
1981
1983
1985
1988
1990
1992
1994
1996
1998
2000
2003
2006
2009
2013
2015
2017
2019
2020
2021
2021
2022
2023
2023
2022
2019
2015
2010
2004
1999
1993
1989
1985
1982
1980
1977
1975
1974
1972
1971
1971
1971
1971
1971
1972
1972
1972
1972
1972
1972
1973
1973
1974
1975
1976
1976
1976
1976
1976
1975
1975
1975
1976
1976
1977
1978
1978
1978
1978
1977
1977
1977
1978
1978
1979
1979
1979
1979
1979
1978
1977
1977
1978
1979
1980
1980
1980
1979
1979
1978
1979
1979
1980
1980
1981
1980
1980
1979
1979
1978
1978
1978
1979
1980
1980
1981
1980
1980
1980
1979
1979
1979
1979
1979
1979
1979
1979
1979
1980
1981
1982
1984
1987
1989
1990
1991
1990
1988
1986
1984
1983
1982
1982
1982
1983
1983
1983
1983
1983
1983
1982
1979
1973
1967
1963
1966
1980
2008
2048
2102
2159
2204
2222
2204
2153
2087
2028
1988
1972
1971
1974
1976
1974
1972
1971
1971
1971
1971
1971
1970
1970
1971
1971
1972
1973
1973
1973
1972
1972
1973
1974
1975
1976
1976
1977
1977
1978
1978
1978
1979
1979
1980
1982
1983
1984
1985
1987
1988
1989
1990
1991
1993
1995
1998
2001
2004
2006
2008
2010
2011
2012
2013
2016
2018
2020
2021
2020
2018
2015
2011
2007
2003
1998
1994
1991
1987
1984
1980
1978
1975
1974
1973
1973
1973
1973
1973
1973
1972
1971
1970
1970
1971
1972
1973
1973
1974
1973
1972
1972
1971
1971
1971
1972
1973
1974
1974
1974
1973
1973
1973
1973
1973
1974
1974
1975
1975
1975
1975
1974
1974
1973
1973
1973
1974
1974
1975
1974
1974
1972
1971
1971
1972
1973
1974
1975
1975
1974
1973
1972
1971
1971
1971
1972
1973
1974
1974
1974
1973
1972
1971
1971
1971
1971
1972
1972
1973
1973
1973
1973
1972
1971
1971
1971
1972
1973
1974
1974
1974
1973
1972
1972
1972
1972
1973
1973
1973
1973
1973
1972
1972
1972
1972
1972
1972
1972
1973
1973
1974
1975
1976
1978
1979
1980
1980
1980
1979
1977
1975
1973
1971
1970
1971
1972
1973
1974
1975
1975
1973
1970
1964
1958
1954
1955
1965
1987
2023
2072
2129
2179
2205
2197
2154
2091
2030
1984
1962
1958
1961
1963
1961
1959
1958
1958
1959
1959
1959
1958
1958
1957
1957
1957
1957
1958
1959
1960
1961
1961
1961
1960
1960
1960
1961
1962
1964
1965
1965
1965
1966
1966
1966
1967
1968
1969
1970
1971
1972
1974
1976
1977
1979
1981
1983
1986
1988
1991
1993
1994
1996
1998
1999
2001
2002
2004
2005
2005
2004
2002
1998
1994
1990
1986
1982
1979
1975
1972
1969
1967
1964
1963
1961
1961
1961
1961
1962
1962
1962
1961
1961
1960
1960
1961
1961
1962
1963
1963
1964
1964
1963
1963
1962
1962
1963
1964
1964
1965
1965
1965
1965
1964
1963
1963
1962
1962
1963
1964
1965
1964
1963
1962
1962
1962
1962
1963
1964
1964
1964
1963
1963
1962
1962
1962
1962
1962
1963
1963
1963
1963
1963
1962
1962
1962
1963
1963
1964
1964
1964
1964
1964
1963
1962
1962
1962
1963
1964
1965
1966
1966
1965
1964
1963
1963
1963
1964
1965
1965
1965
1965
1965
1964
1964
1964
1964
1965
1965
1965
1966
1966
1965
1965
1965
1964
1964
1964
1964
1965
1965
1966
1967
1968
1969
1970
1972
1973
1975
1975
1975
1973
1972
1970
1968
1966
1966
1966
1967
1967
1967
1967
1967
1967
1964
1960
1954
1950
1950
1958
1978
2010
2054
2107
2158
2189
2190
2156
2099
2037
1989
1962
1954
1956
1959
1959
1956
1955
1955
1955
1955
1955
1955
1955
1955
1955
1956
1956
1956
1957
1958
1958
1959
1958
1958
1957
1957
1958
1960
1961
1963
1963
1963
1962
1962
1963
1964
1965
1967
1968
1970
1971
1972
1973
1975
1976
1978
1981
1984
1987
1989
1991
1992
1993
1995
1997
1999
2000
2002
2003
2003
2003
2001
1998
1993
1989
1984
1980
1977
1974
1970
1967
1964
1962
1960
1959
1959
1958
1958
1958
1957
1957
1956
1957
1957
1957
1958
1958
1959
1959
1960
1960
1960
1959
1959
1959
1958
1959
1959
1959
1959
1960
1959
1959
1959
1958
1958
1958
1959
1959
1958
1957
1956
1955
1955
1956
1956
1956
1956
1955
1956
1956
1956
1956
1956
1956
1955
1955
1956
1956
1956
1957
1956
1956
1955
1954
1954
1954
1955
1956
1956
1956
1955
1954
1954
1955
1955
1956
1956
1957
1957
1957
1956
1956
1956
1956
1956
1957
1958
1959
1959
1958
1957
1956
1955
1955
1955
1956
1957
1957
1957
1957
1957
1957
1958
1960
1962
1964
1966
1966
1966
1965
1963
1961
1959
1957
1957
1957
1958
1958
1959
1959
1960
1960
1957
1953
1947
1942
1941
1950
1971
2006
2052
2106
2155
2184
2183
2148
2091
2032
1985
1958
1950
1950
1952
1952
1950
1949
1949
1949
1950
1950
1950
1949
1949
1949
1950
1950
1951
1953
1954
1954
1955
1955
1955
1955
1955
1956
1957
1959
1960
1961
1962
1962
1963
1964
1965
1966
1968
1970
1971
1972
1972
1972
1974
1976
1980
1984
1987
1990
1993
1996
1998
2001
2002
2004
2005
2007
2009
2010
2011
2010
2007
2002
1996
1991
1986
1982
1978
1974
1970
1966
1963
1960
1958
1957
1956
1956
1955
1955
1955
1956
1956
1956
1955
1956
1956
1957
1958
1958
1958
1958
1958
1958
1958
1959
1960
1961
1962
1964
1964
1964
1964
1963
1962
1962
1963
1964
1965
1966
1966
1966
1966
1965
1965
1965
1965
1965
1965
1965
1966
1966
1967
1967
1967
1967
1967
1968
1968
1969
1969
1968
1968
1968
1968
1968
1968
1968
1969
1970
1971
1971
1971
1970
1970
1969
1968
1968
1969
1970
1972
1973
1975
1976
1978
1979
1980
1981
1981
1980
1979
1978
1976
1974
1973
1972
1972
1972
1974
1976
1977
1978
1976
1971
1964
1958
1955
1960
1976
2005
2048
2102
2157
2198
2209
2184
2130
2065
2010
1976
1963
1964
1967
1968
1966
1964
1964
1964
1964
1965
1965
1965
1965
1964
1964
1964
1964
1965
1966
1967
1968
1968
1968
1968
1968
1969
1969
1970
1971
1972
1973
1974
1974
1975
1975
1975
1977
1979
1981
1983
1985
1986
1987
1988
1990
1992
1995
1998
2001
2004
2006
2007
2009
2010
2011
2013
2014
2015
2015
2014
2012
2009
2005
2000
1995
1990
1986
1983
1980
1979
1977
1976
1974
1973
1973
1972
1972
1972
1973
1973
1974
1974
1974
1974
1973
1973
1973
1973
1974
1975
1976
1976
1976
1976
1976
1976
1975
1976
1976
1977
1978
1978
1977
1976
1975
1975
1976
1977
1978
1978
1978
1978
1977
1977
1976
1976
1976
1977
1978
1978
1979
1979
1979
1978
1977
1976
1977
1978
1978
1979
1979
1979
1978
1978
1977
1977
1978
1978
1979
1979
1980
1980
1979
1979
1978
1978
1979
1979
1979
1979
1979
1979
1979
1979
1980
1980
1980
1980
1980
1981
1981
1981
1981
1981
1980
1979
1979
1980
1981
1983
1984
1986
1987
1988
1989
1990
1990
1990
1989
1987
1986
1984
1982
1982
1982
1982
1982
1983
1984
1985
1985
1982
1976
1970
1965
1967
1978
2003
2041
2091
2147
2195
2217
2204
2158
2095
2035
1994
1975
1972
1975
1977
1975
1972
1971
1971
1971
1971
1972
1973
1973
1974
1973
1973
1972
1972
1972
1973
1974
1975
1976
1976
1977
1977
1977
1977
1978
1979
1980
1981
1981
1982
1983
1984
1984
1986
1987
1989
1990
1992
1993
1995
1997
1998
2000
2002
2004
2007
2010
2012
2014
2015
2016
2017
2018
2020
2021
2021
2020
2018
2015
2011
2007
2002
1998
1993
1990
1987
1985
1984
1983
1982
1980
1979
1978
1977
1977
1977
1978
1979
1979
1980
1980
1979
1979
1978
1978
1978
1979
1980
1981
1981
1981
1980
1979
1979
1979
1980
1981
1981
1981
1981
1980
1979
1978
1977
1977
1978
1979
1980
1980
1980
1979
1978
1977
1977
1977
1977
1978
1979
1979
1979
1978
1977
1977
1977
1977
1977
1978
1978
1978
1978
1977
1977
1976
1976
1977
1977
1978
1978
1978
1977
1977
1976
1976
1976
1976
1976
1977
1978
1978
1978
1978
1978
1977
1976
1975
1975
1976
1976
1977
1977
1977
1976
1976
1975
1975
1976
1976
1977
1977
1976
1976
1975
1975
1974
1975
1976
1977
1979
1981
1983
1984
1984
1984
1983
1981
1980
1978
1977
1977
1976
1976
1975
1975
1975
1976
1977
1977
1975
1970
1964
1959
1959
1969
1992
2029
2078
2134
2183
2208
2198
2155
2091
2030
1986
1964
1960
1964
1967
1966
1963
1962
1960
1960
1960
1960
1960
1961
1961
1962
1962
1962
1962
1962
1963
1963
1964
1965
1965
1965
1965
1965
1965
1965
1965
1966
1967
1968
1970
1971
1971
1972
1972
1973
1974
1975
1978
1980
1983
1985
1986
1988
1989
1990
1993
1995
1998
2001
2004
2005
2007
2008
2008
2008
2008
2007
2005
2002
1998
1993
1988
1982
1976
1971
1967
1965
1964
1963
1962
1962
1960
1959
1958
1957
1956
1956
1957
1957
1958
1959
1959
1959
1959
1958
1958
1958
1958
1959
1959
1959
1959
1959
1959
1959
1959
1959
1959
1959
1960
1960
1960
1960
1959
1959
1959
1958
1959
1959
1960
1960
1960
1960
1959
1959
1958
1958
1959
1959
1960
1961
1961
1961
1960
1960
1959
1959
1960
1961
1962
1963
1963
1962
1961
1960
1960
1959
1959
1960
1960
1960
1961
1961
1962
1963
1965
1968
1970
1971
1971
1971
1969
1968
1966
1964
1964
1963
1964
1964
1965
1965
1966
1967
1967
1965
1959
1952
1947
1947
1956
1978
2014
2062
2117
2166
2194
2189
2152
2093
2034
1989
1965
1958
1959
1962
1962
1960
1959
1959
1959
1959
1959
1959
1959
1959
1960
1960
1961
1962
1964
1964
1965
1965
1965
1965
1965
1966
1967
1968
1970
1971
1971
1972
1972
1973
1973
1974
1976
1977
1979
1981
1982
1984
1985
1987
1988
1990
1993
1996
2000
2002
2005
2006
2008
2009
2010
2012
2013
2015
2016
2015
2013
2010
2005
2000
1995
1991
1986
1982
1978
1975
1972
1970
1969
1968
1967
1967
1967
1967
1967
1967
1967
1967
1967
1967
1967
1967
1968
1969
1969
1970
1970
1970
1969
1969
1970
1970
1971
1971
1972
1972
1972
1972
1972
1971
1971
1972
1973
1975
1975
1975
1975
1974
1973
1972
1972
1973
1974
1975
1975
1975
1975
1974
1973
1973
1973
1974
1974
1975
1976
1977
1976
1976
1975
1974
1974
1975
1976
1976
1977
1977
1976
1975
1974
1973
1973
1973
1973
1974
1976
1977
1979
1981
1983
1984
1985
1985
1984
1983
1982
1981
1980
1979
1978
1977
1977
1977
1977
1978
1979
1980
1979
1976
1970
1964
1960
1965
1980
2009
2052
2107
2163
2204
2215
2189
2133
2068
2013
1979
1968
1969
1973
1974
1972
1969
1968
1967
1968
1969
1970
1970
1970
1970
1970
1969
1969
1970
1970
1971
1972
1973
1973
1974
1973
1973
1974
1974
1976
1977
1978
1979
1979
1980
1981
1981
1981
1982
1983
1985
1987
1989
1991
1993
1994
1995
1997
2000
2003
2006
2008
2010
2012
2013
2013
2014
2015
2016
2017
2016
2015
2012
2008
2004
1999
1994
1990
1986
1984
1981
1980
1978
1978
1977
1976
1976
1976
1976
1976
1977
1977
1978
1978
1978
1977
1977
1977
1977
1978
1979
1979
1980
1979
1979
1978
1978
1978
1978
1978
1978
1978
1978
1978
1978
1978
1979
1979
1979
1978
1979
1979
1980
1981
1980
1980
1979
1978
1978
1979
1980
1981
1981
1980
1979
1979
1979
1979
1980
1980
1981
1981
1981
1981
1980
1980
1980
1979
1980
1981
1982
1983
1983
1983
1982
1981
1981
1981
1981
1981
1982
1982
1981
1981
1981
1981
1981
1981
1981
1981
1981
1982
1982
1982
1983
1983
1984
1986
1988
1990
1991
1991
1991
1990
1987
1985
1983
1982
1982
1982
1983
1983
1984
1985
1985
1984
1980
1975
1970
1966
1967
1976
1996
2028
2073
2127
2177
2208
2207
2171
2112
2050
2003
1977
1971
1973
1976
1975
1972
1971
1971
1971
1971
1971
1971
1970
1970
1970
1971
1971
1972
1972
1973
1973
1973
1973
1973
1973
1973
1974
1975
1977
1978
1978
1978
1978
1978
1979
1980
1981
1982
1984
1985
1986
1987
1988
1990
1991
1993
1996
1998
2000
2003
2005
2006
2008
2009
2010
2011
2013
2015
2015
2015
2014
2012
2008
2004
2000
1996
1992
1988
1985
1982
1979
1977
1975
1973
1973
1973
1973
1973
1973
1973
1973
1973
1973
1973
1972
1972
1973
1974
1974
1975
1974
1974
1973
1973
1973
1974
1974
1975
1975
1975
1975
1974
1973
1973
1973
1973
1974
1975
1975
1975
1975
1975
1974
1974
1974
1973
1973
1973
1973
1973
1974
1974
1974
1973
1973
1972
1972
1973
1974
1974
1974
1973
1972
1972
1971
1971
1972
1972
1973
1973
1973
1972
1972
1971
1971
1971
1972
1972
1972
1972
1972
1972
1972
1971
1971
1971
1972
1972
1973
1974
1973
1973
1972
1970
1970
1970
1971
1972
1972
1973
1972
1972
1971
1970
1970
1970
1971
1973
1975
1977
1978
1979
1980
1980
1979
1978
1976
1975
1973
1972
1971
1971
1970
1970
1970
1970
1971
1972
1970
1966
1960
1955
1954
1963
1983
2018
2065
2121
2172
2201
2197
2159
2099
2038
1991
1965
1958
1961
1964
1964
1962
1960
1959
1958
1957
1957
1958
1959
1960
1961
1961
1960
1960
1960
1960
1961
1962
1963
1964
1964
1965
1965
1965
1965
1965
1966
1967
1969
1970
1971
1972
1972
1972
1973
1974
1976
1978
1980
1982
1984
1987
1989
1991
1993
1995
1997
1999
2002
2005
2007
2008
2009
2010
2010
2009
2008
2007
2005
2001
1996
1991
1985
1980
1975
1971
1968
1966
1964
1963
1961
1960
1959
1958
1958
1958
1958
1958
1958
1959
1960
1960
1960
1959
1959
1959
1959
1960
1962
1963
1963
1963
1963
1963
1963
1963
1962
1962
1963
1964
1965
1965
1965
1965
1964
1964
1964
1965
1966
1966
1966
1966
1966
1966
1966
1966
1966
1966
1966
1966
1967
1967
1968
1968
1968
1968
1968
1968
1968
1969
1969
1969
1969
1969
1969
1969
1969
1969
1969
1969
1969
1969
1968
1967
1967
1967
1968
1970
1973
1975
1977
1978
1979
1979
1978
1977
1975
1973
1972
1971
1971
1971
1972
1972
1972
1972
1973
1973
1972
1968
1962
1956
1953
1959
1976
2007
2051
2107
2161
2198
2205
2177
2121
2057
2004
1972
1961
1962
1967
1968
1967
1965
1964
1963
1962
1962
1962
1963
1964
1965
1966
1966
1966
1966
1966
1966
1967
1968
1969
1970
1970
1970
1970
1971
1971
1972
1973
1974
1975
1976
1977
1978
1979
1980
1981
1983
1984
1986
1988
1990
1992
1995
1997
1999
2000
2002
2004
2007
2009
2012
2013
2014
2015
2014
2013
2011
2009
2006
2002
1998
1993
1988
1984
1979
1976
1973
1971
1970
1969
1969
1969
1968
1968
1968
1968
1968
1968
1968
1969
1970
1970
1969
1969
1968
1968
1969
1969
1970
1971
1971
1972
1972
1972
1972
1972
1971
1971
1971
1972
1973
1973
1974
1973
1973
1972
1972
1972
1973
1974
1974
1974
1974
1974
1974
1973
1973
1973
1973
1974
1975
1976
1975
1975
1974
1973
1973
1974
1974
1975
1976
1976
1976
1976
1975
1975
1974
1974
1975
1975
1976
1976
1976
1976
1975
1975
1975
1975
1975
1976
1977
1977
1977
1978
1977
1977
1976
1975
1976
1976
1977
1977
1977
1977
1976
1975
1975
1975
1977
1980
1982
1985
1986
1987
1987
1986
1984
1983
1982
1980
1980
1979
1979
1979
1978
1978
1979
1980
1981
1980
1977
1972
1966
1962
1964
1975
1999
2038
2089
2148
2197
2221
2208
2160
2093
2031
1987
1967
1965
1969
1972
1971
1970
1969
1968
1967
1967
1966
1967
1967
1968
1969
1969
1969
1969
1969
1969
1969
1970
1971
1972
1973
1973
1973
1973
1973
1974
1975
1976
1976
1978
1979
1979
1980
1981
1982
1983
1985
1986
1988
1990
1991
1993
1995
1997
1999
2001
2003
2005
2008
2011
2013
2014
2016
2016
2016
2015
2014
2012
2010
2006
2002
1997
1993
1989
1985
1982
1979
1978
1977
1976
1975
1975
1974
1973
1973
1973
1973
1973
1974
1975
1975
1976
1976
1975
1975
1974
1974
1975
1976
1977
1978
1977
1976
1976
1975
1975
1976
1977
1977
1977
1978
1978
1978
1977
1977
1976
1977
1977
1977
1978
1978
1978
1977
1977
1977
1977
1976
1976
1977
1977
1978
1978
1978
1978
1977
1976
1976
1977
1977
1978
1978
1978
1978
1977
1977
1977
1977
1977
1978
1978
1978
1978
1978
1977
1977
1977
1977
1978
1979
1979
1979
1979
1979
1978
1977
1977
1977
1977
1978
1978
1979
1979
1979
1979
1978
1978
1977
1977
1978
1979
1980
1980
1979
1979
1978
1977
1977
1978
1979
1979
1979
1979
1979
1978
1978
1978
1978
1978
1980
1982
1984
1986
1987
1988
1987
1987
1986
1985
1984
1983
1982
1981
1979
1979
1978
1978
1979
1980
1981
1980
1976
1970
1964
1961
1966
1982
2012
2054
2109
2164
2205
2215
2188
2132
2066
2011
1977
1964
1966
1970
1971
1970
1968
1966
1965
1965
1965
1966
1967
1967
1967
1967
1967
1966
1967
1967
1968
1969
1969
1970
1971
1971
1971
1971
1971
1971
1972
1973
1974
1975
1976
1977
1978
1978
1979
1979
1980
1982
1985
1987
1989
1990
1992
1993
1994
1995
1998
2000
2003
2006
2008
2009
2010
2011
2011
2011
2012
2011
2010
2007
2004
1999
1994
1989
1984
1980
1976
1974
1973
1971
1970
1969
1968
1967
1966
1966
1966
1966
1967
1967
1967
1968
1968
1968
1967
1967
1967
1967
1968
1969
1969
1969
1969
1968
1968
1967
1967
1968
1969
1970
1970
1970
1970
1969
1969
1968
1968
1969
1969
1969
1969
1969
1969
1968
1968
1968
1968
1968
1969
1969
1969
1970
1969
1969
1968
1967
1967
1967
1968
1969
1970
1970
1969
1968
1968
1967
1967
1967
1967
1968
1968
1968
1967
1967
1966
1966
1966
1967
1967
1967
1967
1967
1967
1967
1966
1966
1965
1966
1966
1967
1967
1967
1966
1966
1966
1966
1966
1966
1967
1967
1967
1967
1967
1966
1964
1964
1963
1964
1966
1968
1969
1971
1971
1972
1973
1974
1975
1976
1975
1974
1972
1970
1968
1967
1967
1967
1967
1968
1969
1971
1972
1971
1965
1957
1951
1949
1957
1978
2012
2058
2113
2164
2195
2196
2162
2105
2044
1995
1968
1959
1961
1964
1964
1962
1960
1959
1959
1959
1959
1960
1960
1960
1961
1961
1960
1960
1961
1962
1963
1963
1964
1965
1965
1966
1966
1967
1967
1968
1969
1970
1972
1973
1974
1974
1975
1976
1977
1979
1981
1983
1984
1986
1988
1990
1992
1995
1998
2001
2004
2006
2008
2011
2012
2014
2015
2016
2017
2018
2018
2017
2014
2010
2004
1998
1992
1987
1983
1979
1977
1974
1972
1970
1968
1966
1965
1965
1965
1965
1966
1966
1967
1967
1966
1966
1965
1965
1966
1967
1968
1969
1970
1970
1970
1969
1969
1969
1970
1971
1971
1972
1973
1973
1973
1972
1971
1971
1971
1971
1972
1972
1972
1972
1972
1972
1972
1971
1972
1972
1973
1974
1974
1974
1974
1973
1972
1972
1972
1972
1973
1974
1974
1974
1974
1973
1973
1973
1973
1973
1974
1975
1975
1975
1974
1973
1973
1973
1974
1974
1975
1975
1975
1975
1975
1974
1974
1973
1973
1973
1974
1974
1975
1975
1974
1973
1973
1974
1976
1979
1982
1984
1985
1985
1984
1982
1980
1978
1977
1976
1976
1976
1977
1977
1977
1977
1978
1978
1976
1972
1967
1961
1959
1963
1979
2008
2050
2105
2162
2204
2216
2192
2136
2069
2013
1976
1963
1963
1967
1969
1968
1967
1967
1966
1966
1965
1964
1964
1964
1965
1966
1967
1967
1968
1968
1968
1968
1969
1969
1969
1970
1971
1972
1972
1973
1973
1973
1973
1973
1974
1976
1978
1979
1980
1981
1982
1983
1984
1985
1987
1990
1993
1995
1998
2000
2002
2004
2006
2008
2010
2011
2013
2015
2016
2017
2016
2013
2010
2006
2002
1998
1994
1990
1985
1981
1977
1974
1972
1971
1971
1971
1971
1971
1971
1970
1970
1970
1970
1970
1971
1972
1973
1973
1973
1973
1972
1972
1972
1972
1973
1973
1974
1974
1975
1974
1974
1973
1973
1973
1974
1974
1975
1975
1975
1975
1975
1975
1975
1975
1975
1976
1976
1976
1976
1975
1975
1974
1974
1974
1974
1975
1975
1975
1975
1975
1974
1974
1974
1974
1974
1975
1976
1976
1976
1975
1974
1973
1973
1974
1975
1975
1976
1976
1976
1976
1975
1975
1975
1975
1975
1975
1976
1976
1977
1976
1976
1975
1975
1975
1975
1976
1977
1977
1978
1977
1977
1976
1976
1977
1977
1978
1979
1979
1979
1978
1978
1977
1977
1978
1978
1979
1979
1979
1978
1977
1977
1976
1976
1977
1978
1979
1981
1983
1985
1986
1987
1987
1987
1986
1985
1984
1983
1981
1980
1979
1978
1978
1979
1980
1981
1982
1982
1979
1973
1967
1963
1964
1976
2000
2039
2090
2147
2196
2220
2207
2160
2095
2033
1990
1971
1969
1973
1976
1974
1971
1970
1969
1969
1969
1969
1970
1970
1971
1971
1971
1970
1970
1970
1971
1972
1974
1975
1976
1976
1976
1977
1977
1977
1978
1978
1979
1980
1981
1982
1984
1985
1985
1986
1987
1989
1991
1994
1996
1998
1999
2001
2003
2005
2007
2010
2013
2016
2018
2019
2020
2021
2022
2022
2023
2024
2023
2021
2018
2014
2009
2004
2000
1996
1993
1990
1988
1987
1986
1985
1984
1983
1983
1982
1982
1982
1982
1983
1984
1984
1985
1984
1984
1984
1984
1984
1985
1986
1986
1986
1986
1985
1985
1986
1986
1987
1988
1988
1988
1988
1987
1987
1986
1986
1987
1987
1988
1988
1989
1988
1988
1987
1986
1986
1986
1986
1987
1988
1988
1988
1988
1988
1987
1987
1987
1987
1988
1988
1988
1988
1987
1986
1986
1985
1986
1986
1987
1988
1988
1987
1987
1986
1986
1986
1986
1986
1986
1987
1987
1987
1987
1987
1986
1986
1986
1987
1987
1988
1988
1988
1987
1987
1986
1986
1986
1987
1987
1987
1987
1987
1986
1986
1986
1986
1986
1987
1987
1988
1988
1989
1988
1988
1987
1986
1985
1985
1986
1987
1988
1988
1987
1987
1985
1984
1984
1984
1984
1985
1986
1987
1988
1989
1990
1992
1993
1993
1992
1991
1990
1988
1987
1985
1984
1983
1983
1984
1986
1987
1987
1985
1980
1974
1968
1966
1973
1992
2025
2070
2126
2178
2213
2215
2183
2125
2061
2010
1981
1971
1973
1977
1977
1975
1972
1971
1971
1971
1972
1972
1973
1973
1972
1972
1972
1972
1972
1973
1973
1974
1974
1975
1975
1975
1975
1975
1976
1977
1977
1978
1978
1978
1979
1980
1981
1982
1983
1985
1987
1988
1990
1991
1992
1994
1995
1998
2001
2004
2007
2010
2012
2014
2015
2017
2018
2019
2020
2021
2020
2019
2017
2014
2010
2005
1999
1993
1989
1984
1981
1978
1976
1973
1972
1970
1968
1967
1967
1967
1967
1968
1968
1968
1968
1968
1968
1968
1968
1969
1970
1970
1971
1971
1971
1971
1971
1971
1971
1971
1971
1972
1972
1973
1973
1972
1972
1971
1972
1972
1973
1974
1974
1974
1973
1973
1972
1972
1972
1972
1973
1974
1974
1974
1974
1973
1973
1973
1973
1974
1974
1974
1975
1974
1974
1974
1973
1973
1973
1974
1974
1975
1975
1975
1975
1975
1975
1974
1975
1975
1975
1976
1976
1976
1976
1976
1975
1975
1975
1976
1976
1977
1977
1977
1977
1978
1980
1982
1984
1986
1987
1988
1988
1987
1985
1983
1981
1980
1979
1980
1980
1981
1981
1981
1982
1981
1979
1975
1969
1964
1963
1971
1990
2022
2066
2120
2172
2207
2212
2182
2126
2063
2012
1981
1971
1971
1975
1975
1974
1972
1972
1972
1971
1970
1969
1969
1969
1970
1972
1973
1974
1974
1975
1975
1975
1975
1975
1975
1975
1976
1978
1979
1980
1980
1981
1981
1981
1981
1982
1984
1986
1988
1989
1991
1991
1992
1993
1994
1996
1999
2002
2005
2008
2011
2013
2015
2016
2017
2019
2021
2023
2025
2025
2024
2022
2018
2013
2008
2003
1998
1994
1991
1987
1983
1980
1976
1974
1973
1972
1973
1973
1974
1974
1973
1973
1972
1972
1972
1972
1973
1973
1974
1975
1975
1975
1975
1975
1975
1975
1975
1976
1976
1976
1976
1975
1975
1975
1975
1975
1976
1976
1977
1977
1977
1977
1976
1975
1975
1975
1975
1976
1976
1977
1977
1977
1976
1975
1975
1975
1976
1976
1977
1977
1977
1977
1976
1976
1976
1976
1976
1977
1977
1977
1978
1978
1977
1977
1977
1977
1977
1977
1978
1978
1978
1977
1977
1977
1977
1977
1977
1978
1978
1977
1977
1977
1976
1976
1976
1976
1977
1978
1979
1981
1983
1985
1986
1986
1986
1985
1984
1983
1982
1981
1980
1979
1978
1978
1978
1978
1979
1980
1980
1977
1973
1967
1961
1961
1969
1990
2023
2070
2126
2178
2210
2208
2171
2109
2046
1996
1970
1963
1966
1969
1969
1967
1965
1964
1964
1964
1964
1964
1965
1965
1965
1965
1965
1965
1965
1966
1966
1967
1967
1968
1968
1968
1968
1969
1970
1970
1971
1972
1973
1974
1975
1975
1976
1976
1977
1978
1980
1981
1983
1985
1987
1989
1991
1992
1994
1997
2000
2003
2006
2007
2008
2008
2008
2009
2011
2012
2012
2011
2008
2005
2001
1996
1991
1986
1982
1979
1976
1974
1973
1972
1972
1971
1970
1969
1968
1968
1968
1969
1970
1971
1971
1970
1970
1970
1970
1970
1971
1971
1972
1973
1973
1972
1971
1971
1971
1972
1972
1973
1974
1974
1973
1973
1973
1972
1972
1972
1973
1973
1974
1974
1974
1973
1973
1972
1972
1972
1972
1972
1973
1973
1973
1973
1973
1973
1972
1972
1972
1973
1973
1973
1973
1973
1972
1972
1972
1972
1972
1973
1973
1974
1973
1973
1972
1972
1972
1972
1973
1973
1974
1974
1974
1974
1973
1973
1972
1972
1972
1973
1974
1975
1975
1974
1974
1973
1972
1972
1973
1973
1973
1973
1974
1974
1975
1976
1977
1979
1980
1982
1983
1983
1983
1981
1978
1976
1974
1973
1973
1974
1975
1976
1977
1977
1977
1975
1971
1966
1961
1958
1961
1973
1997
2034
2083
2138
2183
2204
2191
2145
2083
2025
1984
1965
1962
1965
1967
1966
1964
1964
1964
1964
1964
1963
1962
1962
1962
1962
1963
1964
1965
1966
1966
1966
1966
1965
1965
1965
1965
1967
1968
1969
1970
1970
1970
1970
1971
1972
1973
1975
1976
1977
1978
1978
1979
1980
1982
1985
1987
1990
1992
1995
1997
1998
2000
2002
2003
2005
2006
2008
2010
2011
2011
2010
2008
2004
2000
1996
1992
1988
1984
1980
1976
1973
1970
1968
1967
1966
1966
1966
1966
1966
1966
1966
1966
1965
1965
1965
1966
1967
1967
1967
1966
1965
1964
1964
1964
1965
1966
1967
1968
1968
1968
1968
1967
1966
1965
1965
1966
1967
1967
1968
1968
1967
1966
1966
1965
1965
1965
1966
1966
1966
1966
1965
1964
1964
1964
1964
1965
1966
1966
1966
1966
1966
1966
1965
1964
1964
1964
1964
1965
1965
1966
1965
1965
1964
1964
1964
1964
1965
1965
1965
1965
1965
1964
1964
1964
1964
1964
1965
1965
1964
1964
1963
1963
1963
1963
1963
1964
1964
1964
1964
1964
1964
1965
1966
1968
1970
1972
1973
1974
1975
1974
1972
1969
1967
1965
1964
1964
1964
1965
1966
1967
1967
1968
1966
1963
1958
1952
1948
1950
1961
1986
2024
2073
2128
2174
2196
2185
2142
2080
2022
1980
1959
1954
1956
1958
1957
1955
1955
1955
1955
1955
1955
1954
1954
1954
1954
1954
1955
1956
1956
1956
1956
1956
1957
1957
1958
1959
1961
1962
1963
1964
1965
1965
1965
1966
1966
1967
1969
1970
1972
1973
1975
1976
1978
1980
1982
1984
1988
1991
1994
1997
1999
2001
2003
2005
2007
2009
2011
2012
2013
2013
2012
2009
2005
2001
1996
1991
1986
1982
1977
1973
1969
1966
1963
1961
1960
1960
1960
1960
1960
1960
1960
1960
1960
1960
1960
1961
1962
1962
1963
1963
1963
1963
1963
1963
1964
1965
1966
1966
1966
1966
1965
1965
1966
1966
1966
1967
1967
1968
1968
1968
1968
1968
1968
1967
1967
1967
1967
1968
1969
1969
1969
1968
1968
1967
1967
1968
1968
1968
1968
1968
1968
1968
1968
1969
1969
1969
1969
1969
1970
1970
1970
1969
1968
1967
1967
1968
1970
1972
1974
1977
1979
1980
1980
1978
1977
1976
1975
1974
1974
1973
1972
1970
1969
1970
1971
1973
1974
1974
1970
1965
1958
1955
1958
1971
1998
2040
2094
2151
2196
2212
2191
2137
2071
2013
1976
1961
1961
1966
1968
1966
1964
1963
1961
1960
1959
1959
1959
1960
1961
1962
1962
1962
1961
1961
1961
1962
1963
1964
1965
1966
1966
1966
1966
1966
1966
1967
1969
1970
1972
1973
1974
1974
1975
1975
1977
1978
1980
1983
1985
1987
1990
1992
1995
1997
1999
2002
2004
2007
2009
2011
2012
2012
2012
2012
2011
2010
2007
2004
2000
1995
1989
1984
1980
1976
1973
1971
1970
1969
1969
1968
1967
1966
1965
1965
1966
1967
1967
1967
1967
1967
1967
1967
1967
1967
1968
1968
1969
1969
1970
1970
1970
1970
1970
1970
1970
1970
1970
1970
1970
1971
1971
1971
1971
1971
1971
1972
1973
1974
1974
1974
1973
1972
1971
1971
1971
1972
1973
1973
1973
1973
1973
1973
1972
1972
1972
1972
1973
1973
1974
1974
1974
1974
1973
1973
1973
1974
1974
1975
1975
1975
1975
1974
1974
1973
1973
1973
1974
1974
1973
1973
1972
1972
1972
1974
1976
1978
1981
1983
1984
1985
1984
1983
1980
1978
1976
1976
1977
1978
1978
1978
1977
1977
1977
1978
1978
1977
1973
1967
1962
1961
1968
1987
2019
2063
2119
2172
2207
2208
2173
2112
2048
1997
1969
1962
1965
1969
1970
1968
1967
1966
1965
1964
1963
1963
1964
1964
1965
1966
1967
1967
1966
1966
1966
1966
1966
1967
1969
1970
1971
1972
1971
1971
1970
1971
1972
1974
1975
1977
1978
1979
1979
1980
1981
1982
1983
1985
1987
1990
1992
1995
1997
1999
2001
2002
2004
2006
2007
2009
2011
2012
2012
2012
2010
2008
2005
2002
1999
1996
1992
1988
1984
1981
1977
1975
1973
1972
1971
1971
1971
1971
1970
1970
1970
1970
1970
1970
1971
1971
1971
1971
1971
1971
1971
1971
1971
1971
1971
1972
1973
1973
1973
1973
1972
1972
1971
1972
1972
1973
1973
1973
1972
1971
1970
1969
1969
1970
1971
1972
1972
1972
1971
1971
1970
1970
1970
1971
1972
1973
1973
1973
1972
1971
1970
1970
1971
1971
1971
1972
1972
1972
1972
1972
1972
1971
1971
1971
1972
1973
1973
1973
1973
1972
1972
1971
1971
1972
1973
1974
1974
1974
1973
1972
1971
1971
1971
1972
1973
1973
1973
1973
1973
1974
1975
1976
1978
1980
1982
1983
1982
1981
1979
1977
1975
1973
1972
1972
1973
1975
1976
1977
1978
1977
1975
1971
1966
1961
1958
1959
1969
1990
2023
2069
2123
2171
2198
2191
2151
2091
2031
1987
1965
1960
1963
1965
1965
1964
1963
1963
1963
1962
1962
1961
1961
1960
1961
1961
1962
1963
1963
1963
1963
1962
1962
1962
1963
1964
1965
1966
1967
1967
1968
1968
1968
1968
1969
1970
1971
1972
1974
1975
1976
1977
1978
1980
1981
1983
1986
1988
1990
1992
1994
1995
1997
1998
2000
2002
2004
2005
2006
2006
2005
2003
2000
1996
1991
1987
1983
1979
1975
1972
1969
1966
1964
1963
1962
1961
1961
1961
1961
1960
1960
1959
1959
1959
1959
1960
1960
1961
1961
1961
1961
1961
1960
1960
1960
1960
1961
1961
1961
1961
1961
1960
1960
1960
1961
1961
1961
1961
1960
1960
1960
1960
1959
1959
1959
1959
1960
1960
1960
1960
1959
1958
1957
1957
1957
1957
1957
1958
1958
1957
1957
1957
1957
1957
1957
1957
1957
1957
1958
1958
1958
1958
1957
1956
1955
1955
1956
1957
1958
1958
1958
1958
1957
1956
1956
1956
1956
1957
1957
1958
1959
1960
1962
1964
1966
1967
1968
1967
1965
1962
1960
1958
1957
1956
1956
1957
1958
1959
1961
1962
1962
1959
1954
1947
1942
1940
1948
1968
2001
2047
2101
2153
2186
2189
2158
2103
2042
1993
1964
1954
1954
1956
1956
1954
1952
1951
1951
1952
1953
1954
1954
1953
1953
1952
1953
1954
1956
1957
1957
1958
1958
1958
1959
1959
1960
1961
1963
1964
1966
1967
1968
1968
1968
1969
1970
1972
1974
1976
1978
1979
1980
1982
1983
1985
1987
1991
1994
1997
2001
2003
2005
2007
2009
2010
2012
2013
2014
2015
2015
2014
2010
2005
2000
1994
1988
1984
1979
1976
1972
1970
1967
1965
1964
1963
1962
1963
1963
1963
1964
1963
1963
1963
1963
1963
1964
1965
1966
1967
1968
1968
1968
1968
1968
1968
1968
1969
1970
1970
1971
1971
1970
1970
1969
1970
1970
1971
1972
1972
1972
1972
1972
1971
1970
1970
1970
1971
1972
1973
1973
1973
1973
1973
1973
1973
1973
1973
1973
1973
1973
1974
1973
1973
1972
1971
1971
1971
1972
1973
1975
1976
1978
1980
1981
1982
1982
1981
1981
1980
1979
1978
1977
1976
1976
1976
1976
1977
1977
1978
1978
1976
1971
1965
1959
1956
1961
1977
2009
2054
2111
2168
2209
2218
2189
2130
2063
2008
1975
1964
1966
1970
1970
1968
1966
1965
1965
1966
1966
1967
1967
1966
1966
1966
1966
1966
1967
1968
1969
1970
1970
1971
1971
1970
1970
1970
1971
1972
1973
1974
1976
1976
1977
1977
1977
1978
1980
1982
1985
1987
1988
1990
1991
1992
1994
1997
1999
2002
2005
2008
2010
2011
2013
2014
2014
2015
2015
2015
2014
2012
2008
2004
1999
1994
1990
1986
1983
1980
1978
1977
1976
1975
1974
1972
1971
1971
1971
1971
1972
1973
1973
1973
1973
1973
1973
1973
1973
1974
1974
1975
1976
1976
1976
1975
1975
1975
1975
1975
1976
1977
1979
1979
1979
1978
1977
1977
1976
1976
1977
1978
1978
1978
1978
1977
1976
1976
1976
1977
1978
1978
1978
1978
1977
1977
1977
1977
1977
1978
1978
1978
1979
1979
1978
1978
1977
1976
1976
1976
1976
1977
1977
1977
1977
1976
1976
1975
1975
1975
1976
1976
1977
1977
1977
1976
1976
1975
1975
1975
1975
1975
1975
1975
1975
1976
1977
1978
1979
1981
1982
1983
1984
1983
1982
1980
1977
1975
1974
1974
1975
1976
1977
1977
1977
1977
1976
1973
1968
1962
1958
1959
1968
1989
2024
2071
2128
2181
2212
2208
2168
2105
2041
1992
1966
1960
1962
1965
1964
1962
1962
1962
1962
1962
1962
1962
1962
1961
1961
1962
1962
1962
1963
1964
1964
1964
1964
1964
1964
1965
1966
1967
1968
1968
1969
1969
1969
1970
1970
1972
1973
1975
1977
1978
1979
1980
1981
1982
1984
1987
1990
1993
1996
1998
1999
2001
2004
2007
2009
2011
2012
2012
2012
2012
2012
2010
2007
2003
1999
1995
1990
1986
1982
1978
1974
1971
1969
1967
1966
1965
1965
1964
1964
1964
1963
1963
1963
1963
1964
1965
1966
1966
1967
1967
1967
1966
1966
1965
1965
1965
1966
1966
1967
1967
1967
1967
1966
1966
1966
1966
1967
1967
1967
1967
1967
1967
1966
1966
1966
1966
1967
1969
1969
1970
1969
1968
1967
1966
1967
1967
1968
1968
1968
1968
1968
1968
1967
1967
1968
1968
1968
1969
1969
1969
1969
1968
1968
1968
1967
1968
1968
1969
1970
1970
1970
1971
1972
1974
1976
1979
1980
1980
1979
1978
1975
1973
1972
1971
1971
1972
1972
1972
1972
1973
1974
1975
1974
1970
1965
1958
1955
1958
1971
1998
2038
2088
2142
2186
2203
2187
2140
2078
2022
1983
1966
1963
1966
1968
1967
1966
1965
1965
1966
1966
1966
1966
1966
1966
1966
1967
1968
1969
1970
1971
1972
1972
1972
1972
1972
1973
1974
1975
1976
1977
1977
1978
1978
1978
1978
1979
1981
1983
1985
1987
1989
1990
1991
1993
1995
1997
2000
2003
2006
2009
2012
2014
2016
2017
2019
2020
2021
2022
2022
2022
2020
2017
2012
2007
2002
1997
1993
1989
1986
1982
1979
1977
1974
1973
1972
1972
1972
1973
1973
1973
1973
1973
1973
1973
1974
1974
1974
1975
1975
1975
1975
1974
1974
1974
1974
1975
1976
1976
1976
1976
1976
1975
1975
1975
1975
1976
1977
1978
1978
1978
1977
1977
1977
1977
1977
1977
1978
1977
1977
1977
1976
1976
1975
1975
1976
1977
1977
1978
1977
1977
1976
1976
1976
1976
1976
1976
1977
1977
1977
1977
1976
1976
1976
1976
1977
1978
1978
1979
1979
1979
1978
1978
1977
1977
1977
1977
1977
1978
1978
1978
1978
1977
1977
1976
1976
1977
1977
1979
1980
1982
1983
1985
1985
1986
1986
1986
1986
1986
1984
1983
1981
1979
1978
1978
1978
1979
1980
1981
1982
1980
1976
1970
1964
1961
1965
1980
2008
2049
2104
2162
2205
2220
2197
2143
2075
2017
1980
1967
1967
1972
1974
1972
1970
1968
1968
1968
1968
1968
1969
1969
1969
1969
1969
1970
1970
1971
1972
1972
1973
1973
1972
1972
1972
1973
1973
1974
1975
1977
1978
1979
1980
1980
1980
1980
1981
1982
1984
1986
1988
1990
1991
1992
1993
1994
1996
1999
2002
2005
2008
2009
2011
2012
2013
2013
2014
2015
2016
2015
2013
2010
2006
2001
1996
1992
1988
1984
1982
1980
1978
1977
1976
1975
1974
1973
1973
1973
1974
1975
1975
1976
1975
1975
1974
1974
1974
1975
1976
1976
1976
1976
1977
1977
1977
1977
1977
1976
1976
1977
1977
1977
1977
1976
1975
1976
1976
1977
1978
1978
1978
1977
1976
1975
1975
1975
1976
1976
1976
1977
1977
1977
1977
1977
1977
1977
1977
1976
1976
1976
1977
1977
1977
1976
1976
1975
1975
1976
1977
1977
1977
1977
1977
1976
1975
1975
1976
1976
1977
1978
1978
1978
1978
1977
1977
1977
1978
1979
1979
1979
1979
1979
1978
1978
1978
1977
1977
1978
1978
1979
1979
1979
1979
1978
1977
1977
1977
1977
1977
1978
1978
1978
1978
1978
1979
1981
1983
1986
1989
1990
1990
1988
1986
1984
1982
1980
1980
1980
1980
1980
1980
1980
1981
1981
1981
1980
1976
1970
1966
1964
1971
1988
2017
2060
2115
2169
2206
2212
2182
2125
2060
2008
1977
1967
1968
1972
1973
1971
1970
1969
1969
1968
1968
1967
1967
1967
1968
1968
1969
1969
1970
1970
1970
1970
1971
1971
1971
1972
1972
1973
1974
1974
1974
1974
1975
1975
1976
1977
1978
1980
1981
1982
1983
1984
1985
1986
1988
1990
1992
1994
1997
1999
2000
2002
2003
2005
2006
2008
2010
2011
2012
2013
2013
2011
2009
2006
2002
1999
1995
1991
1987
1983
1980
1976
1974
1972
1971
1971
1971
1971
1971
1970
1969
1969
1969
1969
1970
1971
1971
1971
1971
1971
1970
1969
1969
1970
1970
1971
1971
1971
1971
1971
1971
1971
1970
1970
1969
1969
1969
1970
1971
1971
1971
1971
1970
1969
1969
1969
1970
1970
1970
1970
1970
1969
1968
1968
1968
1969
1970
1970
1971
1971
1970
1969
1968
1968
1968
1969
1969
1970
1970
1970
1970
1969
1969
1968
1969
1969
1970
1970
1970
1970
1970
1969
1968
1968
1969
1969
1970
1970
1970
1969
1969
1968
1968
1968
1969
1969
1969
1970
1970
1971
1970
1970
1969
1968
1967
1967
1967
1968
1969
1969
1969
1968
1967
1967
1967
1967
1968
1968
1969
1970
1972
1974
1975
1977
1978
1978
1978
1977
1975
1972
1970
1968
1968
1968
1968
1969
1970
1970
1971
1970
1966
1961
1954
1950
1952
1964
1989
2028
2078
2132
2178
2198
2185
2141
2079
2022
1981
1962
1958
1960
1962
1961
1958
1956
1955
1955
1956
1957
1958
1958
1958
1958
1958
1958
1959
1959
1960
1961
1961
1961
1962
1962
1962
1963
1963
1964
1966
1967
1968
1969
1969
1969
1970
1971
1972
1974
1976
1978
1980
1982
1983
1985
1986
1988
1991
1993
1996
1999
2001
2003
2005
2007
2008
2010
2011
2013
2014
2013
2012
2009
2005
2000
1994
1989
1985
1981
1977
1974
1970
1967
1965
1963
1962
1961
1961
1961
1961
1962
1962
1962
1962
1962
1962
1962
1962
1962
1963
1964
1965
1966
1966
1965
1964
1964
1964
1965
1966
1967
1968
1968
1967
1967
1967
1967
1967
1967
1968
1968
1969
1969
1969
1969
1968
1968
1968
1968
1969
1969
1969
1969
1970
1970
1970
1970
1970
1970
1971
1972
1972
1972
1971
1971
1970
1970
1971
1971
1972
1973
1973
1973
1972
1971
1970
1970
1970
1971
1973
1974
1974
1974
1973
1972
1972
1971
1971
1971
1972
1973
1974
1975
1977
1978
1980
1981
1982
1982
1982
1982
1981
1979
1977
1975
1973
1972
1972
1973
1974
1975
1977
1977
1975
1970
1964
1957
1954
1959
1976
2005
2048
2102
2158
2199
2211
2186
2131
2066
2010
1975
1963
1963
1967
1968
1966
1964
1963
1963
1963
1964
1964
1964
1964
1964
1964
1964
1965
1966
1967
1968
1968
1968
1968
1968
1968
1969
1970
1970
1971
1972
1973
1973
1974
1974
1974
1975
1976
1977
1979
1980
1982
1983
1985
1986
1988
1990
1992
1995
1998
2001
2003
2005
2006
2007
2008
2010
2011
2012
2013
2014
2012
2010
2006
2001
1996
1991
1987
1984
1981
1978
1975
1973
1970
1969
1967
1967
1967
1967
1968
1969
1969
1970
1969
1969
1969
1969
1968
1969
1969
1970
1970
1971
1971
1971
1971
1971
1971
1971
1971
1971
1972
1972
1972
1972
1972
1972
1972
1972
1973
1974
1974
1973
1973
1972
1972
1972
1972
1972
1973
1974
1975
1975
1975
1974
1974
1973
1973
1973
1973
1973
1973
1973
1973
1974
1974
1974
1974
1974
1974
1975
1975
1975
1974
1974
1973
1973
1973
1974
1975
1975
1975
1975
1975
1975
1974
1974
1974
1974
1974
1975
1975
1975
1975
1974
1973
1973
1974
1975
1977
1979
1981
1983
1984
1985
1984
1983
1982
1981
1979
1978
1978
1977
1977
1976
1976
1976
1976
1978
1978
1977
1973
1967
1962
1960
1965
1981
2012
2055
2110
2164
2202
2209
2179
2122
2056
2004
1973
1963
1965
1970
1971
1969
1967
1966
1964
1964
1964
1965
1965
1966
1967
1967
1966
1966
1965
1965
1966
1967
1968
1970
1970
1971
1971
1970
1970
1971
1972
1973
1975
1976
1977
1977
1977
1977
1978
1978
1980
1982
1984
1987
1989
1990
1992
1994
1995
1997
1999
2001
2004
2007
2009
2010
2011
2011
2011
2011
2011
2011
2009
2007
2003
1999
1994
1989
1985
1981
1979
1976
1975
1974
1973
1972
1971
1970
1969
1969
1969
1969
1970
1971
1972
1972
1971
1971
1970
1970
1970
1971
1972
1972
1973
1973
1973
1973
1972
1971
1971
1971
1972
1972
1973
1973
1972
1972
1971
1971
1971
1971
1971
1972
1973
1973
1972
1971
1970
1970
1970
1971
1971
1972
1972
1972
1972
1971
1970
1970
1970
1970
1971
1972
1972
1972
1971
1970
1970
1970
1970
1971
1971
1971
1971
1971
1971
1971
1971
1971
1971
1971
1971
1972
1972
1972
1972
1971
1971
1971
1970
1970
1970
1971
1971
1971
1971
1970
1970
1970
1970
1972
1974
1976
1977
1978
1979
1979
1979
1977
1975
1973
1972
1971
1971
1971
1971
1971
1971
1971
1972
1972
1970
1965
1959
1954
1954
1963
1984
2018
2064
2119
2168
2197
2193
2155
2095
2035
1989
1965
1958
1960
1963
1962
1960
1959
1957
1956
1955
1955
1955
1955
1956
1957
1958
1958
1958
1958
1958
1959
1959
1960
1961
1962
1963
1963
1963
1963
1963
1964
1965
1966
1967
1968
1970
1971
1972
1972
1973
1975
1976
1979
1981
1983
1985
1987
1989
1991
1993
1995
1997
1999
2002
2004
2006
2008
2009
2009
2009
2008
2006
2003
2000
1996
1992
1987
1982
1976
1971
1967
1964
1962
1961
1960
1959
1959
1958
1957
1957
1956
1957
1958
1958
1959
1959
1959
1959
1959
1959
1960
1960
1961
1962
1962
1962
1962
1962
1961
1961
1961
1962
1963
1963
1964
1964
1964
1963
1962
1962
1962
1962
1963
1964
1965
1965
1965
1964
1963
1963
1963
1963
1963
1964
1964
1965
1965
1965
1965
1964
1964
1964
1965
1966
1966
1967
1966
1966
1965
1964
1964
1964
1964
1965
1966
1967
1968
1970
1972
1973
1974
1975
1974
1973
1971
1970
1969
1968
1968
1968
1968
1969
1969
1971
1972
1972
1970
1964
1957
1951
1951
1962
1986
2023
2072
2127
2175
2199
2191
2150
2090
2031
1988
1966
1961
1964
1967
1967
1965
1964
1964
1964
1964
1964
1964
1965
1966
1966
1966
1966
1966
1966
1967
1968
1969
1970
1970
1971
1972
1972
1972
1973
1973
1974
1974
1975
1976
1977
1977
1978
1979
1981
1982
1984
1987
1989
1991
1992
1994
1995
1997
2000
2003
2006
2010
2012
2014
2016
2016
2017
2017
2018
2018
2017
2015
2011
2005
2000
1994
1989
1985
1982
1979
1977
1975
1973
1972
1971
1970
1970
1969
1969
1970
1970
1971
1971
1972
1972
1971
1971
1971
1971
1972
1973
1973
1974
1974
1973
1973
1973
1973
1973
1974
1974
1975
1975
1975
1975
1974
1974
1973
1973
1974
1974
1975
1975
1974
1974
1974
1973
1973
1972
1973
1974
1975
1975
1975
1975
1974
1973
1973
1974
1975
1975
1976
1976
1976
1975
1974
1974
1974
1974
1974
1975
1976
1976
1976
1975
1974
1974
1974
1974
1974
1974
1974
1974
1974
1974
1975
1976
1977
1979
1981
1983
1984
1985
1983
1981
1979
1977
1976
1975
1976
1977
1977
1978
1978
1978
1978
1977
1974
1970
1964
1959
1959
1969
1990
2024
2071
2128
2179
2209
2204
2165
2103
2041
1994
1970
1964
1966
1968
1967
1965
1965
1966
1966
1966
1966
1965
1965
1965
1965
1966
1967
1968
1968
1968
1968
1968
1968
1968
1968
1969
1970
1971
1972
1973
1974
1974
1974
1974
1975
1976
1978
1980
1981
1982
1983
1984
1985
1986
1988
1991
1993
1995
1998
2000
2002
2003
2005
2006
2008
2010
2012
2013
2014
2013
2012
2010
2007
2003
1999
1995
1991
1988
1984
1981
1978
1976
1974
1972
1972
1971
1971
1972
1973
1973
1973
1973
1972
1972
1973
1974
1975
1975
1974
1974
1973
1973
1973
1974
1974
1974
1975
1975
1976
1976
1976
1975
1975
1974
1974
1975
1975
1976
1976
1976
1976
1975
1974
1974
1974
1974
1975
1975
1975
1975
1975
1975
1974
1974
1974
1974
1974
1975
1976
1976
1976
1975
1974
1974
1975
1975
1975
1976
1976
1975
1975
1974
1974
1974
1974
1975
1975
1976
1977
1977
1977
1976
1975
1974
1974
1974
1975
1977
1977
1978
1977
1976
1975
1975
1975
1975
1976
1976
1976
1976
1976
1977
1977
1978
1980
1982
1984
1986
1987
1986
1985
1983
1980
1978
1977
1976
1977
1978
1978
1979
1978
1979
1979
1978
1976
1972
1967
1962
1962
1969
1988
2020
2064
2119
2171
2203
2203
2167
2108
2047
1998
1971
1964
1966
1969
1969
1968
1967
1967
1967
1966
1965
1965
1965
1965
1966
1967
1968
1969
1969
1968
1968
1967
1967
1968
1970
1971
1973
1973
1973
1972
1972
1973
1973
1974
1976
1977
1978
1979
1980
1981
1982
1983
1984
1985
1987
1989
1992
1995
1997
1999
2001
2002
2004
2005
2007
2008
2010
2011
2012
2013
2012
2010
2008
2005
2001
1998
1994
1990
1987
1984
1980
1977
1975
1973
1972
1972
1972
1972
1972
1972
1971
1971
1971
1971
1972
1973
1974
1974
1974
1973
1972
1972
1972
1973
1973
1973
1973
1973
1973
1973
1973
1972
1972
1972
1972
1972
1972
1973
1973
1973
1973
1972
1972
1971
1971
1972
1972
1972
1972
1972
1971
1971
1971
1971
1971
1972
1972
1972
1971
1971
1971
1970
1970
1970
1971
1971
1971
1972
1972
1972
1971
1971
1970
1970
1970
1971
1972
1972
1972
1971
1971
1970
1970
1970
1970
1971
1971
1971
1970
1970
1969
1969
1969
1969
1970
1970
1971
1971
1971
1971
1971
1970
1970
1970
1970
1971
1971
1971
1971
1970
1970
1969
1969
1970
1973
1975
1978
1979
1980
1979
1977
1975
1973
1972
1971
1970
1970
1970
1970
1970
1969
1969
1970
1970
1969
1966
1961
1955
1953
1957
1973
2002
2044
2097
2150
2188
2198
2172
2119
2056
2003
1969
1956
1956
1960
1962
1961
1960
1959
1958
1957
1957
1956
1956
1957
1958
1959
1960
1960
1960
1960
1959
1959
1960
1961
1962
1963
1964
1965
1965
1965
1965
1966
1967
1968
1970
1972
1973
1974
1975
1975
1975
1976
1978
1979
1982
1984
1986
1988
1990
1992
1995
1998
2001
2003
2005
2006
2008
2008
2009
2009
2009
2008
2006
2004
2000
1996
1991
1985
1980
1976
1972
1968
1965
1963
1962
1961
1961
1960
1959
1958
1957
1957
1957
1957
1958
1958
1959
1959
1959
1959
1959
1958
1958
1959
1959
1960
1961
1961
1961
1960
1960
1960
1960
1960
1961
1961
1962
1962
1962
1962
1961
1960
1960
1960
1961
1962
1962
1962
1962
1962
1961
1961
1961
1961
1962
1963
1964
1965
1965
1964
1963
1962
1962
1962
1963
1964
1965
1965
1964
1964
1963
1963
1964
1964
1965
1966
1966
1966
1966
1965
1965
1965
1965
1966
1966
1967
1967
1967
1967
1967
1967
1966
1965
1965
1966
1969
1971
1974
1976
1977
1978
1978
1978
1977
1976
1975
1973
1972
1971
1970
1970
1970
1971
1972
1974
1975
1975
1971
1965
1958
1953
1955
1968
1994
2033
2083
2138
2183
2204
2191
2146
2085
2027
1987
1967
1964
1968
1970
1969
1967
1966
1965
1965
1966
1967
1968
1968
1967
1966
1965
1965
1966
1967
1968
1969
1970
1970
1971
1971
1972
1972
1972
1972
1973
1975
1976
1977
1978
1978
1978
1979
1980
1981
1982
1984
1987
1989
1991
1992
1993
1995
1997
1999
2002
2004
2007
2009
2011
2013
2014
2015
2016
2016
2016
2015
2014
2011
2008
2003
1997
1992
1987
1983
1979
1977
1975
1973
1972
1971
1970
1968
1968
1967
1968
1968
1969
1971
1971
1971
1971
1970
1969
1970
1971
1972
1974
1974
1975
1974
1974
1974
1973
1974
1974
1975
1975
1976
1976
1977
1977
1976
1975
1974
1974
1974
1974
1975
1975
1976
1976
1976
1976
1976
1977
1977
1978
1978
1979
1978
1978
1977
1977
1977
1978
1979
1979
1980
1980
1980
1980
1979
1979
1978
1978
1978
1979
1980
1980
1980
1980
1980
1979
1980
1980
1981
1981
1982
1982
1981
1981
1981
1981
1981
1981
1982
1983
1983
1983
1983
1982
1982
1982
1982
1982
1981
1980
1980
1980
1980
1982
1983
1985
1987
1989
1990
1992
1992
1992
1991
1989
1987
1985
1983
1983
1983
1983
1983
1983
1983
1983
1983
1982
1979
1974
1969
1966
1969
1983
2010
2050
2104
2161
2206
2222
2201
2148
2082
2024
1986
1971
1970
1974
1976
1975
1974
1973
1973
1972
1972
1972
1972
1972
1972
1972
1973
1974
1974
1974
1974
1974
1974
1975
1976
1976
1977
1978
1979
1979
1980
1980
1980
1981
1981
1983
1984
1986
1987
1988
1989
1989
1990
1991
1993
1995
1997
2000
2002
2004
2006
2007
2009
2010
2012
2014
2016
2018
2019
2020
2019
2018
2016
2012
2008
2005
2001
1998
1994
1991
1987
1984
1981
1979
1978
1977
1977
1977
1977
1977
1977
1976
1975
1975
1975
1977
1978
1979
1979
1978
1977
1977
1976
1977
1978
1978
1979
1980
1980
1980
1980
1979
1979
1979
1979
1979
1980
1980
1981
1981
1981
1980
1980
1979
1979
1979
1979
1980
1980
1981
1981
1980
1979
1979
1979
1980
1981
1981
1981
1981
1981
1981
1980
1979
1979
1979
1979
1980
1981
1981
1981
1981
1980
1980
1980
1980
1981
1981
1982
1982
1981
1981
1980
1980
1980
1980
1981
1982
1982
1983
1982
1982
1981
1981
1981
1982
1982
1982
1982
1982
1982
1982
1981
1981
1981
1981
1981
1981
1982
1982
1982
1982
1983
1984
1985
1987
1989
1990
1990
1990
1988
1986
1983
1981
1979
1979
1979
1980
1981
1981
1982
1982
1980
1977
1972
1967
1963
1965
1976
2000
2036
2084
2139
2186
2208
2197
2153
2090
2032
1990
1970
1966
1969
1971
1970
1968
1967
1966
1966
1965
1965
1965
1965
1965
1965
1966
1967
1967
1968
1968
1968
1968
1969
1969
1970
1970
1971
1971
1972
1972
1973
1973
1973
1974
1974
1975
1976
1978
1980
1981
1982
1983
1984
1985
1987
1990
1992
1995
1997
1998
2000
2002
2004
2005
2007
2009
2011
2012
2013
2014
2013
2010
2007
2002
1998
1993
1989
1986
1982
1978
1973
1969
1966
1964
1963
1962
1962
1962
1962
1961
1960
1959
1958
1959
1960
1961
1962
1963
1962
1962
1962
1961
1961
1961
1962
1962
1963
1963
1963
1964
1964
1964
1964
1964
1964
1964
1964
1965
1965
1965
1964
1964
1963
1963
1963
1963
1964
1964
1964
1964
1964
1963
1963
1963
1963
1964
1964
1964
1964
1964
1963
1963
1962
1962
1961
1962
1962
1963
1964
1964
1963
1962
1962
1961
1961
1962
1962
1963
1964
1964
1963
1963
1962
1962
1962
1962
1963
1964
1964
1964
1964
1962
1961
1960
1960
1961
1964
1967
1970
1972
1973
1972
1971
1970
1969
1967
1966
1965
1964
1964
1964
1964
1964
1964
1965
1966
1967
1965
1960
1954
1948
1947
1955
1975
2009
2054
2107
2156
2185
2184
2150
2094
2035
1988
1962
1954
1955
1959
1959
1958
1957
1955
1954
1954
1953
1954
1954
1955
1956
1956
1956
1956
1957
1957
1958
1958
1959
1960
1961
1962
1962
1962
1962
1962
1963
1964
1966
1967
1968
1968
1969
1970
1971
1972
1974
1976
1978
1979
1981
1983
1985
1987
1989
1992
1995
1998
2000
2002
2004
2005
2006
2007
2007
2008
2008
2007
2005
2002
1997
1991
1985
1980
1976
1972
1969
1967
1965
1963
1962
1961
1961
1960
1959
1959
1958
1959
1959
1960
1961
1961
1962
1962
1962
1962
1963
1963
1963
1964
1964
1964
1964
1964
1965
1965
1965
1966
1967
1967
1968
1968
1968
1968
1967
1967
1967
1967
1968
1968
1968
1968
1968
1968
1968
1967
1967
1968
1969
1970
1970
1970
1969
1967
1965
1965
1967
1969
1970
1971
1971
1970
1969
1968
1968
1969
1969
1970
1970
1970
1971
1971
1970
1970
1969
1968
1969
1969
1970
1971
1972
1971
1970
1969
1968
1968
1969
1969
1971
1972
1974
1976
1977
1978
1979
1979
1979
1979
1978
1977
1975
1974
1973
1972
1972
1972
1972
1973
1974
1975
1973
1969
1964
1958
1955
1960
1975
2004
2047
2101
2158
2199
2210
2183
2127
2061
2006
1973
1961
1962
1966
1966
1964
1962
1961
1960
1960
1960
1961
1961
1962
1962
1963
1963
1962
1962
1962
1963
1964
1965
1965
1965
1966
1966
1966
1967
1967
1968
1969
1970
1972
1973
1973
1974
1974
1974
1975
1977
1979
1981
1983
1985
1986
1988
1990
1992
1994
1996
1999
2001
2003
2005
2006
2007
2009
2010
2010
2010
2009
2007
2004
1999
1995
1990
1985
1982
1979
1976
1973
1971
1970
1970
1970
1970
1969
1969
1968
1968
1968
1968
1968
1969
1969
1969
1969
1969
1970
1970
1970
1971
1971
1971
1971
1970
1969
1969
1968
1969
1970
1971
1972
1971
1971
1971
1971
1971
1971
1971
1971
1971
1971
1970
1970
1970
1970
1970
1970
1971
1971
1972
1972
1971
1971
1970
1970
1970
1970
1971
1971
1971
1972
1972
1972
1972
1971
1971
1970
1970
1970
1971
1971
1971
1971
1971
1971
1972
1972
1972
1971
1971
1971
1971
1971
1970
1970
1970
1970
1970
1970
1970
1970
1971
1972
1974
1976
1977
1978
1978
1978
1977
1975
1971
1968
1965
1963
1963
1964
1965
1966
1967
1969
1970
1968
1963
1956
1949
1947
1953
1971
2003
2048
2101
2155
2192
2199
2171
2115
2050
1997
1965
1955
1956
1960
1960
1957
1954
1953
1954
1954
1955
1955
1955
1955
1955
1955
1954
1955
1955
1956
1957
1958
1958
1958
1957
1957
1958
1959
1961
1963
1965
1965
1966
1965
1965
1965
1966
1969
1971
1973
1975
1976
1978
1980
1982
1985
1987
1990
1992
1995
1998
2000
2001
2003
2004
2006
2009
2012
2014
2014
2014
2013
2010
2006
2001
1995
1990
1985
1980
1977
1973
1970
1968
1965
1964
1963
1962
1962
1963
1963
1963
1962
1961
1961
1961
1962
1963
1963
1963
1963
1964
1965
1967
1968
1968
1967
1966
1966
1966
1967
1968
1969
1970
1970
1969
1968
1968
1968
1969
1971
1972
1971
1970
1969
1968
1968
1968
1969
1970
1970
1970
1970
1970
1969
1969
1969
1970
1970
1970
1970
1969
1969
1970
1971
1971
1971
1971
1970
1970
1969
1969
1969
1969
1969
1969
1969
1968
1968
1968
1968
1970
1972
1975
1978
1980
1981
1981
1980
1978
1976
1974
1973
1973
1973
1974
1974
1974
1974
1975
1977
1978
1976
1972
1966
1960
1959
1966
1985
2017
2062
2119
2173
2209
2212
2179
2120
2054
2004
1975
1968
1971
1975
1975
1971
1969
1968
1968
1968
1969
1970
1971
1971
1971
1971
1971
1970
1969
1969
1971
1972
1973
1974
1973
1973
1973
1974
1975
1976
1977
1978
1978
1978
1978
1978
1978
1979
1980
1982
1984
1986
1987
1989
1991
1993
1995
1997
1999
2002
2004
2007
2009
2011
2012
2014
2015
2016
2016
2016
2015
2013
2010
2005
2001
1996
1993
1989
1985
1981
1977
1975
1974
1974
1973
1973
1972
1971
1971
1970
1970
1971
1972
1973
1974
1974
1974
1973
1973
1973
1974
1974
1975
1975
1976
1976
1976
1976
1977
1977
1976
1976
1976
1975
1975
1974
1975
1975
1976
1976
1976
1976
1976
1976
1975
1975
1975
1975
1975
1976
1977
1976
1975
1974
1973
1973
1974
1976
1977
1977
1977
1976
1976
1975
1975
1974
1974
1975
1975
1976
1977
1977
1977
1976
1976
1976
1976
1976
1976
1975
1974
1974
1974
1976
1977
1977
1977
1976
1976
1976
1977
1980
1983
1986
1988
1988
1986
1984
1982
1980
1979
1978
1976
1975
1975
1976
1977
1978
1980
1980
1977
1973
1967
1961
1960
1967
1985
2016
2060
2116
2171
2210
2216
2184
2124
2057
2003
1973
1964
1966
1970
1972
1971
1970
1971
1971
1970
1968
1966
1964
1965
1967
1970
1973
1974
1974
1973
1971
1970
1971
1972
1974
1975
1975
1974
1975
1976
1979
1981
1981
1982
1982
1983
1984
1986
1987
1988
1987
1987
1988
1989
1992
1995
1999
2002
2004
2005
2006
2007
2009
2011
2014
2016
2018
2019
2019
2019
2018
2016
2015
2013
2010
2007
2002
1998
1994
1990
1987
1984
1982
1980
1980
1980
1980
1980
1980
1981
1981
1981
1980
1980
1980
1981
1981
1982
1982
1982
1982
1981
1982
1982
1984
1985
1985
1984
1984
1984
1984
1984
1983
1982
1982
1982
1983
1983
1984
1983
1982
1981
1981
1982
1982
1983
1983
1982
1980
1979
1978
1978
1978
1979
1980
1980
1980
1979
1978
1979
1979
1980
1981
1981
1982
1982
1981
1981
1980
1979
1978
1978
1978
1979
1979
1980
1981
1981
1981
1981
1980
1979
1978
1979
1979
1980
1981
1981
1981
1981
1981
1980
1980
1980
1980
1981
1983
1985
1987
1989
1989
1989
1990
1990
1990
1989
1987
1984
1982
1979
1978
1978
1978
1979
1980
1982
1983
1982
1979
1973
1966
1962
1965
1979
2006
2046
2097
2151
2192
2206
2185
2134
2070
2015
1980
1966
1966
1970
1972
1971
1969
1967
1965
1964
1964
1965
1966
1967
1968
1968
1968
1968
1968
1968
1968
1968
1968
1968
1968
1968
1969
1970
1972
1973
1974
1974
1973
1973
1973
1973
1974
1975
1977
1978
1979
1981
1983
1985
1987
1988
1990
1991
1993
1995
1998
2000
2002
2003
2005
2005
2007
2008
2009
2011
2012
2011
2009
2006
2001
1996
1991
1986
1982
1978
1976
1976
1976
1975
1974
1971
1969
1967
1966
1966
1967
1969
1969
1970
1970
1970
1969
1968
1968
1968
1968
1970
1972
1974
1975
1974
1973
1971
1970
1970
1970
1971
1972
1971
1970
1969
1969
1969
1969
1970
1970
1969
1969
1968
1968
1968
1967
1966
1966
1968
1970
1972
1972
1970
1967
1964
1963
1964
1966
1968
1969
1969
1969
1968
1968
1967
1968
1968
1969
1969
1969
1970
1971
1972
1971
1970
1970
1970
1971
1974
1976
1977
1976
1975
1975
1975
1974
1973
1973
1974
1975
1977
1977
1977
1976
1975
1976
1979
1983
1986
1988
1987
1985
1983
1981
1980
1979
1977
1976
1975
1975
1977
1978
1980
1981
1980
1977
1973
1967
1963
1962
1969
1988
2022
2070
2128
2181
2213
2210
2173
2112
2049
2002
1976
1969
1971
1974
1974
1972
1971
1971
1971
1972
1972
1971
1970
1968
1968
1969
1972
1975
1977
1978
1977
1975
1973
1973
1975
1978
1980
1982
1982
1980
1979
1979
1979
1981
1982
1985
1988
1990
1992
1993
1992
1991
1992
1993
1996
1999
2002
2005
2006
2007
2009
2011
2014
2016
2017
2018
2020
2021
2022
2022
2020
2018
2016
2013
2010
2006
2001
1995
1990
1986
1982
1979
1975
1972
1970
1969
1969
1969
1970
1971
1973
1974
1975
1974
1973
1972
1970
1969
1969
1969
1971
1973
1974
1975
1975
1973
1973
1973
1974
1975
1975
1976
1976
1975
1974
1973
1972
1974
1976
1978
1978
1978
1976
1975
1974
1973
1972
1972
1972
1973
1975
1977
1978
1979
1978
1978
1978
1977
1977
1977
1977
1976
1975
1975
1976
1979
1981
1981
1979
1976
1974
1973
1973
1975
1976
1978
1980
1981
1982
1981
1980
1979
1980
1983
1987
1990
1991
1991
1988
1985
1983
1982
1982
1983
1984
1983
1981
1980
1981
1983
1984
1982
1976
1970
1966
1971
1987
2018
2065
2125
2184
2225
2232
2199
2137
2066
2011
1979
1971
1975
1980
1981
1978
1974
1972
1971
1972
1974
1976
1977
1977
1977
1976
1974
1973
1972
1973
1975
1977
1980
1981
1980
1979
1979
1979
1981
1984
1985
1985
1983
1982
1981
1983
1987
1989
1991
1992
1993
1994
1995
1997
1997
1998
1999
2002
2006
2011
2015
2017
2018
2018
2018
2020
2022
2024
2025
2025
2024
2022
2019
2015
2010
2004
1998
1993
1990
1988
1985
1983
1980
1979
1978
1979
1978
1977
1975
1973
1972
1974
1976
1977
1977
1976
1974
1972
1971
1972
1974
1976
1977
1977
1977
1977
1977
1977
1977
1976
1976
1976
1976
1976
1977
1977
1976
1976
1976
1978
1979
1980
1979
1977
1976
1975
1976
1978
1980
1981
1980
1978
1976
1975
1976
1977
1978
1979
1979
1980
1981
1982
1984
1985
1984
1981
1978
1976
1976
1977
1980
1983
1984
1984
1983
1981
1980
1980
1980
1981
1981
1979
1976
1974
1974
1975
1978
1979
1978
1977
1975
1974
1974
1976
1977
1977
1977
1978
1981
1984
1987
1989
1989
1986
1983
1979
1977
1976
1976
1977
1977
1977
1975
1974
1972
1972
1971
1969
1966
1961
1956
1955
1963
1984
2020
2070
2130
2187
2221
2220
2181
2115
2048
1996
1968
1961
1963
1966
1965
1963
1962
1963
1964
1964
1964
1964
1964
1965
1966
1967
1967
1967
1967
1968
1970
1973
1974
1975
1976
1977
1978
1979
1980
1979
1979
1979
1982
1985
1987
1987
1984
1982
1981
1983
1987
1992
1996
1996
1996
1996
1997
2000
2004
2006
2008
2009
2010
2012
2014
2017
2020
2022
2024
2025
2023
2020
2015
2011
2007
2004
2002
2000
1996
1992
1988
1985
1983
1981
1980
1980
1980
1980
1980
1980
1981
1982
1983
1983
1982
1982
1983
1984
1985
1986
1987
1986
1985
1983
1982
1982
1982
1983
1984
1983
1982
1980
1979
1979
1979
1980
1980
1980
1980
1980
1980
1979
1978
1978
1977
1977
1977
1977
1977
1977
1977
1976
1975
1975
1975
1976
1976
1977
1976
1976
1975
1974
1973
1972
1972
1972
1973
1974
1975
1974
1974
1973
1972
1973
1973
1974
1974
1974
1974
1974
1974
1974
1973
1972
1971
1971
1971
1971
1971
1970
1970
1970
1970
1971
1971
1971
1970
1969
1968
1967
1967
1967
1968
1970
1972
1975
1977
1978
1977
1976
1973
1971
1969
1968
1968
1968
1969
1969
1969
1969
1968
1967
1965
1961
1956
1950
1947
1950
1962
1988
2029
2082
2140
2187
2204
2184
2129
2057
1991
1946
1925
1922
1926
1929
1929
1927
1926
1924
1924
1924
1924
1924
1925
1925
1925
1926
1926
1927
1927
1927
1927
1928
1929
1931
1932
1933
1934
1935
1936
1939
1940
1942
1942
1943
1943
1945
1947
1949
1952
1954
1956
1957
1958
1960
1963
1967
1970
1974
1977
1980
1982
1984
1986
1989
1992
1994
1997
1998
1998
1999
1999
1998
1995
1991
1985
1979
1975
1971
1969
1965
1960
1955
1950
1947
1946
1946
1946
1947
1947
1947
1948
1950
1952
1953
1954
1955
1956
1957
1959
1960
1961
1961
1961
1961
1962
1964
1966
1968
1970
1972
1973
1974
1975
1976
1976
1977
1979
1981
1984
1985
1986
1986
1987
1989
1993
1998
2002
2006
2009
2012
2016
2019
2022
2025
2027
2030
2033
2036
2039
2040
2040
2040
2039
2040
2041
2041
2041
2040
2038
2036
2033
2031
2029
2029
2030
2033
2035
2036
2036
2034
2035
2040
2049
2059
2068
2073
2072
2069
2064
2059
2056
2053
2051
2050
2049
2049
2050
2049
2047
2041
2032
2025
2022
2029
2048
2082
2131
2190
2248
2287
2291
2257
2193
2121
2062
2029
2018
2018
2022
2022
2019
2017
2017
2017
2017
2016
2016
2015
2015
2015
2015
2015
2015
2014
2014
2014
2015
2016
2016
2015
2013
2012
2012
2014
2016
2017
2018
2018
2018
2017
2017
2016
2016
2016
2018
2021
2023
2026
2027
2029
2030
2032
2034
2037
2039
2042
2044
2046
2047
2048
2048
2048
2049
2051
2051
2050
2048
2046
2041
2035
2029
2023
2018
2014
2010
2008
2006
2005
2004
2003
2002
2001
1999
1998
1998
1999
2001
2003
2006
2008
2010
2010
2010
2008
2007
2007
2008
2010
2012
2013
2013
2012
2012
2013
2014
2015
2016
2016
2017
2019
2020
2021
2021
2020
2020
2021
2023
2024
2025
2024
2024
2023
2023
2024
2025
2025
2025
2023
2022
2021
2021
2022
2022
2022
2022
2022
2022
2022
2022
2020
2019
2018
2018
2018
2017
2016
2014
2012
2010
2009
2008
2008
2008
2008
2008
2009
2010
2011
2010
2009
2006
2003
2000
1997
1995
1993
1992
1992
1993
1993
1993
1993
1991
1986
1979
1972
1968
1970
1982
2008
2048
2102
2162
2212
2236
2221
2172
2103
2039
1995
1976
1973
1977
1978
1976
1973
1972
1972
1973
1974
1975
1975
1974
1973
1973
1974
1976
1978
1978
1978
1976
1976
1975
1975
1975
1974
1975
1977
1979
1981
1981
1980
1979
1980
1982
1984
1986
1987
1987
1988
1989
1989
1989
1989
1991
1994
1999
2004
2007
2009
2010
2011
2013
2014
2015
2017
2019
2021
2022
2021
2018
2014
2010
2006
2001
1997
1992
1988
1984
1980
1977
1973
1970
1969
1969
1971
1972
1972
1970
1967
1966
1966
1967
1969
1971
1973
1974
1974
1973
1971
1969
1969
1971
1974
1977
1979
1979
1978
1977
1977
1976
1976
1976
1977
1977
1978
1978
1978
1978
1978
1978
1978
1977
1975
1974
1973
1974
1975
1976
1977
1978
1978
1978
1977
1976
1974
1974
1975
1978
1980
1982
1983
1982
1981
1981
1982
1983
1983
1983
1983
1982
1981
1981
1983
1985
1986
1987
1987
1987
1986
1986
1986
1987
1988
1989
1990
1992
1994
1997
2001
2003
2004
2003
2001
1999
1997
1997
1998
1999
1998
1997
1996
1995
1995
1995
1996
1996
1993
1989
1983
1977
1975
1982
2002
2038
2090
2153
2212
2247
2244
2202
2135
2065
2013
1986
1980
1984
1988
1989
1986
1984
1982
1980
1979
1978
1978
1978
1979
1979
1979
1978
1976
1975
1975
1975
1976
1976
1977
1978
1978
1979
1979
1979
1979
1980
1981
1982
1985
1987
1989
1990
1989
1988
1989
1990
1992
1996
2000
2005
2008
2010
2010
2009
2009
2011
2016
2021
2025
2027
2027
2027
2027
2028
2029
2029
2029
2028
2025
2021
2016
2009
2004
2000
1998
1997
1996
1995
1993
1990
1988
1987
1987
1988
1988
1988
1989
1990
1991
1993
1994
1995
1994
1993
1992
1993
1994
1996
1997
1997
1996
1996
1997
1998
1999
2001
2001
2002
2002
2002
2002
2002
2001
2000
1999
1999
2000
2002
2003
2003
2002
2000
2000
2000
2001
2003
2004
2005
2006
2006
2005
2004
2004
2005
2006
2007
2008
2008
2008
2008
2007
2006
2004
2002
2003
2005
2008
2011
2014
2014
2013
2012
2011
2010
2010
2011
2013
2014
2015
2015
2016
2017
2018
2019
2019
2018
2018
2018
2020
2021
2022
2023
2023
2024
2024
2025
2025
2026
2026
2027
2028
2030
2032
2035
2036
2037
2036
2036
2036
2036
2036
2036
2034
2031
2029
2028
2028
2029
2031
2033
2032
2029
2023
2016
2010
2011
2022
2048
2088
2143
2204
2255
2280
2267
2217
2147
2079
2030
2006
2001
2005
2008
2007
2004
2000
1995
1989
1983
1976
1970
1966
1963
1962
1962
1962
1961
1961
1962
1962
1963
1962
1962
1961
1961
1961
1961
1963
1964
1967
1967
1965
1963
1963
1970
1982
1996
2004
2003
1996
1991
1993
2002
2013
2022
2027
2030
2031
2031
2029
2025
2020
2017
2017
2018
2018
2018
2017
2018
2020
2021
2019
2016
2011
2006
2002
1997
1992
1987
1983
1981
1979
1978
1976
1974
1973
1974
1975
1978
1981
1982
1981
1980
1979
1978
1979
1980
1982
1984
1985
1986
1987
1987
1986
1984
1983
1983
1985
1987
1989
1990
1990
1990
1991
1991
1991
1991
1991
1992
1994
1995
1995
1995
1994
1994
1992
1991
1990
1991
1993
1996
1997
1997
1996
1994
1994
1995
1996
1996
1994
1993
1992
1990
1989
1989
1990
1995
2005
2016
2027
2032
2033
2030
2027
2025
2024
2024
2024
2024
2023
2023
2023
2022
2021
2021
2020
2019
2018
2017
2016
2016
2017
2019
2022
2024
2025
2026
2025
2023
2021
2018
2015
2013
2012
2012
2012
2012
2012
2013
2014
2014
2012
2006
1998
1991
1989
1998
2022
2060
2114
2175
2230
2260
2253
2208
2140
2071
2022
1997
1991
1994
1996
1995
1992
1991
1991
1990
1990
1990
1991
1991
1992
1991
1990
1989
1989
1990
1991
1992
1992
1990
1988
1987
1986
1988
1990
1993
1995
1996
1995
1994
1992
1991
1991
1993
1996
1999
2001
2003
2003
2004
2004
2004
2004
2004
2006
2008
2011
2014
2016
2018
2020
2022
2024
2026
2027
2027
2025
2022
2020
2017
2013
2008
2001
1994
1988
1983
1979
1977
1976
1974
1973
1972
1972
1972
1971
1970
1969
1970
1971
1972
1972
1972
1971
1971
1972
1972
1972
1972
1973
1974
1976
1977
1976
1974
1972
1971
1972
1975
1978
1980
1980
1978
1975
1973
1971
1971
1972
1973
1975
1977
1977
1977
1976
1976
1976
1976
1974
1971
1968
1967
1968
1971
1974
1975
1974
1972
1971
1972
1974
1976
1976
1975
1975
1974
1975
1975
1976
1977
1976
1976
1975
1974
1973
1973
1972
1972
1972
1973
1974
1974
1975
1975
1974
1973
1973
1974
1975
1976
1977
1978
1978
1977
1975
1974
1973
1972
1972
1972
1972
1972
1972
1973
1975
1979
1983
1986
1987
1986
1983
1980
1977
1976
1976
1977
1978
1979
1978
1977
1976
1976
1977
1977
1973
1967
1961
1957
1962
1979
2009
2052
2107
2164
2206
2219
2195
2140
2072
2014
1978
1964
1964
1967
1966
1962
1958
1957
1958
1960
1963
1963
1962
1961
1960
1961
1962
1962
1961
1959
1957
1956
1956
1957
1957
1958
1959
1959
1960
1960
1961
1961
1962
1962
1963
1964
1966
1967
1968
1968
1968
1968
1969
1972
1976
1980
1983
1985
1986
1987
1989
1991
1994
1998
2001
2004
2005
2005
2006
2007
2009
2009
2006
2001
1995
1990
1986
1982
1978
1973
1968
1965
1963
1962
1961
1959
1957
1955
1954
1955
1956
1957
1957
1956
1956
1956
1957
1958
1960
1961
1960
1959
1958
1958
1960
1962
1964
1965
1965
1964
1963
1963
1962
1961
1960
1959
1960
1962
1965
1967
1967
1966
1966
1965
1965
1964
1964
1963
1964
1965
1967
1968
1969
1969
1967
1966
1965
1966
1967
1970
1972
1972
1971
1969
1966
1965
1966
1968
1972
1974
1975
1974
1971
1969
1968
1968
1968
1968
1968
1968
1969
1970
1972
1973
1975
1977
1978
1980
1982
1983
1983
1982
1980
1978
1977
1976
1976
1976
1977
1979
1980
1982
1983
1982
1978
1971
1964
1959
1961
1972
1996
2034
2084
2142
2194
2222
2215
2173
2109
2046
1999
1974
1968
1972
1975
1975
1972
1970
1968
1969
1970
1972
1973
1973
1973
1973
1973
1974
1974
1973
1973
1973
1974
1975
1975
1975
1975
1975
1975
1977
1979
1980
1981
1980
1979
1979
1980
1982
1984
1986
1988
1989
1991
1993
1994
1995
1996
1996
1998
2002
2006
2010
2013
2014
2015
2015
2016
2017
2020
2022
2023
2022
2019
2015
2009
2003
1998
1993
1989
1986
1982
1979
1975
1973
1971
1970
1970
1970
1970
1970
1970
1970
1969
1968
1968
1968
1969
1970
1970
1970
1970
1970
1971
1971
1971
1972
1972
1973
1973
1972
1972
1971
1971
1971
1971
1971
1970
1970
1971
1971
1971
1970
1969
1969
1970
1971
1971
1971
1970
1969
1969
1969
1969
1969
1969
1969
1969
1970
1970
1971
1970
1970
1970
1969
1968
1968
1968
1968
1969
1969
1969
1969
1968
1967
1966
1966
1966
1966
1966
1965
1966
1966
1966
1966
1966
1964
1961
1960
1960
1961
1963
1965
1966
1966
1966
1966
1968
1970
1972
1974
1974
1973
1970
1967
1965
1963
1964
1964
1966
1966
1967
1968
1968
1966
1962
1956
1950
1947
1951
1967
1997
2042
2099
2161
2209
2226
2203
2146
2074
2011
1971
1955
1955
1959
1960
1957
1955
1954
1954
1955
1956
1957
1957
1958
1959
1960
1959
1958
1957
1957
1957
1958
1960
1960
1961
1961
1962
1964
1965
1967
1968
1969
1970
1971
1971
1971
1971
1971
1972
1974
1977
1980
1983
1985
1986
1988
1989
1991
1993
1996
2000
2003
2005
2006
2007
2007
2008
2009
2010
2012
2012
2013
2012
2009
2004
1998
1992
1986
1982
1979
1977
1976
1974
1972
1970
1969
1967
1967
1967
1968
1968
1968
1967
1968
1968
1970
1971
1972
1972
1971
1971
1971
1972
1972
1972
1972
1971
1971
1970
1971
1972
1975
1976
1977
1976
1974
1973
1973
1975
1977
1979
1979
1979
1977
1976
1975
1975
1977
1978
1980
1980
1979
1979
1978
1978
1978
1977
1977
1978
1979
1980
1980
1980
1980
1980
1980
1981
1981
1981
1980
1979
1979
1980
1981
1982
1982
1981
1979
1978
1978
1978
1978
1979
1979
1979
1978
1978
1978
1978
1979
1980
1980
1980
1979
1979
1978
1978
1978
1979
1980
1981
1981
1981
1979
1978
1978
1979
1981
1984
1988
1992
1994
1995
1993
1990
1986
1983
1981
1981
1982
1983
1985
1985
1986
1986
1986
1985
1982
1977
1971
1969
1973
1986
2011
2049
2101
2157
2203
2222
2205
2155
2090
2031
1992
1975
1974
1977
1979
1978
1977
1976
1976
1975
1975
1975
1975
1976
1976
1977
1978
1978
1979
1980
1980
1981
1981
1982
1982
1983
1983
1984
1985
1985
1985
1985
1984
1984
1985
1987
1989
1991
1992
1992
1992
1992
1993
1994
1996
1998
2000
2002
2004
2006
2008
2009
2010
2011
2012
2013
2015
2017
2019
2020
2020
2019
2017
2014
2011
2008
2004
2000
1997
1993
1989
1985
1981
1979
1977
1977
1977
1977
1977
1978
1977
1977
1977
1977
1976
1976
1977
1977
1978
1978
1977
1977
1977
1976
1976
1977
1977
1977
1977
1977
1977
1976
1976
1976
1976
1977
1978
1979
1979
1979
1979
1978
1977
1976
1976
1976
1977
1978
1979
1980
1979
1979
1978
1977
1978
1978
1979
1979
1979
1978
1977
1977
1977
1979
1980
1982
1983
1982
1981
1980
1979
1979
1979
1980
1981
1982
1982
1981
1980
1979
1979
1979
1978
1978
1977
1977
1978
1980
1982
1982
1981
1979
1977
1976
1977
1979
1980
1981
1980
1979
1978
1977
1976
1974
1974
1974
1975
1976
1977
1978
1979
1981
1984
1986
1987
1987
1985
1983
1980
1979
1979
1979
1979
1978
1978
1977
1977
1978
1978
1978
1974
1968
1961
1957
1959
1972
1998
2038
2090
2149
2198
2220
2204
2154
2087
2025
1982
1963
1961
1964
1965
1963
1960
1959
1959
1959
1959
1959
1958
1958
1958
1958
1958
1959
1959
1960
1960
1961
1962
1962
1963
1963
1962
1961
1961
1962
1964
1965
1966
1967
1967
1967
1967
1968
1969
1971
1973
1975
1976
1977
1977
1978
1980
1983
1985
1988
1991
1994
1996
1998
1999
2000
2000
2001
2002
2003
2004
2003
2002
2000
1996
1992
1986
1980
1974
1968
1965
1962
1960
1958
1955
1953
1952
1951
1952
1953
1954
1954
1954
1955
1955
1954
1953
1952
1952
1953
1956
1958
1959
1958
1956
1953
1951
1951
1954
1958
1961
1963
1963
1962
1962
1962
1962
1963
1962
1962
1962
1962
1962
1963
1963
1963
1964
1964
1964
1964
1964
1965
1967
1968
1969
1969
1968
1967
1966
1967
1969
1970
1972
1972
1971
1969
1968
1968
1969
1970
1972
1973
1974
1973
1972
1972
1972
1972
1973
1974
1974
1974
1973
1972
1971
1970
1968
1967
1967
1968
1969
1970
1972
1974
1976
1978
1979
1981
1981
1981
1979
1978
1976
1974
1974
1973
1973
1974
1974
1975
1976
1977
1975
1971
1965
1958
1954
1957
1972
2001
2044
2101
2162
2210
2229
2208
2152
2081
2018
1977
1960
1959
1963
1965
1963
1960
1958
1957
1957
1957
1957
1958
1958
1957
1956
1956
1955
1956
1956
1957
1957
1957
1957
1958
1958
1958
1958
1958
1959
1960
1961
1961
1962
1962
1963
1964
1964
1965
1966
1967
1969
1971
1972
1973
1974
1975
1978
1982
1985
1987
1988
1987
1986
1987
1988
1990
1992
1993
1993
1993
1992
1989
1986
1981
1977
1973
1969
1965
1962
1959
1956
1954
1953
1952
1951
1950
1949
1949
1948
1948
1949
1950
1951
1952
1952
1952
1951
1951
1951
1951
1952
1954
1954
1953
1952
1951
1950
1950
1950
1951
1951
1952
1953
1954
1954
1953
1953
1952
1952
1953
1953
1954
1955
1955
1954
1954
1953
1952
1951
1951
1951
1951
1952
1953
1955
1956
1956
1955
1954
1952
1951
1951
1951
1952
1953
1953
1953
1952
1952
1951
1951
1952
1953
1954
1955
1955
1954
1954
1954
1954
1955
1956
1956
1956
1955
1953
1952
1951
1951
1953
1955
1958
1961
1963
1964
1964
1962
1960
1959
1958
1958
1958
1958
1958
1957
1957
1957
1958
1958
1957
1954
1950
1946
1944
1948
1962
1988
2027
2076
2128
2170
2184
2165
2116
2055
2001
1965
1950
1949
1953
1955
1954
1953
1952
1951
1950
1949
1949
1948
1949
1949
1950
1950
1950
1950
1949
1948
1948
1948
1949
1950
1951
1952
1952
1952
1952
1952
1952
1953
1954
1955
1957
1958
1958
1959
1959
1959
1960
1961
1963
1965
1967
1969
1971
1972
1974
1975
1977
1979
1981
1982
1984
1985
1986
1986
1987
1986
1985
1983
1981
1978
1974
1970
1965
1961
1957
1954
1951
1948
1946
1945
1945
1944
1944
1943
1943
1943
1942
1942
1943
1943
1944
1945
1944
1944
1943
1943
1943
1944
1944
1945
1945
1945
1945
1945
1944
1944
1944
1944
1944
1944
1944
1944
1943
1943
1942
1941
1941
1941
1941
1941
1941
1941
1941
1940
1940
1940
1941
1941
1941
1940
1940
1940
1940
1940
1939
1939
1939
1940
1941
1941
1941
1941
1940
1939
1939
1939
1939
1940
1940
1940
1940
1938
1937
1935
1935
1936
1939
1942
1945
1948
1949
1948
1947
1945
1942
1941
1940
1939
1940
1940
1941
1942
1943
1944
1943
1940
1935
1928
1923
1924
1934
1957
1992
2040
2094
2143
2172
2168
2130
2071
2011
1965
1940
1933
1935
1938
1938
1936
1936
1935
1935
1935
1935
1936
1936
1937
1937
1937
1937
1938
1939
1940
1941
1942
1942
1942
1942
1943
1944
1946
1947
1949
1949
1950
1950
1950
1952
1953
1955
1957
1959
1961
1962
1963
1965
1966
1968
1970
1974
1977
1980
1983
1985
1987
1988
1989
1991
1992
1995
1997
1998
1999
1998
1995
1992
1987
1982
1977
1972
1968
1964
1960
1957
1954
1951
1948
1947
1946
1947
1947
1948
1948
1948
1948
1947
1948
1948
1948
1949
1950
1950
1951
1951
1952
1952
1952
1952
1952
1953
1953
1954
1955
1955
1955
1955
1955
1955
1954
1954
1955
1956
1956
1957
1956
1956
1955
1955
1955
1956
1957
1957
1957
1957
1957
1957
1956
1956
1956
1957
1958
1959
1959
1959
1958
1957
1957
1956
1956
1956
1957
1957
1958
1958
1959
1961
1963
1965
1967
1968
1968
1967
1965
1964
1962
1962
1961
1961
1962
1963
1964
1965
1966
1966
1963
1957
1950
1945
1947
1959
1984
2023
2074
2132
2180
2203
2190
2145
2080
2019
1976
1956
1953
1957
1960
1959
1957
1956
1955
1956
1956
1957
1958
1958
1958
1957
1956
1956
1957
1958
1959
1960
1961
1962
1962
1962
1962
1962
1963
1964
1965
1967
1968
1969
1969
1969
1970
1971
1973
1974
1976
1978
1979
1981
1983
1984
1985
1987
1989
1992
1995
1998
2000
2002
2003
2004
2004
2005
2006
2007
2008
2007
2005
2001
1996
1990
1985
1981
1978
1975
1973
1971
1969
1968
1966
1965
1964
1964
1964
1964
1965
1966
1967
1967
1966
1966
1966
1966
1966
1968
1969
1969
1970
1970
1970
1970
1969
1969
1969
1969
1970
1970
1971
1970
1970
1970
1970
1970
1970
1970
1970
1971
1971
1970
1970
1970
1969
1969
1970
1970
1971
1971
1971
1971
1971
1970
1969
1969
1969
1969
1970
1971
1971
1971
1971
1970
1970
1969
1970
1970
1971
1972
1972
1971
1971
1970
1969
1968
1968
1968
1969
1970
1971
1973
1974
1976
1978
1979
1979
1979
1977
1976
1974
1974
1973
1973
1973
1973
1973
1974
1975
1977
1976
1973
1967
1961
1957
1958
1970
1995
2034
2085
2142
2191
2213
2200
2152
2087
2026
1984
1966
1965
1969
1971
1969
1967
1965
1964
1964
1965
1966
1967
1967
1968
1967
1967
1967
1968
1969
1970
1971
1970
1970
1969
1969
1970
1972
1974
1975
1976
1976
1976
1977
1977
1977
1977
1977
1978
1980
1984
1987
1990
1991
1991
1992
1994
1997
2000
2003
2007
2010
2012
2013
2015
2016
2017
2019
2020
2021
2021
2022
2021
2019
2015
2011
2007
2003
1999
1995
1992
1990
1989
1988
1987
1986
1985
1985
1984
1984
1984
1985
1985
1986
1987
1987
1987
1986
1986
1987
1988
1989
1990
1990
1990
1989
1989
1989
1989
1989
1990
1990
1991
1992
1991
1991
1990
1990
1990
1992
1993
1993
1993
1992
1991
1991
1991
1992
1992
1993
1993
1994
1994
1995
1995
1995
1996
1996
1996
1996
1996
1997
1998
1999
1999
1999
1998
1997
1996
1997
1997
1999
2000
2001
2002
2002
2001
2001
2000
2000
1999
2000
2000
2001
2001
2000
1999
1998
1997
1997
1997
1998
2000
2001
2003
2004
2005
2005
2004
2003
2001
2000
1998
1998
1997
1997
1997
1996
1995
1995
1995
1994
1991
1986
1980
1975
1975
1985
2007
2044
2093
2150
2199
2225
2215
2170
2106
2044
1998
1977
1973
1977
1980
1980
1978
1977
1976
1975
1976
1976
1978
1979
1980
1981
1982
1983
1982
1982
1981
1981
1981
1983
1984
1986
1986
1987
1987
1987
1987
1988
1989
1990
1991
1992
1993
1993
1993
1994
1994
1996
1997
1999
2000
2001
2003
2004
2006
2008
2010
2011
2013
2015
2017
2019
2020
2021
2021
2022
2022
2021
2019
2016
2012
2008
2002
1997
1992
1988
1984
1981
1979
1977
1976
1975
1974
1973
1972
1971
1970
1971
1972
1973
1974
1974
1973
1972
1971
1971
1971
1971
1972
1973
1974
1973
1972
1971
1970
1969
1970
1970
1971
1970
1970
1968
1966
1965
1964
1964
1965
1965
1966
1967
1968
1968
1968
1968
1968
1968
1969
1969
1969
1969
1969
1970
1971
1971
1970
1968
1967
1966
1966
1968
1969
1970
1970
1969
1968
1968
1968
1968
1969
1971
1973
1976
1979
1981
1983
1983
1983
1982
1980
1978
1977
1977
1978
1979
1979
1978
1977
1976
1977
1978
1978
1976
1971
1965
1963
1968
1987
2020
2067
2125
2182
2221
2227
2195
2134
2066
2012
1980
1970
1972
1976
1977
1975
1973
1972
1971
1969
1969
1971
1974
1978
1980
1977
1970
1962
1958
1960
1968
1976
1984
1988
1989
1989
1990
1990
1989
1989
1989
1991
1993
1996
1999
2002
2004
2004
2003
2000
1996
1994
1995
2000
2006
2010
2010
2007
2002
1999
1998
2000
2003
2006
2007
2008
2008
2010
2014
2020
2028
2034
2037
2036
2032
2026
2020
2015
2010
2006
2003
2002
2002
2002
2002
2001
2000
1999
1999
1999
1999
2000
2000
2000
1999
1999
1999
1999
1999
1998
1999
1999
2000
2001
2001
1999
1998
1997
1996
1997
1998
1999
1999
1999
1998
1998
1998
1999
1998
1997
1997
1997
1996
1996
1996
1995
1995
1994
1993
1993
1993
1993
1994
1995
1996
1996
1996
1995
1995
1995
1996
1996
1996
1996
1994
1993
1993
1993
1994
1995
1995
1994
1994
1993
1993
1991
1989
1988
1986
1986
1986
1987
1987
1988
1988
1989
1990
1992
1995
1997
1998
1998
1998
1997
1995
1994
1992
1991
1991
1992
1993
1995
1997
1998
1997
1995
1990
1984
1980
1980
1988
2008
2040
2086
2142
2198
2234
2237
2202
2140
2073
2022
1994
1987
1989
1992
1990
1986
1984
1984
1985
1987
1989
1990
1991
1991
1992
1992
1992
1992
1992
1992
1993
1994
1995
1995
1995
1995
1996
1997
1998
1999
2000
2000
2000
2000
2001
2001
2002
2002
2003
2003
2005
2006
2008
2009
2011
2013
2015
2019
2022
2025
2028
2029
2030
2031
2031
2032
2034
2036
2038
2039
2037
2031
2022
2012
2003
1994
1988
1983
1978
1974
1972
1971
1971
1970
1969
1967
1965
1963
1963
1964
1965
1966
1966
1966
1966
1966
1969
1973
1978
1983
1986
1987
1988
1990
1991
1992
1989
1984
1978
1972
1968
1967
1968
1968
1968
1968
1967
1965
1964
1963
1962
1962
1962
1962
1962
1962
1961
1960
1960
1961
1961
1960
1959
1958
1957
1957
1958
1960
1961
1961
1962
1963
1963
1963
1962
1962
1965
1972
1982
1993
2003
2010
2014
2015
2013
2011
2008
2005
2004
2004
2005
2006
2006
2006
2005
2004
2004
2004
2005
2007
2009
2010
2011
2011
2010
2008
2006
2005
2006
2006
2006
2006
2005
2004
2004
2004
2005
2005
2006
2006
2005
2005
2003
2002
1999
1997
1994
1992
1992
1993
1994
1995
1996
1997
1994
1989
1982
1976
1973
1976
1989
2014
2051
2102
2158
2205
2226
2212
2165
2100
2040
1997
1978
1975
1978
1979
1977
1974
1973
1973
1974
1975
1976
1975
1974
1973
1972
1972
1973
1975
1978
1982
1985
1987
1987
1986
1983
1981
1980
1981
1981
1982
1983
1983
1984
1984
1984
1985
1986
1987
1988
1990
1992
1993
1994
1994
1995
1996
1998
2001
2005
2009
2011
2013
2014
2015
2016
2017
2019
2021
2022
2023
2022
2020
2017
2013
2010
2006
2003
2000
1997
1995
1993
1991
1988
1986
1983
1982
1982
1983
1985
1986
1986
1985
1984
1983
1982
1982
1983
1985
1988
1991
1992
1990
1988
1985
1983
1982
1982
1983
1984
1984
1983
1982
1982
1981
1981
1981
1981
1981
1980
1981
1982
1983
1983
1982
1980
1978
1977
1978
1979
1980
1981
1980
1980
1979
1978
1978
1977
1978
1978
1979
1979
1978
1978
1977
1977
1977
1977
1977
1977
1977
1978
1978
1978
1978
1978
1978
1979
1979
1979
1979
1979
1979
1979
1978
1978
1977
1976
1976
1976
1977
1978
1979
1979
1978
1977
1977
1976
1976
1976
1976
1976
1975
1974
1973
1973
1973
1974
1976
1979
1982
1985
1986
1986
1985
1983
1981
1979
1978
1978
1979
1980
1980
1980
1980
1980
1979
1975
1969
1963
1959
1962
1976
2004
2045
2098
2154
2200
2219
2202
2152
2086
2026
1984
1965
1961
1962
1960
1954
1948
1945
1945
1948
1952
1956
1958
1958
1958
1959
1960
1963
1966
1968
