2013
2013
2013
2012
2013
2013
2015
2017
2019
2019
2018
2017
2017
2017
2018
2019
2019
2019
2021
2021
2020
2021
2021
2022
2022
2022
2022
2022
2022
2022
2022
2023
2022
2021
2020
2021
2022
2023
2025
2025
2024
2022
2020
2020
2019
2021
2021
2021
2021
2021
2021
2021
2021
2021
2021
2022
2023
2023
2023
2023
2023
2023
2024
2024
2023
2021
2020
2020
2021
2025
2029
2032
2032
2031
2030
2030
2032
2032
2031
2030
2029
2029
2028
2027
2026
2026
2026
2026
2026
2027
2026
2027
2026
2026
2026
2025
2027
2039
2064
2097
2125
2122
2071
1981
1879
1804
1781
1815
1882
1951
2001
2029
2041
2045
2048
2050
2052
2054
2056
2057
2059
2060
2060
2061
2063
2065
2066
2067
2066
2066
2068
2072
2075
2078
2079
2078
2077
2076
2079
2082
2084
2087
2089
2091
2094
2096
2098
2101
2105
2107
2111
2114
2116
2120
2122
2124
2128
2128
2127
2124
2120
2120
2121
2121
2120
2112
2102
2089
2077
2066
2058
2051
2045
2039
2034
2029
2026
2024
2022
2020
2019
2018
2017
2017
2017
2017
2016
2016
2017
2017
2016
2016
2016
2018
2021
2024
2025
2024
2023
2021
2022
2022
2023
2024
2024
2024
2025
2025
2025
2025
2025
2025
2024
2024
2025
2024
2024
2025
2024
2024
2024
2022
2021
2021
2022
2024
2026
2026
2025
2023
2021
2021
2022
2023
2024
2024
2024
2024
2024
2025
2025
2025
2025
2025
2025
2026
2026
2027
2027
2027
2027
2027
2027
2025
2025
2026
2029
2031
2032
2032
2030
2028
2028
2028
2028
2027
2026
2025
2027
2028
2030
2033
2034
2036
2038
2038
2037
2036
2035
2034
2033
2034
2032
2031
2029
2027
2026
2028
2032
2036
2038
2038
2035
2030
2026
2026
2031
2045
2071
2101
2123
2117
2068
1986
1891
1818
1793
1818
1878
1943
1995
2026
2043
2051
2056
2060
2059
2058
2057
2060
2065
2069
2070
2068
2066
2066
2067
2070
2071
2072
2073
2074
2076
2077
2078
2080
2082
2084
2085
2087
2088
2090
2092
2095
2099
2099
2102
2104
2106
2109
2114
2120
2125
2127
2128
2127
2127
2128
2130
2130
2130
2129
2126
2123
2120
2114
2107
2099
2090
2080
2071
2062
2054
2048
2042
2038
2035
2032
2029
2026
2024
2025
2027
2028
2029
2026
2024
2022
2021
2023
2024
2025
2025
2026
2026
2027
2027
2028
2028
2027
2028
2028
2028
2029
2030
2029
2031
2030
2030
2027
2026
2027
2028
2031
2035
2034
2033
2029
2027
2025
2027
2028
2028
2028
2027
2027
2027
2027
2027
2027
2027
2027
2027
2027
2027
2028
2027
2029
2029
2028
2027
2026
2026
2028
2031
2033
2034
2033
2031
2029
2028
2029
2030
2030
2031
2032
2032
2032
2032
2031
2032
2031
2031
2032
2032
2032
2032
2033
2034
2034
2032
2032
2031
2031
2032
2034
2037
2039
2038
2036
2034
2033
2033
2033
2034
2035
2035
2035
2035
2035
2034
2035
2035
2035
2036
2036
2036
2036
2035
2034
2033
2033
2032
2032
2033
2035
2040
2045
2048
2048
2046
2043
2039
2039
2040
2041
2042
2040
2038
2036
2035
2034
2036
2036
2036
2036
2037
2038
2038
2037
2036
2036
2034
2041
2056
2082
2109
2124
2105
2048
1962
1876
1820
1812
1849
1914
1976
2020
2045
2053
2054
2057
2059
2061
2062
2064
2065
2066
2068
2069
2070
2071
2073
2074
2074
2073
2073
2074
2077
2082
2086
2088
2087
2085
2084
2084
2088
2092
2094
2096
2098
2100
2103
2105
2108
2110
2113
2116
2118
2121
2123
2125
2127
2129
2131
2131
2130
2128
2126
2125
2124
2125
2122
2116
2107
2096
2086
2077
2070
2062
2056
2050
2046
2041
2038
2035
2033
2031
2030
2028
2027
2026
2026
2027
2027
2028
2028
2028
2028
2028
2029
2032
2033
2034
2034
2033
2032
2031
2030
2032
2032
2034
2033
2033
2033
2033
2033
2033
2033
2033
2033
2032
2032
2031
2032
2031
2033
2033
2031
2028
2026
2027
2029
2033
2036
2036
2034
2030
2029
2027
2029
2030
2031
2031
2031
2031
2031
2031
2031
2031
2031
2032
2032
2032
2032
2033
2032
2033
2034
2034
2033
2032
2031
2031
2033
2036
2037
2037
2035
2033
2032
2032
2033
2034
2034
2034
2035
2035
2035
2035
2035
2035
2035
2035
2035
2035
2036
2036
2036
2036
2035
2033
2031
2030
2030
2032
2035
2038
2039
2039
2040
2041
2042
2043
2043
2042
2041
2040
2039
2038
2037
2036
2035
2035
2035
2035
2036
2036
2037
2037
2038
2037
2036
2033
2031
2033
2046
2072
2108
2135
2136
2092
2009
1908
1827
1791
1810
1867
1937
1993
2027
2043
2048
2050
2054
2057
2059
2061
2063
2064
2064
2067
2067
2070
2069
2067
2066
2067
2072
2079
2084
2086
2082
2079
2076
2078
2080
2084
2086
2087
2088
2091
2093
2096
2099
2101
2104
2106
2109
2112
2115
2118
2122
2125
2127
2128
2129
2130
2131
2133
2134
2134
2131
2125
2118
2110
2102
2094
2084
2074
2064
2056
2048
2042
2037
2032
2028
2025
2023
2022
2020
2019
2016
2018
2017
2017
2017
2016
2016
2017
2020
2023
2023
2022
2020
2020
2019
2021
2022
2023
2023
2022
2022
2023
2023
2023
2024
2024
2024
2024
2023
2023
2023
2023
2022
2022
2022
2024
2022
2021
2020
2019
2021
2023
2025
2024
2023
2021
2020
2020
2019
2021
2021
2021
2022
2022
2022
2021
2022
2022
2022
2022
2023
2023
2023
2023
2025
2025
2025
2023
2022
2022
2022
2025
2027
2028
2026
2024
2022
2020
2022
2024
2027
2028
2030
2032
2034
2034
2033
2032
2031
2030
2030
2029
2028
2027
2026
2027
2027
2026
2025
2024
2024
2027
2031
2031
2031
2028
2025
2023
2030
2053
2088
2122
2134
2100
2020
1912
1818
1770
1783
1841
1916
1978
2016
2035
2042
2045
2049
2052
2054
2055
2055
2056
2058
2061
2064
2066
2067
2066
2066
2065
2066
2067
2069
2071
2072
2073
2074
2075
2077
2078
2080
2082
2084
2087
2090
2092
2095
2097
2100
2103
2106
2107
2110
2113
2118
2123
2127
2129
2129
2128
2127
2125
2126
2125
2123
2119
2113
2105
2094
2083
2072
2062
2054
2047
2040
2034
2030
2026
2021
2020
2018
2018
2015
2012
2009
2009
2013
2019
2023
2024
2020
2015
2010
2011
2012
2015
2017
2017
2018
2019
2019
2019
2020
2021
2021
2022
2022
2022
2023
2022
2023
2023
2023
2023
2022
2021
2022
2024
2026
2027
2026
2024
2022
2021
2021
2022
2021
2022
2021
2022
2021
2021
2021
2021
2022
2022
2023
2023
2023
2023
2023
2024
2024
2025
2024
2023
2023
2023
2026
2028
2029
2029
2026
2025
2025
2025
2026
2027
2027
2026
2026
2027
2027
2028
2028
2027
2026
2025
2024
2024
2025
2026
2029
2031
2034
2036
2036
2035
2034
2035
2036
2037
2037
2034
2032
2029
2028
2028
2028
2029
2029
2030
2030
2031
2031
2031
2030
2028
2028
2031
2044
2068
2099
2123
2122
2077
1996
1898
1820
1789
1811
1872
1944
2001
2034
2046
2049
2048
2052
2055
2057
2059
2060
2062
2064
2065
2066
2067
2068
2068
2069
2070
2071
2072
2073
2076
2076
2078
2078
2079
2081
2083
2087
2090
2093
2093
2094
2095
2098
2102
2105
2108
2111
2115
2118
2121
2124
2126
2128
2130
2131
2133
2134
2134
2133
2130
2129
2124
2118
2110
2099
2090
2081
2074
2068
2061
2052
2044
2037
2031
2029
2027
2025
2025
2024
2022
2022
2021
2020
2020
2020
2021
2021
2021
2022
2023
2023
2024
2024
2025
2025
2024
2023
2024
2026
2028
2031
2032
2031
2030
2028
2026
2027
2026
2028
2028
2029
2029
2029
2028
2027
2027
2027
2028
2028
2027
2027
2027
2025
2028
2027
2028
2026
2025
2025
2027
2031
2033
2033
2031
2028
2026
2025
2027
2029
2030
2029
2029
2029
2029
2029
2030
2030
2031
2031
2031
2032
2032
2031
2031
2033
2034
2033
2032
2030
2029
2030
2033
2036
2039
2039
2037
2035
2033
2033
2034
2033
2035
2034
2035
2035
2035
2036
2036
2036
2036
2036
2036
2035
2035
2033
2033
2034
2035
2036
2036
2038
2040
2045
2048
2049
2048
2045
2042
2040
2039
2039
2039
2038
2037
2036
2036
2036
2037
2037
2038
2038
2039
2039
2037
2036
2035
2036
2050
2074
2105
2126
2121
2078
2002
1912
1839
1807
1822
1876
1941
1995
2035
2051
2057
2058
2060
2062
2063
2065
2067
2069
2070
2071
2072
2073
2074
2075
2076
2077
2078
2079
2079
2080
2081
2082
2086
2089
2091
2092
2093
2094
2094
2097
2099
2102
2104
2106
2109
2113
2116
2119
2122
2125
2127
2130
2132
2135
2136
2137
2138
2138
2137
2135
2132
2128
2124
2120
2115
2107
2097
2086
2075
2065
2058
2052
2048
2043
2039
2036
2033
2031
2030
2028
2027
2027
2026
2026
2026
2026
2027
2028
2028
2029
2028
2027
2027
2028
2031
2034
2035
2034
2032
2031
2031
2031
2032
2032
2033
2033
2033
2033
2033
2033
2032
2032
2032
2032
2032
2032
2032
2032
2031
2032
2031
2031
2029
2028
2028
2029
2032
2034
2035
2034
2032
2031
2030
2032
2031
2031
2031
2031
2033
2033
2034
2034
2033
2033
2033
2033
2034
2034
2034
2033
2035
2035
2036
2033
2031
2030
2031
2037
2042
2045
2044
2040
2035
2032
2033
2034
2036
2037
2037
2037
2037
2037
2037
2038
2038
2038
2038
2038
2038
2037
2037
2038
2038
2038
2038
2036
2035
2036
2038
2041
2043
2043
2040
2038
2037
2038
2038
2039
2040
2039
2039
2038
2037
2037
2036
2037
2038
2040
2041
2040
2041
2044
2048
2053
2054
2053
2048
2043
2039
2040
2043
2044
2044
2043
2041
2040
2040
2039
2039
2040
2041
2041
2040
2039
2038
2040
2049
2071
2100
2125
2128
2093
2021
1930
1852
1815
1826
1876
1940
1997
2037
2055
2062
2063
2064
2064
2065
2067
2069
2071
2072
2073
2074
2075
2076
2077
2078
2079
2080
2082
2083
2084
2084
2086
2086
2089
2090
2093
2093
2094
2094
2096
2100
2105
2110
2112
2112
2113
2113
2116
2120
2124
2127
2129
2132
2134
2136
2137
2137
2137
2137
2136
2134
2132
2129
2124
2119
2111
2102
2091
2080
2071
2063
2058
2054
2051
2048
2043
2038
2034
2032
2031
2031
2030
2030
2030
2030
2030
2030
2030
2030
2030
2030
2031
2031
2032
2032
2034
2035
2035
2034
2033
2033
2035
2037
2039
2039
2038
2035
2034
2034
2034
2035
2035
2035
2035
2035
2034
2034
2034
2034
2034
2034
2034
2034
2034
2034
2034
2033
2034
2033
2033
2032
2031
2032
2034
2036
2038
2038
2036
2034
2033
2032
2033
2035
2035
2035
2035
2035
2036
2038
2038
2039
2038
2036
2036
2036
2036
2037
2036
2038
2038
2038
2036
2035
2035
2037
2040
2042
2042
2041
2039
2037
2036
2038
2038
2038
2038
2038
2038
2039
2038
2038
2038
2037
2036
2036
2036
2036
2037
2038
2042
2044
2047
2047
2046
2044
2044
2044
2046
2046
2045
2041
2038
2037
2038
2038
2039
2039
2039
2039
2039
2040
2040
2039
2038
2038
2039
2051
2077
2112
2142
2143
2102
2015
1910
1821
1781
1800
1863
1940
2000
2035
2048
2050
2052
2056
2062
2064
2066
2067
2068
2070
2072
2072
2073
2073
2075
2075
2076
2077
2078
2079
2080
2082
2083
2084
2084
2083
2085
2088
2092
2097
2099
2100
2100
2101
2101
2104
2107
2111
2114
2118
2121
2124
2127
2129
2132
2133
2134
2135
2134
2133
2132
2129
2128
2123
2116
2106
2094
2084
2075
2069
2064
2057
2050
2043
2037
2030
2029
2027
2026
2026
2025
2024
2024
2024
2024
2023
2022
2023
2023
2024
2025
2026
2026
2027
2027
2026
2025
2025
2025
2026
2029
2031
2033
2033
2031
2028
2027
2026
2028
2030
2032
2033
2033
2032
2031
2031
2031
2032
2030
2029
2029
2030
2030
2029
2030
2028
2027
2027
2025
2025
2025
2028
2031
2033
2034
2033
2030
2027
2027
2027
2027
2029
2028
2029
2030
2030
2031
2030
2029
2030
2029
2032
2033
2033
2032
2031
2030
2031
2032
2031
2030
2030
2032
2034
2035
2034
2031
2029
2029
2031
2035
2038
2042
2041
2040
2038
2036
2036
2037
2038
2038
2037
2034
2032
2031
2031
2031
2032
2032
2032
2032
2031
2030
2031
2033
2036
2045
2063
2092
2120
2131
2106
2037
1941
1847
1791
1790
1838
1907
1972
2015
2039
2048
2051
2055
2056
2057
2058
2061
2064
2065
2066
2064
2063
2064
2069
2073
2078
2079
2078
2076
2073
2074
2077
2078
2081
2083
2084
2086
2087
2088
2089
2091
2095
2098
2101
2104
2107
2109
2112
2116
2118
2121
2123
2126
2128
2133
2138
2140
2139
2136
2132
2129
2125
2121
2114
2106
2097
2086
2076
2067
2058
2050
2044
2039
2034
2030
2027
2025
2024
2022
2023
2021
2021
2017
2014
2012
2014
2021
2028
2031
2030
2025
2020
2015
2019
2020
2024
2025
2026
2026
2025
2025
2024
2024
2026
2028
2029
2030
2030
2027
2025
2027
2028
2028
2027
2024
2023
2024
2028
2031
2033
2031
2028
2024
2023
2025
2026
2028
2027
2027
2025
2025
2026
2027
2028
2027
2027
2028
2029
2030
2029
2028
2028
2029
2031
2030
2028
2027
2027
2030
2034
2037
2035
2033
2029
2028
2029
2030
2030
2030
2029
2029
2029
2031
2032
2034
2035
2037
2039
2041
2041
2041
2040
2040
2039
2038
2035
2033
2030
2030
2032
2038
2041
2041
2035
2029
2027
2029
2034
2039
2041
2039
2041
2055
2082
2117
2138
2122
2057
1961
1862
1798
1788
1830
1898
1966
2014
2039
2048
2048
2052
2058
2064
2069
2070
2069
2067
2066
2066
2069
2072
2074
2073
2075
2074
2075
2075
2076
2078
2081
2084
2085
2086
2087
2087
2088
2090
2094
2096
2097
2099
2102
2106
2112
2118
2123
2124
2125
2126
2127
2132
2136
2139
2139
2139
2140
2140
2140
2138
2134
2130
2123
2115
2105
2095
2084
2075
2067
2059
2052
2044
2036
2031
2030
2032
2032
2031
2027
2023
2020
2019
2020
2022
2022
2022
2022
2023
2023
2024
2025
2025
2026
2026
2027
2028
2028
2029
2028
2030
2031
2030
2031
2029
2028
2028
2030
2033
2035
2036
2034
2032
2030
2029
2030
2029
2031
2030
2029
2028
2028
2028
2029
2029
2029
2029
2029
2029
2029
2029
2027
2031
2031
2031
2030
2027
2026
2027
2032
2035
2038
2037
2034
2032
2029
2031
2030
2028
2029
2028
2030
2031
2034
2035
2037
2039
2040
2042
2041
2041
2039
2038
2038
2037
2036
2034
2032
2031
2031
2033
2036
2039
2038
2036
2035
2032
2032
2031
2031
2033
2048
2075
2113
2144
2142
2091
1999
1891
1806
1773
1798
1862
1933
1991
2026
2043
2048
2050
2053
2056
2060
2064
2068
2070
2070
2069
2069
2069
2070
2072
2073
2074
2075
2076
2077
2078
2079
2081
2082
2083
2085
2087
2089
2092
2094
2096
2098
2099
2101
2103
2107
2112
2118
2122
2125
2126
2128
2130
2133
2136
2138
2139
2139
2138
2137
2135
2132
2127
2120
2111
2101
2091
2080
2070
2061
2052
2047
2040
2035
2031
2027
2026
2026
2026
2025
2023
2021
2020
2019
2018
2020
2021
2021
2022
2022
2023
2023
2023
2023
2023
2023
2024
2026
2027
2028
2028
2026
2027
2027
2028
2027
2026
2026
2028
2031
2034
2034
2032
2030
2029
2027
2028
2029
2030
2028
2027
2026
2027
2027
2027
2027
2027
2027
2027
2028
2027
2028
2027
2028
2029
2029
2028
2026
2024
2025
2028
2031
2034
2033
2031
2030
2029
2030
2032
2031
2030
2030
2031
2031
2031
2032
2030
2030
2029
2029
2030
2031
2034
2035
2038
2041
2042
2043
2040
2039
2037
2038
2039
2040
2039
2036
2034
2033
2033
2034
2033
2034
2033
2033
2034
2034
2034
2033
2032
2031
2034
2050
2079
2115
2140
2131
2076
1982
1879
1799
1771
1799
1866
1941
1999
2036
2049
2050
2051
2051
2057
2060
2064
2065
2065
2067
2068
2069
2069
2071
2071
2072
2074
2074
2076
2077
2076
2080
2081
2082
2082
2081
2083
2085
2091
2096
2099
2100
2099
2101
2102
2105
2110
2113
2116
2120
2123
2127
2130
2132
2134
2135
2137
2137
2137
2136
2135
2131
2128
2122
2114
2103
2091
2079
2070
2063
2058
2054
2048
2040
2033
2028
2026
2025
2024
2024
2023
2022
2022
2021
2020
2020
2021
2020
2021
2022
2023
2023
2024
2025
2025
2024
2024
2023
2024
2026
2029
2031
2032
2031
2029
2028
2027
2029
2029
2029
2029
2029
2029
2029
2029
2028
2028
2027
2027
2027
2027
2026
2026
2025
2026
2026
2026
2025
2024
2024
2025
2027
2030
2031
2030
2028
2026
2024
2025
2026
2027
2028
2028
2028
2029
2028
2029
2029
2028
2028
2028
2028
2030
2031
2032
2031
2032
2030
2029
2027
2027
2027
2029
2031
2034
2033
2032
2030
2030
2031
2036
2038
2040
2040
2040
2038
2037
2035
2035
2034
2034
2034
2033
2032
2030
2030
2029
2031
2031
2031
2030
2029
2029
2029
2031
2032
2034
2044
2064
2096
2123
2127
2087
2007
1907
1823
1785
1800
1856
1927
1985
2023
2041
2048
2050
2053
2055
2057
2059
2062
2063
2064
2063
2064
2065
2068
2071
2073
2074
2072
2072
2072
2073
2076
2077
2079
2080
2081
2083
2085
2086
2089
2092
2095
2095
2095
2096
2100
2107
2113
2122
2123
2125
2122
2120
2121
2127
2135
2140
2145
2144
2140
2134
2127
2125
2119
2114
2105
2095
2085
2074
2064
2055
2048
2042
2036
2031
2028
2025
2023
2020
2021
2020
2019
2017
2015
2014
2014
2017
2020
2021
2021
2019
2018
2017
2019
2021
2021
2021
2022
2022
2023
2023
2024
2024
2024
2025
2024
2024
2025
2025
2025
2025
2026
2026
2025
2023
2022
2022
2024
2026
2028
2027
2026
2024
2023
2023
2023
2023
2023
2023
2024
2024
2024
2024
2024
2024
2024
2024
2024
2024
2025
2025
2025
2026
2025
2024
2023
2022
2024
2026
2028
2029
2029
2027
2026
2025
2026
2027
2028
2028
2028
2028
2028
2028
2028
2028
2029
2029
2029
2029
2029
2029
2029
2029
2029
2030
2029
2028
2026
2025
2026
2028
2030
2031
2032
2032
2033
2034
2036
2039
2039
2038
2036
2035
2034
2033
2033
2032
2030
2029
2028
2029
2030
2032
2030
2031
2030
2030
2029
2028
2027
2026
2031
2047
2072
2104
2127
2123
2075
1994
1896
1816
1780
1797
1853
1922
1980
2019
2039
2047
2050
2054
2055
2057
2059
2061
2063
2066
2067
2066
2064
2063
2066
2070
2075
2078
2077
2074
2073
2073
2075
2078
2080
2081
2082
2085
2086
2088
2090
2092
2095
2097
2099
2102
2105
2109
2111
2115
2119
2122
2124
2125
2127
2130
2134
2138
2139
2138
2134
2131
2127
2125
2120
2112
2103
2093
2083
2073
2064
2056
2048
2043
2037
2032
2028
2025
2022
2019
2018
2020
2018
2018
2015
2012
2012
2016
2021
2025
2026
2023
2020
2018
2016
2020
2020
2022
2021
2022
2023
2023
2024
2024
2025
2024
2024
2025
2024
2025
2025
2026
2026
2026
2025
2023
2023
2023
2025
2027
2029
2029
2027
2025
2024
2023
2023
2024
2024
2024
2024
2024
2025
2025
2025
2025
2025
2025
2026
2025
2026
2026
2026
2027
2027
2027
2026
2025
2025
2026
2028
2031
2032
2031
2030
2028
2028
2028
2029
2030
2029
2028
2027
2026
2026
2027
2029
2031
2033
2035
2037
2038
2039
2039
2037
2036
2034
2032
2031
2030
2030
2030
2031
2032
2031
2030
2028
2027
2028
2029
2030
2030
2028
2026
2026
2035
2056
2089
2117
2124
2089
2012
1910
1817
1764
1765
1815
1886
1953
2002
2030
2044
2049
2054
2057
2058
2060
2061
2063
2065
2067
2068
2069
2071
2071
2072
2072
2073
2073
2075
2076
2077
2078
2079
2081
2083
2084
2087
2088
2090
2091
2093
2095
2100
2105
2110
2114
2116
2118
2119
2122
2127
2132
2136
2138
2139
2140
2142
2143
2144
2143
2141
2138
2133
2126
2117
2106
2094
2084
2074
2063
2054
2045
2037
2032
2030
2030
2029
2025
2021
2018
2016
2017
2018
2017
2016
2014
2015
2015
2016
2018
2018
2018
2019
2019
2019
2019
2019
2019
2021
2022
2022
2022
2020
2019
2019
2021
2023
2025
2025
2023
2021
2020
2020
2022
2021
2021
2021
2021
2021
2021
2022
2021
2021
2021
2021
2021
2021
2022
2022
2020
2023
2023
2023
2021
2019
2017
2019
2024
2028
2030
2028
2026
2024
2021
2023
2021
2020
2019
2020
2022
2025
2027
2028
2030
2032
2034
2035
2034
2033
2031
2028
2030
2029
2028
2025
2023
2021
2022
2025
2028
2029
2028
2026
2025
2023
2024
2023
2021
2023
2036
2062
2096
2123
2119
2069
1978
1869
1781
1742
1762
1824
1902
1969
2013
2036
2042
2043
2044
2048
2055
2062
2066
2067
2065
2062
2061
2063
2064
2067
2068
2068
2069
2070
2071
2071
2072
2074
2074
2076
2078
2080
2082
2084
2087
2089
2091
2092
2093
2097
2102
2109
2114
2118
2120
2120
2122
2124
2129
2133
2135
2137
2138
2138
2137
2136
2134
2129
2123
2116
2107
2096
2086
2075
2064
2056
2048
2041
2034
2028
2024
2020
2021
2021
2021
2017
2012
2008
2007
2011
2015
2019
2019
2016
2014
2012
2013
2014
2016
2016
2018
2018
2018
2018
2017
2017
2017
2020
2021
2020
2018
2017
2018
2020
2024
2027
2026
2024
2021
2019
2019
2021
2021
2021
2020
2020
2020
2021
2021
2022
2022
2021
2022
2022
2023
2023
2023
2022
2023
2024
2025
2024
2022
2021
2022
2025
2028
2030
2030
2028
2028
2027
2029
2029
2028
2026
2025
2025
2026
2027
2029
2030
2032
2033
2035
2037
2038
2040
2039
2038
2037
2035
2034
2031
2029
2028
2029
2031
2032
2032
2030
2029
2028
2029
2031
2031
2032
2032
2030
2028
2028
2042
2070
2111
2149
2158
2118
2029
1915
1814
1758
1766
1818
1892
1955
1999
2023
2036
2047
2056
2063
2065
2064
2062
2060
2065
2067
2070
2070
2070
2071
2072
2074
2075
2077
2078
2079
2080
2082
2083
2084
2085
2089
2090
2092
2092
2093
2095
2099
2105
2111
2115
2117
2117
2118
2119
2124
2129
2132
2135
2137
2138
2139
2140
2140
2139
2138
2137
2133
2128
2122
2114
2104
2095
2085
2076
2066
2057
2049
2045
2041
2039
2038
2035
2032
2028
2026
2026
2026
2027
2027
2026
2027
2027
2027
2028
2028
2030
2030
2030
2031
2031
2032
2031
2032
2033
2033
2032
2031
2031
2031
2033
2035
2036
2035
2033
2031
2030
2030
2031
2031
2031
2031
2031
2031
2031
2030
2030
2030
2029
2030
2030
2030
2031
2031
2031
2031
2032
2031
2030
2030
2030
2032
2034
2036
2036
2034
2032
2029
2029
2029
2031
2033
2034
2036
2038
2041
2042
2044
2044
2043
2040
2039
2039
2039
2037
2033
2033
2032
2033
2033
2032
2032
2032
2034
2037
2037
2038
2035
2032
2029
2031
2042
2066
2104
2141
2155
2123
2043
1933
1830
1769
1767
1815
1887
1953
2000
2028
2041
2049
2053
2056
2056
2056
2060
2066
2073
2078
2077
2074
2071
2070
2071
2074
2076
2077
2077
2079
2080
2081
2083
2085
2087
2088
2090
2091
2093
2096
2097
2101
2106
2108
2111
2110
2113
2116
2123
2131
2136
2138
2138
2138
2137
2139
2142
2141
2141
2139
2136
2132
2126
2119
2110
2100
2089
2078
2069
2060
2052
2045
2040
2037
2033
2030
2027
2024
2023
2024
2026
2028
2028
2026
2025
2024
2023
2024
2024
2025
2025
2026
2027
2028
2029
2029
2029
2029
2029
2029
2029
2030
2030
2031
2032
2032
2031
2029
2028
2028
2029
2032
2033
2034
2032
2029
2028
2027
2028
2028
2028
2028
2028
2029
2029
2029
2029
2029
2029
2029
2029
2029
2030
2030
2029
2029
2028
2028
2028
2028
2028
2030
2034
2038
2042
2044
2043
2040
2038
2036
2035
2036
2035
2035
2034
2034
2033
2033
2033
2033
2032
2032
2032
2033
2034
2035
2034
2033
2032
2033
2048
2080
2119
2148
2141
2084
1985
1872
1788
1757
1784
1850
1923
1981
2019
2038
2047
2051
2055
2058
2061
2062
2064
2066
2068
2070
2071
2071
2073
2073
2074
2074
2075
2077
2079
2082
2083
2084
2084
2084
2085
2086
2090
2092
2095
2097
2100
2103
2106
2108
2112
2115
2119
2123
2127
2130
2134
2136
2136
2139
2141
2142
2141
2139
2138
2137
2136
2134
2128
2117
2105
2091
2079
2070
2062
2054
2048
2041
2036
2032
2030
2027
2026
2024
2024
2023
2022
2022
2021
2021
2022
2025
2025
2023
2020
2018
2019
2024
2030
2035
2034
2030
2027
2025
2026
2028
2029
2029
2029
2029
2029
2029
2029
2030
2030
2031
2031
2030
2029
2030
2028
2028
2029
2029
2028
2026
2024
2024
2025
2028
2031
2032
2030
2029
2027
2025
2027
2026
2027
2027
2026
2025
2025
2026
2027
2029
2030
2032
2034
2037
2039
2040
2040
2040
2037
2037
2034
2033
2031
2031
2032
2033
2033
2032
2031
2029
2028
2030
2029
2031
2031
2030
2030
2028
2028
2037
2061
2095
2129
2142
2111
2036
1932
1832
1770
1765
1809
1877
1945
1995
2026
2042
2049
2055
2057
2058
2059
2059
2062
2065
2067
2068
2069
2070
2071
2072
2073
2074
2075
2076
2076
2077
2079
2081
2083
2086
2087
2088
2088
2089
2091
2095
2101
2107
2111
2113
2114
2115
2117
2122
2126
2130
2133
2135
2138
2139
2141
2141
2141
2140
2139
2137
2133
2127
2120
2110
2100
2089
2078
2068
2057
2049
2044
2041
2039
2036
2032
2028
2024
2022
2022
2022
2022
2021
2022
2022
2022
2022
2022
2022
2022
2023
2024
2025
2026
2026
2026
2027
2027
2028
2027
2026
2025
2026
2029
2031
2033
2032
2030
2028
2026
2027
2027
2028
2028
2027
2027
2027
2027
2026
2026
2026
2026
2026
2026
2027
2026
2025
2025
2026
2025
2025
2024
2024
2025
2027
2029
2030
2029
2028
2027
2027
2030
2032
2035
2037
2038
2038
2037
2036
2034
2033
2033
2032
2032
2031
2030
2030
2029
2029
2030
2030
2031
2030
2029
2027
2027
2028
2030
2035
2048
2072
2103
2122
2113
2057
1965
1859
1776
1746
1770
1834
1910
1972
2014
2036
2047
2051
2055
2058
2060
2062
2066
2068
2069
2068
2068
2069
2072
2076
2079
2079
2078
2077
2077
2078
2082
2082
2084
2084
2085
2087
2089
2091
2094
2097
2100
2101
2102
2102
2104
2109
2113
2122
2126
2128
2126
2125
2126
2131
2139
2144
2146
2142
2136
2130
2124
2122
2115
2108
2096
2085
2076
2067
2059
2053
2047
2040
2035
2031
2028
2026
2025
2023
2023
2023
2023
2020
2017
2016
2017
2020
2025
2027
2026
2023
2020
2019
2021
2023
2024
2025
2025
2024
2025
2026
2026
2027
2027
2027
2026
2026
2026
2027
2026
2027
2028
2027
2025
2022
2020
2021
2025
2030
2033
2032
2028
2025
2022
2022
2023
2024
2025
2026
2027
2027
2026
2024
2021
2020
2021
2023
2025
2027
2028
2031
2033
2036
2038
2037
2034
2031
2030
2030
2034
2036
2035
2032
2027
2024
2023
2025
2027
2028
2028
2028
2028
2028
2027
2026
2025
2027
2040
2063
2095
2119
2116
2067
1981
1879
1797
1765
1787
1850
1925
1988
2028
2046
2050
2050
2051
2052
2056
2059
2062
2064
2065
2066
2067
2068
2068
2069
2070
2071
2073
2074
2075
2076
2077
2079
2079
2081
2081
2082
2085
2089
2096
2101
2103
2104
2103
2103
2106
2111
2115
2120
2122
2125
2127
2129
2132
2133
2135
2138
2138
2138
2137
2134
2130
2124
2118
2109
2100
2088
2076
2064
2056
2051
2048
2045
2040
2034
2028
2023
2021
2021
2021
2020
2019
2019
2019
2019
2019
2019
2021
2021
2022
2022
2023
2024
2023
2024
2025
2025
2025
2023
2022
2022
2024
2028
2031
2032
2030
2027
2022
2022
2024
2023
2026
2026
2026
2025
2023
2023
2023
2023
2023
2024
2025
2024
2024
2022
2024
2025
2024
2026
2023
2021
2020
2019
2021
2024
2027
2029
2029
2026
2025
2026
2027
2032
2033
2035
2035
2035
2033
2031
2028
2027
2026
2025
2026
2027
2025
2024
2026
2026
2027
2026
2023
2022
2022
2025
2030
2039
2055
2082
2108
2116
2087
2015
1912
1813
1752
1748
1796
1870
1943
1996
2027
2041
2046
2048
2051
2054
2056
2059
2062
2063
2063
2061
2060
2063
2068
2074
2077
2077
2075
2072
2072
2073
2076
2079
2080
2083
2084
2086
2087
2088
2091
2095
2099
2102
2104
2107
2110
2115
2118
2123
2125
2128
2128
2129
2132
2136
2142
2145
2146
2143
2137
2133
2128
2122
2115
2106
2097
2087
2077
2066
2056
2047
2038
2032
2027
2025
2023
2020
2019
2016
2018
2016
2016
2014
2013
2012
2015
2019
2022
2023
2021
2019
2018
2016
2020
2019
2021
2021
2021
2021
2021
2021
2021
2021
2022
2022
2022
2021
2021
2021
2019
2022
2020
2020
2020
2017
2017
2018
2022
2023
2023
2023
2021
2021
2023
2026
2026
2023
2022
2019
2019
2021
2022
2023
2023
2023
2023
2023
2023
2023
2023
2023
2024
2024
2024
2024
2023
2022
2024
2026
2029
2030
2027
2025
2023
2024
2027
2030
2032
2033
2034
2036
2036
2036
2035
2033
2032
2032
2031
2030
2029
2029
2027
2027
2028
2028
2028
2026
2025
2026
2028
2029
2029
2028
2027
2037
2059
2092
2121
2122
2081
1997
1891
1798
1750
1758
1813
1888
1958
2007
2035
2046
2050
2053
2053
2059
2061
2062
2063
2062
2063
2067
2072
2077
2079
2077
2074
2072
2071
2076
2077
2080
2080
2081
2083
2084
2086
2089
2091
2093
2095
2097
2099
2103
2106
2107
2112
2115
2118
2119
2121
2123
2126
2131
2135
2138
2138
2136
2134
2131
2132
2129
2127
2123
2117
2109
2101
2092
2082
2073
2064
2056
2049
2043
2039
2034
2031
2030
2028
2026
2022
2018
2015
2017
2022
2027
2031
2029
2026
2022
2019
2021
2021
2024
2025
2025
2025
2025
2026
2025
2025
2026
2025
2026
2025
2025
2025
2025
2025
2025
2025
2023
2021
2020
2021
2024
2026
2026
2026
2023
2022
2019
2021
2022
2022
2023
2023
2023
2023
2023
2024
2023
2023
2023
2023
2024
2024
2025
2025
2025
2025
2025
2024
2023
2023
2023
2025
2028
2030
2030
2029
2027
2026
2026
2026
2027
2028
2028
2028
2028
2028
2028
2028
2028
2029
2029
2028
2027
2026
2027
2026
2027
2029
2029
2032
2033
2036
2038
2041
2041
2039
2037
2034
2032
2031
2031
2030
2029
2029
2028
2027
2028
2028
2029
2029
2030
2031
2030
2029
2027
2027
2035
2058
2090
2121
2132
2099
2024
1922
1827
1773
1773
1820
1891
1959
2007
2035
2048
2050
2053
2054
2057
2059
2061
2064
2065
2067
2068
2069
2070
2070
2072
2072
2073
2077
2078
2078
2076
2075
2077
2082
2089
2095
2097
2096
2094
2094
2095
2101
2103
2105
2108
2110
2113
2117
2120
2123
2125
2127
2129
2130
2132
2132
2133
2132
2133
2130
2127
2123
2118
2112
2107
2101
2095
2086
2076
2066
2056
2048
2045
2040
2038
2034
2031
2030
2029
2028
2027
2027
2026
2026
2026
2026
2027
2028
2027
2030
2030
2030
2027
2025
2025
2027
2031
2035
2036
2035
2032
2029
2027
2028
2029
2028
2029
2029
2029
2028
2028
2028
2027
2027
2027
2027
2027
2027
2027
2027
2027
2027
2027
2027
2026
2025
2026
2026
2029
2031
2030
2030
2028
2028
2028
2028
2029
2029
2030
2030
2031
2031
2031
2031
2030
2031
2031
2031
2032
2033
2033
2033
2033
2033
2032
2031
2030
2029
2030
2031
2032
2033
2034
2035
2036
2038
2041
2042
2043
2042
2040
2038
2037
2037
2036
2035
2034
2034
2033
2033
2033
2033
2033
2033
2034
2034
2033
2032
2030
2031
2040
2061
2093
2125
2138
2110
2037
1933
1834
1775
1772
1821
1895
1965
2012
2038
2048
2051
2055
2058
2061
2063
2065
2065
2068
2069
2070
2070
2071
2072
2074
2077
2080
2081
2082
2082
2082
2082
2084
2085
2087
2088
2090
2091
2094
2096
2099
2101
2103
2106
2109
2112
2114
2116
2118
2122
2124
2126
2127
2126
2127
2128
2131
2133
2133
2129
2124
2120
2113
2110
2102
2093
2083
2073
2066
2058
2052
2047
2042
2038
2035
2033
2031
2029
2028
2026
2027
2028
2028
2028
2025
2024
2024
2027
2031
2033
2034
2032
2030
2028
2030
2032
2031
2031
2031
2031
2031
2031
2031
2031
2031
2031
2031
2030
2030
2030
2029
2028
2030
2029
2028
2026
2023
2023
2026
2031
2033
2034
2030
2028
2026
2024
2027
2026
2026
2025
2026
2027
2027
2028
2027
2026
2024
2023
2023
2023
2026
2028
2030
2034
2035
2036
2034
2032
2031
2032
2034
2036
2036
2034
2030
2027
2025
2027
2027
2027
2027
2028
2028
2029
2029
2028
2025
2023
2027
2048
2082
2120
2140
2116
2045
1939
1833
1767
1757
1803
1876
1952
2007
2038
2048
2050
2051
2051
2054
2058
2060
2062
2064
2066
2067
2067
2068
2068
2070
2071
2072
2074
2075
2076
2077
2079
2081
2082
2083
2083
2085
2087
2092
2096
2099
2101
2102
2103
2105
2108
2113
2115
2119
2122
2126
2128
2130
2132
2133
2133
2132
2132
2131
2129
2127
2123
2117
2109
2099
2089
2078
2068
2060
2053
2048
2044
2038
2033
2028
2024
2021
2020
2020
2020
2020
2019
2019
2019
2019
2020
2020
2020
2021
2022
2022
2023
2023
2023
2023
2023
2023
2022
2021
2021
2023
2024
2026
2025
2024
2022
2022
2023
2023
2023
2022
2021
2020
2019
2021
2021
2022
2022
2022
2022
2022
2022
2021
2021
2021
2023
2023
2024
2023
2021
2020
2020
2022
2025
2026
2024
2022
2021
2021
2024
2027
2029
2030
2031
2033
2033
2034
2033
2032
2031
2030
2029
2028
2026
2026
2026
2025
2028
2028
2028
2025
2024
2023
2025
2030
2033
2039
2055
2081
2113
2129
2112
2044
1945
1844
1779
1771
1815
1888
1959
2009
2036
2045
2048
2050
2052
2054
2057
2060
2063
2064
2063
2062
2061
2064
2068
2072
2074
2074
2072
2072
2072
2075
2077
2079
2080
2082
2084
2086
2089
2091
2093
2095
2097
2100
2102
2106
2110
2112
2118
2120
2122
2123
2123
2125
2128
2133
2138
2139
2137
2134
2130
2125
2124
2119
2111
2103
2093
2083
2074
2065
2057
2049
2043
2039
2034
2031
2028
2026
2024
2024
2023
2023
2021
2019
2018
2020
2023
2027
2029
2028
2026
2025
2024
2026
2026
2027
2027
2027
2027
2026
2027
2026
2027
2027
2026
2026
2025
2025
2026
2025
2027
2026
2025
2024
2023
2022
2023
2025
2028
2029
2028
2025
2023
2022
2022
2023
2023
2022
2023
2025
2027
2029
2032
2034
2035
2035
2034
2033
2032
2031
2029
2030
2030
2029
2028
2026
2024
2025
2026
2029
2033
2033
2031
2028
2025
2025
2030
2047
2078
2116
2142
2133
2073
1972
1861
1780
1757
1792
1864
1939
1994
2027
2040
2045
2048
2051
2054
2056
2059
2063
2066
2070
2069
2068
2067
2066
2068
2070
2072
2074
2074
2075
2075
2077
2077
2081
2082
2084
2086
2089
2091
2092
2093
2096
2099
2102
2106
2108
2110
2111
2115
2119
2125
2130
2131
2130
2130
2128
2129
2127
2127
2125
2120
2116
2109
2101
2092
2081
2071
2061
2052
2045
2039
2034
2030
2026
2025
2023
2021
2018
2016
2016
2019
2022
2023
2022
2019
2017
2017
2018
2022
2021
2020
2020
2019
2020
2022
2023
2024
2024
2023
2023
2024
2024
2024
2024
2023
2025
2025
2024
2022
2020
2019
2020
2022
2025
2026
2025
2023
2021
2018
2019
2017
2018
2018
2018
2019
2021
2022
2024
2027
2029
2030
2030
2028
2026
2026
2023
2026
2025
2024
2020
2017
2017
2018
2023
2029
2030
2030
2026
2022
2017
2018
2021
2032
2055
2090
2123
2131
2093
2010
1901
1806
1760
1774
1834
1911
1975
2014
2033
2040
2042
2046
2047
2048
2050
2053
2058
2061
2061
2061
2060
2059
2061
2062
2064
2065
2066
2068
2069
2070
2071
2072
2073
2075
2077
2079
2081
2084
2087
2088
2092
2093
2095
2096
2097
2102
2107
2113
2117
2118
2117
2115
2115
2114
2117
2116
2115
2113
2110
2105
2099
2091
2082
2073
2063
2054
2046
2039
2033
2028
2025
2022
2020
2017
2015
2013
2013
2013
2014
2016
2016
2015
2014
2013
2013
2014
2015
2016
2017
2017
2018
2018
2019
2019
2019
2020
2021
2021
2021
2021
2022
2021
2021
2021
2021
2021
2021
2021
2022
2023
2024
2023
2022
2020
2019
2019
2019
2020
2021
2019
2018
2016
2015
2015
2017
2018
2023
2025
2028
2029
2028
2027
2026
2026
2025
2025
2022
2021
2019
2021
2021
2022
2023
2023
2024
2027
2027
2027
2023
2020
2019
2027
2049
2083
2115
2129
2103
2034
1935
1842
1788
1789
1840
1909
1975
2018
2037
2044
2043
2046
2048
2054
2059
2062
2063
2061
2059
2059
2061
2065
2066
2067
2066
2067
2068
2070
2072
2074
2075
2076
2077
2079
2081
2083
2084
2088
2091
2094
2096
2096
2096
2098
2104
2111
2117
2121
2122
2122
2121
2122
2125
2125
2127
2126
2126
2124
2122
2118
2111
2104
2095
2085
2075
2065
2057
2049
2042
2038
2034
2030
2024
2019
2016
2018
2022
2027
2027
2025
2021
2017
2016
2017
2019
2020
2021
2022
2022
2023
2024
2024
2024
2024
2024
2025
2025
2025
2025
2025
2026
2026
2026
2025
2023
2022
2023
2024
2027
2029
2028
2026
2023
2022
2022
2022
2024
2024
2024
2024
2024
2024
2024
2024
2025
2025
2025
2025
2023
2023
2022
2021
2024
2024
2026
2026
2027
2031
2035
2039
2040
2038
2034
2030
2028
2026
2028
2028
2028
2027
2027
2027
2027
2027
2028
2029
2029
2028
2026
2026
2029
2043
2067
2100
2125
2119
2070
1983
1884
1807
1780
1808
1871
1941
1996
2029
2043
2048
2050
2053
2055
2057
2058
2060
2062
2063
2064
2065
2066
2067
2068
2070
2071
2072
2073
2074
2076
2076
2077
2079
2082
2085
2088
2090
2091
2094
2094
2096
2098
2101
2105
2108
2112
2115
2118
2121
2123
2125
2127
2130
2130
2131
2131
2131
2131
2130
2127
2122
2115
2107
2097
2088
2080
2073
2066
2057
2049
2043
2036
2032
2029
2027
2025
2024
2023
2022
2021
2022
2021
2022
2022
2022
2022
2022
2023
2023
2024
2026
2026
2026
2024
2023
2024
2027
2031
2032
2032
2029
2026
2025
2025
2028
2027
2026
2025
2024
2025
2026
2026
2026
2026
2025
2025
2025
2025
2025
2024
2024
2026
2027
2027
2026
2024
2023
2024
2027
2030
2031
2029
2026
2025
2023
2026
2026
2027
2026
2026
2026
2027
2028
2028
2028
2027
2027
2027
2027
2028
2028
2027
2030
2030
2030
2027
2025
2024
2027
2032
2036
2037
2035
2031
2029
2027
2028
2028
2027
2026
2027
2028
2030
2031
2033
2035
2037
2039
2039
2039
2038
2037
2035
2036
2034
2033
2029
2027
2026
2028
2032
2036
2038
2036
2033
2029
2026
2026
2027
2035
2053
2085
2115
2129
2104
2035
1936
1839
1779
1774
1819
1890
1958
2006
2034
2046
2048
2050
2050
2051
2055
2060
2067
2070
2070
2067
2064
2063
2065
2067
2069
2070
2071
2073
2075
2076
2077
2078
2079
2081
2082
2084
2086
2088
2089
2092
2094
2097
2098
2100
2101
2104
2108
2113
2118
2119
2120
2119
2118
2119
2120
2121
2121
2120
2118
2116
2113
2109
2104
2097
2090
2081
2073
2064
2057
2051
2045
2041
2036
2033
2029
2027
2026
2026
2028
2029
2028
2027
2025
2024
2024
2024
2025
2025
2025
2026
2027
2028
2029
2029
2029
2029
2030
2030
2031
2030
2030
2030
2030
2030
2031
2030
2028
2026
2026
2028
2030
2032
2031
2029
2027
2025
2025
2025
2026
2026
2025
2025
2025
2025
2026
2026
2026
2026
2026
2025
2024
2025
2025
2025
2027
2027
2026
2023
2022
2023
2026
2031
2033
2032
2029
2026
2024
2025
2028
2028
2029
2028
2027
2027
2028
2028
2029
2029
2029
2029
2029
2030
2029
2030
2029
2031
2031
2031
2030
2029
2028
2030
2031
2034
2035
2034
2033
2032
2029
2031
2031
2032
2030
2029
2029
2029
2031
2033
2035
2037
2038
2040
2040
2040
2040
2037
2040
2038
2036
2032
2029
2029
2030
2034
2038
2039
2037
2034
2032
2030
2029
2030
2029
2030
2038
2055
2083
2111
2123
2100
2039
1951
1865
1811
1806
1847
1913
1977
2022
2046
2052
2052
2053
2056
2060
2065
2068
2068
2067
2066
2066
2067
2068
2070
2071
2072
2074
2075
2076
2075
2075
2075
2079
2084
2090
2093
2094
2093
2091
2093
2094
2097
2098
2099
2103
2109
2116
2120
2122
2121
2121
2122
2123
2127
2128
2130
2129
2129
2128
2126
2123
2121
2117
2112
2106
2098
2090
2080
2071
2062
2055
2049
2045
2040
2036
2033
2031
2031
2031
2030
2028
2026
2024
2023
2024
2025
2026
2027
2027
2027
2028
2028
2028
2029
2029
2030
2030
2030
2030
2030
2030
2030
2029
2029
2028
2028
2029
2031
2034
2035
2035
2031
2028
2025
2024
2028
2030
2031
2030
2028
2028
2029
2029
2030
2029
2028
2029
2029
2030
2031
2029
2029
2030
2030
2031
2029
2026
2026
2028
2032
2037
2039
2037
2034
2031
2030
2032
2033
2034
2033
2032
2033
2033
2034
2034
2034
2035
2035
2034
2035
2033
2033
2034
2034
2038
2036
2035
2031
2029
2030
2035
2042
2043
2043
2039
2035
2033
2033
2037
2036
2034
2033
2033
2033
2033
2035
2034
2035
2036
2038
2041
2044
2046
2045
2044
2044
2041
2043
2039
2037
2034
2034
2037
2042
2044
2042
2039
2035
2034
2036
2035
2037
2034
2033
2034
2039
2058
2088
2123
2141
2124
2060
1965
1864
1798
1785
1825
1893
1963
2009
2034
2044
2048
2055
2063
2067
2068
2066
2065
2065
2068
2070
2072
2072
2073
2074
2075
2077
2078
2079
2079
2080
2081
2082
2084
2086
2087
2088
2090
2091
2092
2093
2095
2098
2103
2108
2112
2114
2114
2114
2115
2117
2120
2124
2126
2126
2127
2127
2127
2127
2125
2123
2119
2115
2109
2102
2094
2085
2075
2066
2058
2050
2043
2036
2032
2031
2032
2033
2032
2028
2024
2022
2020
2022
2022
2023
2022
2023
2024
2024
2024
2025
2025
2025
2025
2026
2027
2027
2027
2028
2030
2028
2027
2026
2027
2029
2032
2035
2035
2032
2029
2027
2026
2026
2029
2028
2028
2028
2028
2027
2026
2026
2026
2026
2026
2026
2026
2025
2025
2025
2025
2026
2025
2026
2025
2024
2025
2026
2030
2032
2034
2032
2029
2026
2024
2026
2028
2029
2029
2028
2026
2027
2029
2031
2033
2030
2028
2027
2027
2031
2032
2032
2031
2030
2031
2030
2029
2027
2026
2027
2029
2032
2033
2032
2032
2032
2034
2037
2039
2039
2037
2037
2036
2036
2035
2034
2033
2031
2031
2031
2031
2031
2031
2032
2032
2033
2032
2028
2025
2025
2031
2047
2073
2105
2127
2125
2081
2001
1907
1826
1792
1808
1864
1933
1991
2028
2045
2050
2052
2054
2056
2059
2062
2062
2063
2066
2066
2070
2069
2068
2066
2065
2070
2074
2080
2081
2080
2079
2076
2079
2079
2083
2082
2084
2087
2091
2095
2097
2098
2099
2100
2103
2107
2110
2115
2116
2119
2124
2127
2128
2127
2126
2127
2130
2133
2133
2130
2124
2118
2111
2104
2098
2087
2078
2068
2059
2052
2046
2041
2036
2031
2029
2026
2024
2023
2022
2020
2021
2020
2020
2018
2017
2016
2018
2022
2025
2027
2025
2023
2021
2019
2022
2022
2024
2025
2025
2025
2025
2025
2025
2025
2025
2026
2026
2025
2026
2025
2026
2026
2026
2024
2024
2023
2022
2023
2025
2027
2029
2029
2027
2024
2023
2022
2024
2024
2025
2025
2025
2026
2025
2025
2025
2025
2025
2025
2026
2026
2027
2026
2027
2028
2028
2027
2026
2025
2026
2029
2031
2034
2033
2031
2029
2027
2028
2028
2030
2030
2030
2030
2030
2030
2030
2030
2030
2030
2030
2030
2030
2030
2031
2030
2030
2030
2031
2031
2030
2031
2032
2033
2035
2035
2034
2032
2029
2028
2028
2030
2032
2034
2035
2036
2038
2039
2040
2040
2041
2039
2038
2036
2034
2033
2032
2032
2033
2032
2032
2032
2032
2033
2035
2036
2036
2032
2030
2032
2044
2067
2100
2125
2125
2082
2003
1905
1825
1789
1806
1862
1932
1990
2027
2044
2050
2052
2056
2059
2061
2062
2061
2062
2065
2067
2070
2071
2072
2072
2075
2078
2078
2080
2077
2076
2076
2078
2080
2082
2084
2086
2088
2090
2091
2093
2096
2097
2100
2101
2106
2109
2111
2113
2115
2118
2122
2127
2132
2135
2135
2134
2133
2130
2130
2129
2128
2125
2121
2115
2107
2099
2089
2080
2072
2063
2055
2048
2043
2039
2035
2034
2032
2029
2025
2021
2019
2020
2025
2029
2030
2028
2025
2022
2020
2021
2024
2024
2025
2025
2026
2027
2028
2028
2028
2028
2028
2028
2028
2029
2029
2029
2030
2030
2029
2028
2027
2026
2027
2028
2031
2032
2031
2028
2026
2025
2025
2025
2026
2026
2026
2026
2026
2026
2026
2026
2026
2027
2027
2028
2028
2028
2029
2028
2030
2029
2029
2028
2028
2029
2032
2035
2037
2035
2033
2030
2029
2029
2032
2032
2032
2032
2032
2032
2031
2031
2032
2032
2033
2033
2033
2033
2033
2033
2033
2033
2034
2033
2033
2032
2033
2034
2036
2038
2039
2037
2035
2033
2033
2033
2035
2036
2036
2036
2036
2036
2035
2035
2035
2035
2036
2036
2036
2037
2036
2036
2036
2036
2035
2033
2032
2032
2034
2037
2041
2043
2045
2045
2044
2044
2044
2043
2042
2040
2039
2037
2036
2035
2034
2034
2034
2035
2035
2035
2034
2034
2035
2035
2034
2033
2034
2043
2061
2091
2119
2128
2099
2029
1934
1848
1802
1808
1858
1927
1988
2027
2046
2052
2053
2056
2058
2060
2063
2064
2066
2067
2068
2069
2070
2072
2072
2073
2072
2071
2072
2075
2079
2082
2084
2084
2083
2083
2084
2088
2090
2091
2093
2094
2096
2100
2103
2106
2108
2110
2113
2116
2119
2121
2124
2126
2130
2132
2133
2131
2129
2129
2131
2132
2133
2130
2122
2112
2102
2092
2084
2075
2067
2059
2052
2048
2043
2038
2035
2032
2028
2026
2024
2024
2024
2024
2024
2026
2025
2024
2023
2020
2021
2024
2028
2033
2034
2034
2031
2029
2028
2028
2030
2029
2031
2031
2031
2032
2032
2031
2031
2030
2030
2030
2030
2030
2030
2030
2031
2030
2030
2028
2027
2027
2028
2030
2033
2034
2033
2031
2029
2028
2029
2029
2031
2031
2030
2030
2030
2030
2031
2031
2031
2031
2031
2031
2031
2032
2032
2032
2034
2032
2032
2031
2030
2032
2034
2038
2040
2039
2036
2033
2032
2031
2034
2034
2034
2034
2034
2034
2033
2033
2034
2034
2034
2034
2034
2034
2034
2034
2034
2035
2036
2035
2035
2034
2034
2035
2036
2038
2037
2036
2033
2032
2032
2033
2036
2039
2041
2042
2044
2044
2043
2042
2040
2040
2039
2038
2037
2037
2035
2034
2034
2034
2034
2033
2033
2033
2035
2036
2038
2038
2039
2050
2075
2111
2141
2141
2093
2000
1892
1805
1770
1792
1854
1928
1987
2024
2042
2049
2052
2057
2060
2063
2066
2067
2068
2068
2069
2070
2074
2078
2080
2080
2078
2077
2076
2078
2079
2081
2082
2083
2084
2086
2088
2091
2094
2096
2098
2100
2102
2104
2106
2108
2108
2111
2112
2115
2116
2119
2123
2127
2132
2136
2137
2136
2133
2132
2130
2131
2127
2122
2114
2106
2097
2087
2078
2069
2062
2055
2048
2043
2039
2034
2031
2029
2029
2027
2025
2023
2021
2022
2024
2027
2029
2029
2028
2026
2025
2023
2025
2024
2026
2027
2028
2029
2029
2031
2030
2032
2032
2032
2032
2031
2032
2032
2032
2035
2035
2034
2032
2029
2029
2031
2035
2038
2038
2036
2032
2030
2028
2028
2029
2029
2029
2029
2030
2030
2030
2030
2029
2029
2029
2029
2029
2030
2030
2030
2032
2031
2031
2030
2029
2029
2030
2034
2037
2038
2036
2034
2031
2029
2031
2032
2032
2033
2033
2033
2032
2033
2033
2033
2033
2034
2034
2034
2034
2035
2035
2034
2037
2035
2035
2033
2031
2033
2036
2039
2041
2039
2036
2033
2032
2031
2035
2037
2039
2043
2044
2046
2043
2039
2036
2036
2040
2044
2045
2044
2038
2034
2031
2032
2034
2037
2036
2035
2035
2034
2033
2035
2042
2058
2085
2114
2130
2112
2053
1965
1872
1808
1795
1829
1892
1958
2008
2037
2050
2054
2057
2060
2062
2063
2065
2067
2069
2069
2069
2069
2071
2074
2077
2080
2081
2080
2078
2078
2080
2080
2083
2084
2085
2087
2088
2090
2092
2094
2096
2099
2102
2105
2108
2109
2112
2115
2118
2122
2124
2125
2127
2130
2134
2139
2141
2141
2139
2136
2133
2131
2127
2122
2116
2107
2098
2088
2079
2070
2062
2055
2049
2044
2039
2035
2031
2029
2027
2026
2024
2023
2021
2019
2020
2022
2026
2028
2027
2025
2023
2022
2022
2026
2026
2027
2026
2025
2026
2027
2027
2028
2028
2028
2027
2027
2028
2028
2028
2027
2028
2028
2027
2027
2026
2025
2027
2028
2030
2031
2029
2027
2026
2024
2025
2026
2027
2026
2027
2027
2027
2027
2027
2027
2027
2027
2027
2027
2027
2028
2027
2030
2030
2029
2028
2025
2026
2028
2032
2036
2036
2035
2032
2030
2028
2029
2031
2030
2031
2031
2032
2033
2033
2033
2033
2033
2033
2033
2033
2033
2033
2034
2034
2035
2035
2034
2033
2032
2033
2035
2038
2040
2038
2036
2033
2032
2031
2031
2032
2034
2035
2037
2039
2041
2043
2044
2044
2043
2042
2041
2040
2040
2039
2037
2038
2036
2035
2033
2032
2034
2037
2042
2044
2042
2038
2034
2032
2033
2050
2076
2111
2139
2139
2093
2008
1905
1823
1788
1810
1870
1941
1997
2031
2046
2050
2053
2058
2061
2063
2063
2065
2067
2071
2074
2076
2076
2074
2074
2074
2075
2077
2079
2080
2081
2082
2083
2084
2086
2087
2089
2091
2093
2095
2097
2099
2100
2103
2106
2109
2111
2113
2117
2121
2127
2132
2135
2137
2137
2137
2138
2139
2141
2141
2139
2136
2134
2130
2123
2115
2106
2096
2085
2076
2068
2060
2052
2047
2041
2036
2032
2030
2027
2025
2024
2025
2026
2027
2028
2027
2025
2023
2023
2022
2023
2024
2025
2025
2025
2026
2027
2027
2028
2029
2029
2029
2029
2030
2029
2030
2030
2030
2030
2029
2027
2028
2029
2031
2033
2034
2032
2030
2029
2027
2029
2029
2028
2028
2027
2027
2028
2028
2028
2028
2028
2028
2028
2029
2029
2030
2029
2031
2031
2030
2029
2028
2029
2033
2037
2039
2039
2036
2032
2030
2029
2031
2031
2033
2033
2032
2032
2032
2032
2032
2032
2032
2032
2032
2032
2032
2031
2030
2032
2032
2031
2031
2029
2030
2034
2040
2046
2048
2046
2042
2038
2035
2034
2035
2033
2033
2031
2030
2031
2031
2031
2031
2031
2032
2032
2032
2031
2030
2030
2034
2050
2080
2116
2140
2128
2069
1972
1867
1790
1767
1799
1865
1937
1991
2022
2037
2044
2048
2052
2055
2057
2058
2060
2061
2063
2064
2065
2066
2067
2067
2067
2071
2071
2072
2070
2069
2071
2074
2080
2084
2085
2083
2082
2082
2082
2088
2090
2093
2096
2098
2102
2104
2107
2110
2112
2116
2119
2122
2125
2127
2128
2128
2129
2130
2129
2126
2122
2117
2111
2106
2100
2091
2080
2067
2055
2046
2039
2035
2031
2027
2024
2021
2018
2016
2015
2014
2014
2014
2014
2014
2013
2014
2013
2014
2014
2013
2013
2012
2012
2014
2017
2020
2021
2021
2020
2019
2019
2020
2021
2021
2020
2020
2020
2021
2021
2021
2020
2019
2019
2020
2020
2020
2019
2018
2019
2019
2019
2019
2017
2016
2016
2019
2023
2025
2024
2021
2018
2016
2017
2017
2018
2019
2019
2019
2019
2019
2019
2019
2019
2020
2020
2021
2021
2021
2021
2020
2022
2022
2022
2021
2020
2021
2023
2026
2027
2027
2024
2023
2023
2023
2027
2027
2026
2023
2022
2022
2023
2024
2025
2025
2025
2025
2025
2026
2026
2025
2023
2022
2021
2021
2022
2024
2028
2031
2033
2035
2036
2036
2037
2038
2036
2034
2029
2027
2024
2025
2027
2027
2027
2026
2026
2026
2028
2028
2026
2025
2024
2025
2039
2060
2091
2114
2113
2074
1999
1908
1831
1792
1803
1851
1915
1972
2014
2036
2046
2050
2054
2056
2058
2060
2063
2064
2065
2067
2068
2069
2071
2073
2074
2077
2079
2079
2079
2079
2081
2083
2088
2092
2095
2094
2093
2092
2092
2096
2098
2100
2103
2106
2109
2111
2115
2118
2121
2124
2127
2130
2132
2135
2137
2139
2139
2142
2140
2139
2135
2130
2127
2124
2122
2116
2107
2095
2083
2072
2062
2058
2051
2047
2042
2038
2035
2032
2030
2028
2027
2026
2026
2026
2025
2025
2025
2025
2026
2027
2026
2025
2024
2025
2028
2030
2033
2033
2032
2029
2027
2026
2027
2028
2029
2030
2031
2032
2032
2032
2031
2031
2031
2031
2031
2031
2031
2031
2030
2030
2029
2030
2029
2028
2027
2027
2029
2031
2032
2032
2031
2029
2029
2029
2030
2030
2029
2029
2029
2030
2030
2030
2030
2030
2030
2030
2030
2031
2031
2032
2033
2032
2031
2031
2030
2030
2031
2032
2034
2036
2035
2033
2031
2030
2031
2031
2031
2032
2031
2031
2031
2031
2031
2031
2031
2031
2031
2031
2030
2030
2030
2030
2031
2030
2030
2029
2027
2028
2030
2033
2034
2033
2031
2028
2026
2025
2029
2029
2029
2030
2031
2033
2036
2038
2039
2038
2036
2035
2033
2033
2032
2031
2029
2030
2029
2028
2026
2026
2027
2029
2032
2035
2034
2031
2028
2026
2030
2048
2077
2108
2122
2102
2041
1948
1855
1795
1786
1825
1892
1958
2006
2034
2045
2048
2052
2054
2056
2056
2055
2056
2058
2064
2069
2071
2070
2068
2066
2065
2065
2068
2069
2071
2072
2073
2075
2076
2078
2079
2081
2083
2084
2087
2089
2091
2093
2097
2099
2102
2104
2105
2108
2112
2117
2123
2127
2128
2129
2128
2128
2130
2129
2130
2129
2127
2124
2120
2113
2105
2096
2086
2077
2068
2060
2052
2047
2041
2034
2032
2027
2024
2020
2017
2017
2019
2021
2022
2021
2018
2015
2014
2012
2016
2017
2018
2018
2018
2019
2018
2018
2019
2019
2020
2020
2020
2020
2020
2020
2019
2020
2021
2020
2019
2018
2018
2018
2020
2023
2023
2021
2019
2017
2016
2016
2017
2018
2017
2017
2017
2017
2017
2017
2017
2017
2017
2018
2018
2018
2018
2017
2018
2018
2018
2018
2018
2018
2019
2021
2023
2023
2022
2021
2020
2020
2021
2022
2022
2021
2021
2021
2022
2021
2021
2023
2022
2022
2022
2022
2023
2024
2025
2026
2026
2025
2025
2024
2023
2024
2026
2028
2030
2030
2028
2026
2024
2024
2024
2025
2026
2026
2026
2026
2026
2026
2026
2027
2027
2027
2027
2027
2027
2027
2027
2027
2026
2025
2024
2022
2022
2025
2029
2033
2037
2038
2038
2037
2036
2037
2036
2034
2033
2031
2030
2031
2030
2029
2029
2028
2028
2029
2030
2030
2031
2030
2032
2031
2029
2029
2040
2064
2100
2131
2134
2092
2007
1906
1824
1790
1811
1869
1939
1994
2029
2044
2048
2051
2053
2055
2057
2059
2060
2061
2063
2064
2064
2067
2068
2068
2067
2066
2065
2068
2073
2078
2081
2081
2080
2079
2078
2079
2083
2083
2086
2088
2090
2094
2096
2098
2100
2103
2107
2109
2113
2116
2119
2122
2126
2128
2129
2130
2130
2130
2132
2133
2134
2133
2128
2121
2112
2103
2095
2085
2076
2067
2059
2052
2047
2042
2037
2032
2028
2024
2022
2021
2022
2023
2024
2022
2023
2021
2020
2018
2018
2019
2023
2027
2029
2029
2027
2024
2023
2021
2025
2025
2027
2026
2026
2025
2026
2026
2027
2028
2029
2027
2026
2025
2027
2027
2028
2028
2028
2026
2024
2023
2022
2024
2028
2032
2032
2029
2026
2022
2023
2024
2025
2027
2026
2026
2023
2022
2023
2026
2031
2035
2037
2034
2030
2026
2024
2025
2027
2029
2029
2028
2027
2028
2029
2033
2036
2036
2035
2032
2030
2030
2031
2033
2034
2033
2032
2031
2031
2031
2033
2033
2034
2034
2033
2032
2031
2032
2034
2037
2038
2036
2035
2032
2032
2032
2036
2038
2040
2040
2037
2035
2033
2033
2033
2034
2036
2035
2035
2034
2034
2034
2033
2033
2034
2035
2037
2039
2041
2043
2045
2046
2046
2044
2041
2038
2037
2038
2041
2042
2041
2039
2036
2035
2035
2035
2036
2035
2034
2035
2035
2035
2035
2040
2057
2086
2117
2136
2118
2057
1967
1872
1813
1803
1841
1904
1967
2013
2040
2055
2060
2064
2064
2061
2060
2059
2062
2066
2069
2070
2069
2069
2069
2071
2073
2074
2076
2077
2078
2078
2078
2079
2079
2083
2086
2086
2087
2087
2087
2091
2096
2103
2107
2108
2109
2109
2110
2114
2117
2119
2124
2126
2130
2132
2132
2133
2133
2134
2134
2134
2132
2129
2124
2117
2112
2104
2097
2086
2073
2063
2056
2054
2052
2050
2045
2037
2030
2025
2025
2024
2025
2024
2023
2023
2023
2023
2023
2023
2023
2023
2023
2024
2025
2026
2026
2026
2028
2027
2027
2024
2023
2025
2030
2036
2039
2038
2033
2029
2026
2026
2030
2029
2031
2030
2030
2030
2030
2030
2029
2030
2029
2029
2028
2029
2030
2029
2029
2030
2030
2029
2027
2027
2027
2032
2034
2037
2038
2034
2032
2028
2028
2030
2031
2033
2033
2033
2032
2032
2033
2033
2033
2033
2034
2034
2034
2035
2034
2034
2035
2036
2035
2034
2032
2031
2033
2037
2042
2045
2043
2040
2036
2032
2033
2035
2036
2037
2037
2036
2036
2036
2037
2037
2036
2037
2038
2036
2036
2034
2033
2035
2038
2041
2042
2042
2042
2044
2047
2049
2052
2050
2046
2041
2039
2039
2039
2040
2041
2040
2039
2037
2035
2035
2036
2037
2038
2038
2037
2035
2038
2051
2077
2113
2141
2141
2093
2006
1903
1821
1790
1812
1872
1941
1996
2030
2045
2051
2055
2060
2063
2065
2067
2069
2071
2072
2073
2074
2074
2075
2076
2077
2078
2078
2080
2081
2082
2082
2082
2084
2087
2090
2094
2097
2096
2096
2096
2097
2102
2104
2108
2110
2113
2116
2120
2124
2127
2131
2134
2138
2141
2143
2145
2146
2146
2148
2147
2145
2141
2135
2129
2123
2117
2110
2100
2089
2077
2065
2055
2048
2044
2038
2035
2032
2030
2028
2026
2025
2024
2023
2023
2022
2022
2022
2022
2023
2024
2024
2024
2024
2023
2022
2024
2026
2029
2031
2030
2029
2027
2026
2027
2027
2028
2028
2029
2029
2029
2029
2029
2029
2028
2028
2028
2028
2027
2028
2028
2027
2028
2027
2027
2024
2023
2024
2027
2031
2033
2033
2030
2027
2025
2023
2027
2028
2029
2029
2029
2028
2029
2029
2029
2029
2030
2030
2031
2031
2031
2030
2027
2029
2030
2029
2028
2028
2029
2033
2039
2045
2046
2043
2039
2035
2032
2034
2036
2035
2033
2031
2031
2031
2032
2032
2032
2032
2032
2032
2031
2030
2029
2029
2041
2065
2101
2131
2136
2095
2011
1906
1817
1776
1791
1848
1920
1980
2020
2040
2047
2050
2053
2056
2059
2060
2062
2064
2066
2067
2068
2070
2070
2070
2070
2070
2072
2074
2076
2076
2077
2078
2080
2084
2086
2088
2087
2087
2088
2091
2094
2097
2100
2102
2105
2108
2111
2115
2119
2123
2127
2130
2134
2136
2138
2139
2141
2142
2141
2140
2136
2132
2128
2122
2114
2104
2092
2079
2067
2056
2048
2043
2037
2033
2028
2025
2022
2021
2020
2019
2018
2018
2017
2016
2016
2016
2015
2014
2016
2016
2016
2015
2015
2016
2018
2022
2024
2025
2023
2022
2022
2021
2023
2023
2024
2024
2024
2025
2025
2025
2025
2025
2024
2024
2024
2024
2024
2025
2025
2026
2027
2025
2022
2020
2020
2022
2024
2026
2026
2026
2028
2031
2032
2028
2027
2022
2020
2022
2024
2027
2026
2026
2025
2026
2027
2027
2027
2027
2027
2028
2027
2031
2029
2029
2026
2024
2025
2029
2033
2036
2034
2030
2027
2026
2028
2032
2034
2036
2037
2038
2038
2039
2038
2036
2036
2034
2034
2033
2032
2032
2031
2031
2031
2032
2032
2031
2031
2029
2030
2030
2030
2038
2055
2085
2116
2131
2110
2045
1949
1852
1791
1782
1822
1890
1957
2007
2035
2047
2050
2053
2055
2057
2059
2061
2064
2064
2064
2064
2065
2067
2070
2073
2075
2075
2073
2073
2073
2075
2078
2080
2081
2083
2084
2086
2087
2089
2091
2093
2096
2099
2102
2105
2109
2111
2115
2118
2121
2124
2126
2128
2132
2136
2141
2143
2144
2143
2141
2139
2136
2133
2126
2118
2107
2097
2087
2077
2068
2060
2052
2046
2040
2035
2032
2028
2026
2023
2022
2021
2020
2019
2018
2018
2019
2021
2022
2022
2021
2019
2019
2020
2021
2023
2023
2023
2023
2024
2024
2025
2025
2025
2026
2026
2026
2026
2026
2026
2026
2027
2026
2026
2025
2025
2025
2027
2029
2030
2029
2027
2026
2026
2025
2027
2027
2027
2026
2027
2027
2027
2028
2028
2029
2029
2028
2028
2028
2028
2028
2027
2029
2030
2031
2030
2029
2028
2029
2030
2033
2035
2035
2034
2032
2030
2031
2031
2032
2032
2033
2033
2033
2033
2033
2033
2033
2034
2034
2034
2034
2035
2034
2035
2037
2036
2034
2031
2030
2032
2036
2041
2043
2042
2039
2036
2034
2033
2035
2032
2033
2034
2036
2039
2041
2043
2044
2045
2045
2045
2044
2044
2042
2042
2040
2042
2039
2036
2033
2031
2032
2037
2043
2047
2046
2042
2037
2033
2033
2035
2042
2061
2092
2125
2142
2120
2053
1956
1860
1800
1795
1839
1908
1974
2017
2042
2049
2053
2056
2059
2062
2064
2068
2071
2073
2074
2074
2073
2072
2073
2075
2076
2077
2079
2080
2081
2082
2082
2083
2085
2086
2088
2089
2091
2093
2095
2097
2099
2102
2103
2105
2107
2111
2117
2123
2128
2131
2132
2132
2133
2136
2139
2142
2144
2145
2145
2144
2142
2139
2134
2128
2120
2110
2100
2088
2078
2069
2060
2053
2048
2042
2036
2032
2030
2030
2031
2032
2030
2027
2024
2022
2023
2024
2026
2026
2024
2023
2023
2025
2026
2027
2027
2028
2028
2029
2029
2029
2029
2030
2030
2032
2031
2030
2029
2028
2030
2033
2034
2036
2033
2031
2030
2029
2031
2031
2030
2030
2030
2030
2029
2029
2029
2030
2030
2030
2030
2030
2029
2030
2029
2030
2030
2030
2031
2030
2029
2029
2031
2035
2036
2036
2035
2032
2030
2029
2031
2031
2032
2033
2032
2033
2033
2033
2033
2033
2033
2033
2033
2033
2033
2033
2031
2033
2033
2032
2031
2030
2030
2033
2037
2042
2046
2045
2043
2041
2037
2038
2038
2039
2038
2037
2036
2034
2034
2033
2033
2032
2032
2033
2033
2034
2035
2033
2034
2033
2035
2046
2069
2103
2132
2136
2095
2010
1904
1816
1776
1793
1853
1926
1985
2022
2041
2048
2051
2055
2059
2061
2062
2064
2065
2067
2068
2070
2071
2072
2073
2073
2073
2073
2073
2075
2078
2082
2085
2085
2084
2083
2083
2085
2087
2089
2092
2094
2097
2099
2102
2105
2108
2111
2114
2117
2121
2124
2127
2131
2133
2137
2138
2139
2137
2134
2134
2134
2135
2132
2125
2115
2101
2089
2076
2069
2059
2051
2045
2039
2034
2030
2027
2025
2023
2022
2021
2021
2021
2020
2020
2017
2019
2020
2019
2019
2017
2018
2019
2022
2026
2027
2026
2023
2022
2021
2023
2025
2025
2026
2027
2027
2028
2028
2028
2028
2028
2028
2028
2028
2028
2029
2027
2029
2028
2027
2025
2023
2023
2024
2028
2031
2032
2030
2027
2025
2023
2024
2028
2027
2028
2025
2023
2022
2023
2027
2032
2034
2033
2030
2027
2025
2026
2028
2030
2029
2029
2029
2027
2027
2027
2029
2033
2035
2035
2033
2030
2028
2029
2030
2030
2032
2032
2031
2031
2031
2032
2032
2033
2033
2033
2033
2032
2033
2032
2033
2033
2033
2033
2032
2031
2031
2032
2034
2034
2034
2033
2033
2033
2035
2038
2040
2042
2042
2041
2040
2039
2038
2037
2037
2036
2035
2034
2034
2033
2033
2033
2034
2034
2034
2032
2032
2032
2033
2036
2039
2049
2069
2097
2121
2120
2084
2008
1915
1836
1800
1816
1870
1937
1993
2028
2044
2049
2051
2054
2057
2059
2060
2063
2064
2064
2063
2063
2063
2066
2071
2074
2076
2075
2074
2074
2073
2074
2076
2076
2077
2080
2081
2084
2084
2086
2088
2090
2092
2094
2097
2100
2102
2106
2109
2112
2114
2117
2118
2120
2124
2128
2133
2136
2136
2134
2131
2129
2126
2122
2117
2111
2103
2093
2083
2074
2065
2056
2048
2043
2038
2033
2029
2027
2025
2023
2024
2021
2020
2016
2013
2014
2016
2021
2024
2023
2021
2018
2018
2016
2020
2020
2021
2021
2022
2023
2023
2023
2024
2024
2025
2025
2025
2026
2026
2027
2025
2026
2027
2026
2025
2023
2023
2024
2026
2029
2029
2028
2025
2023
2022
2023
2024
2024
2025
2025
2024
2024
2024
2024
2024
2025
2025
2025
2025
2026
2026
2025
2027
2027
2026
2025
2023
2022
2024
2028
2032
2033
2032
2029
2026
2026
2026
2030
2029
2029
2028
2028
2028
2029
2029
2030
2030
2030
2029
2030
2030
2030
2030
2030
2030
2030
2030
2029
2027
2027
2028
2032
2034
2035
2033
2031
2030
2029
2030
2030
2032
2031
2031
2031
2031
2032
2032
2032
2032
2032
2032
2032
2032
2033
2033
2034
2033
2033
2032
2032
2032
2034
2036
2036
2036
2034
2034
2033
2033
2035
2034
2034
2032
2031
2030
2031
2033
2035
2037
2039
2041
2043
2043
2042
2040
2038
2039
2039
2039
2038
2036
2034
2034
2035
2037
2038
2037
2036
2035
2034
2036
2034
2032
2030
2031
2041
2059
2087
2111
2116
2086
2021
1935
1856
1812
1815
1858
1921
1979
2020
2039
2047
2048
2051
2056
2062
2065
2067
2066
2066
2065
2066
2068
2068
2069
2071
2071
2073
2073
2074
2075
2076
2077
2078
2079
2081
2083
2084
2086
2088
2089
2089
2090
2091
2096
2101
2107
2111
2112
2113
2113
2114
2119
2121
2125
2128
2131
2132
2134
2134
2134
2133
2131
2128
2125
2119
2113
2105
2096
2086
2078
2067
2059
2049
2042
2038
2036
2037
2036
2033
2027
2022
2019
2017
2020
2019
2019
2019
2019
2019
2019
2019
2019
2019
2020
2021
2021
2022
2022
2022
2022
2024
2025
2024
2023
2022
2023
2025
2028
2031
2031
2029
2026
2024
2023
2025
2025
2026
2026
2026
2026
2025
2025
2025
2024
2024
2024
2024
2025
2025
2025
2024
2025
2026
2025
2024
2021
2019
2020
2024
2030
2033
2033
2030
2026
2024
2024
2028
2027
2028
2026
2026
2026
2027
2027
2028
2028
2028
2028
2029
2029
2028
2029
2029
2031
2031
2031
2029
2027
2027
2029
2032
2035
2035
2033
2030
2029
2029
2030
2030
2031
2031
2031
2031
2031
2031
2031
2031
2032
2032
2032
2031
2032
2031
2032
2032
2032
2033
2031
2030
2030
2031
2034
2036
2037
2036
2034
2033
2031
2032
2033
2033
2034
2033
2034
2034
2034
2034
2034
2034
2033
2032
2032
2031
2031
2031
2035
2038
2040
2041
2040
2039
2040
2042
2044
2045
2043
2040
2037
2034
2035
2034
2034
2034
2034
2034
2034
2035
2035
2036
2035
2033
2032
2031
2037
2053
2079
2110
2125
2108
2051
1966
1876
1815
1803
1836
1898
1962
2010
2038
2048
2052
2055
2056
2058
2061
2063
2065
2067
2068
2069
2069
2071
2071
2072
2073
2074
2076
2079
2078
2076
2075
2075
2079
2086
2091
2093
2092
2089
2089
2089
2094
2098
2099
2102
2104
2108
2111
2114
2117
2121
2124
2127
2130
2133
2135
2138
2140
2141
2142
2142
2140
2138
2133
2127
2121
2115
2109
2100
2091
2079
2069
2059
2050
2047
2041
2038
2035
2032
2029
2027
2025
2023
2023
2023
2022
2022
2022
2023
2022
2021
2024
2025
2024
2022
2020
2020
2022
2027
2031
2033
2031
2029
2026
2024
2026
2027
2027
2028
2028
2028
2028
2029
2029
2029
2029
2028
2028
2028
2028
2028
2027
2029
2028
2028
2027
2025
2024
2024
2028
2032
2034
2033
2031
2028
2026
2027
2028
2028
2029
2029
2029
2030
2030
2031
2030
2031
2031
2031
2032
2032
2031
2031
2032
2033
2032
2029
2029
2028
2029
2033
2036
2039
2039
2037
2035
2033
2032
2033
2032
2032
2034
2034
2034
2034
2035
2034
2035
2035
2035
2036
2035
2035
2034
2036
2036
2036
2036
2034
2034
2033
2034
2036
2037
2037
2036
2036
2036
2039
2042
2043
2045
2044
2043
2042
2041
2040
2039
2039
2037
2036
2035
2034
2035
2035
2035
2037
2038
2038
2036
2034
2033
2034
2038
2052
2079
2112
2140
2141
2098
2015
1909
1820
1777
1791
1848
1920
1981
2021
2040
2048
2051
2056
2060
2063
2065
2066
2070
2072
2073
2072
2071
2071
2073
2078
2082
2084
2084
2082
2081
2080
2082
2084
2085
2086
2088
2089
2091
2092
2094
2096
2098
2101
2103
2106
2110
2113
2116
2119
2123
2127
2130
2132
2134
2137
2141
2146
2150
2150
2149
2145
2142
2139
2134
2127
2118
2108
2097
2086
2076
2066
2057
2048
2042
2037
2032
2029
2026
2025
2022
2024
2021
2020
2017
2014
2014
2016
2021
2025
2026
2024
2021
2020
2018
2021
2021
2022
2023
2023
2024
2024
2024
2024
2024
2025
2026
2026
2027
2027
2027
2025
2027
2028
2027
2026
2024
2024
2026
2028
2030
2030
2028
2026
2024
2023
2024
2025
2026
2026
2025
2025
2025
2025
2025
2025
2026
2026
2027
2027
2027
2027
2025
2028
2029
2028
2027
2025
2023
2025
2029
2033
2035
2033
2029
2026
2024
2024
2027
2028
2029
2030
2031
2034
2036
2037
2037
2037
2036
2035
2034
2033
2031
2030
2029
2029
2030
2030
2029
2028
2029
2030
2031
2032
2031
2030
2030
2040
2063
2098
2129
2138
2103
2021
1915
1818
1766
1772
1827
1902
1968
2011
2033
2042
2046
2050
2054
2056
2059
2060
2061
2064
2066
2068
2070
2070
2070
2070
2070
2070
2072
2072
2074
2075
2076
2077
2079
2080
2082
2084
2086
2087
2089
2091
2093
2095
2097
2101
2104
2108
2111
2114
2116
2120
2123
2128
2132
2135
2138
2139
2139
2142
2141
2138
2134
2130
2122
2114
2104
2094
2084
2072
2062
2052
2043
2037
2032
2027
2027
2026
2023
2019
2014
2011
2012
2014
2020
2023
2022
2020
2016
2013
2013
2014
2015
2015
2016
2016
2018
2018
2019
2019
2020
2021
2021
2021
2021
2021
2022
2024
2025
2025
2023
2021
2019
2021
2025
2029
2031
2030
2026
2023
2020
2021
2022
2022
2023
2023
2023
2022
2022
2022
2022
2022
2022
2023
2023
2023
2024
2023
2023
2025
2023
2024
2021
2019
2020
2024
2029
2033
2034
2030
2025
2022
2022
2026
2027
2027
2026
2023
2024
2025
2026
2026
2026
2026
2028
2031
2036
2036
2036
2032
2032
2031
2031
2028
2027
2026
2028
2031
2034
2035
2032
2028
2026
2025
2026
2027
2026
2025
2026
2037
2059
2092
2121
2128
2091
2015
1915
1829
1786
1796
1850
1921
1981
2019
2035
2040
2042
2047
2054
2061
2065
2065
2061
2059
2058
2060
2064
2065
2066
2066
2066
2066
2068
2069
2072
2073
2074
2074
2075
2077
2079
2081
2083
2085
2087
2088
2088
2088
2090
2093
2103
2109
2112
2113
2112
2113
2119
2124
2128
2128
2125
2124
2127
2132
2139
2139
2135
2125
2115
2104
2096
2087
2078
2069
2061
2051
2044
2034
2028
2024
2023
2026
2026
2025
2020
2016
2013
2011
2012
2012
2014
2014
2015
2015
2015
2015
2015
2016
2015
2016
2017
2018
2018
2017
2016
2020
2021
2022
2021
2018
2018
2020
2022
2025
2027
2025
2024
2022
2020
2022
2022
2022
2021
2020
2020
2019
2020
2021
2023
2022
2021
2020
2019
2019
2021
2020
2023
2023
2022
2020
2018
2017
2017
2022
2026
2030
2030
2028
2024
2022
2022
2023
2023
2024
2025
2025
2026
2027
2027
2026
2024
2023
2021
2023
2025
2028
2030
2032
2035
2035
2034
2031
2030
2029
2031
2035
2038
2036
2033
2028
2024
2024
2025
2026
2027
2028
2029
2029
2028
2026
2024
2025
2035
2057
2089
2118
2123
2089
2012
1917
1828
1782
1785
1832
1902
1969
2019
2048
2056
2055
2052
2051
2050
2056
2058
2062
2063
2064
2066
2066
2066
2067
2067
2070
2070
2071
2072
2073
2076
2077
2081
2081
2081
2080
2078
2080
2084
2090
2094
2097
2099
2100
2101
2102
2107
2111
2116
2119
2123
2126
2129
2131
2133
2135
2136
2138
2138
2139
2138
2135
2130
2125
2118
2107
2096
2083
2072
2064
2060
2057
2052
2045
2037
2029
2026
2024
2025
2023
2021
2019
2018
2018
2018
2018
2019
2019
2020
2020
2021
2021
2020
2021
2022
2022
2023
2023
2022
2022
2023
2026
2028
2030
2028
2025
2022
2021
2024
2026
2028
2028
2027
2025
2024
2024
2023
2025
2025
2025
2025
2025
2024
2024
2024
2025
2026
2025
2025
2024
2023
2024
2026
2028
2030
2030
2028
2027
2024
2026
2027
2027
2028
2027
2027
2028
2028
2029
2029
2029
2029
2030
2030
2030
2030
2029
2029
2030
2030
2030
2027
2026
2025
2028
2032
2036
2038
2037
2036
2036
2035
2038
2037
2038
2037
2036
2035
2034
2033
2032
2032
2031
2031
2031
2031
2031
2032
2033
2034
2033
2030
2027
2030
2046
2076
2112
2135
2122
2063
1970
1870
1799
1779
1811
1874
1945
2000
2032
2047
2051
2053
2055
2057
2060
2062
2063
2065
2067
2068
2069
2071
2072
2071
2070
2070
2071
2075
2079
2082
2082
2082
2080
2081
2083
2085
2087
2089
2091
2094
2096
2099
2101
2104
2106
2109
2112
2116
2119
2123
2126
2128
2134
2134
2136
2135
2134
2136
2138
2143
2144
2141
2133
2123
2114
2103
2097
2086
2077
2067
2058
2052
2047
2041
2037
2033
2031
2028
2026
2025
2024
2023
2021
2023
2023
2022
2021
2020
2021
2022
2025
2027
2028
2027
2025
2024
2023
2025
2026
2027
2027
2028
2028
2028
2027
2027
2027
2027
2027
2028
2028
2028
2028
2026
2028
2028
2027
2026
2024
2022
2024
2028
2032
2034
2033
2030
2027
2025
2026
2029
2029
2030
2029
2029
2029
2029
2029
2029
2030
2030
2031
2031
2031
2031
2031
2030
2031
2031
2030
2029
2029
2030
2033
2037
2042
2043
2043
2041
2040
2039
2040
2041
2040
2039
2037
2035
2034
2034
2035
2035
2035
2035
2036
2037
2037
2037
2035
2034
2034
2046
2070
2106
2139
2147
2109
2026
1916
1820
1770
1780
1838
1914
1979
2023
2044
2051
2054
2058
2062
2065
2068
2070
2072
2072
2073
2073
2074
2074
2076
2077
2078
2078
2078
2079
2082
2085
2088
2090
2090
2090
2091
2091
2094
2096
2099
2100
2103
2106
2108
2111
2115
2119
2122
2126
2130
2132
2135
2138
2140
2145
2147
2148
2147
2145
2143
2142
2142
2141
2137
2128
2116
2103
2089
2078
2068
2059
2052
2048
2042
2038
2034
2032
2029
2027
2026
2025
2024
2024
2024
2024
2025
2025
2024
2024
2022
2022
2024
2027
2031
2032
2031
2029
2027
2025
2027
2028
2028
2028
2029
2028
2028
2028
2028
2028
2028
2027
2028
2029
2028
2026
2024
2022
2026
2028
2031
2030
2026
2023
2024
2028
2032
2033
2031
2027
2025
2024
2026
2025
2026
2025
2025
2027
2028
2030
2032
2034
2036
2037
2037
2037
2035
2034
2032
2032
2031
2030
2028
2026
2027
2030
2033
2035
2035
2034
2032
2029
2027
2027
2029
2039
2062
2097
2130
2140
2103
2021
1911
1813
1761
1769
1825
1901
1968
2010
2034
2044
2047
2049
2050
2052
2056
2063
2070
2072
2071
2068
2065
2065
2068
2072
2072
2073
2072
2073
2075
2076
2078
2079
2080
2081
2082
2085
2086
2089
2092
2094
2097
2100
2102
2103
2104
2107
2113
2119
2126
2130
2131
2130
2130
2132
2135
2138
2140
2140
2138
2134
2129
2122
2115
2107
2096
2085
2075
2064
2055
2047
2040
2036
2030
2028
2023
2020
2018
2018
2020
2021
2021
2020
2018
2018
2016
2018
2018
2019
2020
2019
2021
2021
2021
2022
2022
2023
2023
2024
2024
2024
2024
2023
2024
2025
2026
2025
2023
2021
2021
2023
2026
2028
2027
2025
2023
2021
2022
2022
2023
2023
2024
2024
2024
2024
2023
2023
2023
2023
2024
2024
2024
2024
2023
2024
2023
2023
2022
2021
2022
2024
2029
2035
2038
2039
2036
2034
2031
2030
2030
2030
2029
2028
2027
2026
2026
2027
2027
2027
2028
2028
2029
2028
2028
2027
2027
2034
2050
2078
2110
2127
2109
2048
1953
1856
1791
1781
1823
1892
1961
2009
2033
2043
2046
2049
2052
2054
2056
2057
2059
2060
2062
2063
2064
2064
2065
2066
2068
2068
2069
2069
2069
2069
2072
2075
2079
2082
2082
2082
2082
2082
2085
2087
2090
2093
2095
2098
2101
2104
2107
2110
2113
2116
2119
2122
2125
2126
2126
2129
2130
2129
2126
2122
2118
2115
2113
2109
2101
2089
2076
2063
2052
2048
2042
2037
2032
2028
2025
2023
2021
2020
2019
2019
2018
2018
2017
2017
2017
2017
2018
2020
2020
2018
2016
2015
2016
2021
2027
2030
2029
2026
2022
2021
2020
2024
2024
2024
2024
2023
2023
2023
2023
2024
2024
2024
2024
2024
2023
2022
2022
2022
2023
2023
2022
2021
2020
2021
2023
2025
2027
2024
2024
2021
2019
2021
2022
2023
2024
2026
2026
2026
2025
2024
2025
2024
2027
2026
2026
2026
2026
2025
2025
2025
2023
2023
2023
2025
2029
2033
2037
2038
2038
2036
2034
2032
2032
2033
2032
2032
2030
2029
2028
2028
2028
2028
2029
2029
2030
2030
2029
2029
2027
2028
2035
2054
2085
2113
2124
2098
2032
1939
1851
1799
1798
1843
1910
1973
2016
2038
2047
2048
2049
2052
2054
2057
2058
2060
2061
2062
2063
2064
2065
2066
2067
2069
2070
2071
2071
2071
2072
2074
2078
2082
2084
2085
2085
2086
2086
2088
2089
2091
2094
2097
2100
2103
2105
2108
2110
2113
2117
2119
2122
2124
2126
2127
2127
2131
2130
2127
2123
2117
2113
2111
2110
2105
2096
2083
2069
2058
2049
2046
2040
2035
2031
2029
2026
2024
2022
2021
2021
2019
2019
2019
2018
2019
2019
2018
2022
2020
2021
2018
2016
2016
2020
2026
2030
2031
2028
2024
2022
2020
2024
2025
2026
2025
2024
2025
2024
2024
2024
2024
2024
2024
2024
2024
2024
2024
2023
2022
2023
2023
2022
2021
2021
2022
2024
2027
2027
2026
2024
2022
2021
2022
2024
2024
2025
2025
2025
2025
2025
2025
2025
2025
2026
2027
2027
2028
2028
2026
2028
2027
2028
2027
2027
2026
2027
2028
2031
2033
2032
2030
2029
2028
2028
2030
2031
2030
2029
2028
2029
2030
2030
2030
2030
2030
2031
2031
2031
2030
2031
2030
2032
2032
2032
2031
2030
2030
2031
2033
2034
2032
2030
2029
2029
2030
2033
2035
2037
2040
2042
2042
2040
2038
2037
2036
2034
2036
2035
2033
2033
2032
2032
2033
2032
2033
2032
2033
2033
2033
2034
2033
2036
2047
2067
2092
2112
2112
2076
2009
1923
1848
1809
1815
1862
1925
1984
2025
2046
2052
2053
2056
2057
2059
2061
2063
2065
2066
2066
2066
2068
2071
2074
2076
2075
2074
2073
2073
2075
2077
2079
2080
2081
2083
2084
2086
2088
2090
2092
2094
2096
2098
2101
2103
2105
2108
2112
2114
2115
2116
2118
2121
2125
2130
2132
2133
2131
2129
2127
2126
2125
2121
2119
2114
2107
2101
2092
2083
2074
2066
2060
2053
2048
2045
2041
2036
2034
2034
2030
2027
2022
2018
2019
2024
2031
2035
2034
2030
2026
2023
2023
2027
2026
2028
2027
2028
2028
2029
2029
2029
2029
2029
2029
2029
2029
2029
2028
2028
2031
2029
2028
2024
2021
2020
2025
2031
2035
2035
2030
2026
2023
2022
2025
2026
2026
2026
2025
2026
2026
2027
2027
2027
2027
2027
2027
2027
2028
2028
2028
2029
2029
2028
2027
2025
2025
2027
2030
2033
2033
2032
2030
2028
2027
2029
2030
2031
2031
2031
2031
2031
2030
2030
2031
2031
2032
2032
2033
2033
2033
2031
2033
2032
2032
2031
2030
2030
2032
2035
2038
2038
2036
2034
2032
2032
2033
2034
2035
2034
2034
2033
2034
2034
2035
2035
2035
2035
2036
2035
2035
2034
2033
2033
2033
2034
2034
2033
2032
2033
2038
2043
2047
2048
2045
2042
2039
2039
2039
2038
2038
2037
2037
2037
2036
2035
2035
2035
2036
2037
2038
2037
2036
2034
2033
2037
2047
2068
2096
2118
2120
2083
2013
1924
1847
1809
1820
1871
1935
1994
2031
2048
2054
2055
2058
2060
2063
2064
2065
2068
2068
2069
2070
2071
2073
2073
2075
2076
2076
2075
2075
2076
2079
2083
2087
2089
2089
2088
2088
2088
2090
2092
2095
2096
2099
2102
2105
2108
2110
2113
2115
2118
2120
2121
2124
2126
2127
2130
2131
2131
2129
2126
2125
2123
2123
2122
2118
2112
2102
2091
2081
2073
2066
2059
2053
2048
2043
2039
2036
2033
2031
2029
2028
2027
2026
2026
2026
2026
2026
2027
2028
2027
2025
2023
2025
2027
2032
2035
2035
2033
2030
2029
2029
2031
2031
2030
2030
2030
2031
2031
2030
2030
2029
2029
2029
2029
2029
2029
2029
2029
2029
2029
2028
2026
2025
2025
2027
2031
2033
2034
2031
2029
2027
2026
2028
2028
2029
2030
2030
2031
2031
2031
2031
2031
2031
2031
2031
2032
2032
2032
2031
2033
2034
2033
2031
2029
2028
2031
2036
2040
2042
2039
2035
2032
2030
2032
2034
2034
2034
2035
2035
2035
2035
2035
2035
2035
2035
2036
2036
2037
2036
2035
2036
2036
2037
2036
2035
2034
2035
2037
2040
2042
2040
2037
2034
2032
2034
2036
2039
2041
2043
2045
2046
2045
2045
2044
2043
2043
2042
2041
2039
2038
2038
2037
2040
2039
2038
2035
2033
2035
2039
2043
2045
2044
2041
2046
2064
2096
2130
2142
2114
2040
1941
1848
1795
1798
1848
1918
1981
2022
2043
2050
2053
2055
2062
2065
2067
2067
2067
2068
2070
2073
2077
2078
2079
2077
2077
2076
2078
2080
2080
2083
2083
2085
2086
2087
2088
2090
2092
2094
2095
2097
2098
2101
2103
2105
2108
2111
2116
2117
2119
2121
2124
2129
2134
2138
2139
2139
2137
2135
2135
2134
2134
2130
2126
2120
2113
2104
2095
2085
2075
2066
2058
2051
2046
2042
2037
2036
2033
2031
2028
2025
2024
2025
2028
2031
2031
2030
2028
2027
2026
2027
2028
2028
2029
2029
2030
2031
2031
2032
2031
2032
2033
2033
2033
2032
2032
2032
2032
2034
2034
2033
2031
2029
2029
2031
2034
2037
2037
2035
2032
2031
2030
2031
2031
2030
2029
2030
2031
2031
2032
2031
2031
2030
2031
2032
2033
2033
2033
2033
2033
2033
2033
2032
2031
2030
2032
2035
2037
2039
2037
2035
2033
2031
2033
2033
2035
2035
2035
2035
2036
2035
2035
2034
2034
2034
2033
2031
2030
2030
2031
2040
2046
2048
2047
2042
2038
2037
2041
2045
2046
2043
2039
2035
2033
2034
2035
2035
2035
2035
2036
2036
2036
2036
2036
2034
2034
2036
2046
2069
2102
2131
2139
2101
2021
1916
1823
1775
1785
1842
1918
1983
2023
2041
2047
2048
2053
2058
2062
2064
2065
2066
2068
2069
2070
2071
2072
2074
2074
2075
2076
2077
2078
2079
2082
2082
2081
2080
2080
2083
2088
2094
2098
2099
2098
2097
2097
2099
2104
2106
2109
2111
2115
2119
2123
2127
2129
2131
2132
2133
2134
2135
2136
2134
2133
2131
2127
2120
2111
2101
2091
2082
2074
2066
2059
2050
2044
2037
2032
2030
2028
2026
2024
2023
2022
2021
2021
2021
2021
2022
2021
2021
2021
2022
2022
2023
2023
2024
2025
2024
2024
2024
2025
2028
2030
2031
2030
2030
2028
2027
2028
2028
2028
2028
2028
2029
2029
2029
2029
2028
2028
2027
2027
2027
2027
2027
2027
2028
2028
2028
2026
2024
2024
2024
2027
2029
2031
2031
2029
2028
2026
2027
2028
2028
2029
2029
2029
2029
2030
2031
2030
2030
2031
2030
2031
2031
2032
2031
2032
2034
2032
2033
2029
2025
2024
2026
2031
2036
2039
2039
2036
2034
2034
2037
2037
2040
2039
2038
2038
2037
2036
2035
2034
2033
2032
2032
2033
2033
2032
2034
2035
2035
2034
2029
2027
2027
2038
2062
2095
2126
2136
2107
2035
1934
1842
1785
1785
1832
1902
1969
2013
2037
2046
2048
2052
2057
2060
2062
2064
2065
2065
2067
2070
2068
2068
2066
2066
2069
2074
2079
2082
2082
2080
2078
2077
2079
2082
2083
2084
2086
2088
2090
2092
2094
2097
2100
2103
2105
2108
2111
2113
2116
2121
2124
2127
2127
2127
2127
2129
2135
2139
2141
2139
2133
2126
2117
2112
2104
2095
2085
2075
2067
2058
2049
2042
2036
2032
2030
2030
2030
2029
2027
2026
2024
2023
2023
2021
2018
2016
2016
2020
2025
2030
2031
2028
2025
2022
2022
2024
2027
2026
2025
2025
2024
2026
2027
2029
2030
2029
2029
2029
2028
2030
2029
2028
2030
2029
2028
2026
2024
2024
2025
2029
2032
2033
2031
2028
2025
2025
2025
2026
2027
2027
2027
2027
2027
2027
2027
2027
2028
2028
2028
2029
2028
2028
2027
2028
2029
2031
2030
2029
2028
2029
2030
2033
2035
2034
2033
2030
2029
2029
2030
2031
2030
2030
2031
2031
2032
2034
2034
2033
2030
2028
2028
2028
2032
2032
2036
2038
2040
2039
2037
2035
2035
2037
2041
2043
2042
2038
2034
2031
2030
2032
2032
2033
2033
2035
2036
2035
2033
2032
2030
2031
2040
2059
2089
2120
2131
2105
2038
1941
1850
1795
1794
1843
1915
1983
2028
2048
2053
2051
2053
2054
2059
2060
2061
2061
2063
2066
2069
2070
2071
2069
2069
2069
2071
2073
2074
2075
2077
2079
2080
2080
2078
2076
2079
2082
2090
2095
2098
2097
2096
2096
2096
2101
2104
2108
2111
2113
2116
2119
2121
2124
2126
2128
2129
2129
2130
2130
2128
2124
2124
2118
2111
2100
2088
2077
2070
2067
2064
2058
2051
2043
2034
2028
2026
2025
2023
2023
2022
2023
2022
2021
2020
2020
2021
2020
2021
2021
2022
2023
2022
2023
2023
2024
2022
2022
2021
2023
2027
2029
2033
2031
2028
2025
2023
2025
2027
2028
2028
2028
2028
2027
2028
2026
2026
2026
2026
2027
2027
2027
2026
2025
2026
2027
2027
2026
2023
2020
2020
2023
2029
2034
2035
2033
2028
2025
2022
2024
2027
2029
2027
2027
2026
2027
2029
2031
2031
2030
2027
2027
2028
2030
2032
2032
2032
2031
2030
2028
2026
2027
2029
2034
2036
2036
2034
2031
2029
2029
2031
2031
2032
2032
2031
2031
2031
2032
2032
2032
2033
2033
2033
2033
2032
2032
2032
2033
2034
2035
2035
2033
2031
2031
2033
2038
2041
2040
2035
2028
2024
2027
2032
2038
2041
2040
2038
2038
2038
2041
2041
2041
2039
2040
2040
2040
2039
2036
2036
2035
2033
2034
2031
2031
2031
2035
2040
2043
2043
2040
2037
2036
2043
2059
2086
2111
2118
2089
2026
1941
1864
1823
1831
1879
1941
1996
2032
2048
2053
2053
2056
2057
2059
2059
2058
2060
2064
2070
2073
2073
2071
2069
2068
2068
2071
2072
2073
2073
2075
2077
2078
2079
2080
2082
2083
2085
2087
2089
2090
2092
2094
2097
2098
2100
2100
2102
2104
2109
2114
2118
2122
2121
2122
2122
2121
2124
2124
2125
2124
2123
2120
2116
2111
2104
2096
2088
2080
2072
2064
2057
2050
2044
2041
2036
2032
2028
2024
2022
2024
2027
2029
2030
2027
2024
2020
2019
2020
2022
2022
2023
2023
2024
2024
2025
2025
2026
2027
2027
2028
2028
2028
2028
2028
2028
2028
2028
2027
2025
2025
2025
2028
2031
2033
2032
2030
2027
2025
2026
2026
2027
2027
2026
2026
2026
2026
2026
2026
2026
2026
2026
2026
2026
2025
2026
2025
2028
2028
2027
2024
2023
2024
2028
2032
2035
2034
2031
2028
2026
2026
2029
2028
2030
2028
2029
2029
2030
2031
2032
2034
2033
2031
2030
2029
2030
2029
2031
2032
2032
2031
2030
2029
2029
2031
2033
2034
2035
2034
2033
2032
2032
2033
2032
2033
2032
2032
2032
2033
2034
2034
2034
2034
2034
2034
2034
2033
2034
2034
2034
2035
2036
2034
2032
2030
2030
2032
2034
2036
2037
2038
2039
2039
2041
2042
2043
2041
2041
2040
2040
2040
2038
2038
2036
2036
2035
2035
2035
2035
2035
2037
2038
2038
2035
2032
2031
2034
2048
2073
2103
2123
2117
2073
1998
1909
1840
1811
1829
1882
1946
1999
2034
2048
2054
2055
2057
2059
2061
2063
2065
2067
2069
2070
2071
2070
2069
2067
2069
2072
2076
2081
2083
2083
2081
2078
2078
2079
2081
2084
2086
2088
2090
2091
2093
2095
2098
2100
2102
2105
2108
2111
2113
2116
2121
2123
2125
2124
2123
2124
2129
2136
2141
2142
2136
2129
2124
2117
2114
2107
2099
2091
2082
2073
2065
2057
2050
2045
2041
2037
2033
2031
2028
2027
2023
2024
2023
2022
2020
2017
2017
2019
2023
2027
2028
2027
2024
2022
2021
2023
2024
2026
2026
2026
2026
2026
2026
2026
2026
2026
2026
2026
2027
2027
2027
2026
2026
2027
2027
2025
2022
2021
2022
2025
2031
2034
2033
2030
2026
2023
2023
2025
2026
2027
2026
2025
2026
2027
2027
2027
2027
2027
2027
2027
2027
2027
2028
2027
2028
2029
2029
2028
2028
2027
2028
2031
2032
2032
2031
2029
2029
2029
2030
2032
2030
2031
2031
2031
2030
2030
2030
2031
2033
2033
2034
2033
2032
2032
2031
2034
2033
2034
2032
2031
2031
2032
2034
2036
2036
2035
2034
2033
2032
2034
2033
2034
2034
2033
2033
2034
2035
2035
2035
2035
2035
2033
2032
2031
2031
2031
2033
2035
2039
2040
2041
2042
2042
2043
2044
2045
2044
2042
2040
2036
2036
2034
2035
2035
2035
2036
2036
2036
2037
2037
2036
2035
2033
2033
2039
2056
2084
2116
2131
2112
2051
1963
1873
1814
1804
1841
1903
1965
2011
2038
2048
2054
2056
2058
2059
2062
2064
2065
2067
2069
2069
2070
2070
2071
2072
2073
2074
2075
2077
2078
2079
2079
2078
2079
2081
2085
2089
2092
2093
2093
2093
2094
2096
2098
2101
2104
2106
2110
2113
2116
2118
2121
2124
2126
2128
2131
2132
2134
2134
2133
2135
2133
2131
2125
2118
2111
2106
2100
2094
2085
2073
2062
2053
2047
2045
2040
2036
2033
2029
2026
2025
2023
2023
2022
2021
2022
2022
2022
2022
2023
2021
2024
2024
2024
2023
2021
2021
2023
2027
2031
2032
2031
2028
2026
2025
2026
2028
2029
2029
2028
2028
2027
2027
2026
2028
2028
2028
2025
2023
2022
2024
2028
2032
2035
2032
2027
2022
2018
2021
2026
2032
2034
2032
2029
2026
2025
2025
2029
2029
2028
2028
2027
2027
2028
2028
2029
2029
2029
2029
2029
2029
2029
2030
2030
2031
2031
2031
2030
2028
2028
2030
2033
2036
2038
2036
2033
2031
2030
2031
2032
2033
2032
2033
2034
2033
2033
2033
2033
2034
2036
2037
2037
2036
2034
2033
2036
2035
2035
2034
2032
2032
2034
2038
2041
2042
2041
2037
2034
2030
2033
2031
2031
2035
2037
2039
2042
2044
2045
2045
2045
2043
2042
2041
2040
2039
2037
2039
2038
2038
2037
2034
2033
2034
2036
2040
2043
2042
2039
2035
2034
2042
2061
2091
2122
2135
2110
2044
1949
1859
1807
1807
1853
1920
1983
2025
2047
2053
2056
2059
2062
2063
2063
2064
2065
2068
2071
2075
2076
2075
2075
2073
2074
2075
2076
2078
2079
2080
2081
2082
2084
2085
2087
2088
2090
2091
2093
2095
2098
2100
2102
2105
2106
2108
2110
2113
2119
2124
2129
2132
2133
2133
2133
2135
2137
2138
2138
2137
2136
2134
2130
2124
2117
2109
2099
2089
2079
2070
2062
2054
2048
2044
2039
2035
2030
2026
2025
2025
2028
2030
2030
2027
2023
2021
2019
2023
2024
2025
2025
2025
2025
2026
2026
2028
2028
2029
2029
2028
2028
2029
2029
2028
2030
2030
2029
2028
2026
2027
2028
2031
2033
2034
2033
2030
2028
2027
2027
2028
2029
2028
2028
2028
2028
2027
2027
2028
2028
2029
2029
2030
2030
2030
2030
2029
2031
2030
2029
2027
2027
2029
2033
2037
2039
2038
2034
2031
2030
2029
2032
2033
2033
2032
2032
2032
2033
2033
2034
2034
2033
2033
2034
2033
2034
2034
2034
2035
2036
2035
2034
2032
2033
2034
2037
2039
2038
2036
2032
2030
2030
2032
2034
2035
2035
2037
2037
2041
2042
2043
2042
2040
2040
2040
2041
2041
2039
2035
2036
2034
2033
2032
2030
2031
2034
2039
2043
2043
2039
2034
2031
2031
2048
2073
2109
2138
2138
2092
2005
1899
1814
1777
1798
1859
1931
1990
2025
2041
2047
2051
2055
2059
2061
2061
2061
2064
2068
2072
2074
2073
2072
2071
2070
2072
2073
2076
2076
2077
2078
2079
2080
2082
2083
2084
2086
2087
2089
2092
2095
2097
2099
2101
2103
2105
2107
2109
2113
2117
2123
2128
2132
2133
2134
2133
2133
2133
2133
2135
2133
2131
2127
2122
2114
2105
2094
2084
2073
2064
2056
2048
2044
2038
2034
2031
2028
2024
2021
2019
2020
2022
2025
2025
2023
2020
2018
2017
2018
2019
2020
2019
2020
2020
2021
2021
2021
2022
2022
2023
2023
2024
2024
2024
2024
2026
2025
2025
2024
2022
2023
2024
2027
2030
2031
2030
2027
2025
2021
2024
2024
2024
2025
2024
2023
2022
2022
2022
2022
2022
2022
2022
2022
2022
2022
2021
2023
2023
2023
2023
2020
2020
2021
2023
2026
2027
2027
2026
2023
2022
2022
2023
2023
2026
2025
2025
2026
2025
2025
2026
2026
2026
2027
2027
2028
2028
2027
2027
2028
2028
2027
2026
2025
2028
2032
2036
2038
2035
2031
2026
2024
2024
2027
2029
2030
2031
2032
2035
2038
2039
2040
2038
2037
2036
2036
2035
2034
2033
2032
2031
2031
2031
2029
2028
2029
2031
2035
2037
2037
2034
2029
2027
2034
2054
2085
2115
2128
2106
2042
1950
1860
1802
1794
1834
1900
1967
2015
2043
2052
2052
2056
2056
2058
2059
2060
2063
2066
2072
2075
2076
2075
2072
2071
2070
2074
2074
2076
2077
2077
2079
2081
2082
2084
2085
2087
2088
2090
2092
2094
2096
2098
2102
2106
2109
2111
2112
2114
2119
2124
2130
2134
2136
2137
2137
2138
2139
2140
2142
2141
2140
2138
2134
2128
2120
2111
2101
2091
2081
2072
2064
2057
2050
2046
2041
2038
2033
2029
2027
2026
2028
2030
2030
2026
2021
2019
2020
2025
2030
2032
2030
2026
2024
2023
2025
2028
2029
2028
2028
2028
2029
2029
2029
2030
2030
2031
2032
2030
2029
2027
2027
2030
2033
2036
2036
2034
2031
2029
2028
2029
2030
2030
2029
2030
2030
2031
2031
2031
2031
2031
2031
2031
2031
2031
2031
2031
2033
2033
2033
2031
2030
2030
2033
2037
2039
2040
2037
2034
2033
2031
2035
2036
2036
2036
2035
2035
2035
2035
2034
2034
2033
2034
2034
2036
2037
2039
2040
2043
2045
2045
2043
2040
2038
2039
2041
2044
2043
2041
2038
2035
2033
2034
2036
2037
2037
2038
2038
2037
2035
2034
2035
2048
2074
2110
2141
2143
2098
2012
1904
1818
1776
1792
1850
1923
1986
2029
2051
2059
2060
2060
2058
2060
2062
2067
2069
2070
2071
2071
2072
2073
2074
2075
2076
2077
2078
2079
2080
2080
2082
2083
2086
2087
2086
2085
2085
2089
2095
2103
2108
2109
2108
2107
2106
2110
2116
2120
2123
2127
2131
2134
2136
2140
2141
2143
2143
2142
2142
2141
2141
2136
2131
2123
2112
2101
2086
2077
2066
2060
2055
2050
2045
2038
2033
2029
2027
2026
2024
2024
2022
2022
2022
2022
2022
2022
2022
2022
2022
2023
2023
2023
2023
2023
2025
2025
2026
2026
2026
2026
2028
2030
2031
2032
2030
2030
2029
2028
2028
2027
2028
2028
2028
2029
2029
2029
2028
2028
2028
2028
2027
2027
2027
2026
2027
2028
2028
2028
2027
2026
2026
2026
2028
2030
2031
2031
2029
2029
2028
2028
2029
2029
2029
2029
2029
2030
2030
2031
2031
2031
2030
2030
2030
2031
2030
2030
2030
2029
2030
2030
2029
2030
2032
2037
2042
2045
2044
2042
2038
2036
2035
2035
2035
2033
2031
2031
2031
2032
2032
2032
2032
2032
2033
2032
2032
2031
2031
2040
2062
2095
2126
2135
2102
2028
1929
1841
1793
1798
1846
1914
1975
2015
2038
2048
2050
2053
2055
2058
2060
2061
2063
2064
2065
2067
2068
2069
2069
2070
2070
2070
2074
2074
2073
2072
2072
2075
2080
2086
2089
2089
2088
2086
2087
2090
2094
2097
2098
2101
2104
2107
2110
2113
2116
2120
2123
2127
2130
2133
2134
2135
2136
2136
2136
2135
2132
2127
2121
2116
2110
2102
2091
2078
2065
2053
2046
2041
2037
2034
2030
2026
2024
2022
2021
2020
2019
2018
2018
2017
2016
2016
2017
2017
2018
2019
2019
2018
2018
2019
2021
2023
2025
2025
2025
2023
2023
2024
2025
2026
2026
2025
2025
2026
2025
2026
2025
2027
2026
2025
2025
2024
2025
2025
2026
2027
2026
2025
2023
2023
2023
2025
2025
2026
2026
2025
2024
2024
2023
2025
2024
2025
2025
2025
2025
2025
2026
2026
2027
2027
2027
2027
2027
2027
2027
2027
2027
2028
2029
2029
2029
2029
2029
2030
2031
2032
2032
2030
2029
2028
2029
2029
2031
2030
2030
2030
2029
2029
2027
2027
2028
2029
2031
2033
2035
2037
2039
2041
2040
2039
2035
2033
2033
2035
2037
2037
2035
2032
2030
2029
2029
2031
2032
2032
2032
2032
2030
2029
2029
2036
2054
2084
2115
2130
2107
2045
1952
1859
1802
1794
1832
1897
1959
2005
2033
2048
2054
2059
2061
2061
2060
2059
2061
2064
2065
2067
2068
2069
2070
2070
2071
2071
2073
2074
2075
2076
2077
2079
2079
2081
2085
2086
2087
2085
2084
2086
2092
2100
2107
2110
2109
2107
2107
2108
2114
2118
2121
2124
2127
2130
2132
2134
2135
2136
2136
2136
2134
2131
2127
2121
2113
2106
2096
2085
2074
2063
2056
2051
2048
2047
2042
2036
2030
2025
2023
2023
2022
2022
2021
2021
2021
2021
2020
2020
2021
2022
2022
2023
2024
2024
2025
2024
2024
2025
2025
2025
2023
2023
2025
2028
2033
2035
2034
2030
2027
2025
2025
2027
2028
2027
2026
2025
2025
2025
2027
2028
2027
2025
2023
2022
2024
2027
2032
2032
2031
2028
2025
2023
2023
2025
2027
2030
2031
2030
2029
2026
2025
2025
2027
2028
2028
2028
2028
2029
2029
2029
2029
2029
2031
2030
2030
2029
2028
2029
2030
2033
2033
2033
2030
2030
2030
2030
2034
2035
2035
2034
2033
2032
2031
2033
2033
2033
2032
2033
2033
2033
2033
2034
2033
2033
2033
2034
2034
2034
2034
2034
2033
2033
2033
2032
2031
2030
2032
2035
2039
2042
2044
2044
2044
2043
2041
2040
2039
2038
2037
2037
2036
2035
2034
2035
2035
2035
2035
2034
2035
2035
2036
2037
2035
2033
2031
2037
2055
2086
2118
2133
2111
2047
1954
1864
1807
1802
1842
1906
1970
2016
2042
2051
2054
2057
2059
2061
2062
2064
2066
2068
2069
2070
2072
2072
2073
2072
2072
2072
2073
2077
2080
2083
2084
2083
2082
2082
2083
2085
2088
2090
2091
2094
2096
2099
2101
2103
2106
2108
2111
2114
2117
2120
2124
2126
2130
2131
2130
2127
2127
2130
2136
2143
2146
2144
2136
2126
2116
2106
2100
2090
2082
2073
2064
2058
2051
2046
2041
2038
2034
2032
2028
2026
2024
2024
2023
2026
2026
2025
2023
2020
2018
2021
2025
2031
2033
2033
2029
2026
2024
2026
2027
2030
2030
2029
2029
2029
2029
2029
2030
2031
2031
2030
2030
2030
2029
2030
2030
2031
2029
2028
2025
2025
2027
2032
2037
2039
2036
2031
2027
2025
2025
2028
2028
2030
2028
2028
2027
2027
2028
2028
2029
2030
2030
2030
2031
2031
2031
2032
2032
2033
2032
2030
2028
2028
2033
2037
2041
2041
2038
2034
2031
2031
2033
2033
2034
2034
2034
2034
2035
2035
2035
2035
2036
2035
2034
2033
2034
2034
2037
2042
2040
2038
2034
2030
2032
2034
2042
2045
2046
2043
2039
2036
2034
2037
2037
2037
2038
2039
2039
2039
2039
2038
2038
2039
2039
2039
2039
2039
2040
2039
2040
2039
2038
2036
2035
2035
2036
2042
2045
2048
2049
2049
2048
2048
2046
2046
2045
2044
2044
2044
2043
2042
2041
2041
2041
2040
2040
2040
2041
2043
2043
2042
2040
2040
2038
2045
2065
2097
2130
2145
2119
2048
1948
1854
1800
1801
1851
1921
1984
2024
2045
2052
2055
2059
2062
2064
2066
2067
2069
2072
2073
2074
2074
2075
2075
2075
2074
2075
2075
2079
2084
2088
2090
2088
2085
2084
2084
2089
2091
2093
2093
2096
2097
2100
2102
2104
2107
2109
2112
2115
2118
2123
2126
2128
2132
2134
2135
2134
2133
2135
2138
2143
2145
2144
2137
2129
2120
2109
2105
2095
2086
2076
2067
2060
2052
2047
2041
2038
2034
2032
2029
2027
2027
2027
2026
2028
2027
2027
2024
2023
2022
2024
2028
2032
2034
2033
2030
2028
2026
2027
2028
2030
2030
2031
2031
2032
2032
2032
2032
2032
2032
2032
2032
2032
2032
2031
2030
2031
2031
2030
2028
2027
2029
2033
2037
2039
2038
2034
2030
2027
2026
2028
2028
2029
2030
2031
2032
2032
2031
2031
2030
2030
2031
2031
2032
2033
2034
2032
2033
2033
2033
2031
2030
2030
2033
2038
2041
2041
2038
2035
2032
2031
2033
2034
2035
2034
2035
2035
2035
2034
2034
2036
2038
2040
2040
2037
2033
2029
2027
2032
2034
2038
2038
2036
2037
2040
2045
2048
2048
2046
2042
2040
2037
2040
2038
2037
2036
2035
2036
2036
2036
2036
2036
2037
2038
2038
2038
2036
2035
2036
2048
2074
2109
2138
2140
2099
2018
1915
1829
1786
1797
1851
1922
1982
2021
2040
2048
2050
2055
2059
2062
2064
2066
2068
2068
2069
2070
2071
2072
2074
2075
2077
2077
2077
2075
2075
2077
2080
2084
2088
2089
2089
2087
2087
2088
2091
2094
2096
2099
2101
2103
2106
2109
2112
2116
2118
2122
2125
2128
2132
2134
2137
2140
2141
2141
2138
2136
2133
2133
2132
2128
2117
2102
2088
2077
2069
2066
2060
2051
2043
2034
2029
2027
2026
2025
2024
2023
2022
2022
2021
2021
2021
2020
2021
2023
2022
2021
2018
2016
2018
2022
2027
2030
2030
2027
2024
2023
2023
2027
2028
2029
2029
2028
2028
2028
2028
2029
2029
2029
2029
2029
2029
2029
2029
2028
2030
2029
2028
2026
2025
2025
2027
2031
2034
2033
2031
2028
2026
2025
2027
2028
2029
2028
2028
2028
2029
2029
2029
2029
2029
2030
2030
2030
2030
2030
2030
2029
2031
2030
2030
2028
2028
2030
2034
2037
2039
2037
2034
2031
2030
2029
2031
2031
2030
2030
2029
2031
2033
2035
2037
2039
2040
2041
2040
2039
2038
2038
2036
2036
2035
2034
2032
2030
2030
2032
2035
2038
2038
2036
2033
2032
2030
2030
2031
2035
2050
2078
2112
2135
2126
2071
1981
1879
1804
1779
1810
1874
1943
1995
2030
2043
2049
2051
2053
2055
2058
2063
2067
2070
2070
2067
2066
2065
2070
2070
2071
2071
2072
2073
2074
2076
2077
2077
2079
2080
2081
2083
2084
2085
2087
2090
2093
2096
2097
2097
2097
2101
2106
2112
2118
2120
2122
2123
2125
2127
2130
2133
2134
2135
2136
2136
2135
2132
2128
2121
2113
2104
2093
2084
2074
2065
2056
2048
2043
2036
2031
2027
2025
2025
2025
2025
2024
2021
2019
2017
2017
2017
2017
2018
2018
2018
2018
2019
2020
2020
2020
2020
2021
2021
2022
2022
2023
2024
2025
2025
2025
2024
2023
2024
2026
2028
2030
2030
2029
2026
2025
2024
2025
2026
2026
2026
2026
2026
2026
2025
2025
2024
2024
2024
2024
2024
2025
2025
2024
2026
2025
2026
2024
2022
2023
2024
2027
2030
2031
2029
2027
2025
2023
2026
2027
2028
2029
2028
2028
2028
2028
2029
2029
2029
2029
2028
2028
2029
2029
2029
2030
2031
2032
2031
2027
2025
2025
2028
2035
2038
2038
2034
2028
2025
2026
2030
2034
2038
2038
2039
2038
2038
2037
2036
2036
2036
2035
2034
2033
2032
2031
2032
2031
2031
2031
2030
2030
2032
2035
2037
2037
2036
2037
2048
2071
2102
2124
2115
2064
1980
1887
1820
1801
1832
1896
1961
2009
2036
2046
2048
2050
2054
2058
2060
2061
2060
2059
2060
2063
2067
2070
2073
2072
2070
2069
2067
2070
2071
2073
2074
2074
2076
2078
2079
2081
2082
2083
2085
2086
2088
2090
2092
2092
2096
2099
2101
2105
2107
2110
2113
2118
2122
2126
2129
2128
2129
2128
2128
2130
2129
2127
2123
2117
2110
2102
2093
2084
2074
2065
2057
2049
2043
2038
2033
2029
2027
2025
2024
2022
2019
2017
2016
2018
2020
2022
2022
2021
2018
2017
2017
2018
2020
2020
2020
2020
2020
2021
2022
2022
2023
2023
2024
2024
2025
2025
2026
2027
2026
2026
2024
2024
2025
2026
2028
2029
2029
2027
2025
2024
2023
2024
2025
2024
2024
2024
2025
2025
2025
2025
2025
2025
2024
2025
2024
2025
2024
2025
2025
2026
2027
2026
2024
2023
2023
2026
2030
2032
2032
2029
2027
2025
2025
2027
2028
2028
2028
2028
2028
2029
2029
2029
2029
2028
2028
2028
2029
2030
2030
2029
2031
2030
2030
2028
2027
2028
2029
2033
2035
2035
2034
2031
2030
2028
2031
2031
2032
2032
2031
2032
2032
2032
2033
2032
2031
2030
2030
2029
2030
2031
2032
2036
2039
2039
2040
2038
2037
2037
2039
2042
2042
2039
2036
2033
2032
2034
2034
2034
2033
2032
2032
2033
2034
2034
2032
2031
2030
2036
2051
2079
2106
2120
2103
2047
1964
1877
1818
1806
1838
1901
1966
2014
2042
2050
2050
2051
2053
2056
2059
2061
2062
2064
2065
2066
2067
2068
2069
2069
2070
2071
2072
2073
2074
2074
2077
2078
2078
2077
2077
2079
2083
2089
2094
2095
2094
2093
2093
2094
2099
2102
2105
2107
2111
2114
2118
2121
2123
2124
2124
2125
2129
2134
2138
2140
2135
2132
2125
2119
2113
2107
2100
2093
2086
2078
2069
2058
2049
2043
2036
2034
2031
2028
2025
2023
2021
2020
2019
2019
2019
2019
2019
2019
2019
2019
2019
2018
2021
2021
2022
2021
2019
2018
2019
2022
2026
2029
2028
2025
2022
2020
2020
2021
2023
2023
2023
2023
2023
2022
2022
2022
2021
2022
2022
2022
2022
2022
2023
2023
2022
2023
2021
2020
2019
2021
2023
2025
2026
2025
2023
2022
2020
2021
2022
2023
2023
2023
2024
2024
2025
2025
2025
2024
2024
2024
2025
2026
2026
2026
2028
2028
2027
2025
2024
2023
2025
2028
2032
2034
2033
2030
2028
2024
2026
2027
2028
2029
2028
2029
2029
2029
2029
2030
2030
2029
2029
2029
2030
2030
2029
2030
2032
2031
2030
2028
2026
2028
2031
2035
2037
2037
2034
2030
2028
2026
2030
2031
2033
2036
2037
2038
2039
2039
2039
2039
2038
2038
2037
2037
2035
2034
2033
2033
2033
2032
2030
2029
2030
2033
2037
2041
2039
2035
2030
2028
2039
2061
2092
2119
2121
2085
2013
1920
1840
1800
1810
1860
1927
1985
2024
2043
2050
2052
2053
2056
2057
2060
2060
2061
2064
2068
2072
2075
2075
2072
2070
2070
2070
2075
2075
2076
2076
2077
2078
2079
2081
2083
2084
2086
2088
2090
2091
2093
2095
2097
2101
2104
2106
2108
2110
2113
2118
2124
2128
2131
2131
2130
2130
2131
2133
2134
2134
2133
2131
2127
2122
2116
2107
2099
2090
2080
2071
2063
2056
2049
2043
2041
2035
2031
2026
2021
2020
2022
2026
2029
2029
2027
2023
2020
2018
2022
2021
2022
2023
2023
2024
2025
2025
2026
2026
2026
2026
2026
2027
2026
2027
2026
2028
2029
2029
2029
2027
2026
2028
2030
2033
2035
2033
2030
2028
2027
2027
2027
2028
2027
2027
2028
2029
2029
2029
2029
2028
2027
2027
2027
2028
2029
2030
2030
2029
2030
2029
2028
2028
2029
2030
2032
2034
2034
2033
2032
2031
2031
2032
2032
2032
2032
2032
2032
2033
2033
2034
2034
2034
2034
2033
2034
2034
2035
2036
2036
2037
2036
2035
2034
2034
2035
2038
2039
2039
2038
2037
2036
2036
2036
2037
2037
2037
2037
2037
2038
2038
2038
2038
2038
2038
2037
2036
2036
2036
2035
2038
2039
2041
2043
2043
2045
2046
2048
2048
2048
2047
2044
2041
2037
2039
2039
2039
2039
2039
2039
2038
2039
2040
2041
2041
2040
2038
2038
2040
2055
2081
2114
2141
2131
2077
1987
1887
1816
1797
1832
1896
1962
2009
2036
2047
2050
2057
2060
2063
2065
2066
2067
2070
2071
2072
2073
2073
2074
2074
2076
2076
2077
2079
2079
2080
2080
2079
2081
2085
2090
2094
2096
2096
2093
2092
2093
2096
2099
2102
2105
2108
2111
2114
2116
2120
2123
2127
2130
2133
2136
2138
2139
2141
2142
2144
2143
2139
2134
2128
2122
2118
2114
2107
2096
2083
2070
2058
2051
2048
2043
2039
2035
2032
2030
2028
2027
2026
2025
2024
2024
2024
2024
2025
2024
2025
2025
2025
2026
2025
2025
2025
2027
2030
2032
2033
2032
2031
2028
2027
2028
2028
2031
2029
2030
2029
2029
2029
2030
2030
2030
2029
2029
2029
2029
2028
2028
2029
2029
2028
2026
2025
2024
2026
2029
2032
2033
2031
2028
2027
2026
2027
2027
2028
2028
2028
2029
2029
2030
2029
2030
2029
2030
2031
2030
2030
2030
2030
2030
2031
2032
2032
2031
2029
2028
2029
2030
2032
2033
2033
2033
2034
2037
2038
2039
2039
2038
2037
2037
2036
2035
2034
2033
2032
2031
2031
2031
2031
2031
2032
2033
2033
2032
2030
2029
2030
2038
2058
2090
2123
2140
2117
2050
1949
1849
1784
1775
1817
1888
1957
2005
2032
2042
2046
2049
2053
2056
2059
2061
2063
2063
2066
2066
2067
2066
2067
2069
2071
2071
2071
2072
2074
2078
2083
2083
2084
2081
2079
2078
2081
2085
2088
2088
2091
2093
2096
2098
2102
2105
2108
2112
2114
2120
2123
2125
2127
2128
2131
2135
2139
2143
2143
2140
2137
2133
2128
2124
2115
2104
2093
2080
2070
2060
2052
2046
2039
2034
2030
2027
2024
2022
2020
2019
2018
2017
2017
2016
2015
2014
2015
2018
2020
2022
2022
2020
2018
2017
2017
2018
2019
2020
2021
2021
2022
2022
2023
2024
2024
2023
2023
2023
2023
2024
2025
2024
2026
2025
2024
2022
2020
2021
2022
2026
2029
2028
2026
2024
2022
2020
2023
2023
2023
2022
2023
2023
2023
2024
2024
2024
2025
2025
2024
2024
2024
2024
2024
2027
2026
2026
2026
2025
2024
2025
2028
2030
2031
2031
2030
2027
2025
2027
2026
2027
2028
2027
2026
2025
2025
2025
2026
2027
2029
2031
2033
2034
2035
2034
2036
2035
2034
2032
2030
2027
2027
2030
2033
2034
2033
2031
2028
2027
2028
2029
2029
2028
2026
2026
2027
2037
2059
2092
2121
2130
2096
2020
1920
1830
1782
1789
1841
1911
1972
2012
2033
2043
2048
2053
2057
2058
2057
2058
2057
2061
2061
2063
2063
2064
2066
2066
2067
2068
2069
2070
2071
2072
2072
2074
2074
2075
2079
2080
2081
2082
2082
2082
2086
2091
2096
2101
2103
2103
2103
2104
2107
2111
2115
2120
2123
2125
2127
2129
2130
2131
2131
2130
2129
2126
2122
2116
2108
2097
2089
2077
2067
2056
2047
2041
2039
2038
2035
2031
2026
2020
2018
2015
2018
2017
2017
2017
2016
2015
2016
2015
2016
2016
2017
2018
2019
2019
2019
2019
2019
2021
2021
2020
2020
2020
2022
2024
2027
2029
2028
2026
2024
2022
2022
2023
2024
2024
2025
2024
2024
2023
2023
2023
2023
2022
2023
2023
2023
2024
2023
2023
2022
2024
2024
2023
2021
2019
2020
2024
2029
2032
2032
2029
2025
2023
2022
2025
2027
2026
2025
2025
2025
2025
2025
2026
2026
2026
2027
2027
2027
2027
2028
2027
2028
2028
2028
2026
2026
2026
2028
2032
2034
2034
2031
2028
2027
2026
2028
2029
2030
2029
2028
2028
2027
2027
2026
2027
2029
2031
2033
2035
2037
2038
2037
2039
2037
2037
2035
2031
2030
2030
2032
2035
2037
2036
2034
2031
2028
2030
2029
2031
2032
2030
2029
2028
2031
2045
2069
2100
2123
2119
2073
1992
1897
1824
1799
1824
1883
1948
1998
2028
2042
2048
2053
2057
2058
2058
2058
2059
2060
2063
2064
2064
2065
2066
2067
2068
2069
2070
2070
2071
2072
2073
2075
2076
2078
2080
2081
2083
2083
2083
2084
2086
2090
2095
2098
2101
2101
2103
2103
2106
2110
2113
2116
2119
2122
2125
2127
2128
2130
2130
2130
2129
2128
2126
2121
2116
2109
2101
2092
2081
2070
2061
2054
2049
2046
2043
2038
2033
2027
2024
2021
2020
2020
2019
2019
2019
2019
2019
2019
2019
2018
2018
2019
2020
2020
2021
2022
2021
2024
2023
2023
2022
2021
2021
2023
2026
2028
2029
2027
2024
2024
2021
2025
2025
2025
2025
2024
2024
2024
2023
2024
2023
2023
2023
2024
2024
2024
2024
2022
2023
2025
2024
2022
2020
2019
2021
2025
2031
2032
2029
2025
2022
2021
2022
2026
2026
2026
2026
2025
2025
2027
2027
2026
2027
2027
2028
2028
2028
2028
2029
2029
2028
2028
2027
2026
2027
2028
2032
2034
2035
2035
2032
2029
2028
2029
2029
2030
2030
2029
2030
2030
2030
2031
2031
2032
2032
2031
2031
2030
2031
2030
2032
2034
2033
2032
2028
2026
2026
2028
2031
2035
2036
2035
2034
2034
2035
2039
2040
2041
2040
2039
2038
2037
2037
2036
2036
2034
2034
2033
2033
2033
2033
2032
2034
2035
2035
2033
2030
2030
2032
2040
2055
2080
2106
2122
2110
2058
1980
1891
1828
1810
1839
1900
1963
2010
2036
2045
2048
2051
2057
2063
2066
2065
2062
2063
2062
2065
2066
2066
2066
2068
2071
2074
2076
2075
2074
2074
2075
2078
2077
2078
2076
2077
2081
2087
2091
2094
2095
2094
2095
2097
2099
2104
2105
2109
2112
2114
2117
2118
2118
2119
2123
2128
2134
2137
2136
2133
2129
2126
2123
2120
2116
2109
2101
2093
2084
2076
2067
2059
2052
2047
2041
2037
2034
2032
2029
2027
2025
2024
2021
2019
2018
2019
2022
2025
2028
2028
2026
2023
2021
2020
2022
2024
2025
2026
2026
2026
2027
2027
2027
2027
2027
2027
2027
2027
2027
2027
2026
2028
2027
2027
2024
2023
2021
2023
2027
2031
2033
2030
2027
2024
2023
2025
2025
2026
2024
2023
2024
2026
2025
2026
2027
2027
2028
2027
2027
2025
2024
2025
2027
2031
2030
2028
2023
2020
2023
2028
2033
2038
2036
2031
2025
2025
2025
2030
2030
2029
2029
2027
2027
2029
2029
2030
2030
2031
2031
2032
2030
2030
2029
2028
2033
2032
2031
2028
2026
2027
2030
2038
2041
2041
2036
2032
2028
2027
2032
2032
2033
2033
2031
2031
2030
2032
2033
2033
2034
2033
2033
2033
2033
2034
2033
2033
2034
2033
2030
2029
2029
2031
2035
2040
2043
2044
2042
2041
2040
2040
2040
2039
2038
2037
2036
2035
2035
2034
2034
2034
2034
2034
2034
2034
2035
2034
2034
2033
2031
2030
2037
2055
2085
2117
2129
2105
2039
1947
1861
1810
1810
1853
1915
1973
2015
2040
2048
2053
2055
2056
2058
2060
2062
2064
2066
2067
2066
2068
2069
2071
2071
2071
2070
2072
2075
2079
2082
2083
2081
2078
2079
2080
2082
2086
2087
2091
2093
2096
2096
2096
2097
2100
2103
2108
2113
2116
2119
2121
2125
2127
2127
2128
2128
2130
2133
2138
2140
2139
2134
2128
2123
2116
2112
2105
2096
2087
2078
2070
2063
2055
2049
2044
2040
2036
2032
2029
2026
2026
2025
2027
2026
2025
2022
2018
2017
2018
2023
2029
2033
2032
2028
2025
2022
2023
2024
2027
2027
2027
2028
2028
2027
2028
2027
2027
2027
2028
2028
2028
2027
2026
2026
2028
2028
2029
2025
2023
2022
2024
2028
2032
2033
2031
2028
2026
2024
2027
2028
2030
2028
2028
2028
2026
2027
2028
2031
2031
2031
2031
2030
2031
2032
2032
2032
2033
2033
2029
2027
2026
2031
2037
2045
2046
2043
2035
2030
2028
2029
2034
2035
2035
2035
2035
2035
2036
2036
2036
2036
2037
2038
2038
2038
2038
2039
2040
2040
2040
2039
2038
2038
2039
2043
2046
2047
2046
2043
2040
2040
2040
2041
2042
2042
2041
2040
2041
2041
2042
2042
2044
2045
2047
2049
2051
2051
2051
2049
2050
2049
2048
2045
2043
2041
2043
2047
2050
2051
2049
2047
2045
2044
2048
2048
2048
2048
2048
2048
2058
2081
2113
2142
2148
2114
2040
1943
1859
1816
1826
1879
1947
2006
2042
2057
2062
2065
2069
2075
2078
2078
2078
2077
2077
2080
2082
2084
2084
2084
2084
2084
2085
2088
2089
2090
2091
2092
2092
2093
2093
2094
2096
2099
2102
2102
2103
2104
2107
2111
2116
2121
2122
2124
2125
2126
2130
2133
2137
2139
2142
2145
2147
2149
2149
2149
2149
2148
2146
2142
2138
2132
2124
2116
2106
2096
2084
2075
2066
2059
2055
2051
2048
2045
2040
2037
2034
2033
2032
2032
2031
2031
2031
2032
2032
2032
2032
2032
2032
2032
2033
2034
2034
2035
2035
2036
2036
2035
2034
2033
2034
2036
2038
2039
2039
2037
2036
2036
2035
2037
2036
2036
2036
2036
2036
2035
2035
2034
2034
2035
2035
2035
2034
2034
2034
2033
2034
2033
2033
2032
2032
2031
2033
2035
2037
2038
2037
2036
2034
2032
2033
2033
2034
2034
2035
2035
2035
2035
2035
2035
2035
2035
2036
2036
2036
2037
2035
2036
2037
2036
2034
2034
2034
2036
2036
2036
2037
2037
2040
2043
2043
2041
2037
2033
2030
2032
2033
2035
2036
2037
2040
2043
2045
2046
2046
2044
2042
2041
2040
2040
2039
2038
2036
2035
2034
2036
2039
2040
2041
2040
2039
2037
2036
2034
2033
2033
2041
2061
2095
2131
2147
2123
2052
1951
1852
1790
1785
1830
1900
1966
2011
2035
2044
2046
2049
2054
2060
2065
2069
2069
2068
2067
2067
2067
2069
2070
2071
2072
2073
2074
2074
2075
2076
2078
2079
2080
2081
2082
2084
2084
2084
2090
2091
2092
2094
2093
2094
2097
2105
2112
2116
2121
2120
2120
2119
2124
2127
2131
2134
2136
2136
2137
2136
2135
2133
2131
2125
2117
2109
2099
2089
2078
2069
2060
2051
2044
2037
2034
2032
2031
2031
2029
2026
2024
2022
2021
2022
2022
2023
2023
2023
2023
2024
2024
2024
2025
2025
2025
2026
2026
2026
2026
2027
2029
2030
2030
2028
2026
2025
2025
2029
2034
2036
2035
2032
2030
2028
2027
2029
2028
2029
2029
2028
2029
2029
2028
2028
2028
2028
2027
2028
2028
2028
2028
2028
2029
2029
2028
2027
2025
2026
2027
2031
2033
2033
2031
2028
2028
2027
2028
2030
2030
2030
2030
2030
2030
2030
2030
2029
2029
2028
2029
2029
2031
2033
2034
2036
2038
2039
2039
2038
2037
2036
2037
2038
2038
2036
2033
2031
2028
2029
2030
2032
2033
2033
2034
2033
2032
2030
2030
2033
2048
2076
2111
2137
2130
2074
1985
1883
1807
1781
1809
1872
1943
1999
2033
2048
2050
2052
2054
2055
2058
2060
2062
2063
2065
2065
2066
2068
2069
2070
2071
2072
2073
2073
2075
2075
2077
2077
2080
2079
2081
2081
2081
2083
2088
2094
2100
2102
2102
2101
2101
2104
2108
2111
2116
2117
2120
2124
2127
2130
2133
2135
2137
2138
2139
2139
2137
2135
2131
2126
2120
2111
2099
2087
2076
2068
2062
2056
2049
2043
2035
2030
2026
2026
2025
2024
2023
2022
2021
2020
2020
2020
2020
2021
2020
2021
2021
2021
2021
2020
2023
2024
2024
2022
2020
2020
2022
2027
2032
2034
2032
2029
2027
2024
2026
2026
2026
2026
2027
2029
2029
2029
2028
2026
2026
2026
2027
2027
2026
2027
2026
2028
2029
2029
2028
2025
2025
2026
2028
2031
2033
2031
2029
2027
2026
2027
2028
2029
2029
2030
2030
2030
2030
2030
2029
2028
2028
2027
2028
2029
2031
2033
2035
2037
2038
2038
2037
2035
2034
2034
2037
2038
2039
2037
2034
2031
2030
2031
2030
2032
2032
2033
2034
2033
2032
2030
2030
2037
2055
2086
2119
2135
2113
2048
1953
1858
1801
1796
1839
1909
1976
2023
2047
2053
2052
2052
2052
2054
2058
2060
2062
2064
2065
2066
2067
2067
2068
2069
2069
2070
2071
2073
2074
2075
2075
2078
2078
2080
2080
2080
2082
2084
2089
2094
2098
2100
2100
2101
2100
2105
2108
2112
2116
2119
2122
2125
2128
2131
2133
2136
2137
2138
2138
2138
2136
2131
