2048
2050
2050
2048
2047
2046
2046
2047
2047
2046
2047
2047
2047
2047
2047
2047
2047
2047
2047
2047
2047
2047
2047
2048
2048
2047
2048
2046
2045
2044
2045
2048
2049
2051
2050
2049
2047
2044
2044
2044
2046
2048
2048
2048
2048
2047
2046
2046
2046
2047
2047
2047
2047
2047
2046
2045
2048
2047
2048
2045
2042
2041
2045
2049
2054
2055
2052
2048
2045
2044
2046
2046
2048
2046
2046
2046
2048
2048
2048
2048
2048
2049
2048
2049
2048
2048
2048
2049
2048
2048
2047
2046
2046
2047
2048
2049
2049
2048
2047
2046
2045
2047
2047
2048
2047
2046
2046
2047
2049
2054
2062
2070
2075
2074
2066
2055
2046
2040
2039
2042
2046
2047
2047
2047
2047
2048
2049
2049
2048
2047
2046
2046
2046
2047
2048
2048
2048
2048
2048
2048
2048
2048
2048
2048
2048
2048
2048
2048
2048
2050
2050
2050
2050
2049
2050
2051
2053
2055
2056
2055
2055
2055
2054
2056
2056
2057
2057
2057
2057
2057
2058
2058
2058
2057
2057
2056
2055
2055
2054
2053
2052
2052
2052
2050
2049
2048
2048
2050
2052
2053
2053
2051
2048
2048
2048
2048
2048
2048
2048
2048
2048
2048
2048
2049
2049
2048
2048
2048
2049
2049
2049
2049
2051
2050
2049
2048
2047
2048
2050
2053
2054
2053
2051
2049
2048
2048
2051
2050
2050
2050
2049
2049
2050
2050
2050
2050
2050
2049
2048
2048
2049
2049
2049
2050
2051
2049
2048
2046
2045
2048
2051
2055
2056
2053
2049
2048
2047
2048
2049
2049
2050
2050
2050
2050
2050
2049
2048
2048
2049
2049
2050
2050
2050
2050
2050
2050
2051
2050
2050
2050
2051
2052
2054
2055
2055
2053
2051
2049
2049
2048
2049
2051
2051
2051
2051
2050
2049
2049
2049
2050
2051
2051
2050
2049
2049
2048
2052
2056
2063
2069
2074
2075
2072
2066
2057
2048
2043
2042
2044
2047
2051
2052
2051
2049
2048
2048
2048
2049
2048
2049
2049
2049
2050
2050
2049
2049
2049
2050
2050
2050
2050
2049
2049
2049
2051
2053
2054
2053
2052
2050
2050
2052
2052
2054
2054
2055
2055
2055
2056
2056
2057
2058
2059
2060
2060
2059
2059
2059
2061
2060
2059
2058
2057
2057
2059
2060
2059
2057
2054
2052
2051
2050
2051
2051
2050
2050
2050
2050
2050
2051
2050
2051
2051
2050
2049
2049
2048
2048
2048
2049
2049
2050
2049
2049
2048
2048
2048
2050
2051
2051
2051
2050
2049
2050
2050
2051
2050
2049
2050
2049
2049
2049
2049
2049
2050
2050
2049
2049
2048
2048
2048
2050
2049
2048
2048
2048
2048
2049
2051
2051
2050
2049
2048
2048
2047
2048
2048
2048
2048
2048
2048
2048
2048
2048
2048
2048
2048
2049
2049
2049
2048
2048
2049
2049
2050
2049
2048
2048
2049
2050
2052
2052
2050
2048
2047
2045
2046
2046
2047
2047
2048
2048
2048
2048
2048
2048
2048
2047
2047
2047
2048
2052
2059
2069
2076
2077
2071
2058
2046
2038
2037
2042
2047
2049
2048
2047
2045
2045
2046
2046
2047
2047
2047
2047
2047
2047
2047
2047
2047
2047
2048
2048
2048
2048
2048
2047
2046
2047
2047
2048
2048
2050
2051
2052
2052
2051
2050
2049
2049
2050
2052
2054
2055
2055
2055
2055
2055
2056
2057
2058
2058
2059
2058
2058
2057
2057
2057
2056
2056
2052
2050
2049
2050
2052
2054
2055
2053
2049
2046
2045
2046
2047
2048
2048
2048
2046
2046
2046
2046
2047
2047
2047
2047
2046
2046
2045
2045
2046
2046
2046
2046
2045
2046
2048
2049
2051
2051
2049
2047
2045
2045
2046
2047
2048
2048
2047
2047
2046
2046
2047
2047
2048
2048
2048
2047
2046
2046
2046
2048
2048
2047
2046
2044
2044
2046
2048
2051
2052
2050
2048
2046
2045
2045
2046
2045
2046
2047
2047
2048
2048
2049
2049
2049
2048
2048
2047
2047
2047
2047
2048
2047
2048
2047
2046
2045
2045
2046
2048
2050
2050
2049
2048
2046
2045
2045
2047
2049
2055
2063
2071
2074
2071
2062
2051
2042
2037
2037
2040
2043
2045
2046
2047
2047
2045
2044
2043
2043
2046
2048
2050
2049
2048
2047
2046
2044
2045
2046
2046
2047
2048
2048
2048
2048
2048
2048
2048
2048
2048
2048
2048
2049
2049
2051
2051
2052
2052
2051
2051
2052
2054
2056
2057
2057
2057
2056
2056
2056
2056
2056
2056
2056
2056
2056
2056
2054
2053
2052
2051
2050
2049
2048
2048
2048
2048
2048
2047
2046
2045
2045
2047
2048
2050
2051
2049
2048
2046
2045
2046
2046
2047
2047
2048
2048
2048
2047
2047
2047
2047
2047
2048
2048
2048
2048
2047
2047
2046
2046
2046
2046
2045
2046
2047
2048
2050
2049
2048
2047
2045
2044
2043
2043
2045
2045
2046
2046
2046
2046
2046
2046
2046
2046
2046
2046
2045
2045
2044
2044
2045
2045
2044
2044
2045
2046
2048
2048
2047
2047
2045
2045
2045
2047
2048
2048
2049
2049
2048
2048
2046
2045
2044
2045
2045
2046
2046
2046
2046
2045
2047
2046
2046
2044
2043
2042
2044
2047
2048
2050
2052
2056
2063
2068
2072
2068
2059
2048
2041
2037
2038
2041
2044
2045
2045
2045
2045
2045
2045
2045
2044
2045
2046
2046
2046
2045
2045
2046
2048
2049
2049
2048
2047
2046
2045
2046
2046
2046
2048
2048
2048
2048
2048
2048
2048
2048
2049
2049
2050
2050
2051
2052
2054
2054
2055
2054
2053
2052
2053
2057
2060
2062
2062
2059
2056
2054
2054
2054
2053
2052
2051
2050
2050
2050
2050
2049
2048
2048
2048
2048
2048
2048
2048
2048
2048
2048
2048
2046
2046
2046
2048
2049
2050
2050
2048
2047
2045
2045
2046
2047
2047
2047
2047
2047
2047
2048
2048
2048
2048
2047
2047
2047
2048
2047
2048
2048
2049
2048
2047
2043
2043
2045
2049
2053
2056
2055
2051
2048
2046
2046
2048
2048
2049
2049
2049
2049
2048
2048
2048
2048
2048
2048
2049
2049
2050
2050
2051
2050
2048
2047
2044
2044
2046
2049
2052
2053
2052
2050
2048
2046
2047
2047
2048
2046
2044
2042
2043
2047
2052
2059
2066
2072
2075
2073
2067
2056
2047
2038
2037
2039
2042
2041
2040
2041
2045
2051
2055
2055
2050
2046
2042
2041
2045
2047
2048
2048
2048
2048
2048
2048
2048
2048
2048
2048
2049
2049
2049
2048
2048
2050
2050
2049
2048
2046
2046
2048
2054
2058
2059
2057
2053
2052
2050
2054
2055
2056
2056
2057
2058
2058
2058
2058
2057
2056
2055
2055
2054
2052
2051
2050
2050
2050
2049
2048
2045
2044
2046
2048
2050
2051
2049
2046
2044
2043
2044
2046
2046
2045
2045
2046
2046
2046
2045
2045
2045
2045
2045
2045
2045
2045
2044
2045
2045
2046
2046
2044
2044
2045
2047
2049
2050
2049
2047
2044
2043
2043
2043
2045
2046
2046
2046
2046
2046
2045
2046
2046
2046
2046
2046
2045
2045
2045
2045
2045
2046
2045
2044
2042
2042
2045
2048
2050
2050
2049
2047
2046
2046
2047
2048
2047
2046
2045
2044
2044
2045
2046
2047
2046
2044
2043
2044
2044
2045
2045
2046
2044
2043
2043
2046
2053
2063
2072
2076
2072
2063
2050
2040
2034
2036
2039
2043
2045
2045
2044
2043
2043
2044
2044
2044
2045
2045
2045
2045
2045
2045
2045
2046
2046
2044
2043
2042
2044
2048
2051
2051
2049
2047
2045
2043
2045
2046
2048
2048
2048
2048
2049
2048
2048
2048
2049
2051
2053
2053
2053
2054
2053
2054
2055
2055
2055
2053
2051
2051
2054
2056
2058
2058
2055
2051
2048
2047
2046
2046
2047
2046
2046
2045
2045
2044
2044
2045
2045
2045
2045
2046
2046
2046
2045
2047
2045
2044
2041
2040
2041
2045
2049
2052
2051
2048
2045
2042
2042
2045
2046
2047
2047
2046
2046
2046
2046
2046
2046
2046
2046
2046
2046
2046
2045
2045
2047
2047
2046
2043
2040
2041
2044
2049
2054
2055
2051
2047
2041
2040
2043
2044
2046
2045
2045
2046
2046
2047
2047
2045
2045
2045
2045
2048
2048
2047
2046
2044
2043
2043
2043
2043
2045
2047
2049
2051
2051
2049
2047
2045
2045
2045
2046
2047
2047
2046
2045
2045
2045
2045
2046
2046
2046
2046
2046
2045
2045
2044
2045
2045
2045
2045
2048
2055
2065
2074
2077
2072
2061
2048
2041
2037
2039
2042
2044
2045
2046
2045
2045
2045
2044
2044
2044
2044
2045
2044
2044
2044
2045
2046
2046
2047
2046
2044
2043
2043
2045
2047
2048
2048
2048
2047
2046
2047
2047
2048
2048
2048
2048
2048
2049
2050
2050
2051
2052
2053
2053
2054
2054
2055
2055
2056
2055
2054
2053
2053
2053
2054
2055
2055
2053
2051
2050
2049
2048
2048
2048
2047
2047
2047
2047
2047
2047
2046
2046
2045
2045
2045
2045
2045
2045
2045
2046
2046
2047
2046
2045
2045
2046
2047
2048
2048
2048
2047
2045
2044
2045
2045
2045
2045
2045
2046
2046
2047
2047
2047
2047
2046
2046
2047
2047
2047
2046
2047
2047
2046
2045
2044
2045
2047
2048
2049
2049
2048
2047
2045
2045
2045
2046
2046
2046
2046
2046
2047
2047
2046
2047
2047
2047
2047
2047
2047
2047
2047
2047
2047
2047
2046
2045
2045
2046
2048
2049
2050
2049
2048
2045
2044
2046
2047
2048
2048
2048
2048
2048
2048
2048
2048
2048
2048
2047
2047
2047
2046
2046
2046
2047
2047
2047
2046
2046
2046
2047
2048
2049
2048
2048
2048
2053
2061
2071
2076
2074
2064
2052
2043
2038
2038
2041
2044
2045
2045
2045
2045
2046
2045
2045
2046
2046
2046
2045
2044
2045
2046
2048
2049
2049
2048
2047
2046
2045
2048
2048
2048
2048
2048
2048
2048
2048
2048
2048
2049
2049
2049
2050
2050
2051
2052
2053
2054
2054
2053
2053
2054
2055
2058
2060
2060
2059
2057
2055
2054
2055
2055
2055
2055
2055
2054
2052
2051
2049
2050
2050
2049
2049
2048
2048
2046
2044
2043
2046
2048
2050
2049
2048
2046
2046
2047
2048
2049
2048
2046
2044
2044
2046
2045
2046
2046
2046
2047
2046
2047
2047
2047
2047
2047
2047
2047
2046
2046
2047
2047
2048
2047
2046
2045
2046
2047
2048
2049
2049
2047
2045
2044
2045
2046
2046
2046
2046
2046
2046
2046
2046
2046
2046
2046
2045
2045
2045
2045
2044
2045
2046
2046
2045
2044
2043
2044
2046
2048
2050
2051
2049
2048
2047
2046
2047
2046
2047
2046
2046
2046
2045
2044
2044
2044
2043
2044
2044
2044
2045
2046
2046
2046
2046
2044
2042
2043
2048
2058
2070
2078
2079
2071
2057
2044
2036
2034
2036
2040
2043
2045
2045
2045
2044
2044
2044
2043
2044
2044
2044
2045
2045
2046
2046
2045
2044
2043
2042
2043
2045
2048
2049
2050
2049
2048
2046
2045
2045
2047
2048
2048
2048
2048
2048
2048
2049
2050
2051
2051
2052
2053
2054
2054
2055
2056
2057
2056
2056
2055
2055
2055
2056
2057
2057
2056
2053
2051
2049
2048
2049
2048
2048
2046
2045
2045
2046
2047
2047
2047
2046
2045
2045
2046
2046
2045
2044
2046
2046
2045
2044
2043
2043
2045
2048
2049
2050
2048
2046
2044
2043
2045
2046
2046
2045
2044
2044
2044
2045
2046
2046
2046
2045
2045
2045
2045
2045
2045
2045
2046
2045
2045
2043
2043
2044
2046
2047
2048
2047
2044
2043
2043
2043
2044
2044
2045
2045
2046
2046
2047
2046
2045
2045
2044
2044
2044
2044
2044
2044
2043
2045
2045
2045
2044
2043
2044
2047
2049
2051
2050
2048
2046
2045
2044
2045
2044
2045
2044
2044
2044
2044
2045
2045
2045
2045
2045
2045
2044
2043
2043
2044
2046
2048
2052
2059
2066
2070
2071
2066
2056
2048
2041
2038
2039
2041
2044
2045
2045
2045
2044
2044
2044
2044
2045
2045
2045
2045
2045
2045
2046
2046
2046
2047
2046
2047
2046
2046
2046
2046
2048
2048
2049
2049
2049
2048
2048
2048
2048
2048
2049
2049
2050
2051
2052
2052
2053
2053
2053
2054
2054
2055
2056
2055
2057
2057
2055
2054
2053
2053
2054
2055
2056
2055
2053
2050
2048
2048
2048
2048
2048
2048
2048
2048
2048
2048
2048
2048
2047
2047
2047
2047
2048
2048
2048
2048
2048
2047
2046
2044
2043
2045
2048
2050
2051
2050
2048
2046
2045
2046
2047
2048
2048
2048
2048
2047
2047
2047
2047
2047
2048
2048
2047
2047
2046
2046
2047
2048
2047
2047
2046
2045
2046
2048
2049
2050
2049
2048
2045
2044
2044
2046
2047
2048
2048
2047
2046
2045
2046
2046
2048
2048
2048
2048
2047
2046
2046
2047
2048
2048
2048
2047
2046
2046
2048
2050
2052
2052
2050
2048
2046
2045
2047
2047
2047
2046
2046
2046
2046
2046
2046
2047
2047
2046
2046
2047
2048
2051
2057
2065
2072
2073
2068
2058
2048
2042
2040
2042
2045
2046
2046
2045
2045
2045
2046
2046
2047
2047
2047
2047
2047
2047
2047
2048
2048
2048
2048
2048
2048
2048
2048
2048
2048
2048
2046
2044
2044
2047
2049
2052
2053
2051
2049
2048
2048
2049
2050
2052
2052
2053
2054
2055
2056
2057
2057
2057
2057
2057
2056
2056
2057
2057
2057
2056
2055
2053
2051
2050
2051
2053
2053
2053
2051
2048
2048
2046
2047
2047
2046
2047
2047
2047
2047
2047
2047
2046
2046
2045
2045
2045
2046
2046
2046
2048
2047
2047
2045
2045
2045
2045
2048
2048
2049
2049
2048
2047
2045
2046
2046
2046
2046
2046
2047
2047
2047
2047
2047
2047
2046
2047
2047
2048
2048
2047
2048
2048
2047
2046
2044
2044
2045
2048
2049
2050
2049
2048
2046
2045
2046
2047
2048
2048
2049
2049
2048
2048
2048
2048
2047
2048
2048
2048
2047
2047
2047
2046
2046
2045
2045
2044
2043
2044
2046
2048
2048
2048
2047
2048
2048
2053
2061
2069
2074
2073
2064
2052
2042
2035
2034
2038
2042
2045
2046
2046
2046
2045
2045
2046
2045
2045
2045
2045
2045
2047
2048
2048
2048
2047
2046
2045
2044
2046
2047
2048
2048
2048
2047
2047
2047
2048
2049
2050
2050
2050
2049
2049
2049
2048
2051
2052
2053
2052
2051
2051
2053
2057
2060
2061
2060
2057
2055
2053
2054
2054
2054
2053
2051
2050
2049
2048
2048
2048
2048
2047
2047
2046
2046
2046
2045
2046
2046
2046
2046
2044
2044
2045
2047
2048
2048
2048
2046
2045
2044
2045
2045
2045
2045
2046
2046
2046
2046
2045
2046
2046
2046
2046
2045
2045
2045
2045
2045
2047
2046
2045
2043
2041
2041
2044
2048
2049
2048
2047
2044
2043
2043
2044
2044
2044
2044
2044
2044
2044
2044
2044
2044
2044
2044
2045
2044
2044
2044
2045
2045
2045
2045
2044
2044
2045
2047
2049
2050
2049
2048
2046
2045
2045
2045
2045
2045
2045
2045
2045
2045
2045
2045
2045
2045
2045
2045
2045
2045
2044
2045
2046
2046
2048
2052
2058
2066
2072
2072
2066
2055
2045
2038
2035
2038
2042
2044
2045
2045
2045
2045
2045
2045
2045
2045
2045
2045
2046
2046
2046
2046
2046
2047
2047
2046
2044
2043
2043
2046
2048
2051
2052
2049
2047
2046
2046
2047
2048
2048
2048
2048
2048
2049
2050
2050
2051
2051
2052
2053
2054
2055
2055
2055
2055
2055
2055
2054
2052
2051
2051
2052
2054
2055
2053
2050
2048
2047
2047
2048
2048
2048
2047
2046
2046
2046
2046
2046
2046
2046
2045
2046
2046
2046
2046
2045
2046
2046
2046
2046
2045
2045
2046
2048
2048
2048
2048
2047
2045
2044
2046
2046
2046
2046
2046
2045
2045
2044
2044
2045
2047
2048
2048
2047
2045
2044
2043
2045
2046
2046
2044
2043
2042
2043
2046
2048
2048
2048
2045
2044
2043
2045
2045
2045
2045
2044
2044
2045
2045
2045
2045
2046
2045
2045
2045
2045
2045
2044
2045
2046
2046
2045
2044
2044
2044
2046
2048
2048
2048
2047
2046
2045
2046
2047
2047
2048
2048
2048
2047
2046
2045
2046
2046
2046
2046
2046
2045
2045
2045
2044
2046
2046
2045
2043
2040
2040
2043
2048
2054
2060
2065
2069
2070
2065
2058
2048
2040
2036
2037
2040
2043
2045
2045
2045
2045
2044
2045
2044
2044
2044
2045
2046
2047
2046
2045
2044
2043
2044
2047
2048
2048
2048
2046
2046
2045
2046
2046
2046
2046
2046
2047
2047
2048
2048
2048
2048
2048
2049
2050
2051
2051
2052
2053
2053
2053
2053
2052
2053
2054
2056
2057
2057
2056
2054
2052
2051
2051
2050
2050
2049
2048
2048
2048
2048
2047
2046
2046
2045
2046
2046
2046
2046
2046
2046
2046
2045
2045
2044
2044
2045
2047
2048
2048
2047
2046
2045
2044
2045
2045
2045
2046
2046
2046
2046
2046
2046
2046
2046
2046
2046
2046
2046
2046
2046
2047
2046
2046
2045
2043
2043
2044
2046
2048
2048
2048
2047
2045
2044
2045
2045
2046
2046
2046
2045
2046
2045
2046
2046
2046
2046
2045
2045
2045
2045
2045
2044
2046
2046
2046
2043
2041
2040
2042
2047
2050
2052
2050
2047
2043
2041
2044
2045
2047
2046
2046
2046
2048
2048
2048
2048
2047
2048
2048
2048
2048
2047
2045
2046
2045
2045
2044
2043
2043
2045
2048
2050
2050
2048
2046
2044
2042
2043
2044
2046
2048
2053
2061
2068
2071
2069
2060
2048
2040
2035
2035
2037
2040
2041
2042
2043
2043
2041
2040
2039
2040
2043
2047
2048
2048
2045
2042
2040
2040
2042
2043
2044
2045
2045
2044
2044
2045
2045
2046
2047
2046
2045
2045
2045
2046
2048
2049
2050
2050
2049
2048
2048
2050
2052
2054
2055
2055
2054
2053
2053
2053
2054
2054
2054
2054
2053
2053
2052
2052
2050
2050
2050
2050
2048
2046
2044
2044
2047
2050
2051
2049
2046
2042
2041
2044
2046
2048
2046
2045
2044
2044
2044
2045
2044
2044
2044
2044
2045
2045
2045
2045
2045
2044
2044
2045
2045
2045
2045
2045
2045
2045
2044
2044
2044
2044
2046
2047
2047
2045
2044
2043
2042
2043
2043
2043
2042
2043
2043
2043
2043
2042
2042
2041
2041
2042
2042
2042
2043
2042
2043
2042
2041
2040
2039
2040
2042
2044
2045
2045
2043
2042
2041
2042
2043
2043
2043
2043
2043
2042
2042
2042
2042
2042
2041
2041
2041
2041
2041
2042
2042
2043
2042
2042
2042
2040
2040
2039
2041
2043
2046
2049
2055
2061
2066
2068
2064
2054
2045
2037
2034
2035
2038
2041
2043
2043
2042
2042
2042
2041
2042
2042
2042
2043
2042
2043
2041
2039
2038
2039
2043
2046
2048
2048
2046
2043
2040
2041
2042
2044
2044
2044
2044
2044
2045
2045
2045
2045
2045
2046
2047
2048
2049
2049
2050
2051
2051
2050
2050
2049
2050
2052
2055
2056
2056
2054
2051
2049
2050
2049
2049
2048
2047
2046
2045
2044
2044
2044
2043
2043
2043
2043
2042
2043
2042
2044
2045
2043
2043
2041
2040
2041
2044
2047
2048
2047
2045
2043
2041
2042
2044
2044
2044
2044
2044
2044
2045
2045
2045
2045
2044
2044
2044
2044
2044
2043
2044
2044
2044
2044
2043
2043
2044
2045
2047
2048
2047
2046
2045
2043
2044
2043
2043
2044
2044
2044
2044
2044
2044
2045
2045
2045
2045
2045
2044
2044
2043
2044
2045
2045
2045
2044
2043
2044
2047
2049
2051
2050
2048
2047
2045
2044
2045
2045
2045
2045
2045
2045
2045
2045
2045
2046
2046
2046
2046
2045
2045
2045
2046
2046
2047
2048
2052
2059
2067
2073
2073
2068
2057
2047
2040
2038
2039
2043
2045
2047
2048
2048
2048
2047
2045
2045
2045
2045
2046
2046
2046
2047
2048
2048
2049
2049
2048
2048
2046
2047
2048
2050
2052
2052
2050
2048
2047
2047
2048
2050
2050
2051
2051
2052
2052
2053
2053
2054
2054
2055
2055
2056
2057
2058
2058
2058
2058
2058
2058
2056
2056
2056
2057
2058
2057
2056
2053
2051
2050
2050
2050
2049
2049
2048
2048
2048
2048
2048
2048
2047
2047
2047
2047
2047
2047
2047
2046
2048
2048
2047
2045
2044
2043
2045
2048
2050
2050
2048
2046
2044
2043
2045
2046
2046
2046
2046
2046
2045
2047
2047
2047
2047
2047
2046
2047
2047
2047
2047
2048
2046
2046
2044
2044
2044
2046
2048
2049
2049
2048
2045
2044
2043
2045
2046
2047
2046
2045
2045
2044
2045
2046
2046
2047
2047
2047
2047
2046
2046
2046
2047
2048
2048
2047
2044
2042
2044
2047
2050
2052
2051
2048
2045
2043
2042
2046
2045
2046
2045
2044
2042
2041
2043
2046
2048
2050
2053
2059
2066
2072
2073
2068
2058
2048
2041
2037
2037
2040
2044
2048
2050
2050
2048
2046
2043
2043
2044
2046
2046
2046
2045
2045
2045
2046
2046
2046
2045
2046
2046
2047
2047
2048
2048
2048
2048
2048
2047
2045
2046
2048
2051
2054
2054
2053
2050
2049
2048
2049
2050
2051
2051
2053
2055
2056
2057
2056
2055
2054
2053
2052
2054
2054
2054
2053
2052
2050
2049
2047
2045
2044
2046
2047
2048
2050
2048
2046
2044
2042
2043
2044
2045
2045
2045
2045
2045
2044
2044
2044
2043
2043
2043
2044
2044
2045
2045
2046
2045
2044
2042
2042
2043
2045
2047
2048
2048
2046
2043
2042
2042
2044
2045
2045
2045
2044
2044
2044
2044
2044
2045
2044
2045
2044
2044
2044
2044
2044
2045
2045
2044
2042
2039
2038
2040
2043
2047
2048
2048
2044
2041
2038
2041
2042
2044
2046
2046
2046
2045
2044
2044
2044
2044
2044
2044
2043
2043
2043
2042
2043
2043
2042
2043
2040
2039
2038
2040
2044
2048
2050
2049
2045
2042
2046
2057
2069
2077
2073
2061
2046
2035
2030
2032
2039
2043
2043
2042
2041
2041
2041
2042
2044
2043
2042
2039
2037
2036
2040
2044
2048
2048
2047
2044
2041
2040
2042
2042
2043
2043
2043
2044
2044
2045
2045
2044
2043
2043
2045
2046
2048
2048
2048
2049
2049
2049
2048
2046
2046
2048
2053
2058
2061
2059
2055
2051
2048
2048
2050
2050
2050
2049
2048
2046
2046
2045
2045
2044
2043
2043
2042
2042
2042
2042
2042
2043
2043
2042
2040
2038
2038
2040
2043
2046
2047
2045
2043
2041
2040
2040
2041
2041
2041
2042
2042
2043
2042
2042
2042
2042
2042
2042
2043
2044
2044
2043
2043
2041
2040
2039
2038
2040
2042
2046
2048
2048
2046
2043
2041
2039
2041
2042
2043
2042
2042
2042
2042
2041
2041
2041
2041
2042
2042
2042
2042
2042
2042
2042
2043
2043
2042
2041
2040
2042
2045
2048
2049
2048
2045
2041
2040
2040
2041
2042
2042
2042
2041
2042
2041
2041
2041
2042
2042
2042
2041
2040
2040
2039
2042
2044
2049
2056
2063
2067
2066
2060
2051
2045
2039
2038
2039
2039
2039
2038
2038
2037
2038
2039
2040
2040
2040
2040
2040
2040
2040
2040
2041
2041
2041
2041
2041
2041
2041
2040
2041
2042
2043
2045
2046
2046
2044
2043
2042
2043
2044
2045
2046
2046
2047
2046
2047
2047
2048
2048
2049
2049
2050
2051
2051
2051
2051
2052
2051
2052
2050
2048
2046
2046
2048
2050
2052
2051
2048
2044
2040
2041
2041
2043
2042
2042
2042
2042
2042
2042
2043
2043
2043
2042
2041
2040
2041
2041
2043
2044
2043
2042
2040
2039
2041
2044
2046
2047
2046
2044
2042
2040
2042
2042
2043
2043
2043
2042
2042
2043
2043
2043
2043
2043
2043
2043
2043
2043
2041
2043
2043
2042
2042
2040
2039
2040
2042
2045
2047
2046
2044
2042
2041
2041
2043
2042
2043
2042
2042
2042
2042
2043
2043
2044
2044
2043
2043
2043
2043
2043
2044
2045
2045
2045
2044
2043
2044
2046
2047
2047
2046
2044
2042
2041
2042
2042
2042
2042
2042
2043
2044
2044
2044
2043
2043
2042
2043
2046
2051
2059
2066
2072
2071
2062
2051
2041
2035
2035
2040
2045
2047
2047
2045
2043
2041
2040
2042
2042
2042
2042
2043
2043
2044
2044
2043
2043
2043
2042
2043
2043
2043
2043
2044
2045
2044
2044
2043
2042
2043
2044
2047
2048
2048
2048
2048
2047
2047
2048
2048
2049
2049
2050
2051
2052
2053
2053
2053
2052
2052
2052
2052
2052
2052
2051
2051
2050
2048
2047
2045
2045
2046
2048
2049
2048
2047
2044
2042
2041
2042
2043
2043
2043
2044
2044
2044
2044
2044
2044
2044
2044
2044
2043
2044
2044
2045
2045
2046
2045
2045
2043
2043
2044
2045
2047
2048
2047
2046
2045
2044
2044
2045
2045
2045
2045
2044
2044
2044
2044
2045
2045
2046
2045
2045
2045
2045
2045
2043
2045
2045
2044
2042
2040
2040
2043
2047
2049
2050
2048
2045
2043
2041
2044
2045
2045
2044
2044
2043
2044
2044
2044
2045
2044
2046
2046
2047
2046
2045
2044
2046
2048
2048
2046
2043
2040
2041
2044
2048
2050
2048
2047
2044
2041
2043
2044
2045
2045
2044
2043
2042
2042
2043
2045
2049
2057
2065
2071
2071
2065
2053
2044
2038
2036
2038
2041
2043
2043
2044
2045
2046
2045
2044
2044
2044
2044
2045
2045
2045
2046
2046
2046
2045
2045
2046
2046
2046
2046
2046
2046
2046
2046
2047
2047
2048
2047
2046
2046
2046
2047
2048
2050
2052
2052
2052
2051
2052
2052
2052
2053
2053
2054
2055
2056
2056
2056
2056
2055
2054
2053
2052
2051
2051
2051
2051
2050
2048
2048
2046
2046
2046
2048
2048
2048
2048
2046
2045
2044
2044
2045
2045
2045
2045
2045
2046
2046
2045
2046
2046
2046
2045
2043
2042
2043
2045
2050
2051
2049
2046
2042
2040
2042
2045
2048
2048
2047
2045
2044
2043
2045
2044
2045
2044
2045
2045
2045
2044
2044
2044
2044
2044
2044
2044
2044
2044
2044
2045
2045
2043
2042
2041
2041
2043
2045
2047
2047
2046
2044
2043
2042
2043
2045
2045
2046
2047
2047
2046
2046
2045
2045
2045
2045
2044
2044
2044
2044
2044
2043
2043
2042
2042
2041
2041
2042
2044
2046
2047
2046
2045
2043
2044
2048
2054
2063
2070
2071
2066
2055
2044
2036
2033
2035
2039
2041
2043
2043
2043
2042
2042
2044
2043
2044
2041
2038
2038
2041
2046
2049
2050
2048
2045
2042
2041
2043
2044
2045
2044
2043
2043
2043
2044
2045
2046
2046
2046
2046
2046
2047
2047
2046
2048
2049
2051
2050
2048
2048
2048
2052
2056
2059
2059
2055
2052
2050
2052
2053
2053
2052
2051
2050
2049
2048
2048
2048
2047
2046
2045
2044
2044
2043
2043
2043
2044
2044
2043
2042
2042
2042
2044
2045
2046
2046
2045
2043
2042
2042
2043
2044
2044
2044
2045
2045
2045
2045
2045
2045
2045
2045
2045
2044
2044
2044
2044
2044
2045
2044
2044
2043
2042
2043
2044
2045
2045
2044
2043
2043
2044
2044
2045
2044
2043
2042
2042
2043
2044
2044
2043
2043
2043
2043
2044
2044
2045
2044
2045
2045
2044
2043
2042
2041
2043
2045
2047
2047
2046
2045
2044
2044
2045
2047
2046
2046
2045
2045
2045
2045
2045
2044
2044
2043
2043
2043
2043
2044
2044
2046
2045
2044
2042
2041
2041
2043
2047
2051
2057
2063
2069
2070
2065
2058
2047
2039
2035
2036
2040
2043
2044
2044
2044
2044
2043
2043
2043
2043
2044
2043
2044
2044
2043
2042
2042
2042
2044
2046
2048
2048
2048
2046
2045
2044
2044
2045
2046
2047
2047
2047
2047
2047
2047
2047
2047
2048
2048
2049
2051
2052
2052
2053
2053
2053
2053
2052
2053
2053
2055
2057
2057
2057
2055
2053
2051
2051
2050
2050
2050
2049
2048
2048
2047
2047
2047
2047
2047
2046
2046
2046
2046
2046
2046
2047
2046
2048
2045
2043
2041
2041
2045
2048
2052
2052
2049
2046
2042
2044
2045
2048
2047
2046
2045
2045
2046
2046
2047
2047
2047
2047
2047
2047
2046
2046
2047
2046
2046
2045
2043
2044
2045
2048
2049
2050
2048
2047
2044
2042
2043
2044
2045
2045
2045
2045
2045
2045
2045
2046
2046
2045
2045
2045
2045
2045
2044
2045
2047
2045
2044
2041
2039
2041
2047
2051
2053
2051
2048
2045
2043
2046
2048
2048
2048
2047
2046
2046
2046
2047
2047
2047
2047
2047
2047
2047
2047
2046
2048
2048
2047
2047
2046
2047
2051
2060
2070
2076
2076
2068
2056
2044
2038
2036
2038
2042
2045
2047
2047
2046
2046
2046
2046
2046
2046
2046
2047
2047
2048
2047
2048
2048
2047
2046
2045
2045
2047
2049
2051
2052
2051
2049
2048
2047
2047
2048
2048
2048
2049
2049
2050
2050
2051
2051
2052
2053
2053
2054
2055
2056
2056
2058
2058
2057
2056
2055
2055
2056
2058
2060
2060
2057
2055
2053
2051
2052
2051
2051
2051
2051
2051
2051
2051
2050
2050
2049
2049
2049
2050
2050
2050
2050
2050
2050
2049
2048
2048
2048
2048
2050
2051
2051
2050
2049
2048
2048
2048
2048
2049
2049
2049
2049
2049
2048
2048
2048
2048
2048
2048
2048
2048
2049
2049
2049
2049
2048
2048
2047
2047
2047
2048
2050
2051
2050
2048
2047
2046
2047
2048
2048
2048
2048
2048
2048
2048
2048
2047
2048
2048
2048
2048
2049
2049
2049
2049
2050
2049
2050
2048
2046
2044
2045
2048
2051
2053
2053
2050
2048
2045
2047
2048
2049
2048
2048
2047
2047
2047
2048
2049
2053
2060
2068
2074
2075
2070
2058
2048
2041
2037
2038
2040
2044
2046
2049
2051
2052
2049
2046
2043
2042
2047
2050
2053
2051
2048
2046
2044
2046
2047
2048
2048
2048
2048
2048
2048
2048
2048
2049
2051
2050
2049
2048
2047
2048
2050
2054
2056
2056
2054
2053
2052
2053
2055
2055
2056
2057
2057
2057
2058
2058
2059
2059
2058
2057
2056
2055
2054
2054
2054
2053
2052
2051
2049
2048
2047
2048
2048
2050
2050
2049
2048
2047
2047
2047
2046
2046
2046
2046
2046
2047
2047
2047
2047
2048
2048
2047
2047
2047
2047
2046
2047
2048
2047
2047
2045
2045
2046
2048
2049
2049
2048
2047
2046
2046
2046
2047
2046
2046
2047
2047
2047
2047
2046
2046
2046
2046
2046
2047
2047
2047
2047
2047
2047
2046
2045
2044
2044
2046
2048
2049
2049
2048
2047
2045
2044
2045
2045
2046
2047
2047
2048
2048
2048
2048
2048
2048
2048
2048
2048
2048
2048
2047
2047
2047
2046
2045
2044
2044
2045
2046
2048
2049
2049
2048
2047
2045
2044
2045
2046
2049
2055
2062
2069
2072
2070
2061
2051
2042
2037
2037
2040
2044
2046
2045
2047
2045
2044
2043
2043
2045
2047
2048
2048
2048
2046
2045
2044
2044
2046
2046
2047
2048
2048
2048
2047
2047
2047
2047
2048
2048
2048
2048
2048
2048
2048
2049
2049
2049
2049
2048
2048
2049
2052
2055
2056
2057
2055
2054
2052
2054
2055
2054
2055
2055
2054
2054
2053
2052
2052
2051
2050
2049
2048
2048
2047
2046
2048
2047
2046
2046
2044
2043
2044
2046
2048
2049
2048
2048
2046
2044
2046
2045
2045
2046
2045
2045
2045
2045
2046
2046
2046
2046
2046
2046
2046
2046
2045
2046
2047
2047
2047
2045
2045
2045
2047
2048
2048
2048
2047
2046
2045
2045
2046
2045
2046
2046
2045
2045
2045
2045
2046
2046
2047
2047
2046
2046
2045
2045
2045
2047
2047
2046
2044
2041
2041
2044
2048
2051
2051
2048
2046
2043
2041
2043
2044
2045
2045
2045
2045
2045
2045
2045
2045
2045
2045
2046
2046
2047
2047
2047
2048
2047
2047
2046
2045
2044
2045
2047
2048
2048
2047
2045
2044
2042
2044
2044
2045
2045
2045
2046
2046
2046
2046
2046
2047
2048
2054
2061
2068
2071
2067
2061
2050
2041
2035
2033
2035
2040
2045
2048
2050
2049
2047
2044
2042
2043
2044
2045
2046
2046
2046
2046
2046
2046
2046
2046
2046
2046
2047
2047
2047
2047
2047
2048
2047
2047
2047
2047
2048
2050
2051
2052
2052
2050
2050
2050
2051
2052
2053
2054
2054
2055
2055
2056
2056
2055
2055
2055
2055
2055
2055
2055
2055
2054
2052
2051
2050
2048
2048
2048
2048
2049
2050
2049
2048
2046
2044
2044
2044
2046
2047
2047
2047
2047
2047
2046
2046
2046
2046
2046
2047
2047
2046
2046
2045
2046
2046
2046
2045
2044
2044
2045
2048
2049
2048
2048
2046
2044
2043
2045
2045
2045
2045
2045
2045
2045
2045
2045
2045
2045
2045
2045
2045
2045
2045
2043
2044
2045
2044
2045
2043
2041
2041
2043
2045
2047
2048
2048
2047
2044
2045
2044
2044
2045
2044
2044
2044
2045
2045
2045
2045
2045
2045
2045
2045
2045
2044
2045
2047
2046
2044
2040
2039
2041
2046
2051
2054
2053
2049
2046
2044
2046
2048
2048
2047
2046
2046
2046
2046
2046
2047
2046
2046
2045
2044
2045
2045
2044
2046
2047
2047
2045
2043
2041
2042
2045
2049
2056
2062
2068
2071
2068
2062
2051
2042
2036
2034
2037
2041
2044
2045
2045
2045
2044
2044
2044
2044
2044
2044
2043
2046
2046
2046
2045
2043
2042
2043
2046
2049
2051
2050
2048
2047
2044
2045
2046
2046
2048
2048
2048
2048
2048
2049
2049
2049
2050
2050
2050
2051
2052
2052
2054
2054
2055
2054
2053
2053
2054
2055
2057
2057
2056
2054
2052
2051
2051
2050
2050
2049
2048
2048
2048
2048
2048
2048
2047
2046
2044
2043
2044
2047
2049
2051
2050
2047
2043
2041
2041
2044
2047
2048
2048
2048
2046
2045
2045
2045
2045
2046
2046
2046
2047
2047
2047
2047
2046
2046
2046
2046
2046
2047
2047
2047
2047
2046
2046
2046
2045
2045
2045
2046
2047
2048
2048
2047
2045
2044
2043
2043
2045
2046
2047
2047
2047
2045
2045
2045
2045
2046
2046
2046
2046
2045
2045
2045
2046
2046
2046
2044
2042
2041
2042
2046
2049
2050
2049
2046
2044
2042
2044
2046
2048
2047
2046
2046
2046
2046
2046
2046
2046
2045
2045
2045
2045
2044
2043
2044
2045
2045
2044
2042
2041
2041
2044
2047
2048
2048
2047
2046
2048
2054
2063
2069
2070
2063
2052
2042
2035
2033
2035
2039
2042
2043
2043
2043
2043
2042
2043
2044
2044
2043
2042
2041
2041
2044
2046
2047
2047
2045
2043
2043
2043
2045
2045
2046
2046
2046
2046
2046
2046
2047
2047
2047
2047
2047
2047
2048
2048
2048
2050
2050
2050
2049
2048
2048
2050
2054
2058
2059
2057
2054
2052
2051
2053
2052
2052
2051
2050
2049
2048
2048
2048
2047
2047
2046
2046
2045
2045
2044
2044
2045
2045
2044
2043
2042
2042
2043
2045
2046
2047
2046
2044
2044
2043
2044
2044
2044
2044
2044
2044
2044
2045
2045
2045
2045
2045
2045
2044
2045
2045
2045
2045
2045
2045
2044
2042
2042
2042
2044
2046
2048
2048
2046
2044
2042
2042
2042
2043
2043
2043
2043
2043
2043
2043
2043
2042
2043
2043
2043
2044
2044
2044
2044
2044
2044
2043
2042
2042
2042
2044
2046
2047
2047
2046
2044
2042
2042
2042
2042
2044
2044
2044
2044
2044
2045
2045
2045
2045
2045
2045
2045
2045
2045
2044
2045
2044
2043
2042
2041
2042
2043
2046
2047
2046
2044
2042
2041
2041
2042
2042
2043
2044
2046
2048
2054
2062
2068
2070
2066
2057
2047
2039
2034
2035
2039
2042
2043
2042
2040
2038
2038
2041
2046
2049
2050
2049
2046
2044
2041
2042
2043
2043
2044
2044
2044
2044
2044
2044
2045
2045
2046
2047
2047
2046
2047
2046
2048
2048
2048
2047
2044
2044
2046
2049
2053
2056
2055
2053
2052
2050
2053
2053
2054
2054
2052
2053
2052
2052
2052
2052
2052
2051
2050
2049
2048
2048
2047
2047
2048
2048
2045
2043
2041
2041
2043
2047
2049
2049
2048
2044
2041
2040
2041
2043
2044
2045
2045
2044
2044
2043
2043
2043
2044
2044
2044
2044
2044
2044
2044
2047
2047
2045
2041
2038
2038
2042
2048
2052
2053
2049
2045
2042
2040
2042
2042
2043
2043
2043
2043
2043
2043
2043
2043
2042
2042
2042
2042
2042
2042
2042
2044
2044
2044
2042
2040
2038
2040
2043
2048
2048
2048
2044
2041
2037
2039
2042
2044
2045
2044
2044
2042
2042
2043
2043
2044
2043
2043
2042
2042
2043
2043
2046
2046
2046
2043
2040
2039
2041
2046
2050
2053
2052
2048
2044
2040
2041
2042
2043
2044
2044
2044
2044
2044
2044
2044
2044
2043
2043
2043
2043
2044
2045
2048
2055
2063
2068
2068
2063
2055
2047
2042
2040
2040
2041
2041
2041
2041
2042
2043
2042
2042
2043
2043
2044
2044
2043
2043
2043
2044
2045
2045
2045
2045
2044
2044
2045
2044
2044
2043
2043
2046
2048
2050
2050
2048
2046
2044
2044
2046
2048
2048
2049
2049
2049
2050
2049
2050
2051
2052
2053
2053
2053
2053
2052
2052
2053
2053
2053
2051
2048
2048
2048
2050
2053
2054
2052
2048
2045
2042
2044
2044
2046
2045
2044
2044
2044
2044
2044
2044
2044
2045
2044
2045
2044
2044
2043
2045
2045
2045
2044
2042
2039
2041
2044
2048
2049
2048
2047
2045
2043
2045
2045
2045
2045
2044
2043
2044
2044
2044
2044
2045
2045
2045
2044
2044
2043
2042
2044
2044
2044
2043
2040
2038
2040
2044
2048
2047
2044
2040
2039
2040
2047
2049
2048
2046
2042
2039
2041
2043
2045
2044
2044
2044
2043
2043
2044
2044
2044
2044
2045
2046
2045
2042
2039
2037
2040
2045
2049
2051
2050
2047
2043
2042
2044
2045
2045
2045
2044
2044
2044
2045
2047
2047
2046
2044
2041
2040
2040
2041
2041
2043
2043
2042
2041
2040
2040
2041
2045
2048
2051
2054
2060
2065
2067
2066
2057
2047
2038
2033
2033
2036
2040
2042
2043
2042
2042
2042
2042
2042
2043
2042
2045
2044
2045
2043
2041
2040
2042
2045
2048
2049
2048
2046
2044
2042
2044
2044
2045
2046
2046
2047
2047
2047
2047
2047
2047
2047
2048
2048
2049
2050
2050
2051
2051
2051
2052
2052
2052
2053
2055
2056
2056
2055
2054
2053
2051
2051
2051
2050
2049
2049
2048
2048
2048
2047
2046
2045
2045
2045
2045
2045
2046
2045
2045
2044
2044
2044
2044
2043
2043
2044
2045
2046
2047
2046
2045
2043
2043
2043
2045
2046
2046
2046
2046
2045
2044
2045
2045
2045
2045
2046
2046
2045
2045
2044
2044
2044
2044
2043
2042
2042
2044
2047
2048
2048
2047
2044
2043
2041
2044
2044
2045
2044
2044
2044
2043
2043
2043
2043
2043
2044
2044
2043
2043
2043
2043
2045
2044
2045
2043
2042
2041
2043
2045
2047
2048
2046
2043
2042
2042
2045
2046
2047
2046
2045
2044
2044
2044
2045
2044
2044
2044
2044
2043
2043
2042
2042
2043
2044
2044
2044
2042
2042
2042
2043
2045
2046
2046
2046
2048
2053
2062
2069
2070
2065
2055
2044
2036
2033
2034
2038
2041
2042
2042
2042
2042
2042
2042
2042
2043
2045
2044
2042
2039
2039
2041
2046
2048
2049
2047
2044
2042
2041
2043
2044
2044
2044
2044
2045
2045
2045
2045
2045
2045
2045
2046
2047
2047
2048
2048
2049
2050
2050
2050
2049
2049
2051
2054
2056
2057
2056
2054
2053
2051
2053
2052
2051
2050
2049
2048
2048
2048
2047
2046
2046
2045
2044
2044
2044
2044
2043
2046
2044
2044
2041
2039
2039
2042
2046
2048
2049
2048
2045
2042
2041
2043
2043
2044
2044
2044
2044
2044
2044
2044
2044
2044
2044
2044
2044
2044
2045
2044
2045
2045
2044
2043
2042
2042
2043
2046
2048
2048
2046
2044
2043
2043
2043
2043
2043
2043
2043
2043
2043
2043
2043
2043
2043
2043
2043
2043
2043
2044
2043
2044
2043
2043
2043
2041
2041
2042
2044
2046
2047
2046
2045
2043
2040
2041
2042
2043
2044
2044
2044
2044
2044
2044
2044
2044
2045
2046
2046
2046
2046
2044
2045
2046
2046
2045
2043
2041
2041
2043
2047
2048
2048
2045
2043
2041
2041
2043
2044
2044
2043
2043
2042
2043
2045
2048
2056
2063
2069
2070
2065
2054
2044
2036
2036
2037
2041
2042
2041
2040
2041
2044
2046
2047
2046
2044
2043
2042
2044
2045
2045
2046
2045
2045
2044
2045
2045
2044
2045
2045
2045
2045
2045
2046
2045
2046
2047
2047
2048
2046
2046
2046
2048
2050
2052
2053
2051
2050
2049
2050
2051
2052
2054
2055
2055
2054
2054
2053
2054
2054
2054
2053
2052
2051
2050
2049
2048
2048
2048
2047
2044
2042
2041
2044
2047
2050
2050
2048
2045
2043
2042
2043
2044
2044
2044
2044
2044
2044
2044
2044
2044
2044
2044
2044
2044
2044
2044
2044
2046
2046
2045
2044
2042
2042
2044
2047
2048
2048
2047
2045
2044
2042
2044
2044
2044
2044
2044
2045
2045
2045
2045
2044
2044
2043
2044
2044
2044
2044
2043
2045
2045
2045
2043
2041
2041
2042
2046
2048
2050
2049
2047
2044
2042
2043
2044
2044
2045
2045
2045
2045
2045
2045
2044
2044
2044
2044
2044
2045
2045
2045
2045
2045
2045
2045
2044
2045
2046
2048
2048
2048
2048
2047
2046
2045
2045
2045
2045
2045
2045
2045
2044
2045
2045
2045
2043
2041
2041
2042
2045
2048
2049
2048
2046
2044
2044
2048
2056
2066
2070
2071
2065
2055
2045
2037
2034
2036
2040
2044
2045
2046
2045
2045
2044
2044
2044
2045
2045
2045
2045
2045
2045
2045
2044
2046
2046
2046
2045
2044
2044
2045
2048
2049
2049
2048
2047
2046
2044
2047
2047
2048
2048
2048
2048
2049
2049
2049
2050
2051
2052
2053
2053
2053
2054
2054
2056
2055
2055
2053
2052
2051
2053
2056
2058
2057
2054
2051
2048
2047
2048
2048
2048
2048
2047
2047
2046
2046
2046
2046
2047
2046
2046
2045
2045
2045
2046
2047
2048
2048
2047
2044
2044
2044
2047
2049
2050
2049
2048
2046
2045
2045
2046
2046
2047
2047
2047
2047
2047
2047
2047
2047
2046
2046
2046
2046
2046
2045
2046
2047
2048
2046
2044
2042
2042
2045
2049
2052
2052
2049
2046
2042
2043
2045
2046
2047
2046
2046
2047
2047
2047
2047
2047
2047
2046
2046
2046
2046
2045
2046
2048
2048
2047
2044
2042
2043
2046
2051
2054
2055
2052
2049
2047
2045
2048
2048
2047
2047
2046
2047
2047
2047
2047
2047
2046
2046
2046
2047
2047
2047
2047
2047
2048
2047
2048
2049
2054
2063
2072
2077
2075
2065
2052
2041
2035
2035
2039
2043
2046
2047
2047
2047
2046
2046
2046
2046
2046
2047
2047
2047
2047
2048
2048
2048
2047
2046
2046
2046
2047
2048
2050
2051
2050
2048
2048
2047
2047
2048
2048
2049
2050
2050
2050
2050
2050
2051
2051
2052
2052
2053
2054
2055
2055
2055
2055
2056
2055
2055
2055
2055
2056
2056
2057
2057
2055
2052
2049
2048
2048
2048
2048
2048
2048
2048
2047
2046
2045
2045
2045
2045
2046
2046
2045
2045
2044
2046
2045
2046
2044
2042
2041
2042
2046
2048
2049
2048
2047
2044
2041
2044
2045
2046
2045
2045
2044
2044
2045
2045
2046
2045
2046
2045
2045
2045
2044
2043
2043
2045
2046
2045
2043
2041
2041
2044
2048
2050
2049
2047
2044
2042
2042
2043
2044
2043
2043
2044
2045
2045
2045
2044
2044
2044
2044
2044
2044
2044
2044
2045
2046
2047
2047
2045
2043
2043
2045
2048
2049
2049
2048
2045
2042
2041
2042
2043
2043
2043
2042
2043
2043
2044
2044
2044
2043
2043
2043
2044
2047
2052
2060
2067
2071
2067
2058
2047
2038
2033
2035
2039
2043
2044
2043
2042
2042
2041
2042
2042
2042
2042
2042
2042
2043
2043
2043
2043
2043
2043
2043
2043
2044
2043
2044
2045
2044
2044
2044
2044
2046
2047
2048
2048
2048
2046
2046
2046
2047
2048
2048
2048
2049
2050
2051
2051
2052
2052
2052
2052
2052
2052
2053
2053
2053
2053
2051
2050
2048
2047
2046
2047
2048
2049
2049
2048
2045
2043
2042
2042
2042
2043
2043
2043
2043
2043
2043
2042
2042
2042
2042
2042
2042
2042
2042
2043
2044
2043
2042
2040
2039
2040
2042
2045
2047
2047
2045
2042
2041
2041
2042
2043
2042
2043
2043
2043
2043
2042
2042
2042
2042
2042
2042
2042
2042
2042
2042
2043
2042
2042
2041
2040
2040
2041
2043
2044
2045
2044
2042
2041
2039
2040
2040
2041
2042
2043
2043
2043
2042
2042
2041
2041
2042
2042
2043
2043
2043
2042
2043
2044
2045
2044
2042
2041
2040
2043
2046
2048
2048
2046
2043
2041
2040
2042
2043
2043
2042
2042
2042
2042
2042
2041
2042
2042
2044
2047
2051
2059
2066
2069
2067
2060
2049
2038
2030
2029
2033
2040
2047
2049
2047
2044
2040
2039
2040
2042
2043
2042
2042
2043
2043
2044
2044
2043
2043
2043
2043
2043
2043
2043
2043
2044
2044
2045
2044
2042
2042
2042
2045
2048
2048
2049
2048
2047
2046
2047
2048
2048
2050
2051
2051
2052
2052
2052
2052
2052
2052
2052
2051
2051
2051
2050
2049
2049
2049
2048
2045
2043
2043
2045
2047
2047
2046
2044
2043
2044
2046
2045
2044
2042
2039
2040
2041
2042
2042
2041
2041
2041
2041
2042
2041
2041
2042
2042
2043
2043
2043
2042
2041
2041
2041
2043
2045
2045
2045
2043
2042
2041
2042
2042
2042
2042
2043
2043
2043
2043
2043
2042
2042
2042
2042
2042
2042
2042
2042
2042
2042
2042
2041
2040
2040
2041
2042
2044
2044
2043
2042
2041
2041
2042
2042
2043
2043
2043
2043
2043
2043
2043
2042
2041
2041
2041
2041
2041
2041
2041
2041
2041
2040
2040
2039
2039
2040
2042
2043
2044
2044
2045
2049
2056
2062
2066
2063
2055
2045
2036
2032
2033
2036
2038
2040
2040
2040
2040
2041
2041
2041
2041
2041
2040
2039
2039
2040
2041
2043
2044
2044
2043
2041
2041
2040
2041
2042
2042
2043
2044
2044
2044
2044
2043
2043
2044
2045
2045
2046
2046
2046
2047
2047
2048
2048
2049
2048
2048
2048
2050
2052
2054
2055
2053
2051
2050
2048
2050
2049
2048
2048
2046
2045
2044
2044
2044
2043
2043
2043
2043
2042
2042
2042
2041
2042
2041
2042
2040
2039
2040
2041
2044
2046
2046
2044
2042
2041
2041
2043
2042
2042
2041
2040
2040
2041
2043
2044
2044
2044
2043
2042
2042
2042
2042
2042
2043
2044
2043
2042
2040
2039
2040
2043
2046
2046
2045
2042
2041
2040
2040
2042
2042
2043
2043
2043
2042
2042
2041
2042
2043
2043
2043
2042
2042
2041
2041
2042
2044
2044
2044
2042
2041
2042
2044
2048
2049
2048
2046
2043
2040
2040
2042
2041
2042
2042
2042
2042
2042
2043
2043
2042
2042
2042
2042
2043
2046
2050
2058
2066
2069
2065
2054
2044
2035
2033
2036
2041
2045
2044
2042
2040
2038
2040
2040
2040
2040
2040
2041
2041
2041
2042
2042
2042
2042
2041
2041
2042
2043
2042
2044
2044
2044
2042
2040
2040
2042
2047
2050
2051
2050
2048
2045
2044
2045
2047
2048
2048
2048
2049
2049
2051
2052
2052
2053
2052
2052
2052
2053
2053
2053
2053
2052
2051
2050
2048
2048
2047
2048
2048
2048
2048
2045
2044
2043
2042
2043
2043
2044
2044
2044
2044
2044
2043
2043
2043
2043
2043
2043
2044
2044
2044
2044
2044
2044
2043
2043
2043
2043
2045
2046
2047
2047
2045
2044
2042
2042
2042
2044
2045
2046
2046
2046
2045
2044
2043
2044
2044
2044
2045
2045
2044
2044
2043
2044
2043
2044
2043
2042
2043
2045
2048
2048
2048
2048
2046
2044
2043
2045
2044
2044
2044
2043
2043
2043
2043
2042
2043
2043
2043
2043
2043
2043
2042
2041
2042
2042
2045
2048
2052
2059
2066
2069
2066
2057
2046
2036
2032
2033
2038
2041
2043
2042
2041
2041
2042
2043
2044
2044
2043
2042
2042
2042
2042
2043
2043
2043
2044
2044
2043
2042
2042
2042
2044
2046
2047
2047
2045
2044
2043
2044
2045
2046
2047
2047
2047
2048
2048
2048
2049
2050
2050
2051
2051
2051
2052
2052
2052
2054
2053
2052
2050
2048
2048
2050
2053
2055
2053
2050
2047
2044
2043
2044
2044
2044
2043
2043
2043
2043
2043
2043
2043
2043
2042
2042
2042
2043
2043
2043
2045
2044
2043
2041
2040
2040
2041
2044
2046
2047
2046
2044
2043
2040
2042
2043
2043
2043
2043
2043
2044
2044
2044
2044
2043
2043
2043
2043
2043
2043
2042
2045
2044
2043
2041
2040
2042
2045
2048
2050
2050
2048
2045
2043
2041
2042
2041
2042
2042
2042
2043
2042
2042
2042
2042
2043
2043
2043
2043
2042
2042
2043
2045
2048
2053
2059
2063
2065
2061
2054
2047
2038
2034
2033
2035
2038
2040
2042
2042
2042
2042
2041
2041
2041
2041
2041
2041
2042
2042
2043
2043
2044
2043
2043
2043
2043
2043
2042
2042
2043
2045
2047
2048
2048
2046
2045
2043
2044
2045
2047
2048
2048
2049
2050
2050
2051
2049
2048
2048
2050
2053
2057
2058
2057
2054
2052
2050
2050
2049
2049
2049
2050
2052
2052
2051
2048
2046
2044
2043
2046
2046
2046
2045
2044
2044
2044
2045
2045
2045
2045
2045
2045
2045
2045
2045
2044
2045
2045
2045
2044
2043
2043
2044
2047
2048
2048
2048
2046
2045
2044
2045
2046
2046
2045
2044
2043
2043
2045
2046
2047
2047
2046
2045
2045
2044
2045
2045
2046
2046
2047
2047
2045
2045
2045
2048
2049
2049
2048
2047
2044
2043
2043
2044
2044
2045
2045
2044
2044
2044
2044
2045
2045
2045
2045
2045
2046
2048
2053
2060
2069
2072
2068
2057
2044
2034
2032
2036
2042
2047
2047
2045
2043
2041
2043
2043
2043
2043
2043
2044
2044
2045
2045
2044
2044
2044
2045
2045
2045
2046
2045
2046
2046
2046
2045
2044
2044
2046
2048
2050
2051
2050
2048
2048
2046
2048
2048
2049
2050
2051
2052
2053
2053
2054
2054
2054
2054
2053
2053
2053
2054
2053
2054
2053
2052
2050
2048
2048
2048
2049
2051
2050
2049
2048
2045
2043
2043
2042
2042
2044
2045
2047
2047
2047
2046
2045
2045
2045
2045
2045
2045
2045
2045
2044
2045
2045
2045
2044
2043
2044
2046
2048
2048
2048
2046
2043
2043
2042
2043
2044
2045
2044
2044
2045
2044
2045
2044
2044
2043
2044
2044
2044
2044
2044
2044
2045
2046
2046
2045
2044
2043
2045
2047
2048
2048
2047
2044
2041
2039
2040
2042
2043
2044
2045
2044
2043
2042
2042
2043
2046
2049
2056
2063
2067
2067
2060
2050
2041
2034
2031
2032
2036
2040
2044
2046
2048
2047
2044
2042
2039
2041
2041
2042
2041
2041
2041
2042
2043
2043
2044
2043
2042
2042
2042
2042
2043
2043
2044
2044
2045
2043
2042
2042
2044
2048
2051
2053
2051
2048
2047
2046
2048
2050
2051
2051
2049
2049
2050
2051
2053
2053
2053
2052
2050
2050
2048
2049
2048
2048
2047
2047
2045
2042
2041
2041
2044
2047
2048
2047
2044
2042
2040
2039
2040
2041
2042
2042
2043
2043
2042
2042
2042
2042
2042
2042
2042
2042
2042
2041
2042
2044
2044
2043
2040
2037
2037
2041
2046
2049
2049
2046
2042
2039
2038
2040
2041
2041
2041
2041
2041
2041
2041
2041
2041
2042
2042
2042
2043
2043
2042
2042
2044
2043
2042
2039
2037
2037
2039
2044
2047
2048
2046
2041
2039
2037
2039
2040
2040
2040
2040
2039
2041
2045
2049
2055
2061
2064
2063
2055
2047
2037
2031
2031
2034
2038
2038
2036
2035
2036
2040
2045
2048
2046
2043
2039
2037
2037
2039
2040
2041
2041
2041
2041
2041
2040
2040
2041
2041
2041
2042
2042
2042
2043
2043
2043
2044
2043
2042
2041
2042
2046
2048
2051
2051
2049
2047
2046
2045
2047
2048
2049
2049
2050
2049
2049
2048
2048
2047
2047
2047
2048
2048
2047
2045
2043
2042
2042
2041
2041
2040
2041
2043
2046
2048
2047
2045
2041
2039
2037
2039
2041
2043
2044
2044
2043
2042
2042
2042
2042
2043
2043
2043
2043
2042
2042
2041
2042
2042
2043
2041
2040
2040
2041
2044
2046
2048
2046
2043
2041
2039
2041
2042
2043
2043
2042
2042
2041
2041
2041
2042
2043
2043
2043
2043
2044
2044
2044
2047
2046
2045
2043
2043
2043
2045
2048
2048
2047
2043
2040
2039
2039
2042
2043
2044
2043
2042
2041
2040
2041
2042
2045
2049
2054
2060
2064
2065
2060
2051
2043
2036
2033
2034
2037
2039
2041
2043
2044
2045
2044
2042
2041
2040
2040
2041
2041
2042
2043
2043
2042
2042
2042
2042
2042
2043
2043
2042
2042
2042
2042
2042
2044
2044
2044
2043
2042
2042
2045
2048
2050
2051
2049
2048
2047
2047
2048
2049
2050
2050
2050
2050
2051
2051
2051
2051
2050
2050
2049
2048
2048
2048
2046
2047
2046
2045
2044
2043
2043
2043
2043
2044
2045
2046
2047
2047
2045
2044
2042
2040
2041
2041
2043
2043
2043
2043
2043
2043
2043
2043
2042
2043
2043
2043
2045
2044
2043
2041
2039
2040
2042
2046
2048
2048
2046
2043
2041
2039
2041
2041
2042
2042
2042
2042
2042
2042
2042
2042
2041
2041
2041
2041
2042
2042
2042
2043
2042
2041
2041
2040
2041
2043
2046
2048
2048
2047
2045
2043
2042
2042
2042
2042
2042
2042
2042
2042
2042
2042
2041
2041
2041
2042
2043
2043
2043
2042
2042
2041
2042
2044
2048
2055
2062
2067
2066
2059
2049
2039
2033
2032
2036
2039
2043
2044
2044
2044
2043
2043
2042
2042
2042
2042
2043
2044
2044
2044
2043
2043
2044
2044
2043
2042
2041
2042
2044
2047
2048
2048
2046
2044
2043
2042
2045
2046
2047
2047
2047
2047
2048
2048
2048
2049
2049
2050
2050
2050
2051
2051
2050
2051
2051
2051
2049
2048
2048
2049
2051
2053
2052
2049
2047
2045
2045
2047
2047
2047
2045
2045
2044
2044
2044
2044
2045
2045
2046
2047
2046
2045
2044
2043
2043
2045
2045
2044
2043
2043
2043
2045
2048
2048
2048
2045
2044
2042
2042
2043
2043
2044
2044
2044
2044
2044
2043
2043
2043
2043
2044
2044
2044
2044
2044
2043
2045
2045
2044
2043
2041
2041
2044
2047
2048
2049
2048
2046
2044
2043
2044
2044
2045
2045
2045
2046
2046
2045
2044
2044
2043
2043
2043
2044
2044
2044
2043
2045
2045
2044
2043
2042
2042
2044
2047
2052
2059
2064
2068
2067
2060
2052
2042
2034
2031
2033
2039
2043
2046
2046
2045
2045
2044
2044
2045
2045
2046
2045
2047
2046
2046
2044
2043
2043
2045
2048
2051
2052
2051
2048
2046
2044
2045
2046
2047
2048
2048
2048
2048
2049
2049
2049
2049
2050
2050
2051
2052
2052
2053
2054
2054
2054
2054
2053
2053
2053
2054
2055
2056
2055
2053
2051
2050
2049
2049
2048
2048
2048
2048
2048
2048
2048
2047
2047
2046
2046
2046
2046
2047
2046
2046
2045
2046
2046
2045
2046
2046
2047
2048
2048
2049
2048
2046
2045
2044
2045
2047
2048
2048
2048
2048
2048
2047
2047
2047
2048
2048
2048
2048
2048
2048
2047
2048
2048
2048
2047
2046
2046
2047
2048
2049
2049
2048
2048
2048
2048
2049
2049
2049
2048
2048
2047
2047
2047
2046
2047
2047
2047
2047
2047
2047
2046
2046
2047
2047
2046
2045
2043
2044
2048
2057
2067
2074
2074
2067
2056
2044
2038
2034
2036
2040
2042
2045
2046
2046
2045
2045
2045
2045
2047
2047
2047
2046
2045
2046
2045
2046
2045
2044
2044
2046
2048
2050
2050
2049
2048
2046
2045
2046
2048
2048
2048
2049
2049
2049
2049
2049
2050
2051
2052
2053
2053
2053
2053
2052
2053
2055
2055
2054
2052
2050
2051
2054
2057
2059
2058
2055
2051
2048
2048
2049
2048
2048
2048
2048
2048
2048
2048
2048
2048
2047
2047
2047
2046
2046
2046
2046
2048
2048
2047
2046
2045
2046
2048
2050
2052
2052
2049
2048
2046
2045
2047
2047
2047
2047
2047
2047
2047
2048
2048
2048
2047
2047
2046
2046
2046
2046
2046
2048
2048
2048
2047
2045
2044
2045
2048
2050
2051
2051
2050
2048
2048
2048
2048
2048
2048
2048
2047
2046
2045
2045
2045
2046
2046
2046
2047
2047
2047
2047
2047
2047
2047
2046
2045
2045
2047
2050
2056
2063
2069
2070
2065
2057
2047
2040
2036
2038
2041
2044
2046
2046
2045
2045
2044
2044
2045
2045
2046
2046
2046
2046
2045
2046
2045
2045
2045
2046
2047
2048
2049
2049
2048
2047
2045
2045
2045
2047
2048
2049
2050
2049
2049
2048
2049
2050
2051
2052
2052
2053
2052
2052
2052
2054
2054
2054
2054
2054
2054
2055
2056
2056
2055
2053
2052
2050
2049
2050
2050
2050
2048
2048
2048
2048
2047
2045
2045
2046
2048
2051
2052
2051
2048
2045
2044
2045
2046
2047
2046
2046
2047
2049
2050
2050
2048
2047
2047
2047
2048
2048
2048
2048
2047
2048
2048
2048
2048
2048
2048
2048
2048
2048
2048
2047
2046
2047
2047
2047
2047
2046
2046
2047
2048
2049
2049
2048
2048
2046
2045
2045
2045
2046
2048
2048
2049
2049
2049
2048
2048
2048
2048
2048
2048
2047
2047
2046
2046
2047
2047
2047
2046
2044
2044
2047
2048
2051
2050
2049
2047
2048
2050
2058
2065
2070
2068
2061
2051
2043
2037
2036
2039
2043
2045
2046
2046
2046
2047
2046
2048
2047
2047
2046
2045
2046
2048
2049
2050
2051
2049
2048
2047
2046
2048
2048
2048
2048
2048
2049
2049
2049
2049
2049
2049
2049
2049
2050
2051
2051
2051
2054
2053
2053
2051
2051
2052
2055
2059
2062
2062
2059
2056
2053
2052
2053
2052
2053
2053
2052
2052
2051
2050
2050
2049
2049
2049
2048
2048
2048
2048
2048
2048
2048
2048
2047
2046
2047
2048
2049
2050
2050
2049
2048
2048
2047
2047
2048
2048
2048
2048
2048
2047
2047
2047
2047
2047
2048
2048
2048
2048
2048
2046
2047
2047
2047
2046
2045
2045
2045
2047
2048
2050
2049
2048
2047
2044
2044
2044
2046
2047
2048
2048
2048
2048
2048
2048
2048
2048
2048
2048
2048
2046
2046
2045
2046
2046
2045
2044
2043
2044
2046
2048
2049
2048
2047
2045
2044
2045
2049
2055
2062
2068
2069
2065
2055
2045
2037
2033
2035
2039
2044
2045
2045
2044
2044
2044
2045
2045
2044
2043
2043
2044
2047
2048
2049
2048
2047
2045
2045
2046
2047
2047
2046
2045
2045
2046
2046
2046
2046
2047
2047
2048
2048
2048
2048
2048
2048
2049
2049
2050
2049
2049
2050
2052
2054
2055
2055
2053
2052
2051
2050
2051
2051
2051
2050
2049
2048
2048
2047
2047
2047
2047
2046
2045
2045
2044
2044
2044
2045
2046
2045
2044
2042
2042
2043
2047
2049
2050
2048
2046
2044
2042
2044
2044
2045
2045
2045
2045
2045
2045
2045
2045
2045
2044
2045
2045
2045
2045
2044
2045
2045
2045
2043
2042
2043
2044
2046
2047
2047
2045
2043
2043
2041
2043
2043
2043
2043
2043
2044
2045
2045
2045
2045
2045
2044
2043
2042
2043
2043
2042
2044
2042
2042
2040
2039
2039
2041
2044
2046
2046
2045
2042
2041
2040
2045
2049
2057
2063
2064
2060
2050
2041
2035
2033
2035
2038
2040
2042
2041
2041
2040
2041
2040
2041
2041
2040
2040
2041
2042
2044
2045
2044
2043
2041
2041
2041
2041
2042
2043
2043
2044
2044
2044
2044
2044
2044
2044
2045
2045
2046
2047
2047
2047
2047
2048
2048
2048
2048
2049
2050
2051
2053
2053
2052
2050
2048
2048
2048
2048
2049
2049
2048
2048
2047
2046
2045
2045
2045
2044
2044
2044
2043
2043
2042
2043
2043
2043
2042
2042
2042
2044
2046
2046
2046
2044
2043
2042
2041
2043
2044
2044
2044
2043
2043
2043
2043
2043
2043
2044
2044
2044
2044
2044
2044
2044
2044
2044
2044
2043
2043
2043
2044
2046
2048
2048
2047
2045
2044
2043
2044
2043
2044
2044
2043
2044
2044
2043
2045
2045
2046
2046
2046
2046
2047
2047
2046
2046
2044
2043
2042
2040
2042
2044
2046
2048
2048
2047
2045
2043
2042
2042
2043
2043
2044
2048
2052
2059
2065
2066
2062
2053
2043
2036
2033
2034
2038
2041
2043
2044
2043
2042
2041
2040
2041
2044
2047
2048
2048
2047
2045
2043
2042
2043
2043
2044
2044
2044
2044
2044
2044
2045
2045
2045
2046
2046
2046
2046
2046
2047
2048
2048
2048
2048
2048
2048
2051
2054
2056
2056
2054
2052
2051
2050
2052
2052
2052
2052
2051
2051
2050
2050
2050
2049
2049
2048
2048
2047
2047
2047
2047
2048
2047
2046
2043
2042
2043
2045
2046
2047
2047
2047
2048
2049
2049
2048
2047
2044
2042
2043
2045
2046
2046
2046
2046
2045
2045
2045
2046
2046
2046
2047
2047
2046
2046
2045
2043
2042
2042
2044
2048
2049
2050
2048
2045
2043
2043
2042
2045
2045
2045
2044
2044
2044
2044
2045
2045
2046
2046
2047
2047
2047
2046
2045
2045
2045
2044
2043
2042
2043
2044
2046
2048
2048
2047
2045
2043
2041
2041
2043
2044
2046
2048
2054
2060
2065
2067
2063
2054
2044
2036
2033
2034
2038
2040
2043
2043
2042
2042
2041
2042
2043
2044
2046
2046
2045
2044
2043
2042
2043
2044
2044
2044
2044
2044
2044
2044
2044
2045
2045
2046
2046
2046
2046
2046
2046
2047
2048
2049
2049
2048
2048
2048
2050
2052
2054
2054
2054
2052
2052
2052
2053
2054
2053
2053
2052
2051
2050
2050
2049
2050
2048
2048
2047
2046
2046
2047
2047
2048
2046
2045
2043
2043
2043
2046
2047
2048
2047
2046
2045
2045
2045
2046
2045
2045
2045
2045
2044
2045
2045
2046
2046
2046
2046
2045
2045
2045
2045
2044
2046
2046
2046
2044
2041
2040
2042
2045
2048
2049
2048
2045
2043
2041
2043
2043
2043
2043
2043
2043
2043
2044
2044
2044
2045
2046
2046
2046
2045
2045
2043
2044
2045
2044
2042
2040
2039
2041
2045
2048
2049
2048
2044
2042
2041
2041
2043
2043
2044
2046
2049
2055
2062
2066
2066
2060
2051
2042
2036
2035
2037
2040
2044
2044
2044
2042
2041
2041
2042
2045
2047
2048
2047
2045
2043
2042
2043
2043
2044
2044
2044
2044
2045
2045
2045
2045
2045
2045
2045
2045
2045
2046
2047
2048
2048
2048
2048
2047
2047
2048
2048
2050
2052
2053
2052
2051
2051
2050
2051
2050
2052
2052
2052
2051
2050
2050
2049
2048
2048
2048
2047
2047
2046
2045
2046
2045
2045
2044
2042
2042
2042
2045
2047
2048
2048
2047
2044
2042
2042
2043
2044
2045
2045
2045
2045
2045
2044
2044
2044
2045
2045
2046
2046
2045
2045
2043
2045
2045
2044
2044
2042
2041
2042
2045
2048
2048
2048
2046
2043
2042
2042
2044
2044
2045
2044
2043
2043
2043
2043
2044
2044
2044
2044
2043
2043
2043
2043
2044
2045
2046
2045
2044
2044
2044
2045
2047
2047
2046
2044
2042
2041
2042
2042
2043
2043
2043
2043
2043
2043
2043
2042
2043
2044
2044
2045
2048
2053
2061
2066
2068
2060
2050
2039
2032
2032
2037
2043
2047
2046
2044
2043
2042
2043
2044
2044
2044
2043
2043
2043
2044
2044
2044
2044
2043
2043
2043
2044
2044
2045
2046
2046
2046
2045
2044
2044
2045
2047
2048
2050
2050
2050
2048
2048
2048
2048
2050
2051
2051
2050
2051
2051
2052
2053
2053
2053
2053
2052
2051
2051
2051
2049
2050
2050
2048
2046
2044
2044
2046
2048
2050
2050
2048
2046
2043
2041
2043
2044
2045
2045
2045
2045
2045
2045
2045
2045
2045
2044
2043
2044
2044
2045
2044
2046
2045
2045
2044
2043
2042
2043
2045
2047
2048
2047
2045
2043
2042
2043
2043
2043
2043
2044
2044
2044
2044
2044
2044
2044
2043
2043
2044
2044
2044
2045
2045
2046
2044
2043
2042
2041
2043
2046
2048
2049
2049
2047
2045
2045
2044
2047
2046
2047
2046
2046
2045
2045
2044
2044
2044
2044
2044
2045
2045
2045
2045
2045
2044
2045
2043
2043
2043
2044
2048
2055
2065
2071
2071
2064
2052
2042
2034
2033
2036
2041
2044
2045
2045
2044
2044
2044
2045
2045
2045
2045
2045
2045
2044
2046
2045
2045
2044
2044
2044
2046
2048
2048
2048
2048
2047
2046
2045
2047
2047
2048
2048
2048
2048
2048
2048
2048
2048
2049
2050
2051
2051
2052
2052
2052
2052
2052
2053
2052
2052
2051
2050
2051
2052
2054
2054
2053
2051
2048
2048
2047
2047
2047
2047
2047
2046
2044
2043
2043
2046
2048
2050
2049
2047
2045
2042
2043
2045
2046
2047
2046
2045
2044
2045
2047
2048
2048
2047
2045
2044
2044
2045
2044
2046
2045
2045
2045
2046
2047
2047
2047
2047
2045
2044
2043
2042
2042
2043
2046
2047
2047
2045
2042
2042
2045
2048
2051
2051
2048
2046
2043
2041
2043
2043
2045
2045
2046
2046
2046
2045
2045
2044
2043
2043
2043
2043
2044
2044
2043
2044
2043
2043
2040
2039
2040
2042
2046
2048
2048
2048
2048
2050
2056
2062
2064
2060
2050
2040
2033
2030
2033
2037
2041
2043
2042
2041
2041
2041
2041
2040
2042
2042
2041
2040
2038
2037
2039
2043
2048
2049
2048
2046
2043
2040
2040
2042
2042
2043
2043
2044
2044
2044
2043
2043
2043
2044
2045
2046
2047
2047
2047
2048
2048
2048
2048
2047
2046
2047
2049
2054
2055
2054
2051
2048
2047
2046
2046
2046
2045
2044
2044
2045
2045
2044
2043
2043
2042
2042
2042
2042
2042
2042
2042
2043
2042
2041
2038
2036
2037
2041
2045
2048
2049
2047
2043
2040
2037
2040
2042
2043
2043
2043
2043
2043
2043
2043
2043
2043
2043
2043
2044
2044
2043
2042
2043
2044
2044
2043
2041
2040
2042
2045
2047
2048
2047
2044
2042
2041
2043
2043
2042
2041
2040
2040
2042
2043
2044
2045
2045
2045
2046
2045
2045
2046
2046
2047
2046
2046
2044
2043
2042
2043
2045
2046
2048
2046
2044
2042
2041
2041
2042
2044
2043
2043
2043
2042
2042
2043
2044
2048
2053
2060
2065
2065
2059
2048
2040
2034
2033
2036
2039
2040
2041
2042
2045
2047
2046
2045
2042
2041
2041
2042
2043
2044
2044
2044
2043
2043
2043
2044
2044
2045
2045
2045
2045
2045
2045
2045
2046
2047
2047
2046
2044
2044
2046
2049
2053
2054
2054
2052
2049
2048
2049
2050
2051
2051
2052
2052
2051
2051
2051
2051
2051
2051
2050
2049
2049
2048
2047
2048
2048
2047
2045
2043
2042
2043
2046
2049
2050
2049
2046
2043
2040
2040
2041
2042
2043
2044
2045
2045
2043
2043
2042
2043
2043
2043
2043
2043
2043
2042
2044
2045
2044
2042
2039
2038
2039
2043
2048
2050
2050
2048
2044
2040
2039
2041
2041
2043
2043
2043
2044
2043
2043
2043
2043
2042
2042
2042
2043
2043
2043
2044
2044
2043
2042
2040
2039
2041
2045
2048
2049
2048
2045
2041
2039
2040
2041
2041
2043
2043
2045
2047
2048
2048
2045
2043
2041
2040
2041
2042
2043
2043
2041
2043
2042
2041
2040
2039
2040
2042
2045
2048
2048
2046
2046
2048
2053
2062
2066
2064
2057
2048
2039
2034
2035
2037
2040
2042
2042
2043
2043
2042
2042
2041
2043
2042
2042
2041
2041
2041
2043
2045
2045
2045
2043
2042
2041
2042
2044
2044
2045
2044
2044
2043
2044
2044
2045
2046
2047
2047
2047
2047
2047
2048
2048
2049
2050
2050
2049
2049
2049
2050
2054
2056
2058
2057
2054
2051
2049
2048
2048
2049
2049
2048
2048
2048
2047
2046
2045
2045
2045
2045
2044
2044
2045
2044
2044
2044
2043
2044
2044
2044
2045
2046
2047
2048
2048
2045
2045
2043
2043
2044
2044
2045
2045
2045
2045
2045
2044
2045
2045
2045
2045
2044
2044
2044
2044
2045
2046
2046
2045
2044
2043
2043
2044
2047
2048
2048
2047
2046
2045
2044
2044
2043
2044
2044
2045
2046
2046
2046
2046
2045
2045
2045
2045
2045
2045
2046
2045
2047
2047
2047
2046
2045
2045
2047
2048
2049
2050
2048
2047
2045
2043
2045
2044
2044
2045
2045
2045
2046
2046
2045
2044
2044
2046
2049
2057
2065
2070
2069
2063
2051
2039
2031
2028
2031
2038
2044
2048
2048
2047
2045
2043
2042
2042
2044
2044
2045
2045
2045
2045
2044
2044
2044
2044
2045
2045
2045
2045
2046
2045
2045
2045
2045
2044
2043
2044
2045
2047
2048
2048
2048
2050
2052
2053
2052
2050
2049
2048
2049
2051
2052
2052
2052
2051
2051
2051
2050
2050
2050
2050
2050
2049
2048
2047
2046
2045
2045
2045
2047
2048
2048
2047
2044
2042
2041
2039
2041
2043
2044
2045
2045
2045
2043
2042
2042
2043
2044
2044
2045
2045
2044
2044
2042
2045
2044
2044
2042
2040
2040
2042
2045
2048
2048
2046
2043
2041
2040
2044
2045
2044
2044
2043
2043
2043
2043
2043
2043
2043
2043
2044
2043
2043
2042
2042
2043
2042
2043
2042
2041
2041
2042
2045
2047
2047
2046
2044
2043
2043
2045
2046
2046
2045
2044
2044
2043
2043
2043
2043
2043
2044
2043
2043
2043
2043
2043
2044
2044
2042
2042
2040
2040
2041
2045
2051
2059
2066
2069
2066
2057
2049
2040
2034
2034
2036
2039
2041
2041
2041
2042
2042
2042
2042
2041
2041
2041
2041
2041
2043
2043
2044
2043
2040
2040
2040
2043
2047
2048
2048
2047
2045
2042
2043
2043
2044
2046
2046
2047
2047
2047
2047
2047
2048
2048
2048
2049
2050
2050
2050
2052
2053
2053
2052
2050
2050
2050
2052
2053
2054
2053
2051
2049
2047
2047
2046
2046
2046
2046
2045
2045
2045
2045
2045
2044
2044
2043
2043
2043
2043
2043
2044
2044
2044
2042
2041
2041
2042
2045
2048
2048
2048
2046
2044
2043
2042
2044
2044
2044
2044
2044
2044
2044
2044
2044
2044
2044
2044
2045
2045
2045
2045
2046
2045
2044
2044
2042
2042
2043
2045
2047
2048
2047
2045
2044
2043
2044
2044
2044
2045
2045
2045
2045
2044
2044
2044
2044
2045
2045
2045
2046
2046
2046
2045
2046
2045
2045
2045
2044
2045
2047
2049
2051
2051
2048
2046
2045
2043
2045
2046
2047
2046
2046
2046
2045
2045
2045
2045
2046
2046
2046
2046
2045
2045
2045
2048
2053
2060
2066
2069
2066
2059
2050
2043
2038
2037
2038
2041
2042
2044
2044
2045
2045
2044
2044
2044
2044
2044
2045
2045
2046
2046
2046
2046
2045
2045
2045
2046
2047
2046
2045
2045
2045
2047
2048
2049
2048
2048
2048
2047
2048
2048
2049
2049
2049
2050
2050
2051
2052
2052
2053
2053
2053
2054
2054
2054
2054
2054
2054
2053
2053
2052
2050
2049
2049
2050
2051
2051
2050
2048
2047
2046
2046
2046
2048
2047
2046
2046
2046
2047
2047
2047
2046
2046
2045
2045
2045
2045
2046
2047
2047
2048
2046
2044
2044
2045
2047
2049
2050
2049
2048
2046
2044
2045
2045
2046
2046
2046
2047
2046
2047
2047
2046
2046
2046
2046
2045
2045
2046
2045
2046
2046
2047
2046
2044
2043
2044
2047
2048
2050
2049
2048
2046
2043
2044
2044
2045
2045
2045
2045
2045
2046
2046
2047
2047
2047
2047
2047
2047
2047
2046
2048
2048
2046
2044
2041
2040
2041
2045
2050
2053
2051
2048
2044
2041
2042
2044
2043
2045
2045
2047
2050
2057
2065
2070
2070
2064
2053
2042
2035
2033
2035
2041
2044
2045
2044
2043
2043
2044
2047
2048
2048
2048
2046
2045
2044
2045
2046
2046
2047
2047
2047
2047
2047
2047
2046
2046
2046
2047
2048
2048
2048
2048
2048
2048
2048
2048
2048
2048
2048
2049
2051
2053
2055
2055
2054
2052
2051
2052
2053
2055
2055
2055
2054
2054
2053
2052
2051
2051
2050
2050
2049
2048
2048
2047
2048
2047
2046
2045
2044
2044
2045
2047
2048
2048
2048
2047
2045
2043
2044
2045
2045
2045
2045
2045
2046
2046
2046
2046
2046
2046
2046
2046
2046
2045
2045
2045
2046
2046
2045
2044
2043
2043
2045
2047
2048
2047
2046
2044
2044
2044
2045
2044
2044
2043
2044
2044
2044
2044
2044
2044
2043
2043
2043
2043
2043
2042
2043
2044
2044
2043
2042
2041
2042
2044
2046
2046
2045
2043
2042
2041
2043
2043
2045
2046
2047
2045
2043
2042
2042
2044
2047
2048
2047
2044
2041
2039
2040
2042
2043
2043
2042
2041
2039
2039
2040
2043
2045
2046
2047
2050
2056
2062
2066
2063
2055
2045
2036
2032
2032
2036
2039
2041
2041
2041
2041
2040
2040
2040
2040
2042
2043
2042
2041
2039
2039
2040
2043
2045
2046
2045
2044
2043
2041
2042
2043
2043
2043
2044
2044
2045
2045
2045
2045
2045
2046
2046
2046
2047
2048
2048
2049
2049
2049
2049
2048
2048
2049
2051
2054
2054
2053
2051
2048
2048
2048
2048
2048
2047
2046
2046
2045
2045
2045
2044
2043
2043
2043
2043
2043
2043
2043
2042
2044
2042
2041
2039
2037
2038
2041
2045
2047
2047
2045
2043
2041
2040
2042
2041
2042
2042
2042
2042
2042
2042
2042
2042
2042
2043
2043
2044
2044
2043
2043
2043
2043
2042
2041
2040
2041
2043
2046
2048
2047
2045
2042
2040
2039
2041
2042
2043
2043
2043
2043
2042
2041
2041
2041
2042
2042
2043
2043
2042
2042
2040
2043
2043
2042
2042
2040
2039
2040
2043
2046
2048
2046
2044
2042
2041
2043
2045
2045
2046
2045
2044
2044
2043
2043
2043
2043
2043
2043
2042
2042
2042
2041
2043
2043
2043
2042
2040
2039
2040
2043
2047
2049
2052
2057
2062
2065
2065
2059
2050
2041
2035
2034
2037
2040
2042
2043
2043
2043
2042
2042
2042
2042
2042
2042
2042
2042
2043
2042
2041
2041
2042
2043
2045
2046
2046
2044
2043
2043
2043
2043
2045
2045
2045
2045
2045
2046
2046
2047
2047
2048
2048
2048
2048
2048
2049
2050
2051
2052
2051
2050
2050
2051
2054
2056
2057
2055
2052
2050
2048
2049
2049
2049
2048
2048
2048
2047
2047
2046
2046
2045
2045
2045
2044
2044
2044
2043
2045
2046
2045
2043
2041
2041
2041
2044
2046
2048
2047
2046
2045
2042
2044
2044
2044
2046
2046
2046
2046
2046
2046
2046
2046
2046
2046
2046
2047
2047
2046
2047
2046
2046
2045
2045
2044
2045
2046
2048
2049
2048
2048
2046
2045
2045
2044
2045
2045
2045
2046
2046
2046
2046
2045
2045
2045
2045
2046
2045
2046
2046
2045
2047
2045
2044
2042
2041
2043
2046
2049
2051
2050
2048
2046
2046
2045
2047
2046
2046
2046
2046
2046
2046
2045
2045
2045
2045
2046
2046
2046
2046
2046
2045
2044
2044
2044
2046
2049
2056
2065
2072
2073
2066
2054
2042
2033
2030
2034
2039
2043
2045
2045
2045
2044
2043
2043
2043
2044
2045
2045
2046
2045
2045
2044
2046
2046
2046
2044
2042
2041
2043
2046
2049
2050
2049
2047
2045
2043
2046
2047
2047
2048
2048
2048
2048
2048
2048
2049
2050
2050
2051
2051
2052
2052
2052
2052
2053
2053
2053
2051
2050
2050
2050
2052
2052
2051
2049
2047
2046
2046
2046
2047
2046
2046
2045
2045
2044
2044
2044
2044
2044
2044
2044
2043
2044
2044
2043
2044
2043
2044
2043
2042
2041
2042
2044
2047
2048
2048
2046
2044
2042
2043
2042
2045
2045
2045
2045
2045
2044
2044
2044
2044
2044
2044
2043
2043
2043
2043
2044
2044
2044
2043
2041
2040
2041
2043
2046
2047
2047
2044
2042
2040
2041
2041
2043
2043
2043
2043
2044
2045
2045
2045
2045
2045
2044
2043
2043
2043
2042
2044
2044
2043
2041
2039
2039
2041
2045
2047
2047
2046
2043
2042
2041
2044
2047
2051
2059
2066
2068
2064
2054
2044
2035
2032
2033
2037
2040
2042
2043
2042
2044
2043
2042
2041
2040
2040
2042
2044
2047
2047
2045
2043
2041
2040
2042
2043
2043
2044
2044
2045
2045
2045
2045
2045
2045
2045
2045
2046
2047
2048
2048
2048
2049
2048
2048
2048
2047
2048
2050
2054
2056
2056
2054
2052
2051
2049
2051
2051
2051
2051
2051
2050
2049
2048
2048
2047
2046
2046
2045
2045
2044
2044
2045
2044
2044
2043
2042
2042
2044
2045
2046
2046
2045
2043
2041
2040
2042
2042
2043
2044
2044
2045
2044
2044
2043
2043
2043
2044
2044
2044
2044
2043
2043
2041
2044
2043
2043
2042
2041
2041
2043
2045
2046
2047
2045
2044
2042
2041
2043
2043
2043
2043
2043
2043
2042
2042
2042
2042
2043
2043
2044
2044
2044
2043
2042
2043
2044
2044
2041
2040
2039
2039
2043
2046
2048
2048
2046
2045
2044
2044
2046
2046
2045
2044
2044
2043
2043
2043
2043
2044
2044
2044
2043
2043
2043
2043
2044
2044
2043
2041
2042
2041
2043
2048
2057
2065
2071
2071
2063
2051
2041
2035
2033
2036
2041
2043
2043
2043
2042
2042
2043
2043
2043
2043
2042
2042
2042
2043
2044
2044
2044
2042
2040
2040
2042
2044
2047
2048
2047
2046
2044
2042
2043
2044
2045
2045
2046
2046
2046
2046
2047
2048
2048
2048
2048
2048
2049
2050
2050
2052
2052
2052
2050
2050
2050
2050
2053
2053
2053
2051
2049
2048
2046
2046
2046
2046
2045
2045
2045
2045
2045
2045
2044
2044
2043
2043
2044
2044
2044
2043
2044
2045
2044
2043
2041
2040
2041
2044
2048
2048
2048
2046
2044
2042
2042
2043
2043
2044
2044
2045
2045
2044
2044
2043
2043
2044
2044
2044
2045
2045
2044
2044
2044
2044
2043
2042
2042
2043
2046
2048
2048
2046
2044
2042
2041
2042
2043
2042
2043
2043
2043
2043
2043
2043
2043
2043
2043
2044
2044
2044
2044
2043
2043
2045
2045
2045
2043
2043
2043
2046
2049
2050
2049
2047
2044
2042
2041
2043
2044
2045
2045
2045
2044
2044
2044
2044
2044
2044
2043
2044
2044
2046
2050
2055
2064
2069
2068
2062
2051
2042
2036
2036
2039
2044
2046
2045
2044
2042
2043
2042
2043
2044
2044
2044
2043
2044
2043
2044
2044
2044
2045
2045
2045
2045
2044
2045
2045
2045
2044
2043
2044
2045
2048
2048
2049
2048
2048
2047
2047
2048
2048
2049
2049
2049
2050
2050
2051
2051
2052
2052
2052
2053
2052
2052
2051
2051
2050
2051
2050
2049
2048
2048
2046
2047
2048
2048
2047
2046
2046
2045
2045
2045
2044
2044
2044
2045
2045
2044
2044
2044
2044
2044
2044
2044
2044
2044
2044
2045
2046
2046
2046
2044
2043
2043
2045
2047
2048
2048
2047
2046
2045
2044
2045
2045
2046
2045
2045
2045
2045
2046
2046
2046
2045
2045
2045
2045
2045
2045
2044
2046
2046
2046
2045
2043
2042
2042
2045
2048
2048
2048
2046
2045
2043
2044
2045
2045
2047
2047
2048
2048
2047
2047
2046
2046
2045
2045
2045
2045
2045
2045
2046
2045
2046
2045
2043
2042
2042
2043
2047
2049
2050
2050
2051
2055
2063
2068
2070
2064
2053
2043
2035
2033
2035
2039
2042
2044
2044
2044
2044
2044
2044
2044
2047
2045
2044
2041
2039
2040
2043
2048
2050
2050
2048
2045
2043
2042
2046
2046
2046
2047
2047
2047
2047
2047
2047
2047
2047
2048
2048
2049
2050
2050
2050
2050
2052
2051
2052
2051
2052
2053
2054
2056
2055
2054
2052
2051
2050
2050
2051
2052
2051
2050
2049
2048
2047
2046
2046
2046
2046
2046
2046
2045
2045
2043
2044
2045
2045
2044
2043
2043
2043
2046
2048
2048
2046
2043
2041
2040
2044
2047
2048
2048
2048
2047
2045
2046
2046
2046
2046
2047
2047
2047
2046
2045
2044
2045
2046
2047
2046
2044
2043
2043
2045
2048
2049
2048
2047
2045
2044
2044
2044
2045
2044
2044
2044
2043
2044
2045
2046
2047
2048
2047
2047
2046
2045
2045
2045
2045
2046
2044
2042
2042
2042
2047
2048
2049
2048
2047
2045
2043
2043
2043
2044
2045
2049
2056
2063
2070
2069
2063
2053
2043
2036
2034
2036
2040
2042
2045
2045
2045
2045
2042
2040
2040
2042
2046
2049
2050
2049
2047
2045
2043
2045
2046
2047
2044
2042
2042
2044
2048
2052
2054
2052
2048
2046
2044
2046
2048
2048
2050
2050
2050
2048
2047
2047
2048
2054
2059
2062
2060
2056
2052
2050
2051
2053
2053
2054
2053
2053
2053
2052
2051
2050
2049
2049
2048
2048
2048
2048
2047
2047
2048
2047
2044
2042
2040
2042
2047
2051
2054
2052
2048
2044
2042
2042
2045
2045
2046
2046
2046
2046
2045
2045
2045
2045
2045
2045
2045
2045
2046
2046
2046
2047
2046
2045
2043
2042
2042
2045
2048
2049
2048
2046
2044
2042
2043
2044
2045
2045
2044
2044
2044
2045
2045
2045
2044
2044
2044
2045
2046
2046
2045
2044
2043
2043
2042
2041
2041
2042
2044
2047
2049
2050
2048
2046
2043
2042
2043
2044
2046
2046
2046
2045
2044
2043
2043
2043
2044
2044
2045
2045
2045
2044
2042
2044
2046
2048
2048
2052
2057
2063
2068
2068
2061
2050
2040
2033
2032
2036
2041
2044
2044
2043
2042
2042
2042
2042
2043
2044
2044
2045
2045
2044
2044
2043
2044
2044
2045
2044
2043
2042
2042
2045
2047
2048
2048
2047
2045
2044
2045
2045
2047
2048
2047
2047
2046
2048
2048
2050
2050
2051
2051
2051
2052
2052
2052
2051
2051
2051
2050
2049
2048
2049
2049
2052
2053
2051
2048
2044
2043
2044
2046
2048
2047
2045
2043
2043
2041
2043
2043
2044
2044
2044
2044
2043
2043
2043
2043
2044
2044
2044
2042
2040
2039
2040
2044
2048
2048
2048
2046
2043
2041
2042
2042
2043
2043
2043
2043
2043
2043
2044
2043
2043
2043
2043
2043
2043
2043
2042
2044
2044
2045
2045
2044
2042
2042
2042
2043
2044
2044
2043
2042
2040
2042
2042
2042
2042
2042
2042
2042
2043
2043
2043
2043
2043
2043
2043
2044
2045
2045
2047
2047
2047
2045
2042
2040
2040
2043
2047
2048
2048
2045
2043
2041
2041
2042
2042
2043
2042
2043
2042
2042
2041
2042
2043
2047
2053
2061
2069
2071
2068
2058
2047
2037
2031
2030
2034
2039
2043
2046
2046
2045
2042
2040
2039
2040
2041
2041
2042
2043
2043
2043
2043
2043
2042
2042
2042
2042
2042
2043
2044
2044
2043
2045
2044
2042
2041
2041
2042
2046
2049
2051
2051
2049
2048
2047
2047
2050
2051
2052
2052
2052
2051
2051
2051
2051
2051
2051
2051
2051
2051
2050
2048
2047
2048
2046
2046
2044
2042
2042
2042
2044
2045
2046
2045
2043
2041
2040
2042
2042
2043
2042
2042
2042
2041
2042
2042
2042
2042
2042
2042
2042
2042
2042
2042
2043
2043
2043
2042
2041
2042
2043
2045
2046
2046
2045
2044
2043
2042
2042
2042
2043
2042
2042
2043
2043
2043
2043
2042
2043
2043
2043
2043
2042
2042
2041
2042
2042
2042
2042
2041
2040
2041
2041
2045
2046
2046
2045
2044
2043
2044
2046
2046
2045
2043
2042
2041
2040
2042
2043
2043
2043
2042
2041
2041
2041
2042
2043
2043
2041
2041
2039
2039
2042
2049
2059
2069
2074
2071
2060
2047
2035
2030
2029
2034
2037
2040
2041
2041
2041
2041
2041
2040
2040
2040
2040
2041
2041
2042
2044
2044
2044
2042
2041
2040
2042
2045
2048
2048
2048
2047
2045
2044
2045
2045
2045
2046
2047
2048
2048
2048
2048
2049
2050
2051
2052
2053
2054
2054
2054
2056
2056
2056
2056
2054
2053
2054
2055
2057
2057
2056
2053
2050
2048
2048
2048
2048
2047
2047
2046
2046
2046
2045
2045
2045
2044
2044
2044
2044
2044
2044
2044
2046
2044
2043
2040
2039
2040
2043
2046
2048
2048
2045
2043
2042
2041
2043
2042
2043
2043
2044
2043
2043
2042
2043
2044
2045
2046
2046
2046
2046
2045
2044
2044
2044
2043
2042
2041
2041
2042
2044
2046
2046
2045
2043
2041
2040
2041
2043
2043
2044
2044
2044
2043
2042
2042
2042
2042
2042
2043
2043
2042
2040
2037
2040
2042
2046
2048
2047
2045
2044
2045
2047
2048
2047
2044
2042
2040
2042
2043
2043
2043
2042
2042
2043
2043
2043
2043
2042
2042
2042
2042
2044
2048
2056
2065
2071
2071
2064
2051
2041
2034
2034
2039
2043
2045
2044
2042
2041
2041
2041
2042
2042
2042
2042
2042
2043
2043
2044
2044
2044
2044
2044
2043
2044
2044
2044
2045
2045
2044
2044
2044
2045
2047
2048
2050
2050
2048
2047
2046
2047
2049
2050
2052
2052
2052
2051
2052
2052
2052
2053
2052
2051
2050
2050
2050
2051
2053
2052
2051
2050
2048
2047
2047
2048
2048
2049
2049
2048
2045
2044
2043
2043
2043
2044
2044
2044
2044
2045
2045
2044
2044
2044
2044
2044
2043
2043
2044
2043
2045
2045
2044
2043
2042
2042
2044
2046
2048
2048
2048
2047
2045
2044
2044
2044
2044
2044
2045
2045
2046
2046
2045
2045
2044
2045
2044
2045
2045
2045
2045
2045
2046
2045
2042
2040
2039
2041
2046
2049
2050
2048
2045
2042
2041
2041
2043
2043
2044
2044
2044
2045
2045
2044
2044
2044
2043
2043
2044
2044
2045
2045
2046
2047
2046
2046
2045
2044
2044
2046
2048
2048
2048
2046
2044
2043
2043
2044
2043
2045
2045
2045
2045
2044
2043
2043
2043
2043
2045
2049
2056
2064
2070
2070
2067
2057
2046
2037
2032
2034
2039
2046
2048
2049
2047
2044
2042
2041
2044
2045
2045
2045
2045
2045
2045
2045
2045
2045
2045
2045
2046
2046
2046
2046
2044
2047
2047
2047
2047
2046
2045
2046
2048
2050
2051
2051
2049
2049
2048
2050
2051
2052
2052
2052
2053
2053
2054
2054
2055
2055
2055
2055
2055
2054
2053
2052
2051
2051
2050
2048
2048
2047
2047
2048
2050
2050
2049
2048
2046
2045
2045
2046
2046
2045
2045
2045
2045
2045
2046
2046
2047
2047
2047
2046
2046
2046
2046
2046
2046
2046
2046
2045
2044
2044
2046
2047
2048
2048
2048
2046
2045
2045
2046
2045
2046
2047
2047
2046
2045
2044
2045
2045
2046
2046
2045
2045
2045
2044
2044
2045
2045
2045
2044
2043
2043
2043
2045
2047
2047
2047
2045
2044
2044
2044
2045
2044
2044
2044
2044
2044
2045
2045
2045
2045
2045
2045
2046
2046
2047
2046
2047
2047
2046
2045
2044
2044
2045
2047
2048
2048
2047
2046
2045
2043
2044
2044
2044
2045
2045
2046
2045
2045
2045
2046
2050
2058
2066
2072
2072
2065
2053
2044
2036
2034
2035
2038
2040
2042
2044
2047
2048
2047
2045
2044
2043
2044
2045
2045
2044
2044
2045
2045
2046
2046
2045
2045
2045
2045
2046
2046
2047
2047
2048
2047
2046
2046
2045
2045
2047
2049
2051
2052
2052
2051
2050
2049
2050
2052
2052
2054
2054
2054
2054
2054
2054
2054
2055
2054
2054
2053
2053
2052
2051
2049
2050
2048
2046
2043
2042
2043
2046
2049
2051
2050
2048
2045
2043
2042
2045
2045
2045
2044
2044
2045
2045
2045
2045
2045
2045
2045
2045
2045
2045
2045
2043
2045
2045
2045
2044
2043
2043
2045
2048
2048
2048
2047
2045
2043
2042
2045
2045
2045
2045
2044
2044
2044
2044
2043
2044
2044
2044
2044
2044
2044
2043
2043
2044
2044
2044
2042
2040
2040
2041
2045
2048
2048
2047
2044
2042
2041
2041
2043
2044
2044
2044
2045
2045
2045
2046
2046
2046
2045
2045
2045
2044
2043
2043
2042
2043
2043
2044
2043
2042
2042
2043
2044
2045
2045
2044
2043
2043
2044
2048
2055
2065
2071
2073
2067
2055
2043
2034
2032
2034
2039
2041
2042
2042
2042
2043
2043
2044
2043
2042
2041
2041
2042
2044
2046
2047
2046
2044
2043
2043
2044
2044
2045
2044
2044
2044
2045
2045
2045
2046
2046
2046
2046
2046
2046
2047
2047
2049
2049
2050
2050
2049
2049
2050
2053
2055
2056
2056
2055
2054
2050
2050
2049
2050
2053
2055
2055
2053
2049
2047
2045
2045
2045
2046
2045
2045
2045
2045
2045
2045
2044
2043
2042
2041
2043
2045
2047
2048
2047
2046
2044
2043
2043
2044
2044
2044
2043
2043
2044
2044
2044
2044
2044
2044
2044
2044
2044
2044
2044
2045
2045
2044
2043
2041
2041
2041
2043
2045
2046
2046
2045
2044
2042
2042
2042
2041
2043
2043
2043
2043
2043
2043
2042
2042
2042
2043
2043
2043
2043
2043
2042
2044
2043
2042
2040
2039
2039
2041
2045
2048
2048
2046
2043
2041
2039
2043
2043
2045
2045
2046
2045
2045
2045
2044
2044
2043
2043
2043
2043
2043
2043
2041
2043
2043
2043
2042
2041
2041
2042
2043
2044
2045
2045
2045
2048
2053
2063
2069
2070
2064
2053
2043
2035
2034
2035
2039
2042
2043
2043
2042
2042
2041
2041
2042
2042
2043
2042
2040
2040
2041
2044
2047
2048
2047
2045
2043
2042
2043
2044
2045
2045
2044
2044
2044
2044
2045
2045
2046
2046
2046
2047
2047
2048
2048
2048
2049
2050
2050
2049
2049
2050
2052
2054
2054
2054
2052
2051
2048
2050
2050
2050
2048
2048
2047
2046
2046
2046
2046
2045
2044
2043
2042
2043
2042
2041
2043
2042
2042
2042
2041
2040
2041
2043
2044
2045
2045
2044
2042
2041
2042
2042
2042
2043
2042
2042
2042
2043
2043
2043
2043
2042
2042
2042
2042
2042
2042
2042
2044
2043
2043
2042
2040
2041
2042
2044
2046
2045
2044
2042
2041
2040
2041
2041
2041
2041
2041
2042
2042
2041
2041
2041
2041
2041
2041
2041
2041
2041
2041
2042
2042
2041
2039
2038
2038
2040
2043
2046
2046
2044
2042
2040
2040
2041
2041
2041
2041
2041
2042
2042
2042
2042
2042
2042
2042
2043
2043
2043
2043
2043
2044
2044
2043
2043
2041
2040
2040
2041
2043
2044
2044
2043
2042
2041
2041
2042
2041
2041
2041
2041
2042
2044
2048
2054
2062
2068
2068
2062
2052
2042
2035
2033
2037
2040
2041
2040
2039
2038
2040
2043
2045
2046
2044
2042
2040
2039
2042
2042
2043
2043
2042
2043
2043
2044
2044
2044
2044
2043
2043
2043
2044
2044
2043
2046
2046
2046
2046
2045
2045
2046
2048
2050
2051
2050
2049
2048
2048
2050
2051
2052
2052
2052
2051
2051
2051
2050
2050
2050
2050
2049
2048
2048
2046
2045
2046
2046
2045
2043
2041
2041
2042
2045
2047
2048
2046
2044
2042
2041
2041
2042
2042
2042
2042
2042
2042
2042
2042
2043
2043
2043
2042
2042
2042
2042
2043
2043
2044
2043
2043
2041
2040
2040
2042
2045
2046
2046
2044
2042
2041
2040
2041
2041
2042
2042
2041
2041
2041
2041
2041
2042
2041
2041
2041
2041
2040
2041
2040
2041
2041
2041
2040
2039
2038
2039
2041
2043
2045
2044
2042
2041
2039
2040
2040
2041
2041
2041
2042
2042
2042
2042
2042
2041
2040
2041
2041
2041
2041
2041
2043
2042
2042
2041
2040
2040
2042
2044
2046
2046
2046
2044
2043
2042
2042
2043
2042
2042
2043
2043
2043
2042
2042
2041
2041
2041
2042
2042
2042
2042
2041
2042
2042
2042
2041
2042
2046
2054
2064
2071
2071
2061
2048
2037
2031
2031
2034
2038
2040
2041
2042
2042
2042
2042
2041
2041
2041
2041
2042
2042
2042
2042
2044
2044
2043
2042
2040
2040
2040
2043
2046
2047
2046
2045
2044
2042
2043
2044
2044
2045
2045
2046
2046
2047
2047
2047
2047
2048
2048
2050
2051
2051
2051
2050
2052
2052
2050
2049
2048
2049
2051
2054
2056
2054
2050
2047
2045
2043
2046
2046
2045
2045
2044
2044
2044
2043
2043
2043
2043
2043
2043
2043
2043
2043
2042
2044
2043
2043
2041
2040
2040
2041
2044
2045
2046
2045
2043
2043
2042
2044
2043
2044
2044
2044
2043
2043
2043
2042
2043
2042
2044
2044
2044
2042
2040
2039
2041
2044
2047
2046
2044
2040
2040
2041
2044
2046
2046
2043
2041
2040
2041
2042
2042
2042
2041
2041
2041
2041
2042
2042
2043
2043
2042
2042
2042
2042
2041
2042
2043
2043
2043
2042
2041
2042
2044
2047
2048
2048
2046
2044
2042
2042
2043
2043
2045
2044
2043
2042
2041
2041
2043
2045
2045
2045
2043
2042
2041
2041
2041
2042
2042
2043
2044
2047
2053
2063
2071
2073
2066
2053
2040
2032
2029
2033
2037
2041
2041
2041
2041
2041
2042
2042
2042
2042
2042
2042
2042
2042
2043
2042
2044
2043
2043
2042
2041
2041
2042
2044
2046
2047
2047
2045
2044
2042
2044
2045
2045
2046
2047
2047
2048
2048
2048
2048
2048
2048
2049
2050
2051
2052
2052
2053
2054
2053
2051
2049
2048
2049
2051
2053
2054
2051
2048
2046
2044
2044
2044
2044
2043
2043
2043
2043
2043
2042
2042
2042
2041
2041
2041
2042
2042
2042
2042
2043
2042
2041
2040
2040
2040
2042
2045
2046
2046
2044
2043
2041
2041
2042
2041
2042
2043
2043
2042
2042
2042
2042
2042
2042
2042
2042
2042
2042
2042
2041
2043
2042
2041
2039
2038
2038
2040
2044
2046
2046
2044
2041
2039
2038
2041
2042
2043
2043
2043
2042
2042
2041
2041
2041
2042
2042
2043
2043
2042
2042
2040
2043
2042
2043
2042
2041
2041
2042
2045
2047
2048
2047
2045
2044
2042
2044
2044
2044
2043
2043
2042
2042
2042
2041
2041
2041
2041
2042
2042
2042
2042
2041
2041
2041
2042
2042
2043
2048
2056
2066
2073
2072
2063
2049
2038
2032
2032
2036
2040
2042
2041
2041
2041
2041
2042
2042
2043
2042
2042
2042
2042
2043
2042
2043
2043
2043
2042
2041
2042
2043
2045
2046
2046
2046
2044
2043
2043
2044
2046
2046
2047
2047
2047
2047
2047
2047
2048
2049
2050
2050
2050
2050
2050
2050
2052
2052
2053
2052
2051
2050
2050
2051
2053
2053
2052
2050
2048
2046
2046
2046
2045
2045
2044
2043
2043
2043
2043
2043
2043
2043
2043
2043
2043
2043
2043
2043
2044
2044
2043
2042
2040
2041
2043
2045
2047
2047
2045
2043
2042
2041
2042
2043
2043
2043
2044
2044
2044
2043
2043
2043
2043
2044
2044
2044
2044
2044
2043
2044
2044
2043
2042
2040
2039
2041
2044
2047
2047
2046
2044
2043
2042
2042
2042
2042
2042
2042
2043
2043
2043
2043
2042
2042
2040
2040
2040
2041
2043
2045
2046
2047
2046
2044
2042
2041
2041
2042
2046
2048
2048
2046
2043
2042
2042
2043
2045
2046
2046
2046
2045
2044
2043
2043
2042
2043
2043
2043
2043
2043
2043
2042
2044
2044
2043
2040
2038
2038
2040
2045
2048
2049
2048
2046
2047
2052
2063
2069
2070
2063
2052
2043
2036
2034
2036
2039
2042
2042
2042
2042
2042
2042
2041
2043
2043
2044
2042
2040
2039
2040
2043
2047
2048
2048
2044
2042
2041
2042
2043
2044
2043
2043
2043
2045
2045
2045
2045
2046
2046
2047
2047
2048
2048
2047
2048
2049
2050
2049
2048
2048
2049
2053
2058
2060
2059
2055
2052
2050
2050
2051
2050
2050
2048
2048
2047
2046
2046
2046
2046
2045
2045
2044
2044
2043
2043
2043
2044
2044
2044
2041
2040
2040
2042
2046
2048
2048
2047
2044
2041
2040
2041
2043
2044
2045
2045
2044
2043
2042
2043
2044
2046
2047
2046
2045
2043
2043
2043
2045
2046
2045
2043
2041
2040
2042
2046
2048
2049
2048
2045
2042
2040
2042
2042
2044
2043
2043
2043
2043
2043
2043
2043
2043
2043
2043
2042
2042
2042
2041
2043
2043
2044
2042
2040
2039
2040
2043
2047
2048
2048
2045
2042
2039
2040
2041
2042
2042
2043
2043
2043
2043
2042
2042
2042
2042
2043
2044
2044
2045
2044
2046
2046
2046
2045
2042
2040
2040
2043
2047
2049
2049
2046
2040
2036
2036
2039
2044
2048
2049
2048
2044
2041
2038
2039
2040
2042
2044
2048
2055
2063
2068
2069
2064
2053
2042
2032
2029
2031
2039
2046
2049
2049
2046
2041
2038
2038
2040
2041
2043
2042
2043
2043
2043
2043
2043
2042
2042
2042
2044
2044
2045
2045
2045
2045
2044
2043
2041
2040
2042
2045
2049
2053
2053
2050
2047
2044
2044
2048
2048
2050
2051
2051
2051
2051
2051
2052
2052
2052
2052
2052
2052
2052
2051
2049
2050
2048
2048
2046
2043
2042
2043
2047
2049
2049
2048
2046
2044
2042
2042
2042
2043
2043
2043
2044
2043
2043
2042
2042
2043
2043
2044
2044
2044
2043
2043
2043
2044
2044
2043
2041
2040
2042
2046
2049
2051
2049
2047
2043
2041
2041
2042
2044
2046
2046
2046
2044
2042
2041
2041
2042
2043
2043
2043
2043
2043
2043
2043
2044
2043
2043
2042
2042
2042
2043
2045
2045
2045
2044
2043
2042
2042
2043
2043
2043
2044
2043
2044
2044
2043
2042
2042
2042
2043
2043
2044
2043
2043
2043
2044
2045
2046
2045
2044
2044
2044
2045
2047
2047
2047
2045
2044
2044
2044
2044
2044
2042
2042
2042
2043
2044
2044
2044
2044
2043
2042
2042
2042
2044
2046
2053
2061
2068
2071
2067
2058
2048
2039
2036
2035
2038
2040
2042
2041
2042
2042
2042
2043
2043
2043
2043
2043
2043
2043
2043
2044
2044
2044
2044
2045
2045
2046
2045
2045
2044
2043
2042
2043
2045
2048
2048
2048
2047
2046
2046
2047
2048
2048
2048
2048
2049
2050
2050
2050
2051
2051
2052
2053
2053
2053
2053
2053
2053
2053
2053
2052
2049
2047
2045
2046
2048
2050
2050
2048
2046
2043
2042
2042
2042
2043
2043
2043
2043
2043
2043
2043
2043
2043
2043
2043
2043
2043
2043
2042
2043
2044
2042
2041
2039
2039
2041
2045
2048
2048
2046
2043
2040
2039
2041
2044
2044
2044
2043
2043
2043
2043
2043
2042
2042
2042
2043
2043
2042
2042
2040
2042
2042
2042
2041
2040
2040
2041
2043
2044
2045
2044
2042
2041
2040
2041
2042
2042
2042
2042
2041
2041
2041
2041
2041
2041
2042
2042
2042
2042
2042
2041
2041
2041
2042
2043
2043
2042
2042
2043
2044
2046
2045
2044
2043
2042
2042
2042
2043
2042
2041
2041
2040
2040
2041
2041
2042
2042
2042
2042
2040
2040
2040
2041
2044
2048
2054
2062
2067
2068
2064
2054
2044
2036
2032
2033
2036
2039
2041
2041
2041
2041
2041
2041
2041
2041
2042
2042
2042
2041
2041
2041
2042
2042
2043
2043
2043
2042
2041
2041
2042
2043
2045
2046
2046
2045
2044
2043
2043
2044
2045
2045
2045
2045
2046
2047
2048
2048
2048
2049
2049
2050
2050
2050
2050
2050
2051
2051
2050
2048
2047
2047
2048
2050
2051
2050
2048
2046
2044
2042
2042
2042
2041
2041
2041
2041
2041
2041
2041
2041
2041
2041
2041
2041
2041
2041
2042
2042
2043
2042
2040
2038
2037
2038
2042
2046
2048
2046
2044
2040
2039
2040
2041
2042
2042
2042
2043
2042
2042
2042
2042
2041
2041
2041
2042
2042
2042
2042
2042
2042
2043
2042
2040
2038
2038
2040
2044
2046
2047
2045
2042
2040
2039
2040
2041
2041
2041
2041
2041
2041
2040
2040
2040
2040
2041
2041
2041
2041
2042
2042
2042
2042
2042
2041
2041
2041
2042
2043
2045
2044
2044
2043
2042
2042
2043
2044
2045
2045
2045
2044
2044
2044
2043
2043
2043
2043
2043
2043
2043
2042
2040
2042
2042
2043
2042
2040
2038
2038
2041
2045
2048
2050
2053
2058
2063
2066
2065
2057
2047
2038
2032
2033
2036
2040
2042
2042
2042
2041
2041
2041
2041
2041
2041
2042
2042
2042
2041
2041
2041
2042
2044
2045
2045
2044
2042
2042
2042
2043
2044
2043
2043
2043
2043
2044
2045
2045
2047
2047
2047
2045
2044
2044
2047
2050
2054
2056
2055
2052
2050
2048
2050
2052
2053
2053
2052
2050
2049
2048
2049
2048
2048
2048
2047
2046
2045
2044
2044
2044
2043
2042
2042
2042
2042
2043
2044
2045
2044
2043
2042
2041
2040
2042
2043
2044
2044
2044
2043
2042
2042
2043
2043
2043
2042
2042
2042
2042
2043
2043
2043
2043
2043
2043
2043
2043
2043
2042
2044
2044
2043
2042
2041
2041
2042
2044
2045
2045
2043
2042
2042
2041
2042
2042
2042
2042
2042
2042
2043
2043
2043
2043
2043
2042
2042
2042
2042
2043
2043
2044
2043
2043
2041
2041
2040
2041
2044
2045
2047
2046
2044
2042
2041
2042
2042
2043
2044
2044
2045
2046
2046
2045
2045
2045
2045
2045
2046
2046
2046
2044
2044
2044
2043
2042
2040
2040
2041
2044
2047
2048
2048
2046
2044
2042
2041
2043
2043
2048
2054
2063
2069
2070
2065
2055
2045
2037
2034
2035
2039
2042
2043
2044
2044
2045
2043
2042
2041
2042
2044
2047
2048
2048
2047
2044
2042
2041
2043
2044
2046
2046
2046
2046
2045
2045
2046
2046
2047
2047
2047
2047
2047
2047
2046
2048
2048
2048
2048
2047
2047
2048
2052
2056
2057
2055
2053
2051
2050
2051
2052
2052
2052
2052
2051
2051
2051
2050
2050
2048
2048
2048
2047
2047
2046
2046
2046
2046
2047
2045
2043
2043
2043
2046
2048
2049
2048
2046
2043
2043
2043
2044
2045
2044
2044
2044
2044
2044
2044
2045
2045
2045
2045
2045
2045
2045
2045
2044
2046
2044
2045
2043
2042
2042
2044
2048
2049
2050
2048
2045
2043
2041
2043
2043
2044
2044
2044
2043
2043
2044
2044
2043
2044
2043
2043
2043
2043
2043
2044
2045
2046
2045
2043
2042
2041
2042
2045
2048
2048
2049
2048
2046
2044
2044
2043
2044
2043
2043
2043
2043
2044
2044
2044
2043
2043
2043
2043
2043
2043
2042
2043
2044
2045
2048
2052
2060
2067
2071
2069
2059
2048
2036
2031
2030
2034
2039
2042
2043
2043
2043
2042
2042
2042
2042
2042
2042
2042
2043
2043
2044
2044
2045
2044
2044
2043
2042
2042
2043
2045
2047
2048
2048
2047
2045
2044
2045
2045
2046
2046
2046
2047
2047
2048
2048
2049
2050
2050
2050
2051
2052
2053
2053
2053
2054
2053
2052
2051
2050
2049
2051
2053
2053
2053
2050
2048
2046
2043
2044
2043
2044
2045
2045
2044
2043
2042
2042
2042
2043
2043
2043
2043
2043
2043
2042
2043
2043
2042
2042
2041
2040
2041
2043
2045
2046
2046
2044
2042
2040
2042
2043
2044
2044
2044
2044
2043
2042
2042
2042
2042
2042
2042
2043
2042
2042
2041
2043
2043
2042
2041
2040
2040
2042
2045
2048
2048
2046
2043
2041
2039
2041
2042
2042
2043
2042
2041
2042
2042
2042
2043
2043
2044
2045
2045
2045
2045
2045
2045
2044
2044
2043
2042
2041
2042
2043
2045
2046
2045
2043
2041
2040
2041
2042
2043
2042
2041
2041
2042
2043
2048
2054
2061
2067
2068
2063
2053
2043
2035
2032
2036
2037
2039
2039
2038
2040
2043
2047
2048
2047
2043
2040
2039
2039
2042
2042
2042
2042
2042
2042
2042
2042
2043
2043
2043
2043
2043
2043
2043
2042
2044
2045
2046
2046
2045
2044
2044
2045
2048
2050
2050
2050
2049
2048
2049
2050
2050
2051
2051
2051
2051
2051
2051
2052
2051
2051
2050
2048
2048
2048
2047
2046
2046
2045
2044
2043
2042
2042
2044
2046
2047
2046
2045
2043
2042
2042
2042
2043
2043
2043
2042
2042
2043
2043
2043
2043
2043
2043
2043
2043
2043
2043
2043
2045
2044
2043
2042
2041
2041
2042
2045
2047
2048
2046
2044
2042
2041
2043
2042
2043
2043
2043
2043
2043
2044
2043
2043
2042
2042
2042
2042
2043
2043
2043
2042
2043
2042
2042
2040
2040
2040
2042
2045
2046
2046
2043
2040
2039
2039
2043
2045
2047
2045
2043
2041
2039
2040
2042
2043
2044
2044
2044
2044
2044
2044
2043
2044
2044
2043
2041
2040
2040
2041
2043
2045
2045
2044
2042
2041
2039
2041
2041
2042
2043
2043
2045
2048
2052
2060
2066
2069
2065
2056
2046
2037
2034
2034
2039
2042
2043
2042
2040
2039
2040
2044
2047
2048
2046
2043
2041
2039
2040
2042
2042
2042
2042
2042
2042
2042
2042
2043
2043
2043
2043
2043
2043
2043
2044
2044
2045
2045
2045
2044
2044
2045
2047
2049
2050
2050
2049
2048
2048
2049
2050
2051
2051
2051
2051
2050
2050
2050
2049
2049
2048
2048
2048
2047
2046
2045
2044
2045
2043
2042
2041
2039
2040
2042
2046
2047
2047
2044
2042
2040
2039
2042
2041
2042
2042
2042
2042
2042
2042
2043
2043
2043
2042
2042
2042
2042
2042
2042
2042
2042
2042
2042
2041
2041
2042
2043
2045
2046
2046
2044
2042
2040
2041
2041
2042
2042
2042
2042
2042
2042
2041
2041
2041
2041
2041
2041
2041
2041
2040
2043
2043
2042
2041
2039
2039
2040
2042
2045
2045
2045
2043
2042
2040
2041
2041
2041
2042
2043
2044
2045
2045
2045
2044
2043
2043
2043
2043
2043
2043
2042
2042
2042
2043
2042
2041
2040
2041
2043
2045
2047
2046
2044
2041
2041
2043
2048
2055
2063
2069
2069
2063
2052
2042
2033
2031
2033
2037
2041
2042
2042
2042
2042
2043
2042
2041
2039
2039
2040
2044
2048
2048
2048
2045
2043
2042
2042
2045
2045
2045
2045
2045
2045
2045
2045
2045
2045
2045
2046
2047
2047
2047
2048
2048
2048
2048
2048
2048
2048
2049
2052
2055
2057
2056
2054
2051
2049
2048
2050
2051
2052
2052
2052
2051
2049
2048
2048
2047
2047
2046
2045
2045
2045
2045
2044
2046
2045
2044
2041
2040
2040
2042
2046
2048
2048
2046
2042
2040
2040
2041
2043
2044
2044
2043
2042
2042
2043
2043
2044
2044
2044
2044
2044
2043
2043
2043
2044
2044
2044
2043
2041
2041
2042
2045
2048
2048
2047
2043
2041
2039
2041
2042
2043
2042
2042
2041
2041
2041
2041
2041
2042
2042
2042
2042
2042
2042
2042
2041
2043
2043
2042
2041
2040
2041
2044
2048
2048
2048
2046
2043
2041
2040
2043
2043
2043
2043
2042
2042
2042
2042
2043
2043
2042
2042
2042
2042
2042
2041
2041
2042
2043
2047
2051
2059
2066
2069
2067
2058
2048
2038
2032
2031
2034
2038
2040
2041
2040
2041
2041
2041
2041
2042
2042
2041
2041
2041
2042
2042
2043
2042
2043
2043
2042
2042
2041
2041
2042
2044
2045
2046
2046
2045
2044
2044
2044
2045
2045
2046
2046
2047
2048
2048
2049
2049
2050
2050
2050
2051
2052
2052
2053
2054
2053
2053
2051
2050
2049
2049
2050
2051
2052
2050
2048
2046
2044
2044
2043
2043
2043
2043
2043
2043
2043
2042
2042
2042
2042
2042
2042
2042
2042
2042
2042
2043
2041
2041
2040
2039
2040
2042
2045
2046
2045
2043
2041
2040
2039
2041
2041
2042
2042
2042
2042
2041
2041
2042
2041
2041
2041
2041
2041
2042
2042
2041
2042
2042
2041
2040
2039
2039
2040
2042
2044
2044
2043
2041
2039
2038
2039
2040
2041
2042
2043
2043
2042
2041
2041
2040
2040
2041
2042
2043
2043
2043
2042
2043
2043
2044
2041
2039
2037
2037
2040
2044
2047
2047
2044
2040
2038
2038
2038
2041
2041
2040
2040
2040
2040
2041
2044
2048
2056
2063
2068
2066
2058
2048
2038
2033
2032
2035
2038
2040
2041
2042
2043
2044
2042
2041
2039
2039
2040
2040
2042
2041
2041
2041
2041
2040
2041
2041
2041
2042
2042
2042
2042
2042
2042
2042
2045
2043
2043
2043
2041
2042
2045
2048
2050
2050
2049
2047
2046
2045
2048
2048
2049
2050
2050
2050
2050
2050
2052
2052
2051
2048
2046
2045
2046
2048
2051
2051
2048
2046
2042
2040
2041
2042
2045
2046
2046
2046
2044
2042
2041
2041
2041
2042
2041
2042
2042
2042
2042
2043
2043
2043
2043
2042
2042
2042
2043
2043
2044
2044
2043
2042
2041
2041
2043
2045
2046
2046
2045
2043
2042
2042
2043
2042
2042
2042
2042
2043
2043
2043
2043
2043
2043
2042
2042
2042
2043
2043
2044
2044
2043
2042
2042
2041
2040
2041
2042
2044
2046
2046
2045
2043
2041
2041
2041
2041
2042
2042
2042
2042
2043
2043
2043
2045
2045
2046
2046
2045
2045
2044
2043
2044
2043
2043
2041
2041
2041
2043
2046
2047
2047
2046
2044
2043
2042
2043
2042
2042
2043
2045
2048
2053
2061
2067
2070
2067
2057
2047
2038
2034
2034
2037
2041
2043
2043
2042
2042
2042
2043
2045
2046
2046
2045
2043
2041
2041
2042
2044
2045
2046
2046
2045
2045
2044
2044
2044
2045
2046
2046
2046
2046
2046
2045
2048
2048
2048
2047
2046
2047
2048
2051
2053
2054
2054
2052
2051
2050
2051
2053
2052
2052
2052
2052
2052
2052
2052
2052
2051
2050
2049
2048
2048
2046
2046
2046
2046
2046
2045
2044
2043
2043
2045
2047
2048
2047
2045
2043
2042
2043
2043
2045
2044
2044
2044
2043
2043
2044
2044
2045
2045
2045
2046
2045
2045
2045
2043
2046
2045
2045
2044
2043
2043
2046
2048
2050
2049
2048
2045
2043
2042
2045
2045
2046
2045
2045
2044
2044
2044
2045
2045
2044
2044
2044
2044
2044
2043
2043
2045
2045
2045
2043
2042
2042
2043
2045
2047
2048
2048
2048
2048
2047
2048
2047
2046
2046
2047
2047
2048
2046
2046
2045
2044
2044
2044
2043
2044
2044
2044
2046
2046
2045
2044
2044
2048
2058
2069
2078
2078
2068
2053
2040
2031
2031
2034
2040
2043
2044
2045
2045
2045
2044
2043
2043
2044
2044
2045
2046
2045
2045
2046
2046
2046
2045
2043
2043
2043
2046
2049
2051
2050
2048
2046
2045
2046
2047
2048
2048
2048
2048
2048
2049
2049
2050
2051
2052
2052
2053
2053
2054
2054
2055
2057
2056
2055
2052
2051
2051
2054
2057
2059
2058
2054
2050
2048
2046
2046
2046
2047
2047
2046
2045
2045
2045
2045
2045
2045
2045
2045
2045
2046
2046
2045
2046
2046
2045
2043
2042
2042
2045
2048
2051
2051
2049
2046
2042
2041
2044
2045
2047
2047
2047
2046
2046
2046
2046
2046
2047
2047
2047
2047
2046
2046
2045
2046
2047
2046
2045
2043
2041
2042
2045
2049
2051
2051
2048
2045
2043
2043
2045
2044
2045
2044
2044
2044
2044
2045
2045
2046
2047
2048
2048
2048
2047
2046
2047
2046
2047
2045
2043
2043
2043
2047
2050
2051
2050
2047
2044
2042
2043
2044
2045
2045
2044
2045
2046
2049
2056
2063
2069
2071
2066
2057
2047
2038
2035
2035
2040
2044
2046
2044
2042
2041
2044
2048
2051
2052
2049
2047
2044
2043
2046
2046
2047
2046
2046
2045
2045
2046
2047
2047
2047
2047
2046
2047
2047
2047
2047
2048
2049
2049
2048
2048
2047
2048
2050
2054
2057
2057
2055
2053
2051
2052
2053
2054
2054
2054
2053
2054
2054
2054
2054
2054
2053
2053
2052
2050
2049
2048
2048
2048
2048
2047
2045
2045
2045
2047
2049
2050
2048
2047
2045
2044
2044
2045
2045
2044
2044
2045
2046
2046
2047
2047
2045
2046
2046
2045
2045
2046
2047
2048
2048
2048
2046
2044
2043
2044
2047
2050
2051
2051
2048
2045
2044
2043
2043
2045
2045
2045
2045
2045
2045
2045
2045
2045
2045
2045
2045
2045
2045
2045
2044
2046
2045
2045
2042
2041
2041
2044
2048
2051
2051
2049
2046
2043
2041
2043
2044
2045
2045
2045
2045
2045
2045
2045
2046
2047
2048
2047
2047
2047
2047
2047
2048
2048
2048
2045
2042
2040
2042
2045
2048
2046
2043
2040
2040
2043
2048
2049
2048
2046
2044
2044
2048
2056
2064
2069
2070
2064
2054
2045
2038
2036
2037
2042
2044
2044
2043
2041
2041
2042
2046
2048
2049
2048
2046
2044
2043
2043
2045
2045
2046
2045
2045
2045
2046
2046
2046
2046
2046
2046
2047
2047
2047
2047
2048
2048
2048
2048
2048
2048
2048
2050
2052
2053
2053
2052
2050
2050
2051
2052
2054
2054
2054
2054
2053
2053
2053
2052
2052
2051
2050
2049
2048
2048
2048
2046
2048
2047
2046
2045
2042
2042
2043
2046
2048
2049
2048
2046
2044
2041
2044
2043
2044
2045
2044
2044
2044
2044
2045
2045
2045
2045
2044
2044
2044
2044
2045
2045
2045
2045
2043
2043
2043
2044
2046
2047
2047
2047
2046
2044
2044
2043
2043
2043
2041
2043
2043
2043
2044
2044
2044
2044
2044
2043
2043
2043
2043
2043
2044
2044
2044
2043
2042
2042
2043
2044
2046
2047
2047
2045
2044
2042
2042
2042
2043
2043
2043
2044
2044
2044
2044
2044
2044
2044
2044
2044
2045
2045
2046
2048
2047
2046
2047
2045
2044
2044
2045
2046
2048
2048
2046
2045
2043
2044
2044
2044
2045
2045
2045
2045
2045
2044
2043
2044
2044
2047
2051
2059
2066
2071
2069
2063
2050
2040
2032
2030
2034
2040
2046
2048
2047
2045
2043
2042
2041
2043
2043
2044
2044
2044
2044
2044
2043
2044
2044
2045
2045
2046
2046
2046
2046
2045
2046
2047
2046
2046
2045
2045
2047
2048
2050
2051
2050
2048
2047
2047
2048
2050
2051
2052
2052
2053
2052
2052
2053
2053
2054
2054
2054
2053
2052
2052
2050
2051
2050
2049
2047
2046
2045
2046
2048
2049
2049
2048
2045
2044
2043
2044
2046
2046
2045
2045
2044
2044
2044
2044
2045
2044
2044
2044
2044
2044
2044
2044
2045
2045
2046
2045
2044
2043
2043
2045
2047
2048
2048
2046
2044
2043
2043
2043
2045
2045
2044
2044
2044
2044
2044
2044
2044
2044
2044
2044
2043
2043
2043
2042
2045
2044
2044
2042
2040
2041
2042
2045
2048
2048
2046
2044
2042
2040
2043
2043
2043
2043
2043
2043
2043
2044
2045
2045
2045
2045
2045
2045
2044
2044
2044
2044
2045
2044
2043
2042
2041
2042
2044
2046
2046
2046
2045
2044
2043
2043
2043
2042
2042
2043
2044
2048
2053
2060
2067
2070
2066
2057
2046
2037
2033
2032
2038
2042
2043
2042
2041
2040
2042
2045
2048
2048
2048
2046
2044
2042
2043
2043
2043
2044
2044
2045
2045
2045
2045
2045
2045
2045
2046
2046
2046
2046
2046
2047
2047
2047
2047
2046
2046
2048
2049
2052
2053
2053
2052
2051
2050
2051
2051
2053
2053
2053
2054
2053
2052
2052
2051
2051
2050
2049
2048
2048
2047
2047
2047
2048
2046
2045
2043
2042
2043
2046
2048
2048
2048
2045
2043
2042
2041
2043
2043
2043
2044
2044
2044
2044
2043
2043
2043
2043
2044
2044
2045
2045
2045
2044
2045
2045
2044
2043
2042
2043
2045
2048
2049
2048
2047
2044
2042
2041
2042
2044
2045
2045
2045
2045
2044
2043
2043
2043
2044
2044
2044
2044
2044
2044
2043
2043
2045
2043
2043
2041
2039
2040
2043
2047
2048
2048
2046
2043
2041
2040
2043
2043
2043
2043
2042
2042
2043
2043
2044
2045
2045
2046
2046
2045
2045
2044
2045
2045
2045
2044
2043
2042
2043
2045
2047
2047
2046
2044
2042
2041
2043
2043
2044
2044
2043
2043
2044
2047
2051
2059
2066
2071
2069
2062
2051
2042
2036
2034
2039
2041
2044
2043
2041
2041
2043
2046
2048
2048
2047
2044
2042
2041
2044
2044
2045
2045
2044
2044
2044
2045
2045
2045
2045
2045
2045
2045
2046
2046
2046
2047
2048
2048
2047
2047
2046
2048
2049
2051
2052
2052
2051
2051
2052
2053
2054
2053
2052
2052
2052
2052
2054
2053
2052
2051
2048
2048
2048
2050
2053
2052
2050
2048
2045
2042
2042
2043
2044
2046
2047
2048
2047
2045
2044
2043
2043
2044
2044
2044
2044
2044
2044
2045
2045
2045
2045
2044
2044
2044
2044
2044
2045
2046
2046
2046
2045
2044
2043
2044
2045
2047
2048
2048
2046
2045
2044
2044
2044
2045
2045
2045
2045
2045
2044
2044
2044
2044
2044
2045
2044
2044
2044
2044
2044
2045
2044
2044
2042
2042
2043
2044
2047
2048
2048
2047
2045
2044
2043
2044
2043
2044
2044
2045
2044
2044
2043
2043
2044
2045
2045
2046
2046
2047
2047
2046
2047
2048
2047
2045
2043
2042
2044
2047
2049
2049
2047
2044
2041
2041
2042
2045
2045
2045
2045
2044
2044
2044
2044
2044
2045
2048
2052
2059
2066
2070
2068
2061
2052
2042
2035
2032
2033
2038
2044
2048
2048
2048
2045
2042
2041
2041
2044
2044
2044
2044
2044
2044
2044
2043
2044
2044
2044
2045
2045
2045
2045
2045
2045
2045
2046
2047
2046
2046
2046
2047
2048
2049
2049
2048
2047
2047
2048
2048
2050
2050
2050
2050
2051
2051
2052
2053
2053
2053
2053
2052
2051
2051
2050
2049
2049
2048
2048
2047
2046
2046
2046
2046
2048
2048
2048
2047
2045
2043
2043
2043
2045
2045
2044
2044
2043
2043
2044
2045
2045
2045
2044
2044
2043
2043
2043
2043
2044
2045
2044
2043
2042
2043
2044
2046
2047
2047
2046
2044
2043
2044
2045
2046
2045
2045
2044
2044
2045
2045
2044
2044
2044
2044
2044
2044
2044
2043
2045
2044
2043
2042
2041
2042
2044
2046
2047
2047
2045
2043
2043
2042
2043
2044
2044
2044
2045
2046
2047
2047
2047
2046
2046
2046
2046
2045
2045
2044
2044
2045
2045
2045
2044
2043
2042
2042
2043
2045
2047
2047
2046
2044
2042
2042
2044
2048
2055
2063
2069
2071
2065
2054
2043
2034
2031
2032
2037
2040
2043
2044
2044
2044
2042
2042
2040
2040
2041
2044
2046
2048
2048
2047
2045
2044
2042
2044
2043
2044
2045
2045
2045
2045
2045
2045
2045
2046
2046
2046
2047
2048
2048
2048
2048
2050
2049
2048
2047
2047
2048
2053
2057
2058
2056
2053
2051
2050
2051
2054
2054
2053
2052
2051
2050
2050
2049
2048
2048
2047
2046
2046
2045
2045
2044
2044
2045
2043
2042
2040
2039
2040
2044
2048
2048
2048
2044
2042
2041
2041
2044
2044
2043
2042
2042
2042
2043
2043
2043
2043
2043
2043
2043
2043
2042
2042
2043
2043
2044
2043
2042
2041
2041
2042
2045
2047
2046
2044
2041
2040
2040
2040
2041
2041
2040
2041
2041
2041
2041
2041
2041
2041
2042
2041
2041
2040
2040
2040
2041
2042
2042
2041
2041
2041
2042
2044
2044
2045
2044
2043
2042
2041
2041
2041
2042
2042
2042
2041
2041
2040
2040
2040
2041
2041
2041
2040
2040
2040
2040
2043
2048
2053
2059
2063
2063
2057
2048
2042
2036
2033
2034
2036
2038
2039
2041
2041
2040
2040
2039
2040
2040
2042
2041
2040
2040
2040
2040
2041
2041
2041
2041
2042
2041
2041
2040
2039
2040
2042
2044
2045
2045
2044
2043
2042
2043
2044
2044
2045
2045
2046
2046
2048
2048
2048
2048
2048
2048
2048
2049
2050
2051
2051
2050
2048
2048
2047
2047
2048
2048
2048
2048
2046
2044
2042
2041
2041
2041
2041
2041
2041
2041
2041
2041
2041
2041
2041
2041
2041
2041
2042
2042
2042
2042
2042
2040
2041
2040
2040
2040
2042
2044
2045
2045
2043
2041
2039
2037
2039
2039
2041
2042
2042
2041
2041
2040
2039
2039
2040
2041
2041
2041
2041
2041
2040
2041
2041
2040
2038
2037
2038
2041
2045
2047
2047
2044
2041
2040
2040
2043
2044
2044
2043
2043
2043
2043
2044
2043
2042
2042
2041
2041
2041
2041
2040
2039
2041
2041
2041
2041
2040
2041
2043
2045
2044
2043
2043
2046
2054
2063
2071
2070
2061
2049
2037
2031
2030
2033
2037
2040
2042
2043
2043
2043
2042
2041
2041
2040
2042
2043
2043
2042
2041
2042
2044
2047
2048
2048
2047
2044
2042
2041
2043
2043
2044
2044
2045
2045
2046
2047
2047
2048
2048
2048
2048
2048
2048
2048
2048
2049
2050
2050
2049
2048
2048
2050
2053
2055
2055
2053
2050
2048
2046
2046
2047
2047
2047
2046
2045
2044
2042
2042
2042
2042
2041
2041
2041
2041
2041
2040
2041
2041
2041
2039
2038
2037
2037
2038
2040
2041
2041
2040
2039
2038
2038
2039
2039
2040
2040
2039
2039
2039
2039
2039
2040
2040
2040
2040
2040
2040
2039
2041
2041
2040
2040
2038
2037
2039
2042
2045
2046
2044
2041
2039
2038
2038
2041
2040
2041
2041
2041
2042
2042
2042
2042
2041
2040
2040
2040
2040
2041
2041
2040
2040
2040
2040
2039
2039
2040
2041
2043
2043
2042
2040
2038
2038
2041
2044
2050
2057
2062
2064
2060
2051
2041
2033
2029
2031
2034
2038
2039
2040
2040
2040
2040
2039
2038
2038
2038
2040
2042
2044
2045
2044
2042
2040
2039
2038
2040
2041
2043
2043
2043
2042
2041
2041
2041
2042
2042
2043
2043
2044
2043
2043
2043
2044
2046
2046
2046
2045
2045
2047
2049
2052
2052
2050
2048
2047
2046
2048
2048
2048
2048
2047
2046
2045
2044
2043
2041
2041
2040
2040
2040
2040
2040
2039
2041
2040
2040
2040
2039
2039
2040
2042
2044
2044
2042
2039
2037
2036
2038
2039
2040
2041
2041
2040
2039
2039
2038
2039
2039
2039
2040
2040
2040
2040
2040
2039
2040
2039
2039
2037
2037
2037
2039
2042
2044
2044
2042
2039
2037
2037
2039
2040
2040
2039
2039
2038
2038
2039
2038
2038
2038
2038
2039
2040
2041
2041
2042
2042
2041
2041
2039
2039
2039
2041
2042
2042
2041
2039
2038
2037
2038
2040
2039
2040
2040
2040
2039
2039
2039
2039
2041
2046
2052
2060
2064
2063
2056
2046
2038
2032
2031
2032
2033
2035
2038
2042
2045
2045
2042
2039
2036
2035
2036
2037
2038
2040
2041
2041
2041
2041
2041
2041
2041
2041
2041
2040
2041
2041
2041
2042
2042
2042
2042
2042
2043
2044
2046
2047
2048
2048
2048
2048
2047
2047
2047
2048
2048
2048
2049
2049
2049
2048
2048
2049
2049
2048
2048
2047
2046
2046
2046
2045
2044
2043
2041
2041
2041
2042
2043
2043
2042
2041
2040
2040
2041
2041
2041
2041
2042
2042
2042
2041
2040
2040
2040
2040
2041
2042
2043
2043
2043
2042
2042
2041
2041
2040
2038
2039
