1977
1976
1977
1978
1979
1980
1980
1979
1978
1977
1976
1976
1975
1974
1972
1972
1973
1974
1976
1977
1978
1978
1979
1979
1980
1980
1979
1978
1977
1977
1978
1980
1981
1981
1980
1980
1979
1980
1980
1978
1973
1963
1952
1942
1937
1938
1945
1955
1966
1973
1977
1979
1979
1979
1980
1981
1982
1981
1981
1981
1982
1982
1982
1982
1981
1981
1980
1980
1979
1978
1978
1978
1978
1978
1978
1978
1978
1978
1977
1977
1977
1977
1977
1977
1978
1979
1979
1977
1976
1974
1972
1971
1971
1971
1971
1970
1970
1969
1968
1968
1967
1967
1967
1967
1967
1967
1968
1968
1969
1970
1971
1972
1974
1975
1977
1978
1979
1979
1979
1979
1979
1980
1980
1981
1982
1982
1983
1982
1982
1981
1981
1981
1982
1982
1982
1982
1982
1982
1982
1981
1981
1981
1981
1981
1982
1981
1981
1981
1981
1982
1982
1983
1982
1982
1981
1981
1981
1981
1981
1981
1982
1982
1983
1984
1984
1984
1984
1983
1983
1983
1983
1983
1984
1984
1985
1986
1987
1987
1987
1986
1985
1985
1986
1986
1985
1984
1983
1982
1982
1982
1983
1984
1986
1988
1989
1989
1990
1991
1992
1993
1993
1993
1993
1993
1993
1994
1995
1996
1997
1998
1998
1998
1999
1998
1994
1987
1977
1968
1962
1962
1968
1979
1991
1999
2003
2003
2001
1999
1998
1999
2001
2003
2004
2005
2006
2006
2006
2006
2006
2006
2006
2007
2006
2006
2005
2005
2006
2006
2006
2006
2005
2004
2005
2006
2008
2009
2010
2009
2006
2004
2003
2003
2003
2004
2004
2003
2002
2001
1999
1998
1997
1997
1997
1998
1999
1999
1998
1997
1995
1994
1995
1996
1999
2001
2004
2005
2006
2006
2006
2005
2006
2007
2008
2009
2010
2011
2012
2013
2013
2013
2013
2013
2013
2013
2014
2014
2015
2015
2016
2016
2015
2013
2012
2012
2013
2014
2016
2017
2017
2015
2013
2011
2011
2012
2013
2013
2013
2013
2012
2011
2011
2012
2013
2014
2014
2014
2014
2013
2012
2011
2011
2012
2012
2013
2013
2012
2012
2012
2010
2009
2007
2005
2005
2005
2006
2008
2009
2010
2010
2009
2009
2008
2009
2010
2011
2011
2011
2009
2008
2007
2007
2007
2008
2009
2010
2009
2009
2008
2007
2003
1996
1987
1979
1974
1974
1980
1990
1999
2005
2007
2007
2005
2004
2003
2004
2005
2005
2005
2005
2004
2004
2003
2003
2003
2004
2003
2002
2001
1999
1998
1998
1998
1998
1998
1998
1997
1997
1996
1996
1995
1994
1993
1993
1993
1993
1993
1992
1991
1990
1988
1986
1985
1985
1985
1985
1984
1984
1983
1981
1980
1979
1978
1978
1978
1978
1978
1978
1978
1978
1979
1980
1981
1983
1984
1986
1987
1988
1988
1988
1987
1987
1987
1987
1988
1988
1989
1989
1988
1987
1986
1986
1986
1986
1987
1988
1988
1987
1986
1984
1983
1983
1982
1983
1983
1984
1984
1984
1983
1982
1981
1980
1980
1980
1980
1981
1981
1981
1981
1981
1980
1980
1979
1980
1980
1981
1981
1981
1980
1979
1978
1978
1978
1977
1976
1974
1973
1972
1972
1973
1974
1975
1977
1978
1979
1979
1979
1979
1979
1979
1979
1979
1978
1979
1979
1980
1981
1981
1981
1980
1980
1980
1980
1977
1972
1964
1954
1946
1943
1945
1952
1963
1973
1979
1982
1982
1980
1979
1979
1979
1980
1980
1981
1981
1982
1982
1983
1982
1981
1980
1979
1978
1978
1979
1979
1980
1980
1980
1980
1980
1980
1980
1980
1980
1979
1979
1979
1979
1978
1977
1976
1974
1974
1973
1973
1973
1973
1971
1970
1968
1968
1968
1969
1969
1968
1968
1967
1967
1967
1967
1966
1966
1967
1969
1971
1973
1974
1974
1975
1975
1975
1976
1976
1977
1978
1980
1981
1982
1981
1980
1977
1976
1975
1976
1978
1978
1979
1979
1978
1978
1978
1978
1978
1978
1978
1978
1977
1977
1978
1978
1978
1977
1977
1976
1976
1976
1976
1977
1976
1976
1975
1974
1975
1975
1976
1977
1977
1977
1976
1974
1973
1973
1974
1975
1977
1977
1977
1976
1974
1974
1974
1975
1975
1975
1974
1973
1972
1971
1970
1969
1969
1969
1970
1971
1972
1973
1974
1974
1974
1974
1973
1973
1972
1973
1974
1975
1976
1976
1975
1974
1973
1973
1974
1976
1974
1970
1961
1950
1938
1931
1929
1934
1944
1955
1964
1971
1973
1974
1973
1972
1971
1971
1970
1970
1971
1971
1971
1971
1971
1971
1970
1969
1968
1967
1967
1968
1969
1968
1967
1966
1965
1965
1965
1965
1965
1965
1964
1964
1963
1962
1961
1960
1959
1959
1959
1959
1959
1959
1958
1957
1955
1954
1953
1952
1952
1952
1952
1952
1951
1950
1949
1949
1949
1949
1950
1951
1953
1954
1956
1956
1956
1956
1956
1957
1958
1959
1960
1960
1960
1959
1959
1958
1958
1958
1959
1960
1960
1960
1960
1959
1958
1957
1957
1957
1957
1957
1958
1958
1957
1956
1955
1955
1954
1955
1955
1956
1956
1956
1956
1955
1955
1954
1954
1955
1955
1955
1954
1954
1953
1953
1953
1953
1953
1953
1954
1954
1955
1955
1955
1954
1952
1951
1951
1952
1953
1953
1953
1953
1953
1953
1953
1952
1951
1950
1949
1948
1948
1948
1948
1948
1949
1951
1952
1953
1954
1955
1955
1954
1953
1953
1953
1953
1954
1954
1953
1953
1953
1953
1954
1955
1956
1955
1951
1943
1933
1922
1913
1911
1915
1924
1933
1942
1947
1950
1952
1953
1954
1956
1956
1955
1954
1954
1954
1955
1955
1956
1956
1955
1954
1953
1952
1952
1952
1952
1953
1954
1954
1953
1951
1950
1949
1949
1950
1950
1950
1950
1950
1949
1949
1947
1946
1945
1945
1945
1946
1946
1945
1944
1943
1942
1941
1940
1939
1939
1939
1940
1940
1941
1940
1940
1940
1940
1941
1943
1944
1946
1947
1948
1950
1951
1952
1953
1953
1953
1952
1953
1953
1954
1955
1954
1954
1953
1953
1953
1954
1956
1956
1956
1955
1953
1952
1951
1952
1953
1954
1955
1955
1955
1955
1954
1953
1953
1953
1954
1956
1956
1957
1956
1956
1955
1954
1953
1953
1954
1955
1956
1956
1957
1956
1956
1955
1955
1956
1956
1957
1958
1958
1958
1957
1957
1957
1957
1958
1959
1960
1960
1960
1959
1957
1956
1954
1954
1955
1957
1959
1962
1964
1965
1965
1964
1963
1963
1963
1964
1965
1966
1966
1966
1966
1967
1967
1968
1969
1970
1971
1972
1972
1967
1959
1949
1940
1935
1936
1943
1953
1963
1971
1975
1975
1974
1972
1972
1974
1976
1978
1978
1977
1976
1977
1977
1977
1977
1977
1977
1978
1979
1980
1980
1979
1979
1978
1978
1978
1979
1979
1979
1980
1980
1981
1982
1981
1980
1978
1977
1976
1977
1977
1977
1977
1976
1975
1975
1975
1976
1976
1976
1975
1973
1973
1972
1972
1973
1973
1974
1975
1976
1976
1976
1977
1978
1980
1981
1983
1985
1987
1988
1989
1989
1989
1988
1987
1987
1988
1989
1990
1991
1991
1991
1991
1991
1990
1989
1989
1990
1990
1990
1990
1990
1989
1988
1988
1988
1989
1990
1990
1991
1991
1990
1989
1988
1987
1987
1988
1989
1990
1990
1991
1991
1991
1991
1990
1990
1990
1991
1991
1991
1990
1989
1988
1987
1987
1987
1988
1988
1988
1987
1985
1983
1981
1981
1982
1984
1986
1988
1989
1990
1989
1989
1988
1987
1986
1986
1986
1987
1988
1988
1988
1987
1987
1987
1987
1987
1987
1986
1984
1978
1969
1959
1952
1952
1958
1968
1979
1986
1990
1989
1988
1986
1985
1985
1985
1986
1986
1986
1986
1986
1985
1985
1984
1983
1983
1983
1983
1983
1983
1983
1983
1982
1981
1981
1981
1981
1981
1981
1980
1979
1979
1978
1978
1978
1977
1975
1974
1973
1972
1972
1972
1972
1972
1970
1968
1966
1965
1964
1965
1966
1967
1967
1967
1967
1966
1966
1966
1966
1967
1968
1969
1971
1972
1973
1974
1975
1975
1977
1978
1979
1979
1979
1978
1977
1976
1975
1976
1977
1977
1978
1977
1977
1976
1975
1975
1975
1976
1977
1977
1976
1975
1975
1975
1974
1973
1973
1972
1973
1973
1974
1974
1973
1973
1972
1972
1973
1973
1973
1972
1972
1973
1973
1972
1972
1971
1971
1972
1972
1972
1971
1971
1970
1970
1970
1970
1970
1969
1969
1968
1967
1966
1965
1965
1965
1967
1968
1970
1971
1973
1973
1973
1973
1972
1971
1971
1972
1972
1973
1973
1972
1972
1971
1972
1972
1973
1973
1970
1965
1956
1945
1936
1933
1935
1943
1954
1963
1970
1973
1973
1973
1973
1973
1974
1974
1973
1973
1973
1974
1975
1975
1976
1976
1975
1973
1972
1971
1971
1972
1973
1973
1973
1972
1972
1972
1972
1972
1972
1971
1971
1970
1970
1969
1969
1968
1968
1967
1968
1968
1968
1967
1965
1964
1962
1960
1960
1960
1960
1961
1961
1962
1961
1961
1960
1960
1960
1961
1962
1963
1965
1966
1968
1969
1969
1970
1970
1970
1971
1971
1972
1973
1974
1974
1974
1973
1972
1972
1973
1973
1974
1974
1974
1973
1972
1971
1971
1971
1972
1973
1974
1973
1973
1972
1971
1971
1970
1970
1971
1972
1973
1973
1973
1973
1972
1971
1972
1972
1973
1974
1974
1974
1974
1974
1974
1974
1973
1973
1973
1974
1975
1976
1976
1975
1974
1973
1973
1973
1973
1973
1973
1972
1971
1970
1968
1967
1967
1967
1969
1972
1974
1975
1976
1976
1975
1975
1974
1974
1974
1975
1976
1977
1978
1978
1978
1976
1975
1975
1976
1977
1976
1970
1960
1948
1938
1933
1936
1944
1955
1965
1972
1976
1977
1978
1978
1978
1978
1978
1978
1978
1978
1979
1980
1981
1981
1981
1980
1978
1977
1976
1977
1978
1979
1979
1979
1977
1976
1975
1975
1976
1977
1977
1978
1977
1976
1974
1973
1972
1972
1972
1972
1972
1971
1970
1968
1968
1967
1967
1966
1965
1965
1965
1965
1965
1965
1965
1964
1964
1965
1965
1967
1968
1970
1971
1972
1973
1974
1974
1976
1977
1979
1980
1980
1980
1980
1980
1979
1979
1978
1977
1977
1978
1979
1979
1978
1977
1977
1978
1979
1980
1980
1980
1979
1979
1979
1979
1979
1979
1979
1979
1979
1979
1978
1978
1978
1977
1977
1977
1977
1977
1977
1978
1979
1979
1979
1979
1977
1976
1975
1976
1977
1978
1979
1979
1978
1977
1976
1977
1977
1978
1978
1978
1978
1979
1979
1978
1976
1974
1972
1971
1970
1970
1971
1972
1974
1976
1977
1977
1977
1977
1977
1976
1976
1976
1976
1976
1976
1976
1977
1977
1978
1979
1980
1980
1980
1978
1972
1964
1952
1942
1936
1937
1944
1954
1964
1972
1975
1976
1977
1977
1978
1980
1980
1979
1978
1977
1977
1977
1978
1979
1980
1980
1980
1979
1979
1978
1978
1978
1978
1979
1979
1979
1979
1979
1979
1979
1978
1976
1975
1974
1974
1974
1975
1974
1974
1974
1973
1972
1971
1970
1970
1970
1970
1970
1971
1971
1971
1971
1969
1968
1966
1966
1966
1967
1968
1969
1970
1971
1973
1976
1978
1979
1980
1981
1982
1983
1984
1984
1983
1982
1982
1982
1982
1983
1983
1983
1983
1983
1983
1985
1986
1987
1987
1986
1985
1984
1984
1984
1984
1985
1985
1986
1987
1989
1990
1991
1989
1986
1984
1983
1984
1985
1987
1987
1987
1987
1987
1987
1987
1988
1989
1990
1991
1991
1991
1989
1988
1987
1988
1991
1994
1996
1996
1994
1989
1985
1983
1982
1983
1985
1987
1989
1992
1993
1994
1995
1996
1998
1999
1999
1999
1999
1999
2000
2001
2002
2001
2001
2001
2001
2002
2003
2004
2004
2002
1996
1987
1977
1968
1965
1969
1979
1990
2000
2005
2007
2006
2006
2006
2008
2009
2009
2008
2007
2007
2007
2007
2008
2008
2008
2007
2007
2007
2007
2007
2006
2006
2005
2006
2007
2008
2009
2008
2008
2007
2007
2006
2006
2005
2005
2005
2005
2005
2004
2003
2002
2001
2000
2000
2000
2000
1999
1999
1998
1998
1997
1996
1994
1993
1993
1993
1995
1997
2000
2001
2001
2001
2002
2003
2005
2008
2010
2011
2011
2009
2009
2009
2010
2011
2011
2012
2011
2011
2010
2010
2009
2007
2006
2006
2007
2008
2009
2009
2009
2009
2009
2008
2007
2006
2005
2005
2006
2007
2007
2006
2004
2002
2001
2001
2002
2003
2004
2003
2004
2004
2004
2004
2002
1999
1997
1996
1996
1995
1995
1994
1992
1991
1992
1992
1994
1994
1995
1996
1996
1996
1995
1993
1992
1992
1992
1993
1994
1994
1993
1992
1990
1990
1990
1990
1990
1990
1990
1990
1989
1986
1980
1972
1961
1952
1948
1951
1959
1970
1978
1983
1983
1982
1981
1981
1983
1984
1984
1983
1983
1982
1981
1981
1980
1979
1979
1980
1982
1983
1984
1984
1984
1983
1983
1983
1983
1984
1984
1984
1984
1984
1985
1985
1985
1984
1984
1984
1984
1984
1983
1982
1981
1981
1982
1982
1982
1981
1980
1978
1977
1977
1978
1978
1978
1976
1975
1974
1974
1975
1976
1976
1976
1976
1976
1978
1980
1982
1983
1983
1982
1981
1979
1978
1977
1977
1976
1976
1975
1973
1971
1970
1970
1969
1968
1966
1964
1964
1965
1966
1965
1961
1957
1953
1951
1951
1950
1948
1946
1943
1941
1939
1938
1936
1935
1933
1931
1928
1925
1923
1921
1919
1917
1915
1913
1913
1913
1914
1915
1915
1913
1911
1909
1906
1904
1902
1901
1902
1903
1905
1907
1908
1908
1908
1908
1908
1909
1909
1909
1909
1909
1909
1909
1909
1910
1912
1914
1917
1921
1925
1928
1928
1925
1918
1907
1897
1891
1892
1900
1912
1925
1935
1941
1943
1944
1945
1947
1949
1950
1952
1954
1956
1957
1957
1956
1956
1956
1958
1960
1962
1963
1964
1965
1964
1964
1964
1964
1964
1965
1966
1968
1969
1969
1968
1965
1963
1962
1961
1961
1961
1961
1959
1957
1952
1947
1941
1937
1935
1933
1932
1929
1926
1923
1920
1918
1917
1916
1915
1915
1914
1914
1913
1913
1912
1912
1913
1914
1915
1916
1917
1917
1917
1917
1917
1917
1916
1916
1917
1917
1918
1917
1917
1916
1915
1915
1916
1917
1917
1918
1918
1918
1919
1919
1920
1919
1918
1917
1917
1917
1918
1918
1918
1918
1918
1919
1920
1921
1921
1920
1919
1919
1919
1921
1922
1924
1927
1930
1934
1936
1938
1940
1941
1941
1940
1940
1938
1938
1939
1941
1944
1946
1948
1950
1952
1954
1957
1960
1963
1965
1966
1967
1968
1969
1970
1972
1974
1976
1978
1980
1981
1983
1985
1985
1982
1976
1967
1958
1951
1950
1955
1964
1973
1981
1986
1988
1988
1988
1988
1989
1991
1992
1993
1992
1991
1991
1990
1991
1991
1993
1994
1994
1994
1994
1994
1994
1995
1995
1996
1997
1998
1999
2000
2000
1998
1996
1995
1995
1996
1996
1995
1993
1991
1989
1988
1987
1986
1985
1984
1983
1982
1982
1981
1980
1977
1974
1972
1970
1968
1967
1965
1964
1962
1959
1955
1952
1949
1948
1949
1948
1945
1940
1935
1930
1927
1926
1925
1924
1924
1923
1923
1922
1922
1922
1923
1924
1925
1926
1928
1930
1931
1933
1934
1935
1935
1935
1936
1938
1940
1942
1943
1944
1944
1942
1940
1938
1936
1935
1935
1935
1934
1933
1932
1931
1932
1934
1936
1936
1935
1931
1927
1924
1923
1922
1921
1918
1915
1912
1909
1906
1905
1904
1904
1903
1899
1894
1889
1884
1881
1879
1875
1870
1863
1857
1853
1850
1848
1846
1845
1844
1841
1839
1838
1838
1840
1841
1840
1835
1827
1821
1817
1820
1827
1837
1847
1855
1859
1862
1865
1867
1868
1870
1870
1871
1872
1872
1873
1872
1872
1871
1872
1873
1874
1875
1875
1875
1876
1876
1877
1878
1880
1881
1881
1882
1883
1884
1887
1890
1893
1896
1899
1902
1904
1907
1909
1911
1913
1916
1920
1924
1928
1931
1933
1935
1938
1942
1947
1951
1956
1959
1962
1965
1968
1971
1974
1978
1982
1986
1990
1995
1999
2003
2007
2011
2015
2019
2022
2025
2029
2033
2037
2042
2046
2049
2052
2056
2060
2065
2071
2076
2080
2083
2085
2086
2087
2089
2093
2096
2100
2102
2104
2106
2108
2110
2113
2117
2122
2128
2133
2136
2137
2136
2135
2134
2134
2135
2136
2138
2140
2141
2140
2138
2134
2130
2128
2127
2126
2126
2125
2124
2122
2121
2122
2125
2130
2137
2144
2148
2149
2147
2145
2144
2144
2144
2143
2142
2139
2136
2134
2133
2132
2132
2131
2125
2115
2100
2085
2074
2069
2072
2081
2093
2102
2106
2105
2101
2096
2092
2089
2089
2088
2085
2082
2077
2072
2068
2065
2062
2059
2055
2051
2048
2045
2042
2040
2036
2032
2028
2025
2023
2022
2020
2018
2013
2008
2004
2001
1999
1998
1997
1993
1987
1980
1973
1968
1964
1961
1958
1955
1952
1948
1944
1940
1935
1929
1924
1920
1915
1911
1908
1906
1905
1902
1900
1897
1894
1893
1892
1892
1890
1888
1884
1879
1874
1869
1866
1863
1861
1858
1854
1850
1846
1841
1834
1825
1815
1805
1798
1794
1790
1786
1779
1770
1761
1754
1748
1742
1735
1727
1720
1714
1710
1706
1702
1699
1695
1693
1691
1688
1684
1679
1674
1671
1669
1667
1664
1658
1650
1642
1635
1629
1622
1613
1601
1588
1576
1566
1556
1542
1522
1498
1475
1458
1449
1447
1446
1442
1435
1425
1414
1406
1400
1396
1393
1391
1390
1390
1392
1395
1397
1399
1398
1394
1388
1379
1371
1366
1370
1382
1400
1422
1442
1456
1460
1457
1454
1454
1460
1471
1480
1485
1487
1486
1485
1484
1482
1479
1476
1472
1469
1466
1463
1461
1459
1458
1458
1459
1462
1466
1471
1476
1478
1478
1478
1480
1484
1489
1495
1500
1504
1509
1513
1519
1524
1529
1533
1537
1541
1545
1550
1556
1561
1566
1571
1576
1583
1591
1600
1609
1616
1622
1626
1631
1637
1645
1655
1665
1675
1683
1692
1699
1706
1712
1718
1723
1726
1729
1730
1730
1728
1727
1728
1730
1733
1736
1739
1740
1742
1743
1745
1747
1747
1748
1749
1752
1755
1758
1763
1768
1774
1782
1790
1797
1803
1807
1811
1815
1820
1824
1829
1833
1836
1838
1839
1840
1843
1847
1852
1855
1857
1858
1859
1859
1860
1862
1864
1868
1872
1876
1879
1881
1882
1884
1887
1891
1894
1897
1900
1903
1906
1909
1912
1916
1919
1923
1927
1932
1937
1942
1945
1943
1935
1924
1913
1907
1908
1916
1929
1942
1953
1961
1965
1966
1966
1966
1967
1969
1971
1973
1976
1978
1979
1979
1978
1977
1977
1979
1982
1984
1985
1985
1984
1983
1984
1985
1987
1988
1989
1990
1992
1993
1995
1996
1997
1997
1997
1997
1999
2001
2002
2003
2003
2002
2001
2000
2000
2000
2001
2003
2005
2006
2007
2007
2008
2008
2010
2012
2015
2017
2019
2020
2021
2021
2023
2024
2026
2029
2032
2035
2037
2039
2039
2039
2038
2038
2039
2040
2041
2042
2043
2045
2046
2047
2047
2046
2044
2043
2044
2046
2049
2051
2052
2052
2050
2049
2048
2049
2051
2053
2055
2057
2057
2057
2056
2056
2057
2059
2061
2063
2065
2066
2066
2064
2062
2061
2060
2061
2063
2064
2065
2065
2065
2066
2066
2067
2067
2066
2066
2067
2068
2070
2070
2070
2069
2068
2067
2067
2067
2068
2069
2069
2070
2071
2070
2066
2057
2046
2033
2024
2023
2031
2043
2054
2062
2066
2067
2066
2065
2065
2065
2066
2067
2067
2068
2068
2067
2066
2065
2064
2063
2063
2062
2060
2058
2057
2056
2056
2055
2055
2055
2055
2056
2057
2057
2057
2056
2055
2055
2056
2057
2057
2056
2055
2054
2054
2053
2052
2050
2049
2048
2048
2046
2044
2042
2039
2037
2036
2037
2037
2038
2039
2040
2041
2042
2043
2043
2044
2045
2045
2046
2046
2047
2047
2046
2046
2046
2046
2047
2047
2048
2048
2049
2049
2048
2048
2046
2045
2044
2044
2044
2044
2044
2043
2043
2042
2042
2043
2044
2045
2045
2045
2044
2042
2040
2038
2038
2038
2038
2039
2040
2040
2039
2037
2036
2035
2036
2036
2036
2035
2033
2029
2026
2024
2023
2023
2024
2025
2026
2027
2026
2024
2022
2020
2020
2021
2021
2020
2018
2017
2015
2016
2016
2017
2016
2015
2014
2015
2015
2015
2011
2002
1992
1981
1975
1975
1982
1991
2001
2008
2012
2013
2013
2012
2011
2010
2010
2010
2011
2013
2014
2014
2014
2013
2013
2013
2013
2013
2012
2011
2010
2009
2010
2011
2011
2010
2009
2009
2009
2010
2011
2011
2011
2010
2010
2009
2009
2008
2007
2005
2005
2004
2004
2004
2002
2000
2000
2000
2001
2002
2001
2001
1999
1998
1998
1998
1998
1998
1999
2001
2003
2006
2007
2008
2007
2007
2007
2008
2009
2008
2006
2004
2003
2003
2003
2004
2004
2004
2004
2005
2005
2005
2004
2002
2000
1999
1999
1999
1999
1999
1997
1995
1992
1990
1990
1990
1992
1994
1994
1991
1987
1983
1980
1979
1979
1980
1981
1981
1980
1979
1978
1977
1978
1979
1978
1976
1974
1972
1970
1969
1969
1969
1970
1970
1970
1971
1971
1971
1971
1972
1973
1975
1977
1978
1978
1978
1978
1979
1981
1981
1980
1978
1976
1975
1975
1976
1978
1979
1977
1971
1959
1945
1932
1926
1929
1941
1956
1970
1979
1981
1979
1977
1975
1975
1976
1977
1978
1979
1981
1981
1981
1980
1979
1978
1977
1978
1978
1979
1978
1978
1977
1977
1978
1980
1980
1979
1977
1974
1972
1972
1974
1977
1979
1980
1980
1978
1977
1975
1974
1974
1974
1974
1974
1973
1973
1972
1972
1972
1972
1972
1972
1972
1972
1971
1971
1971
1972
1973
1974
1975
1976
1977
1978
1980
1982
1984
1985
1985
1985
1986
1988
1989
1989
1988
1987
1986
1986
1986
1988
1989
1990
1991
1991
1990
1989
1988
1987
1987
1988
1989
1989
1990
1990
1990
1990
1990
1991
1991
1991
1990
1990
1989
1989
1991
1992
1994
1993
1992
1990
1989
1990
1992
1993
1993
1990
1988
1987
1989
1992
1993
1992
1989
1986
1985
1985
1986
1986
1986
1986
1986
1988
1989
1991
1991
1990
1988
1985
1983
1983
1984
1986
1987
1986
1985
1983
1982
1980
1977
1975
1973
1971
1967
1960
1948
1931
1915
1904
1902
1907
1918
1930
1938
1940
1937
1932
1929
1930
1934
1938
1940
1940
1938
1937
1938
1941
1945
1950
1956
1962
1966
1968
1970
1975
1985
2000
2017
2035
2050
2066
2082
2098
2113
2126
2139
2150
2161
2172
2183
2193
2202
2210
2216
2221
2227
2234
2241
2248
2254
2258
2262
2270
2286
2311
2345
2385
2426
2465
2499
2528
2552
2571
2584
2590
2591
2595
2614
2654
2706
2753
2773
2756
2708
2647
2592
2554
2531
2516
2502
2487
2470
2453
2434
2413
2390
2367
2343
2317
2292
2268
2246
2226
2208
2190
2171
2152
2134
2120
2110
2101
2092
2080
2067
2055
2046
2040
2035
2033
2032
2033
2037
2040
2042
2041
2039
2036
2033
2030
2025
2018
2009
1999
1990
1982
1976
1972
1969
1966
1963
1961
1960
1960
1961
1963
1964
1966
1968
1970
1973
1975
1976
1976
1976
1976
1976
1976
1977
1977
1979
1982
1986
1990
1992
1993
1994
1996
1997
1994
1984
1970
1954
1942
1940
1949
1964
1983
1998
2009
2015
2019
2022
2026
2031
2037
2041
2043
2044
2043
2044
2046
2048
2050
2050
2048
2045
2043
2044
2047
2049
2051
2053
2054
2057
2060
2062
2063
2063
2062
2063
2064
2066
2067
2068
2067
2065
2063
2062
2060
2059
2058
2059
2060
2063
2066
2067
2067
2065
2063
2061
2060
2060
2061
2061
2061
2060
2059
2058
2058
2061
2065
2069
2072
2074
2075
2076
2077
2079
2081
2083
2084
2084
2084
2085
2086
2089
2090
2091
2091
2090
2089
2090
2091
2094
2096
2097
2096
2095
2094
2094
2096
2098
2100
2101
2101
2100
2100
2101
2102
2103
2103
2103
2103
2103
2103
2103
2102
2102
2102
2103
2104
2106
2108
2109
2109
2108
2107
2107
2108
2109
2110
2111
2110
2108
2106
2105
2105
2106
2106
2108
2110
2112
2113
2112
2112
2111
2111
2112
2111
2109
2105
2099
2093
2088
2083
2079
2077
2075
2073
2067
2059
2049
2041
2037
2039
2048
2060
2072
2081
2086
2088
2090
2091
2092
2091
2090
2088
2085
2084
2083
2084
2085
2086
2086
2085
2085
2084
2083
2082
2081
2081
2080
2078
2077
2075
2073
2071
2068
2065
2063
2061
2061
2061
2062
2063
2062
2061
2058
2056
2055
2055
2057
2059
2060
2060
2060
2059
2058
2058
2057
2057
2056
2056
2055
2054
2054
2055
2056
2058
2060
2063
2065
2067
2068
2067
2066
2065
2063
2062
2061
2061
2059
2058
2055
2053
2050
2048
2047
2046
2044
2043
2040
2038
2035
2032
2029
2026
2022
2018
2014
2010
2008
2007
2005
2003
2000
1995
1990
1984
1980
1977
1975
1974
1974
1974
1972
1971
1968
1966
1964
1962
1960
1958
1956
1955
1954
1955
1955
1955
1955
1956
1957
1960
1962
1965
1967
1968
1969
1969
1970
1971
1973
1974
1975
1977
1978
1979
1978
1977
1976
1976
1976
1976
1976
1975
1975
1975
1973
1969
1960
1948
1934
1924
1921
1925
1934
1944
1951
1953
1951
1948
1945
1944
1946
1948
1948
1946
1943
1939
1937
1937
1938
1938
1938
1937
1934
1930
1926
1921
1918
1916
1913
1910
1905
1900
1896
1894
1892
1891
1889
1885
1880
1876
1874
1874
1874
1875
1874
1873
1870
1867
1865
1863
1862
1861
1860
1858
1857
1856
1855
1856
1858
1859
1861
1862
1862
1863
1865
1869
1874
1879
1885
1889
1892
1894
1896
1898
1900
1904
1907
1911
1914
1917
1918
1919
1920
1921
1923
1925
1927
1929
1932
1935
1939
1943
1946
1948
1950
1953
1956
1959
1962
1964
1965
1966
1966
1968
1970
1972
1974
1975
1976
1978
1981
1984
1988
1992
1994
1995
1996
1997
1998
2000
2002
2004
2006
2008
2010
2012
2014
2015
2017
2020
2022
2024
2025
2026
2026
2025
2025
2024
2025
2027
2030
2033
2035
2037
2037
2038
2039
2041
2042
2043
2045
2046
2047
2048
2048
2049
2051
2052
2053
2054
2055
2057
2058
2057
2051
2041
2029
2021
2020
2027
2039
2051
2060
2065
2065
2064
2063
2063
2066
2068
2070
2072
2071
2070
2069
2068
2069
2070
2072
2074
2075
2075
2075
2075
2075
2076
2076
2076
2076
2076
2077
2077
2077
2076
2076
2075
2075
2075
2076
2076
2076
2075
2074
2073
2073
2074
2074
2075
2074
2074
2073
2073
2072
2071
2070
2070
2069
2068
2067
2066
2066
2067
2068
2068
2067
2067
2067
2068
2070
2072
2073
2074
2074
2074
2074
2074
2074
2073
2074
2074
2074
2073
2072
2071
2069
2068
2068
2069
2069
2070
2069
2069
2067
2066
2065
2065
2065
2065
2065
2064
2063
2062
2061
2060
2060
2059
2059
2058
2058
2057
2056
2055
2054
2051
2049
2048
2050
2053
2056
2058
2058
2056
2055
2053
2052
2051
2051
2051
2052
2052
2052
2051
2050
2048
2047
2044
2042
2041
2040
2040
2040
2041
2041
2041
2041
2042
2042
2043
2042
2042
2042
2043
2045
2046
2046
2045
2044
2044
2045
2047
2048
2049
2048
2044
2035
2023
2010
2002
2001
2007
2018
2030
2040
2045
2046
2045
2044
2044
2044
2045
2045
2045
2045
2046
2046
2046
2045
2044
2044
2044
2044
2043
2042
2041
2040
2040
2040
2039
2038
2037
2036
2037
2038
2038
2037
2035
2032
2030
2029
2029
2029
2028
2027
2026
2025
2024
2024
2023
2022
2020
2019
2018
2017
2017
2016
2015
2013
2013
2013
2015
2016
2016
2015
2015
2015
2016
2017
2018
2019
2020
2020
2020
2020
2021
2021
2021
2021
2022
2023
2023
2024
2024
2024
2024
2023
2022
2021
2021
2022
2023
2024
2024
2024
2023
2022
2021
2021
2022
2022
2021
2021
2020
2020
2020
2019
2019
2018
2018
2019
2019
2020
2021
2020
2019
2019
2018
2017
2018
2019
2020
2021
2020
2018
2016
2014
2014
2014
2015
2015
2015
2014
2014
2014
2015
2016
2017
2017
2016
2015
2013
2012
2012
2012
2013
2015
2015
2016
2016
2017
2017
2016
2015
2014
2013
2013
2015
2017
2018
2019
2018
2016
2016
2017
2018
2016
2011
2000
1988
1979
1976
1981
1991
2002
2012
2017
2019
2019
2019
2020
2021
2022
2022
2021
2020
2020
2019
2019
2019
2019
2019
2019
2018
2017
2015
2014
2014
2014
2014
2014
2014
2014
2014
2014
2013
2011
2010
2009
2008
2008
2008
2008
2007
2006
2004
2003
2002
2001
2000
2000
1999
1997
1996
1994
1993
1993
1993
1993
1993
1994
1993
1992
1991
1989
1989
1990
1991
1994
1996
1998
1999
1999
1999
1999
1999
1999
1998
1998
1998
1999
1999
2000
2000
2000
2000
2000
1999
1999
1999
1999
1999
1999
1999
1998
1997
1996
1994
1994
1994
1995
1995
1995
1995
1994
1993
1993
1993
1993
1994
1993
1993
1993
1993
1993
1992
1991
1990
1990
1990
1990
1990
1990
1990
1990
1990
1990
1991
1992
1994
1996
1997
1996
1993
1991
1989
1989
1990
1992
1992
1992
1992
1991
1990
1989
1988
1988
1988
1989
1990
1991
1993
1994
1994
1995
1995
1996
1995
1995
1994
1994
1994
1994
1994
1993
1992
1992
1993
1996
1998
1996
1990
1979
1964
1950
1941
1940
1946
1957
1969
1978
1982
1982
1980
1978
1977
1976
1977
1978
1979
1980
1981
1982
1981
1980
1977
1975
1973
1972
1972
1972
1972
1971
1971
1969
1967
1965
1964
1964
1964
1964
1964
1964
1963
1962
1961
1960
1959
1957
1956
1955
1954
1953
1952
1950
1949
1948
1948
1948
1948
1948
1948
1947
1947
1946
1945
1945
1945
1945
1946
1947
1948
1950
1951
1952
1954
1956
1959
1961
1964
1965
1965
1964
1963
1963
1964
1965
1965
1966
1966
1967
1967
1966
1966
1965
1965
1966
1966
1967
1968
1969
1969
1969
1969
1968
1967
1966
1966
1967
1968
1970
1971
1972
1973
1972
1970
1969
1968
1968
1969
1969
1969
1969
1968
1967
1965
1964
1964
1964
1965
1966
1966
1966
1965
1965
1964
1963
1963
1964
1964
1964
1963
1962
1960
1958
1957
1956
1955
1955
1955
1955
1955
1955
1955
1955
1955
1956
1956
1956
1956
1956
1956
1956
1955
1955
1954
1954
1954
1954
1955
1957
1959
1959
1957
1951
1941
1928
1915
1907
1907
1914
1926
1939
1948
1953
1953
1951
1949
1949
1949
1950
1950
1949
1949
1950
1950
1950
1950
1949
1949
1948
1949
1949
1949
1948
1948
1947
1948
1948
1949
1950
1951
1950
1950
1949
1948
1948
1948
1949
1950
1950
1951
1951
1950
1949
1948
1947
1947
1947
1948
1948
1948
1947
1946
1945
1944
1943
1943
1943
1943
1943
1943
1943
1944
1946
1947
1949
1951
1952
1954
1956
1959
1961
1962
1963
1963
1963
1962
1963
1964
1965
1966
1967
1967
1968
1968
1968
1969
1969
1970
1970
1971
1972
1973
1974
1974
1974
1975
1976
1977
1978
1977
1976
1976
1976
1977
1977
1978
1977
1977
1978
1978
1978
1978
1978
1977
1978
1979
1981
1982
1983
1983
1982
1981
1979
1979
1979
1980
1981
1982
1983
1982
1981
1979
1978
1977
1978
1979
1982
1984
1987
1989
1990
1992
1993
1994
1994
1995
1995
1995
1995
1995
1995
1996
1998
1999
2000
2001
2003
2004
2002
1996
1985
1974
1966
1965
1971
1983
1996
2006
2012
2014
2013
2011
2010
2010
2010
2011
2011
2011
2011
2012
2012
2012
2011
2010
2009
2009
2009
2009
2010
2010
2010
2010
2009
2009
2008
2007
2007
2007
2007
2007
2006
2006
2005
2003
2002
2000
1999
1999
2000
2000
2000
1999
1996
1994
1992
1991
1991
1990
1990
1989
1989
1989
1988
1987
1986
1986
1987
1990
1992
1994
1994
1993
1993
1994
1995
1998
2000
2001
2001
2001
2000
1999
1999
1998
1998
1997
1998
1999
1999
2000
2000
2001
2001
2001
2000
1999
1998
1997
1997
1998
1999
1999
1998
1998
1997
1997
1998
1999
2000
2000
2000
2000
1999
1998
1998
1998
1999
2000
2002
2004
2005
2005
2005
2004
2002
2000
1998
1997
1996
1996
1997
1999
2001
2003
2004
2004
2004
2005
2005
2006
2006
2005
2005
2006
2008
2009
2009
2008
2006
2006
2008
2013
2016
2015
2009
1998
1985
1975
1971
1975
1985
1997
2009
2016
2018
2016
2014
2012
2013
2014
2016
2017
2016
2015
2015
2016
2019
2020
2021
2020
2019
2017
2017
2017
2016
2016
2015
2016
2016
2017
2017
2017
2016
2015
2015
2015
2016
2016
2016
2015
2014
2013
2012
2010
2009
2008
2009
2010
2010
2010
2009
2007
2005
2003
2001
2000
1999
2000
2000
2001
2002
2002
2002
2003
2004
2005
2007
2008
2009
2010
2012
2014
2015
2015
2013
2011
2010
2010
2011
2012
2013
2014
2013
2012
2011
2010
2011
2011
2012
2012
2012
2011
2011
2010
2010
2010
2010
2009
2009
2009
2008
2007
2006
2006
2006
2006
2007
2007
2008
2008
2008
2007
2007
2006
2005
2005
2004
2004
2003
2002
2001
1999
1998
1997
1997
1998
1999
2000
2002
2003
2004
2004
2003
2001
1999
1998
1997
1998
1998
1999
1999
1999
2000
2001
2002
2001
1997
1989
1979
1969
1963
1964
1970
1978
1985
1989
1992
1994
1996
1997
1997
1996
1994
1992
1991
1991
1993
1996
1999
2000
1999
1995
1991
1987
1985
1984
1984
1984
1985
1984
1983
1981
1977
1973
1971
1971
1973
1977
1980
1980
1977
1973
1969
1966
1964
1963
1961
1959
1958
1959
1961
1962
1962
1959
1955
1951
1948
1948
1950
1952
1953
1952
1950
1950
1951
1953
1956
1957
1956
1955
1954
1955
1958
1961
1963
1962
1961
1960
1960
1961
1964
1968
1971
1972
1971
1969
1965
1962
1960
1961
1963
1965
1966
1966
1967
1968
1967
1966
1963
1960
1960
1962
1967
1970
1969
1964
1959
1956
1959
1964
1971
1975
1976
1974
1971
1966
1963
1961
1960
1960
1960
1961
1961
1961
1962
1964
1967
1973
1979
1985
1986
1984
1978
1973
1972
1975
1980
1983
1981
1977
1974
1974
1978
1984
1988
1990
1988
1983
1973
1958
1944
1936
1937
1948
1963
1976
1982
1981
1978
1976
1978
1983
1987
1989
1988
1986
1985
1984
1985
1986
1988
1991
1994
1996
1994
1990
1986
1984
1986
1990
1993
1993
1991
1988
1986
1985
1985
1986
1987
1989
1993
1997
1998
1997
1992
1987
1983
1979
1977
1975
1975
1976
1978
1981
1981
1981
1979
1978
1977
1977
1976
1974
1972
1971
1972
1973
1974
1974
1975
1976
1976
1977
1978
1978
1979
1979
1979
1978
1978
1978
1978
1978
1978
1977
1976
1974
1973
1975
1977
1980
1982
1983
1981
1978
1975
1974
1973
1974
1975
1977
1978
1979
1979
1979
1980
1980
1981
1982
1983
1984
1985
1986
1987
1987
1986
1985
1984
1984
1984
1984
1985
1985
1985
1985
1986
1987
1988
1989
1990
1991
1991
1991
1991
1991
1991
1991
1991
1991
1991
1991
1991
1992
1992
1993
1991
1987
1977
1964
1951
1943
1942
1949
1960
1973
1982
1986
1988
1988
1988
1988
1989
1989
1989
1990
1990
1990
1990
1989
1988
1988
1987
1987
1986
1986
1985
1986
1985
1986
1986
1987
1987
1987
1987
1986
1984
1982
1980
1979
1979
1980
1980
1981
1980
1980
1978
1977
1976
1975
1974
1975
1975
1975
1974
1972
1970
1967
1965
1964
1964
1964
1965
1966
1967
1967
1967
1967
1967
1969
1971
1973
1975
1975
1976
1976
1976
1977
1977
1978
1979
1979
1979
1978
1978
1978
1979
1980
1980
1979
1978
1976
1975
1975
1975
1975
1975
1975
1975
1976
1976
1976
1976
1976
1976
1975
1976
1976
1977
1977
1978
1978
1978
1978
1978
1977
1975
1973
1973
1974
1976
1977
1976
1975
1973
1972
1973
1975
1977
1979
1981
1981
1981
1980
1979
1979
1978
1978
1979
1979
1980
1981
1982
1983
1984
1982
1976
1966
1953
1941
1934
1935
1942
1954
1966
1975
1980
1981
1981
1981
1982
1983
1983
1983
1981
1980
1980
1980
1982
1983
1984
1985
1985
1984
1983
1982
1981
1981
1981
1982
1983
1984
1984
1984
1983
1982
1981
1981
1981
1982
1982
1982
1981
1979
1978
1977
1976
1976
1976
1976
1977
1977
1977
1976
1975
1973
1972
1971
1971
1971
1972
1974
1975
1977
1977
1978
1978
1979
1981
1983
1985
1986
1987
1988
1988
1989
1990
1990
1991
1991
1992
1993
1993
1994
1994
1994
1994
1993
1993
1994
1995
1997
1998
1998
1997
1996
1996
1996
1997
1998
1999
2000
2000
2001
2001
2001
2000
2000
1999
1999
2000
2000
2001
2002
2002
2002
2000
1998
1997
1996
1996
1998
2000
2001
2003
2004
2004
2005
2005
2005
2004
2004
2003
2003
2003
2003
2003
2003
2003
2004
2004
2006
2007
2008
2008
2004
1996
1985
1973
1964
1962
1967
1978
1991
2002
2008
2009
2007
2005
2004
2005
2007
2008
2008
2008
2007
2007
2007
2007
2008
2008
2009
2009
2008
2008
2007
2007
2006
2006
2007
2007
2007
2007
2006
2004
2004
2004
2004
2005
2005
2004
2002
2001
2000
2000
2000
1999
1998
1996
1996
1995
1995
1996
1996
1995
1994
1993
1992
1992
1992
1992
1994
1996
1997
1999
1999
2000
2000
2001
2002
2004
2005
2007
2008
2009
2010
2010
2011
2011
2012
2012
2013
2013
2012
2012
2012
2011
2011
2012
2012
2012
2012
2012
2011
2011
2011
2011
2012
2012
2013
2013
2013
2014
2014
2014
2013
2012
2011
2010
2011
2011
2011
2011
2009
2007
2006
2005
2005
2007
2009
2012
2013
2013
2012
2011
2011
2010
2010
2010
2011
2011
2012
2012
2012
2011
2011
2010
2011
2012
2011
2008
2001
1991
1980
1972
1969
1973
1983
1995
2006
2012
2014
2013
2010
2007
2006
2005
2005
2006
2006
2007
2008
2008
2008
2007
2006
2005
2004
2003
2004
2004
2004
2003
2002
2001
2000
1999
1999
2000
2000
2000
1999
1999
1998
1997
1996
1994
1994
1993
1994
1994
1994
1994
1992
1989
1986
1984
1983
1983
1984
1985
1987
1987
1985
1983
1981
1980
1980
1981
1983
1985
1987
1989
1991
1992
1993
1994
1995
1996
1996
1997
1997
1997
1997
1996
1996
1995
1995
1996
1996
1996
1996
1996
1996
1995
1994
1993
1993
1994
1995
1996
1996
1996
1996
1995
1994
1994
1994
1994
1994
1994
1994
1994
1994
1994
1994
1994
1993
1992
1991
1990
1990
1990
1990
1989
1988
1988
1989
1991
1993
1994
1995
1995
1996
1996
1996
1995
1994
1993
1993
1993
1995
1996
1996
1996
1996
1996
1995
1992
1984
1972
1960
1950
1947
1952
1963
1976
1987
1994
1996
1995
1993
1992
1992
1992
1993
1993
1993
1994
1995
1995
1994
1994
1993
1992
1991
1991
1990
1990
1991
1991
1991
1991
1990
1989
1988
1987
1987
1987
1989
1990
1990
1990
1989
1986
1984
1982
1982
1981
1981
1981
1981
1980
1980
1979
1978
1977
1976
1975
1975
1976
1976
1977
1976
1976
1975
1974
1974
1975
1978
1981
1984
1986
1987
1987
1986
1984
1984
1985
1986
1988
1988
1988
1988
1987
1987
1987
1988
1989
1989
1990
1990
1989
1987
1986
1985
1985
1985
1986
1986
1987
1988
1988
1988
1987
1986
1986
1986
1986
1987
1987
1987
1987
1986
1986
1985
1985
1985
1986
1986
1987
1988
1988
1986
1984
1981
1978
1977
1978
1981
1984
1987
1988
1987
1986
1985
1985
1985
1986
1987
1987
1987
1986
1986
1986
1986
1987
1988
1990
1990
1986
1978
1966
1953
1942
1937
1940
1949
1961
1973
1982
1987
1988
1988
1987
1987
1986
1986
1986
1986
1987
1987
1988
1988
1988
1987
1987
1986
1985
1985
1985
1986
1986
1985
1985
1984
1984
1984
1984
1984
1984
1983
1983
1982
1982
1981
1979
1978
1977
1977
1976
1976
1976
1976
1976
1975
1974
1973
1972
1971
1971
1971
1971
1970
1969
1969
1968
1968
1969
1970
1971
1973
1975
1976
1977
1978
1979
1980
1980
1981
1982
1983
1983
1984
1984
1984
1983
1983
1983
1983
1983
1983
1983
1983
1983
1983
1982
1982
1982
1983
1983
1984
1983
1983
1982
1982
1981
1982
1982
1983
1983
1983
1983
1982
1982
1982
1982
1981
1981
1982
1983
1984
1984
1983
1982
1981
1981
1981
1982
1983
1983
1983
1983
1982
1981
1979
1977
1975
1974
1975
1977
1979
1980
1981
1982
1981
1981
1981
1981
1982
1982
1983
1984
1984
1984
1983
1982
1982
1982
1984
1985
1984
1977
1965
1951
1938
1932
1935
1944
1958
1971
1981
1985
1985
1983
1981
1980
1981
1982
1983
1984
1985
1985
1984
1983
1982
1982
1982
1983
1984
1984
1983
1983
1983
1982
1982
1981
1980
1980
1979
1980
1981
1981
1980
1979
1978
1977
1976
1975
1976
1976
1976
1976
1975
1974
1972
1970
1969
1970
1970
1971
1971
1970
1969
1968
1967
1967
1966
1966
1967
1967
1969
1971
1972
1974
1974
1975
1976
1977
1978
1979
1981
1982
1983
1983
1983
1983
1982
1982
1982
1983
1984
1984
1984
1984
1983
1982
1981
1981
1981
1982
1983
1983
1982
1980
1980
1980
1981
1982
1982
1982
1982
1982
1983
1983
1983
1982
1982
1982
1982
1982
1983
1983
1983
1983
1982
1982
1981
1981
1981
1982
1983
1984
1985
1985
1984
1983
1983
1982
1982
1982
1982
1983
1983
1982
1980
1978
1976
1976
1976
1977
1979
1981
1982
1983
1983
1982
1981
1981
1982
1983
1984
1985
1985
1985
1985
1984
1984
1983
1984
1986
1987
1987
1982
1973
1960
1946
1937
1934
1941
1953
1967
1978
1984
1985
1984
1982
1981
1982
1983
1985
1986
1987
1987
1986
1985
1985
1985
1985
1985
1985
1984
1983
1983
1983
1983
1983
1982
1982
1981
1981
1981
1981
1981
1981
1980
1980
1979
1979
1978
1978
1977
1976
1975
1974
1974
1973
1972
1972
1972
1972
1972
1971
1970
1969
1968
1967
1967
1966
1966
1966
1967
1968
1969
1970
1971
1972
1973
1975
1977
1979
1981
1982
1983
1983
1983
1983
1983
1982
1982
1982
1982
1983
1983
1983
1983
1983
1983
1982
1982
1982
1982
1982
1982
1982
1982
1982
1981
1982
1982
1983
1984
1984
1984
1983
1981
1980
1979
1980
1981
1982
1982
1983
1982
1982
1981
1980
1981
1981
1982
1982
1983
1983
1983
1983
1982
1982
1981
1981
1982
1982
1983
1983
1982
1981
1980
1981
1981
1981
1982
1982
1982
1982
1982
1981
1979
1978
1976
1975
1975
1976
1977
1979
1981
1982
1982
1982
1982
1982
1982
1982
1982
1982
1981
1980
1980
1980
1980
1980
1982
1983
1985
1985
1981
1973
1961
1947
1937
1933
1937
1948
1962
1974
1981
1983
1983
1981
1980
1980
1981
1983
1984
1984
1984
1983
1982
1981
1981
1981
1981
1982
1982
1982
1982
1982
1981
1981
1981
1980
1980
1980
1979
1979
1978
1978
1978
1977
1975
1974
1974
1974
1975
1974
1973
1972
1970
1969
1968
1968
1969
1969
1969
1968
1968
1967
1966
1965
1964
1963
1963
1964
1964
1965
1966
1967
1968
1969
1971
1973
1975
1977
1978
1979
1979
1978
1977
1977
1977
1978
1979
1980
1982
1982
1982
1982
1980
1979
1978
1978
1979
1980
1980
1980
1980
1979
1979
1978
1978
1978
1979
1980
1981
1981
1981
1981
1980
1979
1978
1978
1978
1979
1980
1980
1980
1980
1980
1980
1980
1980
1980
1980
1979
1979
1979
1979
1980
1980
1980
1980
1980
1980
1980
1981
1981
1981
1980
1980
1979
1979
1980
1981
1981
1981
1981
1981
1980
1979
1977
1976
1975
1975
1975
1975
1976
1978
1979
1981
1981
1981
1981
1981
1981
1982
1982
1982
1981
1981
1980
1980
1980
1981
1983
1984
1985
1985
1981
1971
1959
1945
1936
1934
1941
1954
1967
1977
1983
1983
1982
1981
1980
1982
1983
1984
1984
1984
1984
1983
1983
1984
1984
1984
1984
1984
1984
1983
1983
1982
1981
1981
1981
1982
1982
1982
1982
1981
1980
1980
1979
1978
1978
1977
1977
1977
1976
1976
1975
1974
1973
1972
1972
1972
1972
1972
1971
1970
1968
1967
1966
1965
1965
1966
1966
1967
1967
1968
1968
1969
1970
1971
1974
1977
1980
1982
1982
1982
1981
1980
1980
1981
1982
1984
1985
1986
1986
1986
1985
1984
1983
1983
1983
1984
1984
1985
1985
1985
1984
1983
1983
1983
1983
1984
1985
1986
1985
1984
1984
1983
1984
1985
1985
1986
1986
1987
1986
1986
1985
1985
1985
1985
1985
1985
1985
1985
1985
1985
1986
1986
1985
1985
1986
1986
1986
1986
1986
1985
1985
1985
1985
1985
1986
1986
1987
1987
1986
1986
1986
1985
1985
1984
1983
1981
1980
1980
1981
1982
1984
1986
1987
1987
1987
1986
1986
1985
1985
1984
1985
1985
1986
1986
1987
1988
1989
1990
1991
1990
1985
1977
1965
1952
1944
1943
1949
1961
1973
1983
1988
1990
1988
1987
1988
1989
1991
1992
1991
1991
1990
1990
1991
1991
1992
1992
1992
1992
1992
1992
1992
1991
1991
1991
1990
1990
1989
1989
1989
1989
1989
1989
1989
1989
1989
1989
1988
1986
1985
1985
1984
1984
1983
1982
1982
1982
1982
1981
1980
1978
1977
1977
1978
1978
1978
1978
1977
1976
1976
1977
1978
1980
1981
1984
1986
1988
1990
1991
1992
1991
1991
1991
1991
1993
1994
1995
1995
1996
1996
1996
1996
1996
1995
1994
1995
1995
1996
1996
1996
1996
1995
1995
1994
1994
1995
1995
1994
1994
1994
1994
1995
1995
1995
1995
1996
1996
1996
1996
1996
1995
1995
1994
1994
1994
1994
1995
1996
1996
1996
1995
1994
1993
1992
1992
1994
1995
1997
1997
1997
1996
1994
1992
1990
1988
1987
1988
1989
1991
1992
1993
1993
1992
1992
1992
1994
1995
1997
1997
1996
1995
1993
1992
1991
1992
1994
1995
1997
1997
1994
1987
1976
1963
1953
1949
1953
1963
1976
1988
1995
1998
1997
1994
1992
1991
1992
1992
1993
1994
1994
1994
1993
1993
1992
1992
1992
1993
1993
1993
1992
1992
1991
1990
1990
1989
1989
1988
1988
1988
1988
1988
1987
1987
1986
1986
1985
1985
1985
1984
1983
1981
1980
1979
1978
1977
1977
1976
1976
1976
1975
1974
1973
1973
1972
1971
1971
1971
1972
1973
1974
1975
1977
1977
1979
1980
1983
1985
1987
1988
1988
1988
1988
1988
1988
1988
1988
1988
1988
1988
1988
1988
1988
1987
1987
1987
1988
1988
1989
1989
1988
1987
1986
1985
1986
1986
1987
1988
1988
1988
1987
1986
1986
1985
1985
1985
1986
1986
1987
1988
1988
1988
1987
1986
1985
1984
1984
1985
1986
1986
1987
1986
1986
1985
1985
1985
1986
1987
1987
1987
1987
1986
1984
1983
1982
1980
1980
1980
1981
1982
1983
1984
1985
1985
1985
1985
1985
1986
1986
1986
1986
1986
1986
1986
1986
1985
1986
1987
1988
1989
1986
1978
1965
1950
1939
1936
1941
1952
1967
1979
1986
1988
1987
1985
1984
1984
1985
1986
1987
1988
1988
1987
1987
1986
1986
1986
1986
1987
1987
1987
1986
1985
1984
1983
1982
1982
1983
1984
1985
1985
1984
1983
1982
1981
1980
1980
1981
1981
1981
1981
1979
1978
1976
1975
1974
1973
1974
1974
1973
1972
1971
1970
1970
1970
1970
1970
1969
1968
1968
1969
1970
1972
1973
1975
1977
1978
1980
1981
1982
1983
1983
1984
1984
1984
1984
1984
1984
1984
1984
1984
1984
1984
1984
1983
1983
1983
1983
1983
1984
1984
1984
1984
1984
1983
1982
1981
1982
1982
1983
1983
1983
1984
1984
1984
1984
1982
1981
1980
1980
1981
1983
1983
1983
1983
1982
1981
1982
1982
1983
1984
1984
1984
1983
1982
1982
1982
1983
1983
1984
1984
1983
1983
1983
1983
1983
1984
1984
1983
1982
1981
1980
1979
1978
1978
1978
1980
1981
1983
1985
1986
1986
1986
1984
1983
1983
1983
1983
1984
1984
1985
1985
1985
1986
1987
1988
1987
1982
1972
1960
1947
1938
1936
1942
1954
1966
1976
1983
1985
1986
1985
1985
1985
1985
1986
1986
1986
1986
1987
1987
1987
1986
1986
1985
1984
1984
1984
1984
1985
1985
1985
1985
1984
1982
1981
1981
1981
1982
1982
1983
1983
1982
1981
1980
1979
1977
1976
1976
1975
1975
1975
1974
1973
1972
1971
1970
1970
1970
1970
1970
1970
1970
1970
1969
1968
1968
1969
1971
1973
1976
1977
1978
1978
1979
1979
1981
1982
1983
1984
1985
1985
1985
1985
1984
1984
1984
1983
1984
1984
1985
1986
1986
1985
1984
1983
1983
1983
1984
1985
1985
1985
1985
1985
1984
1984
1984
1984
1984
1984
1984
1984
1985
1985
1985
1985
1983
1982
1982
1983
1985
1987
1988
1988
1986
1985
1984
1984
1985
1986
1986
1986
1985
1985
1984
1984
1984
1985
1985
1985
1985
1986
1986
1986
1985
1984
1983
1982
1982
1981
1981
1981
1981
1981
1982
1983
1984
1985
1986
1987
1988
1988
1987
1986
1985
1985
1985
1986
1987
1988
1988
1988
1988
1989
1988
1984
1975
1963
1950
1941
1938
1944
1956
1970
1980
1987
1989
1988
1987
1986
1986
1987
1988
1988
1988
1988
1987
1987
1987
1989
1989
1989
1989
1988
1987
1986
1986
1986
1986
1986
1986
1987
1987
1986
1985
1984
1983
1983
1983
1983
1983
1983
1982
1981
1979
1979
1978
1978
1978
1978
1977
1976
1975
1974
1973
1971
1971
1971
1972
1973
1973
1973
1973
1973
1973
1973
1974
1976
1979
1981
1983
1984
1985
1985
1986
1987
1988
1989
1990
1990
1990
1990
1990
1990
1989
1989
1989
1989
1990
1991
1991
1992
1991
1991
1990
1989
1988
1988
1989
1990
1991
1991
1991
1990
1989
1989
1989
1990
1990
1991
1991
1991
1990
1990
1989
1989
1989
1990
1990
1991
1991
1990
1990
1990
1990
1990
1991
1991
1992
1991
1991
1990
1990
1989
1988
1988
1989
1991
1992
1993
1993
1992
1990
1987
1985
1984
1984
1984
1985
1987
1988
1990
1991
1991
1990
1990
1990
1990
1991
1992
1993
1993
1993
1992
1991
1991
1990
1991
1993
1994
1994
1990
1981
1968
1956
1948
1948
1956
1969
1982
1992
1997
1997
1994
1992
1991
1992
1993
1994
1995
1995
1996
1996
1996
1996
1995
1994
1994
1994
1994
1994
1994
1993
1993
1992
1991
1991
1991
1992
1993
1993
1992
1991
1990
1990
1989
1988
1988
1988
1988
1988
1988
1988
1986
1984
1982
1981
1980
1980
1981
1981
1982
1981
1981
1980
1979
1979
1978
1978
1979
1980
1982
1984
1985
1986
1987
1988
1989
1992
1994
1996
1997
1996
1996
1995
1995
1995
1996
1997
1997
1997
1996
1996
1996
1996
1996
1996
1996
1996
1997
1997
1998
1998
1997
1997
1996
1996
1997
1997
1998
1998
1998
1998
1997
1998
1998
1999
1999
1998
1997
1997
1996
1997
1997
1998
1998
1999
1999
1999
1999
1999
1999
1999
1999
1998
1996
1995
1993
1992
1993
1994
1996
1999
2001
2001
2001
2001
2001
2001
2001
2002
2002
2002
2002
2002
2002
2001
2001
2001
2002
2002
2003
2002
1999
1991
1979
1967
1959
1959
1967
1980
1993
2003
2007
2007
2003
2000
1997
1997
1999
2000
2002
2001
2000
1999
1998
1997
1998
1998
1998
1999
1999
1999
1998
1996
1995
1993
1993
1993
1994
1995
1995
1995
1995
1994
1992
1991
1990
1990
1990
1990
1990
1990
1989
1987
1985
1983
1981
1980
1980
1980
1980
1979
1978
1977
1976
1976
1976
1976
1976
1977
1978
1978
1979
1979
1980
1982
1984
1986
1988
1990
1991
1992
1993
1992
1991
1991
1990
1991
1992
1992
1992
1991
1991
1990
1990
1990
1990
1989
1989
1990
1990
1991
1991
1991
1989
1988
1987
1987
1987
1988
1988
1988
1988
1987
1986
1986
1986
1986
1987
1987
1987
1986
1986
1985
1985
1984
1984
1984
1985
1986
1987
1988
1987
1986
1984
1983
1981
1980
1980
1980
1980
1981
1982
1983
1983
1984
1984
1985
1985
1985
1986
1985
1985
1985
1984
1984
1985
1985
1986
1986
1987
1988
1986
1982
1973
1961
1948
1939
1937
1943
1955
1969
1980
1986
1986
1984
1982
1982
1983
1985
1987
1987
1987
1986
1985
1985
1985
1986
1987
1987
1987
1986
1985
1984
1984
1984
1984
1984
1984
1984
1983
1983
1983
1982
1981
1981
1980
1980
1980
1980
1980
1979
1978
1977
1976
1975
1974
1974
1973
1973
1972
1972
1971
1971
1971
1970
1969
1968
1969
1969
1970
1971
1972
1973
1974
1975
1977
1978
1980
1982
1983
1985
1985
1985
1985
1985
1984
1985
1986
1987
1987
1987
1987
1986
1985
1985
1985
1985
1986
1987
1987
1987
1985
1984
1984
1983
1984
1984
1984
1985
1985
1985
1985
1984
1983
1983
1983
1984
1985
1986
1986
1985
1984
1984
1983
1983
1983
1984
1984
1985
1985
1986
1986
1986
1985
1984
1983
1983
1982
1981
1980
1979
1979
1979
1979
1981
1982
1984
1986
1986
1986
1986
1986
1985
1985
1985
1985
1985
1986
1987
1988
1989
1988
1988
1988
1987
1985
1978
1967
1953
1942
1936
1938
1948
1961
1973
1982
1986
1987
1986
1985
1986
1987
1988
1988
1988
1987
1987
1987
1987
1988
1989
1988
1987
1986
1985
1985
1985
1985
1985
1985
1985
1984
1983
1982
1981
1981
1982
1983
1983
1983
1981
1980
1979
1978
1977
1977
1977
1977
1976
1975
1974
1973
1972
1971
1971
1971
1970
1970
1970
1969
1968
1968
1968
1969
1970
1972
1973
1975
1976
1978
1979
1980
1980
1981
1982
1983
1984
1985
1985
1986
1986
1985
1985
1985
1985
1986
1986
1986
1986
1986
1985
1985
1985
1984
1984
1984
1985
1985
1985
1985
1986
1986
1986
1986
1985
1985
1985
1986
1987
1988
1988
1987
1986
1984
1984
1984
1984
1986
1987
1988
1988
1987
1986
1985
1985
1986
1986
1987
1987
1987
1986
1984
1982
1980
1979
1979
1980
1981
1983
1985
1986
1987
1987
1987
1987
1987
1988
1988
1988
1989
1988
1988
1987
1987
1987
1988
1989
1990
1990
1987
1979
1967
1954
1942
1938
1941
1952
1967
1980
1988
1991
1990
1988
1987
1986
1987
1988
1989
1990
1990
1990
1989
1988
1987
1986
1986
1987
1988
1988
1989
1988
1987
1985
1983
1983
1984
1985
1986
1987
1986
1985
1984
1982
1981
1981
1981
1981
1982
1981
1981
1980
1979
1977
1976
1975
1975
1975
1975
1975
1975
1975
1975
1974
1974
1973
1972
1972
1973
1975
1977
1979
1980
1981
1982
1983
1984
1986
1987
1989
1990
1991
1991
1991
1991
1990
1990
1990
1990
1990
1991
1992
1992
1992
1991
1990
1990
1991
1992
1992
1993
1992
1992
1991
1991
1991
1992
1992
1993
1993
1993
1993
1992
1992
1991
1991
1992
1993
1995
1995
1995
1993
1992
1992
1993
1994
1994
1995
1995
1995
1994
1992
1990
1988
1987
1987
1989
1991
1994
1996
1997
1997
1996
1995
1994
1995
1995
1996
1997
1998
1998
1998
1997
1997
1998
1998
1999
2000
2000
1998
1992
1982
1970
1961
1957
1961
1972
1985
1997
2004
2005
2003
2000
1997
1996
1997
1998
1999
1999
1999
1999
1998
1998
1997
1997
1996
1996
1997
1997
1998
1998
1998
1997
1996
1995
1994
1994
1995
1995
1995
1994
1993
1992
1992
1992
1992
1992
1991
1990
1989
1988
1987
1986
1985
1983
1982
1982
1982
1981
1981
1980
1979
1979
1978
1978
1978
1978
1979
1981
1983
1985
1986
1987
1987
1988
1988
1989
1990
1991
1992
1993
1993
1994
1994
1994
1994
1994
1994
1994
1994
1994
1993
1993
1992
1991
1991
1992
1993
1993
1993
1992
1991
1990
1990
1990
1990
1991
1991
1992
1992
1992
1992
1991
1990
1989
1989
1989
1990
1991
1992
1992
1991
1989
1987
1985
1983
1983
1983
1984
1985
1986
1987
1987
1988
1988
1989
1990
1991
1992
1992
1991
1991
1990
1990
1989
1990
1990
1990
1990
1990
1991
1991
1990
1985
1977
1966
1955
1949
1950
1958
1970
1982
1990
1993
1991
1989
1987
1987
1988
1990
1991
1991
1990
1989
1988
1988
1988
1988
1988
1988
1988
1988
1987
1986
1985
1984
1984
1985
1986
1986
1985
1985
1984
1983
1983
1983
1983
1982
1981
1981
1980
1980
1979
1979
1978
1977
1976
1975
1974
1974
1973
1972
1970
1969
1969
1969
1969
1969
1968
1968
1969
1970
1972
1973
1974
1976
1977
1979
1981
1983
1984
1984
1984
1984
1983
1983
1983
1984
1985
1986
1986
1986
1985
1984
1984
1984
1985
1986
1986
1986
1986
1986
1985
1985
1984
1983
1982
1982
1983
1983
1983
1983
1983
1983
1982
1981
1980
1980
1980
1980
1980
1980
1980
1980
1980
1979
1978
1977
1975
1973
1972
1971
1971
1971
1971
1971
1972
1974
1975
1976
1976
1975
1974
1973
1973
1973
1973
1974
1974
1974
1974
1974
1974
1975
1976
1977
1977
1973
1965
1954
1942
1932
1929
1933
1943
1955
1966
1973
1976
1975
1973
1972
1973
1973
1973
1973
1973
1973
1974
1975
1976
1976
1976
1975
1973
1972
1971
1972
1972
1973
1973
1972
1971
1970
1970
1970
1971
1971
1971
1971
1970
1969
1968
1967
1967
1966
1966
1965
1965
1965
1965
1964
1962
1961
1959
1959
1958
1959
1959
1960
1960
1960
1959
1958
1957
1957
1958
1960
1962
1964
1966
1967
1968
1969
1970
1970
1971
1972
1973
1975
1976
1976
1976
1975
1973
1972
1972
1972
1973
1974
1975
1975
1976
1975
1974
1973
1973
1973
1975
1976
1976
1975
1973
1972
1972
1973
1975
1976
1977
1976
1975
1974
1974
1974
1974
1974
1975
1976
1976
1977
1977
1977
1977
1976
1976
1976
1976
1976
1976
1975
1974
1972
1971
1969
1968
1969
1971
1974
1977
1979
1979
1979
1978
1977
1976
1977
1977
1978
1979
1980
1980
1979
1979
1979
1979
1980
1981
1980
1977
1969
1957
1942
1931
1927
1932
1944
1959
1971
1979
1982
1982
1981
1980
1979
1979
1979
1979
1980
1981
1982
1982
1982
1981
1981
1981
1981
1981
1981
1981
1980
1980
1979
1979
1979
1979
1979
1978
1978
1977
1977
1978
1978
1977
1976
1975
1974
1973
1974
1974
1974
1974
1974
1972
1971
1969
1968
1967
1967
1967
1967
1966
1966
1965
1965
1965
1966
1967
1968
1969
1970
1971
1973
1974
1975
1976
1977
1978
1980
1981
1982
1982
1981
1981
1980
1980
1980
1980
1981
1981
1982
1982
1981
1981
1980
1979
1979
1979
1980
1980
1980
1980
1979
1979
1979
1979
1980
1980
1980
1979
1979
1980
1981
1982
1982
1982
1981
1980
1980
1980
1980
1980
1980
1980
1979
1979
1979
1979
1980
1981
1981
1982
1982
1981
1979
1977
1976
1975
1975
1975
1976
1977
1978
1979
1980
1980
1981
1980
1980
1981
1982
1983
1983
1982
1981
1980
1980
1980
1981
1982
1984
1985
1985
1981
1973
1960
1946
1934
1929
1933
1944
1957
1970
1978
1981
1981
1979
1978
1979
1982
1984
1985
1985
1984
1983
1983
1983
1984
1984
1983
1982
1981
1981
1980
1980
1980
1981
1981
1981
1982
1981
1980
1978
1977
1976
1976
1976
1976
1977
1977
1977
1976
1976
1975
1974
1972
1971
1969
1969
1968
1968
1968
1968
1968
1968
1967
1966
1966
1965
1965
1966
1966
1967
1969
1970
1970
1971
1973
1975
1977
1979
1980
1981
1981
1980
1980
1980
1980
1981
1982
1983
1983
1983
1983
1982
1982
1982
1982
1982
1982
1982
1982
1983
1983
1982
1982
1982
1982
1983
1983
1983
1982
1982
1982
1982
1982
1982
1982
1983
1983
1984
1985
1984
1984
1983
1982
1982
1982
1982
1982
1983
1983
1983
1983
1983
1982
1982
1982
1982
1983
1982
1982
1980
1979
1977
1976
1977
1978
1980
1982
1983
1984
1984
1983
1983
1983
1983
1984
1984
1985
1985
1984
1984
1983
1982
1982
1983
1985
1987
1988
1986
1979
1968
1954
1943
1939
1943
1953
1967
1980
1988
1990
1989
1986
1983
1982
1983
1984
1986
1987
1988
1988
1987
1986
1986
1985
1985
1986
1986
1986
1987
1987
1986
1985
1984
1983
1983
1984
1985
1986
1986
1986
1984
1983
1981
1981
1981
1981
1982
1981
1981
1980
1979
1978
1976
1975
1974
1974
1974
1974
1974
1974
1974
1974
1974
1974
1974
1973
1973
1974
1975
1977
1978
1980
1982
1983
1984
1985
1986
1987
1987
1988
1989
1990
1990
1990
1991
1991
1990
1990
1990
1990
1990
1990
1991
1991
1991
1991
1992
1992
1992
1991
1990
1990
1989
1988
1988
1989
1990
1992
1992
1992
1992
1991
1990
1990
1990
1991
1992
1993
1993
1992
1991
1991
1990
1990
1990
1991
1991
1992
1991
1990
1989
1987
1985
1984
1984
1984
1986
1988
1991
1992
1993
1993
1993
1992
1992
1991
1991
1991
1992
1991
1991
1990
1990
1989
1990
1991
1992
1992
1989
1983
1973
1961
1952
1948
1952
1963
1977
1988
1995
1997
1994
1991
1988
1986
1987
1988
1989
1990
1990
1990
1989
1988
1987
1986
1986
1986
1986
1987
1987
1987
1987
1986
1985
1984
1984
1984
1984
1984
1984
1983
1983
1982
1982
1981
1980
1978
1977
1977
1977
1977
1976
1975
1972
1970
1968
1967
1968
1968
1968
1968
1967
1967
1966
1966
1966
1966
1966
1966
1966
1967
1970
1972
1974
1976
1977
1978
1979
1979
1980
1980
1979
1979
1979
1980
1980
1980
1981
1981
1981
1981
1981
1980
1981
1981
1981
1980
1980
1979
1979
1980
1980
1979
1978
1976
1976
1976
1977
1978
1979
1978
1978
1977
1976
1976
1976
1976
1976
1977
1978
1978
1979
1979
1978
1976
1975
1974
1975
1976
1977
1978
1977
1976
1975
1974
1973
1972
1972
1972
1972
1973
1974
1976
1976
1976
1976
1976
1976
1977
1978
1978
1978
1977
1977
1977
1977
1977
1978
1978
1979
1980
1981
1979
1972
1961
1946
1934
1928
1930
1940
1954
1967
1975
1977
1977
1976
1975
1976
1978
1979
1980
1980
1979
1978
1977
1977
1978
1978
1978
1978
1978
1978
1978
1977
1977
1977
1976
1976
1976
1976
1976
1975
1974
1974
1973
1972
1972
1972
1972
1972
1972
1972
1971
1970
1969
1968
1968
1968
1967
1966
1966
1965
1965
1964
1963
1962
1961
1961
1962
1963
1964
1964
1964
1965
1966
1968
1970
1972
1974
1975
1976
1977
1977
1977
1977
1977
1978
1978
1978
1978
1978
1979
1979
1979
1979
1978
1977
1977
1978
1978
1979
1979
1979
1979
1977
1976
1975
1975
1976
1978
1979
1980
1979
1978
1978
1978
1978
1979
1979
1979
1978
1978
1977
1977
1976
1976
1977
1978
1978
1978
1978
1978
1978
1978
1978
1978
1978
1978
1978
1979
1979
1980
1980
1980
1979
1978
1976
1974
1973
1973
1973
1974
1975
1976
1977
1978
1978
1978
1979
1979
1979
1980
1980
1980
1980
1980
1980
1979
1979
1979
1980
1980
1981
1982
1981
1975
1965
1952
1939
1931
1930
1937
1949
1962
1972
1978
1979
1979
1979
1979
1981
1982
1982
1981
1980
1979
1979
1981
1982
1983
1983
1982
1981
1979
1979
1978
1978
1979
1979
1980
1980
1979
1978
1977
1977
1977
1977
1977
1977
1976
1976
1975
1974
1974
1973
1971
1971
1970
1970
1970
1970
1970
1969
1969
1968
1968
1967
1966
1965
1965
1964
1964
1965
1965
1966
1967
1969
1971
1973
1975
1976
1978
1979
1979
1980
1980
1981
1981
1981
1982
1982
1983
1983
1983
1982
1982
1982
1982
1983
1983
1983
1983
1982
1981
1980
1980
1980
1981
1982
1982
1983
1982
1982
1981
1981
1981
1981
1982
1982
1982
1982
1982
1982
1981
1981
1980
1981
1981
1982
1983
1984
1984
1984
1983
1983
1982
1982
1981
1981
1982
1983
1984
1984
1984
1983
1982
1981
1981
1982
1983
1984
1984
1984
1983
1983
1982
1981
1980
1979
1978
1977
1977
1978
1979
1981
1982
1983
1983
1983
1984
1985
1985
1985
1985
1984
1983
1982
1982
1982
1983
1983
1984
1985
1986
1985
1980
1972
1959
1946
1938
1937
1944
1956
1969
1979
1984
1985
1984
1983
1983
1984
1986
1986
1986
1986
1986
1986
1986
1986
1986
1986
1985
1984
1983
1983
1983
1984
1985
1986
1986
1986
1985
1984
1983
1982
1981
1981
1981
1982
1982
1982
1982
1981
1979
1978
1978
1977
1977
1976
1976
1976
1975
1975
1974
1973
1972
1971
1971
1971
1971
1972
1973
1973
1973
1974
1975
1976
1978
1980
1983
1985
1986
1987
1987
1986
1986
1986
1987
1988
1989
1989
1990
1990
1989
1989
1989
1989
1990
1991
1992
1992
1992
1992
1992
1992
1992
1991
1990
1990
1991
1991
1992
1991
1991
1990
1990
1990
1991
1991
1991
1991
1990
1990
1990
1990
1990
1991
1992
1993
1993
1993
1993
1992
1991
1990
1990
1990
1991
1992
1993
1994
1994
1994
1993
1992
1991
1990
1989
1988
1988
1988
1989
1990
1991
1991
1992
1992
1992
1993
1994
1995
1996
1995
1994
1993
1993
1993
1993
1993
1993
1994
1995
1996
1997
1997
1993
1986
1976
1965
1957
1956
1961
1971
1982
1991
1997
1998
1997
1996
1995
1994
1994
1993
1993
1992
1992
1992
1993
1994
1995
1995
1994
1993
1992
1991
1991
1990
1991
1991
1991
1991
1991
1990
1990
1988
1988
1987
1987
1988
1988
1988
1987
1986
1985
1984
1983
1982
1982
1981
1980
1979
1978
1977
1977
1976
1976
1975
1975
1974
1974
1973
1973
1973
1973
1974
1974
1975
1976
1979
1982
1984
1985
1986
1985
1985
1985
1986
1987
1988
1989
1989
1989
1988
1988
1988
1989
1989
1989
1988
1988
1987
1987
1987
1987
1987
1986
1986
1986
1986
1986
1987
1987
1987
1986
1985
1984
1983
1984
1984
1985
1985
1985
1985
1984
1984
1984
1984
1984
1984
1984
1985
1985
1985
1984
1983
1982
1982
1982
1982
1983
1984
1983
1983
1981
1979
1977
1975
1975
1975
1976
1978
1979
1979
1980
1980
1980
1981
1982
1983
1983
1983
1983
1982
1981
1980
1980
1980
1980
1980
1981
1982
1983
1982
1978
1970
1958
1946
1937
1936
1942
1954
1967
1977
1982
1982
1980
1978
1977
1979
1980
1981
1982
1982
1981
1980
1980
1979
1979
1980
1980
1980
1979
1978
1976
1975
1975
1976
1977
1978
1978
1978
1977
1976
1975
1974
1973
1973
1973
1974
1974
1974
1973
1972
1970
1969
1968
1967
1967
1967
1967
1967
1967
1965
1964
1963
1962
1962
1962
1962
1962
1962
1962
1963
1964
1966
1968
1970
1972
1974
1975
1976
1977
1977
1977
1977
1977
1978
1978
1979
1980
1981
1981
1981
1980
1979
1978
1978
1977
1978
1978
1979
1980
1980
1979
1978
1978
1977
1978
1979
1980
1980
1980
1980
1979
1977
1976
1976
1977
1978
1979
1980
1980
1979
1979
1978
1978
1979
1979
1980
1980
1979
1979
1978
1978
1978
1979
1979
1979
1980
1980
1980
1979
1979
1978
1978
1978
1979
1979
1980
1981
1981
1980
1978
1977
1975
1974
1974
1973
1973
1974
1975
1977
1978
1979
1978
1978
1978
1978
1979
1980
1980
1981
1980
1979
1978
1978
1978
1979
1980
1982
1984
1984
1982
1976
1965
1951
1938
1930
1930
1937
1950
1964
1974
1979
1980
1980
1979
1979
1980
1982
1982
1982
1981
1981
1980
1980
1981
1981
1982
1982
1982
1982
1981
1981
1980
1979
1979
1979
1979
1980
1980
1980
1979
1977
1976
1975
1975
1975
1975
1976
1976
1975
1974
1973
1972
1971
1970
1970
1969
1969
1969
1969
1968
1966
1965
1964
1964
1965
1965
1966
1967
1967
1967
1967
1968
1969
1970
1972
1974
1976
1977
1978
1978
1978
1978
1978
1979
1980
1981
1981
1981
1981
1980
1980
1980
1980
1979
1979
1979
1980
1980
1981
1981
1981
1980
1980
1979
1980
1980
1980
1980
1980
1979
1979
1978
1978
1979
1980
1980
1981
1981
1981
1980
1980
1980
1980
1980
1980
1981
1981
1981
1980
1979
1979
1978
1978
1979
1979
1980
1980
1981
1981
1981
1981
1981
1980
1980
1979
1979
1978
1977
1976
1975
1974
1974
1974
1976
1978
1980
1981
1982
1982
1981
1981
1980
1979
1979
1980
1981
1981
1982
1982
1982
1981
1982
1983
1984
1982
1977
1967
1954
1941
1932
1931
1939
1952
1966
1976
1982
1983
1983
1982
1982
1982
1983
1983
1983
1983
1983
1984
1984
1984
1983
1982
1982
1982
1982
1982
1983
1983
1983
1982
1982
1981
1981
1980
1980
1981
1982
1983
1983
1982
1979
1977
1975
1974
1973
1973
1973
1973
1973
1973
1973
1972
1970
1970
1970
1971
1972
1971
1969
1967
1966
1966
1967
1968
1969
1970
1971
1972
1973
1975
1977
1978
1978
1979
1980
1981
1981
1982
1983
1984
1985
1986
1987
1987
1987
1987
1987
1986
1985
1983
1982
1982
1983
1984
1985
1985
1985
1983
1982
1980
1980
1980
1980
1981
1981
1981
1981
1981
1982
1984
1985
1985
1984
1983
1980
1979
1978
1979
1980
1981
1981
1980
1979
1978
1978
1978
1979
1980
1981
1981
1981
1980
1978
1976
1974
1972
1971
1971
1972
1972
1974
1975
1976
1976
1976
1976
1976
1977
1978
1978
1978
1977
1976
1976
1976
1976
1977
1977
1976
1976
1976
1977
1976
1973
1966
1955
1943
1935
1934
1941
1954
1967
1977
1982
1981
1979
1976
1975
1976
1978
1978
1978
1977
1977
1977
1977
1978
1978
1977
1977
1977
1977
1977
1976
1976
1976
1976
1976
1977
1976
1976
1975
1974
1974
1973
1973
1973
1972
1971
1971
1969
1968
1967
1966
1966
1967
1966
1965
1964
1962
1960
1959
1958
1957
1956
1955
1954
1952
1950
1948
1947
1946
1945
1944
1943
1942
1942
1942
1941
1941
1939
1937
1935
1934
1933
1932
1931
1929
1926
1924
1923
1924
1926
1926
1924
1921
1919
1917
1917
1918
1918
1919
1919
1919
1919
1919
1919
1920
1921
1922
1923
1923
1923
1923
1923
1924
1924
1926
1927
1927
1927
1928
1928
1928
1928
1928
1928
1929
1931
1932
1932
1932
1931
1931
1930
1930
1931
1931
1933
1934
1935
1936
1937
1938
1940
1942
1944
1945
1944
1944
1943
1944
1945
1946
1946
1947
1947
1948
1948
1949
1949
1948
1946
1942
1935
1927
1919
1916
1918
1925
1935
1944
1950
1952
1953
1953
1953
1954
1954
1954
1953
1952
1950
1949
1949
1950
1953
1956
1958
1958
1957
1955
1955
1955
1955
1955
1956
1956
1956
1957
1956
1956
1955
1955
1956
1956
1957
1957
1956
1956
1956
1955
1955
1954
1954
1954
1954
1954
1953
1952
1952
1952
1952
1951
1950
1950
1950
1950
1951
1952
1952
1953
1954
1954
1955
1957
1958
1960
1962
1964
1965
1966
1966
1966
1967
1968
1969
1969
1969
1969
1968
1967
1967
1967
1968
1968
1968
1967
1966
1965
1964
1963
1963
1963
1963
1964
1964
1965
1966
1968
1968
1967
1966
1965
1965
1967
1969
1970
1970
1969
1967
1966
1965
1965
1966
1967
1968
1969
1970
1971
1971
1971
1971
1969
1966
1963
1960
1959
1959
1961
1963
1964
1964
1963
1962
1962
1963
1964
1965
1966
1965
1964
1964
1965
1967
1968
1969
1968
1967
1965
1960
1953
1944
1935
1931
1933
1941
1952
1962
1968
1969
1968
1965
1963
1963
1964
1966
1966
1967
1967
1967
1966
1964
1963
1961
1960
1961
1961
1962
1963
1963
1962
1960
1958
1957
1957
1958
1958
1959
1958
1957
1956
1956
1956
1956
1956
1956
1957
1957
1958
1958
1957
1957
1957
1957
1958
1958
1958
1957
1957
1956
1954
1953
1952
1952
1953
1955
1957
1959
1959
1959
1958
1959
1960
1962
1964
1965
1966
1967
1967
1967
1967
1967
1967
1966
1966
1966
1965
1965
1965
1965
1965
1963
1961
1960
1959
1959
1960
1962
1963
1963
1962
1960
1958
1956
1957
1958
1959
1960
1960
1960
1960
1960
1960
1960
1960
1960
1959
1959
1959
1959
1958
1957
1956
1955
1955
1955
1955
1955
1954
1954
1953
1954
1955
1957
1958
1958
1959
1959
1960
1960
1958
1957
1955
1955
1956
1957
1958
1958
1958
1957
1957
1957
1957
1956
1952
1944
1934
1924
1918
1919
1925
1935
1944
1951
1954
1953
1952
1951
1950
1950
1949
1949
1950
1950
1951
1952
1952
1951
1951
1952
1952
1952
1952
1952
1952
1952
1952
1952
1952
1952
1952
1952
1952
1953
1953
1953
1954
1955
1955
1955
1954
1953
1952
1951
1951
1951
1952
1952
1953
1953
1952
1951
1949
1949
1949
1950
1950
1950
1950
1951
1951
1952
1953
1954
1956
1959
1962
1965
1967
1968
1969
1969
1969
1969
1970
1971
1972
1973
1973
1973
1972
1971
1971
1972
1974
1976
1979
1980
1979
1977
1975
1973
1972
1973
1974
1975
1976
1977
1976
1976
1975
1974
1975
1977
1979
1980
1980
1979
1979
1978
1978
1979
1979
1979
1979
1979
1980
1980
1980
1979
1977
1976
1974
1974
1974
1975
1977
1978
1979
1980
1980
1980
1980
1980
1981
1982
1982
1982
1981
1981
1981
1980
1980
1980
1981
1982
1983
1984
1984
1984
1980
1972
1960
1948
1940
1937
1943
1954
1967
1977
1981
1982
1980
1978
1978
1980
1982
1984
1984
1983
1982
1981
1980
1981
1981
1981
1981
1980
1979
1977
1976
1975
1974
1974
1975
1976
1976
1976
1975
1974
1973
1973
1973
1972
1972
1971
1972
1972
1972
1971
1969
1967
1966
1966
1966
1966
1966
1965
1964
1962
1961
1960
1959
1959
1959
1959
1960
1961
1962
1962
1962
1962
1962
1963
1965
1967
1968
1968
1968
1968
1968
1968
1968
1968
1969
1969
1970
1971
1970
1969
1969
1968
1969
1969
1970
1970
1970
1969
1969
1970
1970
1970
1970
1969
1969
1969
1970
1971
1971
1971
1970
1969
1969
1968
1968
1968
1969
1969
1970
1971
1971
1971
1972
1972
1972
1972
1972
1972
1973
1973
1973
1972
1972
1971
1971
1971
1972
1972
1973
1972
1971
1970
1967
1965
1965
1965
1967
1968
1970
1970
1971
1971
1972
1973
1974
1974
1973
1973
1973
1972
1971
1971
1970
1970
1970
1971
1972
1973
1974
1974
1971
1964
1953
1940
1928
1921
1922
1931
1944
1957
1966
1970
1971
1971
1971
1972
1973
1975
1976
1976
1976
1976
1975
1974
1974
1975
1975
1975
1975
1975
1974
1974
1974
1975
1975
1976
1976
1975
1975
1975
1974
1974
1973
1973
1973
1973
1973
1973
1972
1971
1970
1969
1969
1969
1969
1969
1968
1967
1966
1965
1964
1964
1964
1963
1963
1963
1963
1963
1964
1964
1964
1965
1966
1967
1969
1971
1972
1973
1974
1976
1976
1977
1977
1977
1977
1977
1978
1978
1978
1978
1977
1977
1977
1977
1977
1978
1979
1980
1979
1979
1979
1979
1979
1980
1980
1981
1982
1982
1981
1980
1979
1979
1980
1980
1981
1981
1982
1982
1982
1982
1981
1981
1980
1980
1981
1981
1982
1982
1982
1981
1981
1980
1980
1981
1982
1983
1983
1984
1983
1982
1981
1981
1981
1981
1982
1983
1983
1983
1982
1981
1981
1981
1981
1981
1982
1983
1983
1984
1983
1982
1981
1979
1977
1975
1974
1975
1975
1977
1978
1979
1980
1981
1982
1982
1983
1983
1983
1983
1982
1983
1983
1983
1984
1984
1984
1985
1986
1987
1987
1983
1974
1962
1948
1936
1931
1934
1945
1959
1972
1981
1985
1985
1984
1984
1985
1986
1987
1987
1986
1985
1985
1984
1984
1984
1985
1986
1986
1986
1985
1984
1983
1982
1982
1983
1983
1984
1984
1984
1984
1984
1983
1982
1981
1981
1980
1980
1980
1980
1979
1977
1976
1975
1975
1975
1974
1974
1973
1972
1970
1970
1970
1970
1970
1969
1969
1969
1969
1969
1970
1970
1971
1972
1973
1975
1977
1978
1980
1981
1983
1983
1983
1983
1981
1981
1982
1983
1985
1986
1986
1986
1985
1984
1984
1984
1984
1984
1984
1985
1985
1985
1984
1983
1982
1981
1981
1982
1983
1984
1984
1984
1983
1983
1982
1983
1983
1984
1984
1985
1984
1984
1983
1983
1983
1983
1983
1983
1983
1983
1983
1983
1983
1983
1983
1983
1983
1983
1983
1983
1983
1983
1983
1983
1983
1983
1983
1983
1983
1983
1983
1983
1983
1983
1983
1983
1983
1983
1984
1984
1984
1985
1984
1983
1981
1980
1979
1978
1978
1978
1978
1979
1980
1981
1982
1983
1984
1985
1986
1986
1986
1986
1987
1987
1987
1986
1986
1985
1985
1986
1988
1989
1988
1984
1975
1962
1948
1938
1935
1940
1952
1965
1977
1983
1986
1985
1985
1986
1987
1989
1989
1989
1989
1988
1987
1987
1986
1986
1987
1988
1988
1987
1986
1985
1985
1984
1985
1985
1986
1986
1986
1984
1983
1983
1983
1983
1984
1983
1982
1981
1981
1980
1980
1980
1979
1978
1977
1976
1976
1976
1976
1975
1973
1971
1970
1970
1970
1971
1972
1972
1972
1972
1972
1972
1974
1975
1977
1978
1980
1982
1983
1984
1985
1985
1984
1983
1984
1985
1987
1989
1991
1991
1991
1990
1988
1987
1987
1987
1988
1989
1990
1990
1989
1987
1986
1986
1987
1989
1990
1991
1990
1989
1988
1987
1987
1987
1988
1988
1989
1990
1990
1989
1988
1988
1988
1989
1991
1992
1992
1993
1993
1992
1992
1992
1992
1992
1992
1993
1993
1992
1992
1991
1991
1991
1991
1992
1993
1993
1992
1992
1991
1991
1992
1992
1992
1992
1992
1991
1990
1989
1988
1987
1986
1987
1988
1990
1992
1993
1993
1993
1993
1993
1994
1994
1993
1993
1993
1993
1993
1993
1993
1993
1993
1993
1993
1994
1992
1987
1978
1967
1957
1953
1955
1963
1974
1984
1991
1994
1995
1995
1994
1994
1993
1992
1992
1992
1992
1992
1993
1993
1993
1993
1993
1992
1991
1990
1990
1990
1991
1991
1990
1990
1990
1990
1989
1989
1988
1987
1987
1987
1986
1986
1986
1985
1985
1985
1984
1983
1982
1981
1980
1979
1978
1977
1976
1976
1977
1978
1978
1978
1976
1974
1972
1971
1972
1973
1976
1978
1980
1981
1982
1982
1983
1984
1985
1986
1987
1988
1989
1990
1990
1990
1990
1989
1989
1989
1990
1990
1991
1991
1990
1989
1988
1987
1987
1986
1986
1987
1988
1988
1989
1988
1987
1986
1985
1985
1985
1986
1986
1987
1987
1986
1985
1984
1983
1983
1984
1985
1986
1986
1986
1986
1986
1985
1985
1985
1985
1986
1986
1986
1986
1986
1986
1985
1984
1984
1984
1984
1985
1986
1985
1984
1982
1980
1979
1979
1979
1980
1982
1984
1985
1985
1985
1983
1982
1982
1983
1985
1987
1987
1987
1986
1984
1983
1982
1983
1984
1986
1987
1987
1986
1981
1971
1959
1947
1939
1939
1947
1960
1973
1982
1986
1987
1985
1983
1982
1982
1983
1984
1985
1985
1984
1983
1983
1982
1982
1982
1982
1982
1982
1982
1981
1980
1979
1978
1978
1978
1979
1980
1980
1980
1979
1978
1977
1976
1976
1976
1976
1976
1976
1974
1973
1972
1971
1970
1969
1968
1968
1968
1968
1968
1967
1965
1964
1964
1964
1965
1965
1965
1965
1964
1965
1966
1968
1970
1971
1974
1976
1977
1978
1977
1977
1976
1976
1977
1978
1979
1980
1980
1981
1981
1981
1980
1978
1977
1976
1976
1977
1978
1978
1978
1978
1978
1977
1976
1975
1975
1975
1976
1977
1977
1977
1977
1976
1976
1976
1977
1978
1979
1979
1978
1977
1975
1975
1975
1975
1976
1977
1978
1978
1978
1978
1978
1977
1976
1975
1975
1976
1976
1977
1978
1978
1977
1976
1976
1975
1976
1977
1978
1979
1979
1977
1975
1974
1972
1972
1972
1971
1971
1970
1970
1970
1971
1972
1973
1973
1974
1974
1975
1975
1975
1975
1974
1973
1972
1971
1971
1972
1972
1973
1974
1975
1974
1969
1959
1946
1933
1925
1923
1930
1942
1955
1965
1969
1971
1970
1970
1970
1970
1971
1971
1970
1970
1969
1968
1968
1968
1968
1969
1968
1967
1967
1966
1966
1967
1967
1967
1967
1966
1965
1964
1963
1962
1962
1962
1962
1963
1963
1963
1962
1960
1959
1958
1956
1955
1955
1954
1954
1954
1953
1952
1951
1949
1948
1947
1948
1949
1950
1950
1949
1948
1948
1950
1953
1954
1955
1954
1953
1955
1957
1960
1962
1962
1962
1962
1962
1964
1965
1966
1967
1967
1966
1965
1965
1965
1964
1964
1965
1966
1967
1967
1968
1968
1967
1967
1966
1966
1966
1966
1966
1966
1965
1964
1964
1965
1966
1966
1967
1967
1967
1966
1966
1966
1966
1965
1965
1966
1966
1967
1967
1967
1967
1967
1968
1968
1968
1966
1965
1964
1964
1965
1966
1966
1966
1965
1964
1965
1965
1966
1967
1967
1967
1966
1965
1963
1962
1961
1961
1962
1964
1967
1969
1970
1969
1969
1969
1970
1971
1971
1970
1969
1968
1968
1968
1969
1969
1970
1971
1971
1972
1972
1969
1962
1950
1937
1925
1920
1922
1933
1947
1960
1969
1973
1973
1972
1971
1972
1974
1975
1976
1976
1975
1974
1973
1973
1975
1976
1976
1975
1974
1973
1972
1972
1973
1973
1973
1974
1974
1974
1974
1973
1972
1971
1970
1970
1970
1971
1972
1971
1970
1969
1968
1967
1966
1966
1966
1965
1965
1964
1963
1962
1961
1960
1960
1960
1960
1960
1961
1962
1963
1963
1963
1963
1964
1965
1967
1968
1970
1972
1974
1975
1977
1978
1978
1978
1977
1976
1976
1977
1978
1979
1979
1978
1978
1977
1977
1978
1978
1978
1978
1977
1977
1977
1978
1978
1979
1979
1979
1979
1979
1979
1979
1978
1978
1978
1978
1978
1980
1981
1981
1981
1980
1979
1979
1978
1978
1979
1980
1981
1981
1981
1980
1979
1978
1979
1980
1981
1982
1982
1983
1982
1982
1981
1980
1980
1980
1980
1981
1981
1981
1981
1980
1978
1976
1974
1974
1973
1974
1976
1977
1979
1979
1979
1978
1978
1979
1981
1983
1983
1983
1982
1980
1979
1979
1978
1978
1978
1979
1980
1981
1980
1975
1966
1953
1940
1930
1927
1933
1945
1959
1971
1979
1981
1981
1979
1978
1979
1980
1981
1981
1981
1980
1979
1977
1976
1976
1977
1979
1980
1980
1979
1978
1976
1974
1973
1973
1974
1975
1976
1977
1977
1976
1976
1975
1975
1974
1973
1973
1972
1972
1971
1971
1970
1969
1968
1966
1964
1963
1963
1964
1966
1967
1967
1964
1961
1959
1958
1959
1960
1962
1963
1963
1963
1964
1965
1967
1970
1973
1975
1977
1977
1977
1975
1974
1974
1974
1976
1977
1978
1978
1977
1976
1975
1975
1976
1978
1978
1978
1977
1977
1977
1977
1978
1979
1980
1980
1980
1980
1981
1981
1982
1982
1981
1979
1978
1977
1977
1977
1975
1973
1973
1973
1974
1976
1977
1978
1980
1982
1985
1987
1988
1988
1986
1985
1985
1985
1985
1985
1985
1985
1983
1980
1978
1976
1974
1974
1974
1975
1976
1977
1978
1980
1981
1981
1980
1979
1978
1977
1978
1979
1981
1982
1983
1983
1984
1984
1985
1985
1984
1984
1982
1977
1968
1954
1939
1928
1925
1931
1946
1963
1975
1980
1978
1974
1971
1972
1976
1980
1983
1984
1983
1981
1979
1977
1976
1975
1976
1976
1977
1977
1977
1977
1977
1977
1977
1978
1979
1979
1978
1976
1973
1971
1970
1970
1971
1972
1973
1972
1971
1970
1968
1968
1968
1968
1970
1971
1971
1969
1967
1964
1963
1962
1963
1964
1965
1965
1964
1964
1963
1962
1962
1962
1963
1966
1969
1974
1978
1982
1984
1984
1984
1983
1983
1981
1980
1977
1975
1975
1977
1980
1985
1990
1992
1992
1991
1990
1991
1992
1992
1991
1989
1986
1985
1985
1986
1987
1989
1990
1992
1994
1996
1998
1998
1996
1994
1991
1990
1991
1993
1995
1997
1998
1998
1997
1996
1995
1995
1996
1998
1998
1998
1997
1996
1996
1996
1995
1993
1992
1991
1993
1996
2000
2002
2003
2003
2002
2001
2000
2000
2000
2001
2001
2002
2004
2005
2007
2007
2007
2005
2003
2001
1999
1997
1992
1985
1977
1970
1969
1974
1985
1997
2007
2011
2010
2006
2002
2001
2004
2009
2012
2012
2010
2008
2009
2012
2014
2016
2015
2014
2012
2010
2008
2005
2004
2004
2006
2010
2012
2011
2009
2005
2001
2001
2002
2006
2010
2012
2012
2010
2008
2005
2004
2002
2001
2000
1999
1998
1996
1994
1993
1992
1992
1993
1994
1995
1994
1993
1993
1993
1995
1997
1998
1999
1999
1999
2000
2002
2003
2004
2003
2003
2003
2004
2005
2006
2006
2006
2006
2006
2007
2008
2009
2009
2008
2008
2007
2007
2007
2006
2006
2006
2006
2005
2004
2003
2002
2002
2002
2003
2004
2005
2004
2003
2002
2001
2001
2002
2003
2003
2003
2003
2002
2001
2001
2000
2000
2001
2001
2002
2002
2001
1999
1998
1996
1995
1994
1994
1995
1996
1998
2000
2001
2001
2001
2000
2000
2001
2002
2002
2002
2002
2002
2002
2001
2001
2001
2002
2002
2003
2004
2004
2001
1993
1982
1970
1961
1959
1966
1978
1990
2000
2005
2005
2004
2003
2002
2003
2004
2005
2006
2005
2004
2003
2002
2002
2002
2002
2003
2003
2003
2003
2002
2000
1999
1999
1998
1998
1999
1999
1999
1998
1997
1996
1995
1994
1994
1995
1995
1995
1995
1995
1993
1992
1991
1989
1988
1988
1988
1987
1987
1986
1984
1983
1982
1981
1980
1980
1980
1980
1980
1981
1981
1982
1983
1986
1988
1991
1992
1992
1992
1992
1993
1992
1992
1992
1992
1993
1993
1993
1993
1992
1990
1989
1988
1989
1990
1991
1992
1992
1992
1991
1990
1989
1988
1988
1988
1989
1990
1990
1989
1988
1987
1986
1985
1985
1984
1985
1985
1986
1986
1985
1984
1982
1981
1980
1980
1980
1981
1982
1983
1983
1983
1982
1981
1981
1980
1980
1980
1978
1976
1974
1973
1972
1973
1975
1977
1978
1979
1980
1980
1980
1979
1979
1978
1977
1978
1979
1981
1982
1983
1984
1983
1983
1983
1981
1978
1971
1961
1948
1935
1928
1929
1937
1950
1961
1970
1974
1975
1976
1977
1977
1978
1978
1977
1977
1978
1978
1977
1976
1976
1975
1975
1975
1974
1974
1974
1973
1973
1974
1975
1975
1973
1968
1962
1957
1955
1956
1960
1963
1964
1963
1961
1958
1956
1953
1951
1950
1949
1948
1946
1943
1938
1934
1932
1932
1935
1939
1942
1943
1940
1935
1929
1924
1920
1918
1916
1916
1916
1915
1915
1915
1917
1920
1924
1928
1930
1929
1926
1922
1918
1915
1913
1910
1909
1909
1909
1910
1909
1907
1905
1903
1902
1900
1899
1900
1904
1908
1913
1915
1914
1911
1909
1908
1908
1906
1902
1898
1894
1894
1896
1900
1904
1907
1909
1909
1908
1907
1905
1906
1909
1914
1916
1914
1906
1899
1895
1898
1907
1915
1919
1916
1912
1909
1909
1911
1913
1913
1913
1913
1913
1913
1913
1914
1918
1925
1932
1935
1935
1932
1929
1926
1925
1925
1926
1928
1933
1938
1941
1943
1944
1944
1942
1935
1922
1907
1897
1898
1911
1930
1948
1960
1964
1963
1961
1958
1958
1960
1964
1969
1974
1978
1980
1980
1980
1982
1986
1989
1991
1990
1989
1989
1990
1992
1993
1992
1991
1990
1994
2002
2011
2017
2017
2013
2007
2003
2001
2002
2004
2006
2007
2007
2006
2005
2004
2004
2005
2007
2011
2014
2016
2016
2013
2010
2008
2007
2006
2006
2006
2006
2006
2007
2009
2011
2013
2013
2013
2013
2015
2019
2025
2030
2032
2030
2027
2022
2020
2018
2019
2020
2020
2020
2019
2018
2019
2020
2021
2021
2021
2022
2022
2023
2023
2022
2020
2017
2016
2017
2017
2017
2016
2015
2013
2012
2010
2010
2012
2015
2018
2020
2020
2018
2016
2014
2015
2016
2017
2016
2014
2010
2008
2007
2008
2010
2012
2013
2013
2012
2011
2010
2010
2012
2014
2018
2020
2021
2019
2015
2013
2011
2010
2011
2012
2014
2016
2018
2019
2019
2018
2015
2009
2002
1994
1987
1985
1986
1991
1997
2005
2012
2017
2018
2018
2016
2014
2014
2016
2017
2016
2015
2013
2012
2012
2011
2010
2008
2005
2004
2004
2006
2009
2009
2008
2004
2001
1998
1998
1999
2001
2003
2003
2002
2000
1997
1995
1992
1990
1986
1985
1986
1989
1992
1993
1990
1985
1981
1979
1979
1981
1982
1981
1980
1978
1976
1974
1971
1968
1966
1965
1966
1969
1973
1975
1975
1975
1976
1980
1984
1989
1991
1991
1989
1986
1985
1986
1987
1987
1985
1981
1976
1972
1972
1975
1978
1980
1980
1980
1979
1979
1979
1979
1978
1977
1976
1976
1977
1979
1981
1981
1980
1978
1977
1976
1977
1978
1978
1979
1979
1979
1980
1980
1979
1976
1971
1966
1963
1962
1964
1968
1970
1972
1972
1971
1971
1972
1974
1976
1977
1977
1975
1973
1970
1968
1967
1968
1971
1974
1976
1978
1978
1978
1977
1977
1977
1978
1977
1975
1968
1956
1944
1934
1931
1936
1945
1955
1963
1969
1972
1974
1975
1976
1977
1977
1977
1977
1977
1976
1976
1976
1976
1976
1975
1973
1971
1970
1970
1971
1972
1972
1971
1970
1969
1968
1967
1966
1965
1965
1965
1965
1965
1964
1962
1961
1960
1959
1958
1957
1957
1958
1959
1960
1959
1957
1955
1953
1953
1953
1953
1953
1953
1954
1954
1953
1951
1949
1948
1949
1953
1957
1961
1962
1961
1960
1959
1960
1964
1968
1971
1971
1970
1968
1968
1969
1970
1971
1971
1969
1967
1965
1965
1967
1968
1968
1967
1967
1966
1966
1967
1968
1969
1970
1970
1969
1967
1966
1965
1965
1966
1966
1966
1966
1967
1967
1968
1968
1968
1967
1966
1966
1967
1968
1968
1968
1968
1966
1964
1962
1961
1961
1962
1963
1965
1966
1966
1966
1965
1964
1963
1963
1963
1964
1965
1965
1965
1964
1964
1964
1964
1965
1966
1966
1966
1966
1964
1958
1948
1935
1924
1918
1919
1927
1938
1949
1957
1961
1962
1964
1966
1968
1970
1971
1970
1969
1968
1967
1967
1967
1967
1967
1966
1966
1965
1965
1964
1964
1964
1964
1965
1965
1966
1966
1966
1966
1966
1967
1967
1968
1969
1970
1971
1972
1973
1974
1973
1973
1971
1970
1969
1968
1966
1964
1961
1957
1952
1948
1946
1944
1942
1941
1938
1936
1935
1934
1935
1935
1936
1937
1939
1940
1942
1945
1946
1948
1949
1950
1951
1953
1954
1955
1955
1956
1957
1958
1959
1961
1963
1966
1970
1975
1979
1983
1988
1994
2000
2005
2009
2012
2014
2016
2017
2018
2019
2020
2021
2023
2026
2028
2031
2033
2036
2038
2040
2041
2042
2043
2044
2045
2045
2045
2044
2043
2042
2041
2039
2038
2037
2036
2035
2034
2034
2035
2037
2040
2041
2041
2040
2039
2038
2038
2037
2037
2035
2034
2032
2030
2030
2030
2031
2032
2034
2034
2033
2028
2018
2005
1990
1977
1972
1977
1988
2002
2015
2023
2027
2028
2027
2027
2027
2027
2028
2029
2029
2029
2029
2028
2026
2025
2025
2025
2024
2023
2022
2020
2019
2017
2016
2015
2013
2012
2010
2009
2007
2005
2003
2001
1999
1997
1996
1996
1995
1994
1992
1990
1986
1983
1980
1979
1977
1976
1975
1974
1973
1972
1970
1969
1968
1967
1966
1966
1965
1965
1966
1967
1967
1968
1969
1969
1970
1972
1973
1974
1976
1976
1977
1977
1976
1976
1975
1975
1975
1975
1974
1974
1973
1972
1972
1972
1972
1972
1973
1973
1973
1972
1971
1969
1968
1968
1968
1969
1969
1970
1970
1970
1969
1968
1967
1967
1967
1967
1968
1968
1968
1968
1967
1965
1964
1963
1962
1962
1962
1961
1961
1960
1959
1960
1961
1963
1964
1966
1967
1967
1966
1966
1965
1964
1964
1964
1965
1965
1964
1964
1963
1963
1962
1962
1962
1960
1955
1944
1931
1919
1912
1913
1922
1935
1948
1957
1962
1963
1962
1960
1959
1959
1959
1958
1958
1959
1959
1960
1960
1960
1960
1959
1958
1957
1957
1957
1957
1958
1958
1958
1958
1957
1956
1956
1957
1958
1958
1958
1957
1956
1956
1956
1956
1956
1956
1956
1955
1955
1954
1953
1952
1951
1950
1949
1948
1948
1947
1948
1948
1948
1948
1948
1948
1948
1949
1950
1952
1953
1956
1958
1960
1961
1961
1962
1962
1963
1964
1965
1966
1967
1967
1967
1966
1965
1964
1964
1964
1965
1965
1965
1965
1965
1964
1963
1962
1962
1963
1964
1965
1965
1966
1965
1964
1963
1963
1963
1964
1965
1965
1965
1964
1964
1963
1962
1962
1962
1963
1963
1963
1962
1960
1958
1957
1956
1956
1958
1960
1963
1965
1966
1967
1966
1966
1965
1965
1965
1966
1967
1968
1968
1968
1967
1966
1966
1967
1968
1969
1970
1969
1963
1952
1938
1925
1916
1916
1924
1938
1952
1963
1969
1969
1968
1966
1965
1965
1967
1968
1969
1970
1970
1970
1969
1969
1968
1968
1968
1968
1968
1967
1967
1967
1966
1966
1965
1965
1965
1965
1965
1965
1965
1964
1963
1962
1961
1960
1960
1960
1960
1961
1960
1959
1958
1957
1956
1955
1955
1955
1955
1955
1955
1955
1954
1953
1953
1952
1952
1953
1954
1955
1956
1958
1959
1961
1962
1963
1964
1965
1965
1966
1967
1968
1969
1970
1970
1969
1969
1969
1969
1970
1970
1970
1970
1969
1968
1968
1968
1969
1970
1970
1969
1968
1967
1967
1967
1968
1968
1968
1969
1970
1970
1970
1970
1969
1969
1968
1969
1970
1971
1971
1972
1972
1971
1971
1971
1970
1970
1970
1969
1968
1966
1965
1964
1964
1965
1967
1969
1971
1973
1975
1976
1976
1976
1975
1975
1974
1974
1974
1975
1976
1976
1976
1976
1976
1976
1978
1979
1977
1971
1960
1945
1930
1921
1921
1930
1943
1958
1969
1975
1977
1977
1976
1976
1976
1976
1977
1977
1978
1979
1979
1979
1979
1978
1977
1976
1975
1975
1975
1976
1976
1976
1975
1974
1973
1972
1972
1972
1972
1972
1972
1972
1971
1970
1969
1968
1967
1967
1968
1968
1967
1966
1965
1964
1964
1963
1962
1961
1960
1959
1959
1960
1960
1960
1959
1958
1958
1958
1959
1961
1963
1965
1967
1968
1968
1969
1970
1971
1972
1973
1974
1974
1975
1974
1974
1974
1973
1973
1974
1974
1975
1975
1974
1973
1973
1972
1972
1972
1972
1973
1973
1974
1975
1975
1974
1973
1973
1973
1973
1974
1975
1975
1976
1975
1974
1974
1974
1974
1975
1975
1976
1976
1976
1976
1976
1976
1976
1975
1975
1974
1973
1972
1971
1970
1970
1970
1971
1973
1975
1978
1980
1981
1980
1979
1979
1979
1979
1981
1982
1982
1982
1982
1981
1980
1980
1979
1980
1982
1983
1980
1972
1959
1944
1931
1925
1928
1939
1953
1966
1975
1979
1980
1980
1979
1979
1980
1980
1981
1982
1983
1983
1983
1983
1982
1981
1980
1980
1980
1979
1979
1980
1980
1979
1979
1978
1977
1977
1977
1977
1977
1977
1976
1976
1975
1975
1974
1973
1973
1972
1972
1971
1971
1971
1972
1971
1971
1970
1969
1968
1967
1967
1967
1967
1967
1967
1967
1966
1966
1965
1966
1968
1970
1973
1977
1979
1980
1980
1979
1977
1977
1977
1978
1979
1980
1980
1980
1980
1980
1980
1981
1981
1981
1981
1980
1980
1979
1979
1979
1980
1981
1983
1983
1982
1981
1980
1979
1979
1980
1981
1981
1981
1980
1979
1979
1978
1978
1979
1979
1980
1980
1981
1982
1982
1981
1980
1980
1980
1980
1980
1981
1980
1979
1977
1976
1975
1974
1974
1974
1974
1975
1977
1980
1981
1982
1982
1982
1981
1982
1983
1984
1984
1984
1983
1982
1981
1980
1980
1980
1981
1983
1985
1983
1976
1963
1948
1935
1928
1930
1941
1956
1971
1980
1984
1983
1980
1978
1978
1979
1981
1982
1983
1983
1982
1982
1981
1980
1980
1980
1980
1980
1980
1981
1980
1980
1979
1979
1978
1978
1978
1978
1978
1978
1977
1976
1975
1974
1973
1973
1973
1974
1974
1973
1972
1971
1970
1969
1968
1967
1967
1967
1967
1966
1966
1964
1963
1962
1962
1962
1962
1962
1963
1964
1965
1967
1968
1969
1970
1971
1973
1975
1976
1977
1977
1977
1977
1977
1978
1978
1978
1978
1977
1977
1977
1977
1977
1977
1976
1976
1976
1976
1977
1977
1977
1977
1976
1976
1975
1976
1976
1976
1976
1976
1976
1975
1975
1975
1975
1976
1976
1976
1977
1977
1977
1977
1977
1977
1978
1977
1976
1975
1974
1973
1973
1973
1973
1972
1972
1973
1975
1978
1980
1982
1983
1983
1982
1982
1982
1983
1983
1984
1984
1984
1983
1983
1983
1983
1984
1985
1986
1985
1980
1970
1956
1942
1933
1931
1938
1951
1965
1977
1983
1985
1985
1983
1981
1981
1980
1981
1982
1984
1985
1986
1985
1984
1982
1981
1981
1981
1982
1982
1983
1983
1982
1981
1980
1979
1978
1978
1979
1979
1979
1979
1978
1977
1976
1974
1973
1973
1973
1973
1973
1972
1971
1970
1969
1967
1966
1966
1966
1967
1967
1967
1966
1965
1964
1963
1963
1964
1966
1968
1969
1971
1972
1973
1973
1974
1975
1976
1977
1978
1980
1981
1981
1981
1981
1980
1980
1981
1981
1982
1982
1982
1982
1981
1980
1979
1978
1978
1979
1980
1981
1981
1981
1980
1979
1979
1979
1980
1980
1981
1981
1981
1981
1980
1980
1979
1979
1979
1979
1979
1979
1980
1980
1980
1979
1979
1978
1978
1979
1980
1980
1981
1980
1978
1976
1974
1973
1972
1972
1972
1973
1974
1975
1977
1978
1979
1979
1980
1981
1981
1982
1983
1983
1982
1981
1980
1979
1978
1978
1979
1981
1982
1983
1982
1976
1966
1952
1938
1929
1927
1934
1947
1960
1971
1977
1979
1980
1980
1980
1982
1983
1984
1984
1984
1984
1983
1983
1983
1983
1983
1983
1983
1983
1982
1982
1981
1981
1980
1980
1980
1980
1980
1979
1978
1977
1977
1977
1977
1977
1977
1977
1977
1976
1975
1973
1972
1971
1970
1970
1970
1970
1969
1968
1968
1967
1966
1966
1966
1966
1967
1967
1967
1967
1967
1967
1968
1970
1972
1974
1976
1977
1978
1979
1979
1980
1980
1981
1981
1982
1982
1982
1982
1982
1982
1982
1982
1982
1981
1981
1981
1982
1982
1982
1982
1981
1981
1981
1981
1981
1982
1982
1982
1982
1982
1981
1980
1980
1980
1981
1982
1982
1982
1982
1981
1981
1980
1980
1981
1981
1982
1983
1983
1983
1982
1981
1980
1981
1981
1982
1982
1983
1983
1983
1982
1980
1978
1976
1974
1973
1974
1975
1976
1977
1979
1979
1980
1980
1981
1981
1982
1983
1983
1983
1982
1982
1982
1982
1983
1983
1984
1985
1986
1987
1986
1983
1975
1963
1948
1936
1929
1932
1942
1955
1968
1976
1979
1980
1980
1981
1983
1984
1986
1986
1985
1985
1984
1984
1984
1984
1984
1985
1985
1985
1985
1984
1983
1983
1982
1982
1983
1983
1982
1982
1981
1980
1979
1979
1979
1978
1978
1978
1978
1978
1977
1976
1975
1974
1973
1973
1973
1972
1972
1972
1971
1970
1969
1968
1968
1968
1968
1968
1968
1968
1968
1969
1969
1970
1971
1973
1975
1977
1979
1980
1981
1981
1981
1981
1981
1981
1982
1983
1983
1984
1984
1983
1982
1982
1982
1982
1983
1983
1983
1983
1983
1982
1981
1981
1981
1981
1982
1983
1983
1983
1983
1982
1981
1980
1980
1981
1982
1983
1983
1983
1983
1982
1981
1981
1981
1982
1983
1983
1983
1983
1982
1982
1981
1981
1981
1981
1982
1983
1983
1983
1982
1980
1979
1977
1976
1976
1975
1975
1975
1976
1976
1977
1978
1979
1981
1982
1983
1983
1983
1983
1983
1983
1982
1982
1982
1983
1983
1984
1984
1984
1985
1985
1984
1980
1971
1958
1944
1933
1929
1934
1945
1959
1970
1977
1980
1981
1981
1982
1984
1985
1985
1984
1983
1983
1983
1983
1984
1984
1984
1984
1984
1983
1983
1982
1982
1982
1982
1982
1982
1982
1981
1980
1978
1978
1977
1977
1978
1977
1977
1977
1976
1976
1975
1975
1974
1973
1972
1972
1971
1970
1969
1968
1967
1967
1967
1967
1968
1968
1968
1967
1967
1966
1966
1967
1969
1971
1973
1975
1977
1978
1978
1979
1979
1980
1981
1982
1983
1984
1984
1983
1982
1981
1981
1981
1982
1982
1983
1983
1983
1983
1983
1983
1982
1982
1982
1982
1983
1983
1983
1983
1983
1982
1982
1982
1982
1983
1984
1984
1983
1983
1983
1982
1982
1981
1981
1982
1982
1983
1984
1983
1983
1982
1982
1982
1982
1982
1983
1984
1984
1983
1982
1981
1979
1977
1976
1976
1976
1976
1977
1978
1980
1982
1982
1982
1982
1982
1983
1984
1984
1984
1984
1983
1983
1983
1984
1985
1985
1986
1986
1987
1987
1985
1978
1967
1953
1940
1933
1934
1943
1957
1970
1979
1984
1985
1984
1983
1983
1984
1986
1987
1987
1986
1986
1985
1985
1986
1986
1987
1986
1986
1985
1984
1983
1983
1982
1982
1982
1983
1983
1983
1983
1983
1982
1981
1980
1979
1978
1978
1978
1978
1978
1977
1976
1975
1974
1974
1974
1973
1973
1972
1971
1970
1969
1968
1968
1968
1969
1970
1970
1970
1970
1970
1970
1972
1974
1976
1978
1980
1981
1982
1983
1983
1983
1984
1984
1985
1985
1986
1986
1986
1986
1985
1985
1984
1984
1984
1985
1986
1986
1986
1986
1985
1985
1984
1984
1984
1984
1983
1983
1983
1983
1984
1985
1986
1986
1986
1986
1986
1986
1986
1985
1985
1985
1984
1984
1984
1985
1985
1986
1986
1986
1986
1985
1984
1983
1982
1981
1981
1980
1979
1979
1980
1981
1983
1985
1986
1987
1988
1988
1988
1987
1987
1987
1987
1987
1987
1988
1989
1989
1988
1988
1988
1988
1988
1986
1979
1968
1954
1943
1939
1942
1953
1967
1979
1987
1990
1990
1989
1988
1988
1988
1988
1988
1988
1987
1987
1988
1989
1990
1990
1989
1987
1986
1985
1985
1986
1987
1988
1988
1987
1986
1984
1983
1983
1983
1983
1983
1983
1983
1982
1981
1980
1979
1979
1978
1978
1978
1977
1977
1976
1975
1974
1973
1972
1971
1971
1972
1972
1972
1972
1972
1971
1971
1972
1972
1973
1974
1976
1979
1981
1983
1984
1984
1984
1985
1986
1987
1988
1989
1989
1989
1988
1987
1987
1987
1988
1988
1988
1988
1988
1987
1987
1986
1986
1986
1987
1987
1988
1988
1987
1987
1986
1986
1986
1987
1987
1987
1987
1987
1987
1986
1986
1986
1986
1987
1987
1987
1987
1987
1986
1986
1987
1987
1987
1986
1985
1984
1983
1981
1980
1979
1978
1979
1981
1983
1985
1987
1988
1989
1989
1988
1987
1987
1987
1988
1988
1988
1989
1988
1988
1988
1988
1988
1989
1989
1988
1982
1972
1958
1945
1937
1937
1945
1958
1972
1983
1989
1990
1989
1987
1986
1986
1986
1987
1988
1989
1989
1989
1989
1989
1988
1987
1987
1986
1986
1986
1986
1986
1986
1986
1985
1984
1984
1984
1984
1984
1984
1984
1983
1983
1982
1981
1980
1980
1979
1979
1978
1978
1978
1977
1976
1975
1973
1972
1972
1972
1972
1972
1972
1972
1971
1970
1969
1969
1970
1971
1973
1975
1977
1979
1980
1981
1981
1982
1983
1984
1986
1986
1987
1987
1987
1986
1986
1986
1986
1987
1987
1987
1987
1987
1986
1986
1985
1985
1986
1986
1987
1987
1988
1987
1986
1986
1985
1985
1986
1986
1987
1987
1988
1987
1987
1986
1985
1985
1985
1986
1987
1988
1988
1988
1987
1986
1985
1985
1985
1986
1987
1988
1989
1988
1987
1986
1984
1983
1981
1980
1979
1980
1980
1981
1983
1984
1986
1987
1988
1989
1989
1988
1988
1988
1988
1988
1987
1987
1986
1987
1988
1989
1990
1991
1991
1991
1987
1980
1968
1953
1940
1933
1935
1945
1959
1972
1981
1986
1987
1987
1987
1989
1991
1992
1991
1991
1990
1989
1989
1989
1990
1990
1990
1990
1990
1989
1989
1988
1988
1988
1988
1989
1988
1988
1987
1986
1986
1985
1985
1985
1985
1985
1985
1984
1984
1983
1982
1981
1980
1979
1979
1980
1980
1980
1979
1978
1977
1976
1976
1976
1976
1976
1975
1975
1975
1976
1976
1977
1979
1980
1982
1984
1985
1986
1987
1988
1989
1989
1990
1990
1990
1991
1991
1991
1991
1990
1989
1989
1989
1989
1990
1990
1991
1991
1990
1989
1989
1989
1989
1990
1990
1990
1990
1990
1990
1990
1989
1989
1989
1989
1990
1990
1991
1991
1991
1991
1990
1990
1990
1990
1990
1990
1990
1991
1991
1991
1991
1990
1990
1991
1991
1992
1992
1991
1991
1990
1990
1990
1990
1990
1990
1989
1987
1986
1984
1983
1983
1983
1983
1985
1987
1989
1991
1992
1992
1992
1991
1991
1991
1992
1992
1993
1993
1993
1992
1992
1991
1991
1992
1994
1995
1993
1987
1976
1960
1946
1936
1937
1945
1960
1974
1984
1990
1991
1991
1991
1991
1992
1993
1994
1995
1995
1995
1995
1994
1993
1993
1993
1993
1993
1994
1994
1993
1993
1992
1991
1990
1990
1990
1990
1990
1991
1990
1989
1988
1987
1986
1986
1986
1986
1986
1985
1985
1984
1983
1982
1981
1980
1979
1979
1978
1979
1979
1978
1978
1977
1976
1976
1976
1976
1977
1979
1980
1981
1982
1983
1983
1984
1986
1988
1989
1990
1991
1991
1991
1991
1991
1991
1991
1992
1992
1993
1993
1992
1992
1991
1990
1990
1990
1991
1991
1991
1991
1991
1991
1990
1990
1990
1990
1991
1991
1991
1991
1990
1990
1989
1990
1990
1991
1991
1991
1991
1991
1990
1990
1989
1989
1989
1990
1990
1990
1991
1991
1991
1991
1990
1990
1989
1989
1990
1991
1991
1991
1990
1989
1989
1988
1987
1986
1985
1985
1984
1984
1984
1984
1984
1985
1987
1989
1990
1991
1992
1992
1991
1991
1990
1991
1991
1991
1992
1992
1992
1993
1992
1992
1992
1993
1993
1991
1984
1972
1958
1945
1938
1939
1948
1961
1974
1984
1989
1991
1991
1991
1992
1992
1993
1993
1993
1993
1993
1993
1994
1994
1993
1993
1992
1991
1991
1990
1990
1990
1991
1991
1991
1990
1990
1989
1988
1988
1988
1988
1989
1989
1988
1987
1986
1984
1983
1983
1983
1983
1983
1982
1981
1980
1979
1977
1977
1977
1977
1977
1977
1977
1976
1976
1975
1974
1974
1974
1975
1977
1979
1982
1983
1985
1985
1986
1986
1987
1988
1990
1991
1991
1991
1990
1990
1990
1990
1991
1991
1991
1991
1990
1990
1990
1990
1989
1988
1988
1988
1989
1989
1990
1990
1990
1989
1989
1988
1988
1988
1989
1989
1989
1989
1989
1988
1988
1988
1989
1989
1990
1990
1989
1989
1989
1988
1988
1988
1988
1988
1989
1989
1989
1989
1989
1989
1988
1988
1988
1987
1987
1986
1984
1983
1982
1981
1980
1980
1981
1983
1986
1988
1990
1990
1989
1988
1988
1988
1989
1989
1990
1990
1990
1990
1989
1989
1989
1989
1989
1991
1992
1991
1986
1976
1961
1946
1936
1934
1941
1955
1969
1981
1988
1990
1989
1987
1986
1987
1988
1989
1990
1991
1991
1991
1990
1989
1988
1988
1988
1989
1989
1989
1988
1988
1987
1986
1985
1985
1985
1985
1986
1987
1987
1986
1985
1983
1982
1981
1981
1981
1981
1980
1980
1979
1977
1976
1976
1975
1975
1974
1974
1973
1973
1972
1971
1970
1969
1968
1969
1969
1971
1972
1974
1975
1976
1977
1977
1979
1980
1982
1984
1985
1986
1986
1986
1986
1986
1986
1986
1986
1987
1987
1987
1987
1987
1986
1986
1985
1985
1986
1986
1987
1987
1987
1986
1985
1985
1984
1984
1984
1985
1986
1987
1987
1986
1985
1984
1984
1985
1986
1987
1987
1987
1986
1986
1985
1985
1985
1986
1986
1987
1987
1987
1986
1986
1985
1985
1985
1984
1983
1982
1981
1981
1980
1980
1980
1980
1981
1983
1984
1986
1987
1987
1987
1987
1986
1985
1986
1986
1987
1987
1987
1987
1987
1987
1987
1988
1988
1988
1986
1979
1968
1954
1942
1936
1939
1949
1964
1977
1986
1989
1988
1986
1985
1985
1985
1986
1987
1987
1987
1987
1987
1987
1986
1986
1985
1985
1985
1984
1984
1984
1984
1984
1984
1984
1983
1983
1983
1983
1983
1983
1982
1981
1980
1979
1978
1977
1977
1977
1977
1977
1977
1976
1974
1972
1971
1970
1969
1970
1970
1970
1970
1969
1969
1968
1968
1969
1969
1969
1970
1971
1973
1975
1977
1978
1980
1980
1981
1982
1983
1983
1984
1984
1984
1985
1985
1985
1986
1986
1986
1986
1986
1986
1985
1985
1984
1984
1984
1984
1985
1985
1986
1986
1985
1985
1984
1984
1984
1984
1984
1984
1984
1984
1984
1984
1984
1984
1984
1984
1984
1985
1985
1986
1986
1985
1984
1984
1984
1984
1985
1985
1985
1984
1983
1982
1980
1978
1977
1977
1978
1979
1981
1983
1985
1986
1986
1986
1986
1986
1986
1987
1987
1987
1987
1986
1986
1986
1986
1987
1988
1989
1990
1990
1987
1981
1970
1956
1943
1935
1935
1944
1958
1972
1982
1987
1987
1986
1985
1985
1986
1988
1989
1990
1990
1989
1988
1987
1987
1987
1987
1988
1988
1988
1988
1987
1987
1986
1986
1986
1985
1986
1986
1985
1985
1984
1983
1982
1981
1981
1981
1981
1981
1981
1979
1978
1977
1976
1976
1975
1975
1974
1974
1974
1973
1973
1972
1971
1970
1970
1970
1971
1972
1972
1972
1973
1974
1975
1976
1978
1980
1982
1984
1985
1986
1986
1985
1985
1985
1985
1986
1987
1988
1988
1988
1987
1986
1986
1986
1986
1987
1987
1987
1987
1987
1986
1985
1985
1984
1984
1985
1986
1987
1987
1987
1986
1985
1985
1985
1985
1985
1986
1986
1986
1986
1986
1986
1985
1985
1985
1985
1985
1986
1986
1987
1987
1986
1985
1984
1984
1984
1983
1983
1982
1980
1979
1978
1977
1978
1979
1982
1985
1987
1988
1988
1987
1986
1986
1986
1987
1987
1988
1988
1988
1988
1987
1987
1987
1987
1989
1990
1988
1982
1971
1956
1942
1933
1932
1939
1952
1966
1978
1984
1987
1987
1987
1987
1988
1989
1990
1991
1992
1992
1992
1990
1989
1988
1987
1987
1988
1988
1989
1989
1989
1989
1989
1989
1988
1987
1987
1986
1986
1985
1985
1985
1984
1983
1982
1982
1981
1981
1981
1981
1981
1980
1980
1978
1977
1975
1975
1974
1974
1975
1974
1973
1971
1970
1969
1969
1970
1971
1973
1975
1976
1977
1978
1979
1980
1981
1982
1982
1983
1984
1985
1986
1987
1986
1985
1984
1984
1984
1986
1987
1988
1988
1987
1986
1985
1984
1984
1985
1986
1986
1986
1985
1984
1984
1984
1984
1984
1984
1984
1984
1984
1985
1985
1985
1986
1986
1985
1985
1985
1985
1985
1985
1986
1985
1985
1985
1985
1985
1985
1986
1987
1987
1987
1987
1986
1985
1984
1984
1983
1982
1982
1981
1980
1979
1979
1980
1981
1983
1985
1987
1988
1989
1989
1988
1988
1988
1988
1988
1990
1991
1992
1992
1991
1990
1990
1990
1991
1990
1984
1974
1959
1945
1935
1933
1940
1953
1967
1979
1985
1987
1987
1986
1986
1987
1987
1988
1988
1988
1989
1989
1989
1989
1989
1988
1988
1988
1987
1987
1986
1986
1986
1986
1986
1985
1984
1982
1982
1982
1982
1982
1983
1982
1982
1981
1980
1980
1979
1978
1978
1977
1977
1976
1975
1974
1972
1971
1971
1970
1971
1971
1971
1971
1970
1969
1968
1968
1969
1970
1972
1973
1975
1976
1977
1979
1981
1982
1983
1983
1983
1984
1984
1985
1985
1984
1984
1985
1985
1986
1986
1987
1987
1987
1987
1986
1985
1984
1984
1984
1985
1985
1985
1984
1984
1983
1983
1983
1983
1984
1984
1985
1985
1985
1985
1985
1984
1984
1983
1983
1983
1984
1984
1984
1984
1983
1982
1981
1980
1980
1979
1978
1977
1977
1977
1977
1979
1981
1983
1984
1985
1985
1985
1985
1985
1984
1984
1983
1983
1983
1984
1985
1985
1985
1985
1984
1985
1986
1985
1980
1970
1957
1944
1935
1934
1942
1955
1969
1980
1986
1988
1987
1985
1984
1983
1983
1983
1983
1984
1984
1985
1985
1985
1985
1984
1984
1983
1982
1982
1982
1983
1983
1982
1982
1981
1980
1980
1979
1978
1978
1978
1978
1978
1978
1978
1976
1975
1974
1974
1974
1974
1974
1973
1972
1970
1969
1968
1967
1967
1966
1966
1966
1966
1966
1966
1966
1965
1966
1967
1969
1972
1974
1975
1976
1977
1978
1978
1979
1980
1981
1982
1983
1983
1984
1984
1983
1983
1983
1982
1982
1983
1983
1983
1983
1983
1982
1982
1982
1982
1983
1983
1983
1983
1983
1982
1982
1982
1982
1981
1981
1982
1982
1983
1983
1983
1982
1981
1980
1981
1981
1983
1984
1984
1984
1983
1981
1980
1978
1977
1977
1977
1978
1978
1979
1980
1981
1982
1983
1984
1984
1985
1986
1986
1985
1985
1984
1984
1984
1985
1985
1985
1985
1986
1987
1988
1988
1984
1974
1961
1946
1935
1932
1938
1951
1966
1978
1985
1987
1986
1985
1984
1986
1987
1988
1988
1988
1988
1988
1988
1987
1987
1987
1987
1988
1988
1988
1987
1986
1985
1985
1986
1986
1986
1986
1985
1985
1985
1984
1984
1984
1984
1983
1983
1982
1981
1980
1979
1979
1978
1978
1978
1978
1978
1977
1976
1975
1974
1973
1973
1973
1973
1974
1974
1974
1974
1974
1975
1977
1979
1980
1982
1984
1985
1986
1987
1988
1987
1987
1988
1988
1989
1990
1991
1991
1990
1989
1989
1989
1989
1989
1990
1990
1990
1990
1990
1989
1989
1988
1988
1987
1987
1987
1988
1988
1988
1988
1987
1987
1987
1987
1988
1988
1988
1987
1987
1987
1987
1986
1986
1985
1985
1985
1986
1986
1986
1985
1984
1982
1980
1979
1979
1979
1979
1980
1981
1982
1984
1986
1987
1987
1987
1986
1986
1986
1985
1985
1985
1986
1986
1986
1987
1987
1987
1987
1988
1989
1989
1985
1976
1961
1945
1932
1927
1932
1944
1959
1971
1979
1982
1983
1984
1985
1987
1988
1988
1987
1987
1987
1987
1988
1988
1988
1988
1987
1986
1985
1985
1984
1984
1984
1985
1985
1985
1984
1984
1983
1982
1982
1981
1981
1981
1980
1980
1980
1979
1978
1977
1976
1975
1974
1974
1974
1974
1973
1971
1970
1969
1969
1968
1968
1968
1969
1970
1969
1969
1968
1967
1968
1970
1973
1975
1977
1979
1980
1980
1980
1980
1980
1981
1982
1983
1983
1983
1983
1982
1982
1982
1982
1982
1982
1982
1983
1983
1984
1983
1983
1982
1981
1981
1982
1982
1982
1983
1982
1982
1982
1982
1982
1982
1982
1983
1983
1983
1983
1983
1982
1981
1981
1981
1982
1983
1983
1983
1982
1982
1982
1982
1982
1982
1982
1981
1979
1978
1976
1975
1974
1974
1975
1976
1978
1980
1982
1984
1985
1985
1984
1983
1982
1982
1983
1984
1984
1984
1985
1984
1984
1983
1983
1984
1986
1988
1986
1979
1966
1949
1934
1926
1928
1938
1953
1967
1978
1983
1984
1984
1983
1983
1984
1984
1985
1986
1987
1988
1988
1988
1987
1986
1986
1985
1985
1985
1985
1984
1984
1983
1983
1982
1981
1981
1982
1983
1983
1982
1982
1980
1979
1978
1978
1977
1977
1977
1977
1976
1975
1974
1973
1972
1971
1971
1970
1969
1968
1968
1968
1969
1969
1968
1967
1967
1967
1968
1969
1971
1972
1973
1974
1975
1977
1979
1981
1982
1983
1983
1983
1982
1982
1982
1982
1983
1983
1984
1984
1984
1984
1984
1983
1983
1983
1983
1983
1984
1984
1984
1983
1983
1982
1981
1980
1981
1981
1982
1983
1984
1984
1983
1983
1982
1982
1982
1983
1983
1984
1983
1983
1982
1981
1981
1981
1981
1982
1982
1982
1982
1982
1982
1982
1981
1980
1979
1978
1977
1977
1976
1976
1976
1976
1977
1979
1980
1982
1983
1984
1984
1984
1983
1982
1981
1981
1982
1983
1983
1984
1984
1983
1983
1983
1984
1985
1982
1975
1963
1949
1936
1930
1932
1942
1957
1970
1980
1984
1984
1983
1983
1983
1983
1983
1983
1983
1983
1983
1984
1985
1985
1985
1984
1983
1982
1982
1982
1982
1982
1983
1983
1982
1982
1980
1979
1977
1976
1976
1977
1979
1980
1979
1978
1976
1975
1974
1974
1974
1974
1974
1973
1972
1971
1969
1968
1967
1967
1968
1968
1968
1968
1967
1967
1968
1968
1969
1969
1970
1971
1972
1974
1975
1977
1978
1979
1979
1980
1981
1982
1984
1984
1984
1984
1983
1983
1983
1983
1984
1985
1985
1985
1985
1984
1983
1983
1982
1982
1983
1983
1984
1984
1984
1983
1983
1982
1982
1983
1983
1984
1985
1985
1984
1984
1983
1982
1982
1982
1983
1984
1984
1984
1984
1983
1983
1982
1983
1983
1983
1983
1982
1980
1978
1976
1975
1975
1976
1978
1980
1982
1983
1984
1985
1985
1985
1985
1985
1985
1985
1985
1985
1986
1986
1985
1985
1984
1984
1985
1987
1987
1984
1976
1963
1948
1936
1931
1935
1947
1962
1976
1984
1987
1986
1984
1984
1984
1985
1986
1986
1986
1987
1987
1988
1987
1987
1986
1985
1985
1985
1985
1984
1984
1984
1984
1983
1983
1983
1982
1983
1983
1983
1983
1982
1980
1979
1978
1977
1977
1977
1977
1977
1976
1975
1973
1972
1971
1970
1970
1970
1970
1970
1970
1969
1968
1967
1967
1966
1966
1967
1968
1969
1971
1972
1973
1974
1974
1975
1977
1978
1980
1980
1981
1981
1981
1981
1981
1981
1981
1981
1982
1982
1982
1982
1982
1982
1981
1981
1981
1981
1981
1982
1982
1982
1981
1981
1980
1980
1980
1980
1981
1982
1982
1981
1981
1980
1980
1980
1980
1981
1981
1981
1982
1981
1981
1980
1980
1980
1980
1981
1981
1981
1981
1981
1981
1980
1980
1979
1978
1977
1977
1976
1975
1975
1975
1975
1976
1978
1979
1981
1982
1982
1982
1982
1982
1982
1981
1981
1981
1981
1982
1982
1983
1983
1982
1982
1982
1983
1983
1979
1970
1956
1941
1929
1924
1928
1940
1955
1968
1977
1980
1981
1981
1981
1981
1982
1982
1983
1983
1983
1983
1983
1983
1982
1981
1981
1980
1980
1980
1980
1981
1981
1981
1981
1980
1979
1977
1977
1976
1976
1976
1976
1976
1976
1975
1973
1973
1972
1972
1972
1971
1970
1969
1968
1968
1967
1966
1965
1965
1964
1964
1964
1964
1964
1963
1962
1962
1962
1963
1964
1966
1968
1970
1971
1972
1973
1974
1975
1976
1977
1978
1978
1978
1978
1978
1978
1978
1978
1978
1978
1978
1979
1979
1979
1979
1979
1979
1979
1979
1978
1978
1978
1978
1978
1978
1977
1977
1977
1977
1977
1977
1978
1978
1978
1977
1976
1976
1976
1976
1977
1977
1977
1978
1978
1977
1977
1977
1977
1976
1977
1977
1978
1979
1978
1977
1975
1973
1971
1970
1970
1971
1972
1973
1975
1976
1977
1977
1976
1976
1977
1978
1979
1980
1980
1979
1978
1978
1978
1978
1979
1980
1981
1981
1983
1983
1981
1974
1963
1948
1933
1923
1922
1930
1943
1958
1969
1975
1977
1977
1977
1978
1980
1981
1982
1982
1981
1980
1979
1979
1980
1981
1981
1981
1981
1980
1979
1978
1978
1978
1977
1978
1978
1978
1978
1977
1976
1975
1975
1974
1974
1974
1974
1973
1973
1972
1971
1970
1969
1968
1967
1967
1967
1967
1967
1965
1964
1963
1962
1961
1962
1962
1963
1963
1964
1964
1964
1964
1965
1967
1969
1971
1972
1974
1975
1975
1976
1976
1976
1976
1977
1978
1978
1979
1979
1979
1978
1978
1977
1977
1978
1978
1979
1979
1978
1978
1977
1977
1976
1976
1976
1976
1977
1977
1977
1977
1976
1975
1975
1976
1977
1978
1978
1979
1978
1978
1977
1976
1976
1976
1977
1977
1978
1978
1977
1977
1976
1976
1976
1976
1976
1977
1978
1978
1978
1978
1977
1975
1973
1971
1970
1970
1970
1970
1971
1973
1974
1974
1975
1975
1976
1977
1978
1978
1978
1978
1977
1977
1977
1978
1978
1979
1980
1980
1980
1980
1981
1980
1977
1968
1955
1940
1928
1922
1926
1937
1952
1965
1973
1977
1978
1978
1978
1978
1979
1980
1980
1980
1980
1980
1980
1980
1980
1980
1980
1980
1979
1978
1978
1978
1978
1978
1978
1978
1977
1977
1976
1975
1975
1974
1975
1975
1976
1976
1975
1974
1972
1970
1969
1969
1969
1970
1969
1969
1968
1967
1966
1965
1964
1964
1963
1963
1964
1964
1964
1964
1964
1964
1965
1966
1967
1969
1971
1972
1974
1975
1975
1976
1976
1977
1978
1978
1979
1980
1980
1980
1980
1979
1979
1979
1980
1981
1981
1981
1981
1980
1979
1978
1978
1978
1979
1979
1979
1980
1980
1979
1979
1978
1978
1977
1978
1979
1980
1980
1981
1980
1979
1977
1976
1976
1977
1978
1980
1980
1980
1979
1978
1977
1977
1977
1978
1979
1980
1979
1977
1975
1973
1971
1970
1971
1972
1974
1977
1979
1980
1980
1980
1979
1979
1979
1979
1980
1980
1981
1980
1980
1979
1978
1979
1979
1980
1981
1983
1983
1980
1972
1959
1944
1932
1927
1933
1946
1961
1974
1982
1984
1982
1979
1978
1979
1980
1981
1982
1982
1982
1981
1981
1980
1980
1980
1981
1981
1981
1981
1981
1981
1980
1979
1978
1978
1978
1979
1978
1978
1977
1976
1976
1975
1975
1975
1975
1975
1975
1974
1973
1972
1970
1969
1968
1968
1968
1968
1968
1967
1966
1966
1965
1965
1965
1964
1964
1964
1964
1965
1967
1968
1970
1971
1972
1973
1974
1976
1977
1979
1980
1980
1981
1981
1981
1981
1982
1983
1983
1983
1983
1982
1981
1980
1980
1981
1982
1983
1984
1983
1983
1982
1981
1981
1981
1980
1981
1981
1982
1983
1983
1983
1982
1981
