1998
1998
1998
1999
2001
2003
2005
2007
2009
2010
2010
2011
2012
2014
2015
2017
2018
2019
2019
2019
2019
2018
2016
2015
2013
2010
2008
2004
2000
1996
1991
1987
1982
1978
1975
1972
1971
1970
1969
1967
1966
1965
1964
1964
1964
1965
1966
1966
1967
1966
1966
1966
1966
1966
1966
1967
1967
1967
1967
1967
1967
1967
1967
1967
1967
1967
1968
1968
1969
1969
1968
1967
1967
1967
1967
1968
1968
1968
1969
1969
1968
1967
1967
1967
1967
1967
1968
1969
1969
1968
1968
1967
1967
1967
1967
1968
1968
1969
1969
1969
1969
1968
1968
1968
1968
1969
1970
1970
1970
1970
1969
1969
1969
1969
1969
1970
1970
1970
1971
1971
1971
1971
1971
1970
1970
1971
1971
1972
1972
1972
1972
1972
1972
1972
1973
1974
1974
1974
1974
1974
1974
1974
1974
1973
1973
1973
1973
1974
1975
1976
1977
1977
1978
1979
1978
1977
1976
1975
1974
1973
1973
1973
1973
1974
1974
1975
1976
1976
1975
1973
1974
1979
1990
2007
2025
2040
2048
2054
2056
2053
2041
2014
1978
1941
1916
1908
1919
1939
1959
1974
1982
1985
1986
1986
1987
1988
1990
1991
1991
1991
1991
1991
1991
1992
1992
1993
1994
1995
1996
1996
1996
1997
1997
1998
1999
2000
2002
2003
2004
2005
2005
2005
2006
2007
2008
2010
2012
2014
2016
2017
2019
2020
2021
2022
2023
2024
2025
2026
2026
2026
2025
2024
2022
2020
2017
2013
2009
2005
2000
1996
1992
1988
1984
1981
1979
1978
1977
1976
1975
1974
1973
1972
1972
1971
1972
1972
1972
1973
1973
1974
1974
1974
1974
1974
1974
1974
1975
1975
1975
1975
1975
1975
1975
1975
1975
1975
1975
1975
1976
1976
1975
1975
1975
1975
1975
1976
1976
1976
1976
1976
1975
1975
1974
1975
1975
1975
1976
1976
1976
1976
1976
1975
1975
1975
1975
1975
1976
1977
1977
1977
1977
1977
1976
1976
1977
1977
1977
1978
1978
1978
1977
1977
1977
1977
1977
1978
1979
1980
1980
1980
1980
1980
1979
1979
1979
1980
1981
1982
1982
1982
1982
1982
1981
1980
1979
1979
1979
1980
1980
1981
1982
1983
1984
1985
1986
1985
1984
1982
1981
1980
1979
1979
1980
1980
1981
1981
1982
1982
1981
1979
1977
1978
1985
2000
2019
2039
2053
2063
2070
2072
2066
2048
2017
1976
1937
1912
1906
1917
1937
1958
1973
1982
1987
1989
1989
1990
1991
1991
1992
1993
1993
1993
1993
1994
1994
1996
1997
1997
1998
1998
1999
1999
1999
1999
2000
2001
2002
2003
2005
2005
2006
2006
2007
2008
2009
2011
2013
2014
2015
2017
2018
2019
2020
2021
2023
2024
2025
2026
2026
2026
2025
2023
2021
2019
2016
2013
2010
2006
2002
1997
1992
1988
1984
1982
1980
1978
1977
1976
1974
1973
1971
1970
1969
1969
1969
1969
1969
1970
1971
1971
1972
1972
1972
1972
1972
1973
1973
1974
1974
1974
1974
1974
1974
1974
1973
1973
1974
1974
1975
1975
1974
1973
1972
1972
1971
1971
1972
1972
1972
1971
1971
1971
1970
1970
1971
1971
1972
1972
1972
1971
1971
1970
1969
1969
1969
1970
1970
1971
1971
1971
1971
1970
1970
1970
1970
1970
1971
1972
1972
1972
1972
1972
1971
1971
1971
1972
1972
1973
1973
1974
1973
1973
1972
1972
1972
1973
1974
1975
1976
1976
1975
1974
1972
1971
1970
1970
1971
1973
1975
1976
1978
1978
1977
1975
1973
1972
1972
1972
1972
1973
1973
1973
1973
1973
1973
1973
1972
1972
1973
1979
1992
2009
2025
2037
2043
2046
2046
2041
2026
2000
1964
1929
1906
1901
1914
1936
1958
1973
1982
1984
1985
1984
1984
1984
1985
1986
1987
1988
1989
1989
1988
1988
1988
1989
1990
1991
1992
1992
1992
1993
1993
1994
1995
1996
1997
1998
2000
2001
2003
2004
2005
2006
2007
2008
2009
2011
2013
2015
2017
2019
2019
2020
2020
2020
2021
2021
2022
2022
2021
2020
2017
2013
2009
2005
2002
1999
1995
1991
1987
1984
1980
1977
1975
1973
1972
1971
1970
1970
1969
1969
1968
1968
1968
1968
1969
1970
1971
1972
1972
1971
1971
1971
1971
1971
1971
1972
1972
1973
1973
1973
1973
1972
1972
1972
1972
1972
1973
1974
1974
1974
1973
1972
1972
1971
1972
1972
1972
1972
1972
1972
1972
1971
1971
1971
1971
1971
1972
1972
1972
1972
1972
1972
1972
1972
1972
1973
1973
1973
1973
1973
1972
1972
1972
1971
1971
1971
1971
1971
1971
1970
1970
1969
1969
1968
1968
1969
1969
1969
1970
1970
1969
1969
1969
1968
1969
1970
1971
1971
1970
1969
1968
1967
1968
1969
1971
1973
1975
1977
1977
1975
1973
1971
1969
1968
1968
1969
1970
1971
1971
1971
1970
1970
1968
1967
1966
1969
1978
1992
2009
2024
2032
2035
2035
2034
2028
2013
1987
1953
1922
1903
1904
1920
1942
1962
1974
1980
1982
1982
1983
1983
1984
1984
1985
1985
1986
1987
1988
1989
1990
1990
1990
1990
1991
1991
1992
1993
1994
1996
1997
1997
1998
1998
1999
2000
2001
2002
2003
2005
2006
2008
2009
2010
2011
2013
2015
2017
2019
2021
2022
2022
2022
2022
2022
2022
2022
2021
2020
2019
2016
2013
2009
2004
1999
1995
1991
1988
1984
1981
1979
1976
1974
1973
1972
1971
1971
1971
1971
1971
1971
1971
1970
1970
1970
1970
1970
1971
1971
1972
1972
1972
1972
1971
1971
1970
1971
1971
1972
1973
1973
1973
1973
1973
1972
1972
1973
1973
1973
1973
1973
1972
1972
1972
1971
1971
1972
1972
1972
1973
1973
1973
1973
1972
1972
1973
1974
1976
1978
1980
1981
1982
1983
1985
1987
1989
1993
1996
1999
2002
2004
2006
2007
2007
2007
2007
2007
2007
2008
2009
2010
2010
2010
2011
2011
2011
2012
2013
2014
2015
2015
2015
2015
2015
2014
2015
2015
2016
2017
2017
2016
2014
2013
2013
2013
2013
2015
2016
2017
2017
2016
2013
2010
2007
2005
2004
2004
2004
2005
2005
2005
2005
2004
2003
2000
1998
1998
2000
2007
2020
2036
2050
2062
2070
2074
2075
2067
2049
2019
1983
1951
1933
1934
1949
1969
1987
1999
2005
2006
2007
2007
2008
2009
2010
2010
2010
2010
2010
2010
2011
2011
2011
2010
2010
2009
2009
2009
2009
2009
2009
2010
2010
2009
2008
2008
2007
2008
2009
2010
2011
2011
2011
2011
2012
2012
2013
2013
2014
2015
2016
2016
2017
2016
2015
2014
2013
2012
2012
2011
2009
2006
2003
1999
1994
1990
1986
1982
1978
1975
1972
1969
1966
1963
1961
1959
1957
1957
1956
1956
1957
1957
1956
1955
1955
1954
1954
1953
1954
1954
1953
1953
1953
1952
1951
1951
1951
1951
1952
1953
1953
1953
1952
1951
1950
1950
1950
1951
1952
1952
1953
1953
1953
1953
1952
1952
1952
1952
1953
1953
1954
1954
1953
1953
1952
1952
1952
1952
1953
1954
1955
1955
1956
1956
1955
1955
1955
1956
1957
1958
1959
1960
1960
1959
1960
1960
1961
1961
1962
1962
1963
1963
1963
1963
1962
1962
1962
1963
1964
1965
1966
1967
1967
1966
1966
1966
1966
1966
1966
1966
1966
1967
1967
1968
1970
1971
1972
1972
1972
1971
1970
1969
1969
1968
1968
1968
1969
1970
1970
1971
1971
1970
1969
1968
1972
1981
1998
2017
2036
2049
2059
2065
2065
2054
2031
1993
1952
1919
1902
1905
1922
1942
1960
1972
1979
1982
1984
1985
1986
1987
1988
1990
1990
1991
1991
1992
1992
1993
1994
1995
1996
1997
1997
1997
1997
1998
1999
2000
2001
2002
2003
2004
2004
2004
2005
2005
2007
2008
2010
2012
2014
2015
2016
2017
2017
2019
2020
2021
2023
2024
2025
2025
2025
2024
2022
2021
2018
2015
2012
2009
2005
2002
1998
1994
1990
1986
1984
1982
1981
1980
1979
1978
1977
1976
1975
1975
1975
1975
1976
1977
1977
1977
1977
1977
1977
1977
1977
1978
1979
1979
1980
1980
1980
1980
1980
1980
1979
1980
1980
1981
1982
1983
1982
1981
1980
1979
1979
1979
1980
1981
1981
1981
1980
1980
1979
1979
1980
1980
1980
1980
1980
1979
1979
1979
1978
1977
1977
1977
1977
1978
1978
1979
1978
1978
1978
1978
1978
1979
1979
1980
1981
1981
1981
1981
1981
1980
1980
1979
1978
1978
1978
1978
1979
1979
1981
1982
1983
1984
1984
1983
1982
1980
1979
1979
1978
1978
1979
1979
1980
1980
1981
1980
1978
1977
1981
1990
2006
2025
2042
2053
2060
2063
2061
2050
2027
1990
1951
1921
1908
1916
1936
1958
1976
1986
1991
1992
1993
1993
1994
1995
1996
1997
1998
1998
1998
1998
1998
1999
2000
2001
2002
2003
2004
2004
2005
2005
2005
2006
2007
2008
2010
2011
2011
2011
2012
2013
2014
2016
2018
2020
2022
2023
2024
2025
2026
2027
2028
2029
2030
2031
2032
2032
2031
2030
2028
2026
2023
2020
2017
2013
2009
2005
2000
1996
1992
1989
1987
1985
1983
1982
1981
1980
1979
1978
1977
1977
1977
1977
1978
1978
1979
1979
1979
1978
1978
1978
1978
1979
1980
1980
1981
1980
1979
1978
1978
1978
1978
1978
1979
1980
1980
1980
1980
1979
1978
1978
1978
1978
1979
1979
1979
1979
1979
1978
1978
1977
1977
1977
1977
1978
1978
1978
1978
1978
1978
1977
1977
1978
1979
1979
1980
1980
1980
1979
1979
1979
1979
1979
1979
1980
1980
1980
1979
1977
1976
1975
1975
1976
1978
1980
1982
1983
1983
1983
1981
1978
1977
1976
1976
1976
1977
1977
1978
1978
1977
1977
1976
1975
1974
1975
1983
1996
2013
2029
2041
2048
2050
2050
2046
2030
2002
1964
1929
1908
1906
1921
1943
1965
1979
1986
1989
1989
1989
1989
1989
1989
1990
1991
1992
1993
1994
1995
1995
1996
1996
1996
1996
1997
1997
1999
2000
2001
2002
2002
2002
2003
2003
2004
2005
2006
2008
2009
2010
2012
2013
2014
2016
2018
2020
2021
2022
2023
2024
2024
2024
2024
2023
2023
2023
2022
2021
2018
2015
2011
2006
2001
1997
1993
1990
1987
1984
1981
1978
1975
1973
1971
1970
1970
1970
1970
1971
1971
1971
1970
1970
1970
1970
1971
1972
1973
1973
1973
1973
1973
1972
1972
1973
1973
1973
1974
1974
1974
1974
1974
1973
1972
1971
1972
1973
1974
1974
1974
1973
1971
1970
1969
1969
1970
1971
1972
1972
1972
1972
1971
1970
1970
1970
1970
1970
1971
1971
1971
1971
1971
1970
1971
1971
1971
1972
1972
1973
1973
1973
1973
1972
1971
1970
1969
1969
1969
1970
1972
1973
1974
1975
1976
1975
1975
1973
1972
1972
1971
1971
1971
1971
1971
1971
1972
1973
1972
1971
1969
1970
1976
1988
2005
2021
2035
2044
2050
2052
2048
2032
2001
1961
1924
1901
1899
1915
1938
1959
1974
1981
1983
1983
1982
1982
1983
1984
1985
1986
1987
1987
1986
1986
1986
1987
1988
1989
1990
1991
1991
1992
1992
1993
1993
1993
1994
1995
1996
1998
1999
2000
2001
2002
2002
2004
2005
2007
2009
2011
2012
2013
2013
2014
2014
2015
2015
2015
2015
2015
2015
2013
2011
2009
2005
2002
1999
1995
1991
1987
1983
1980
1977
1974
1971
1969
1968
1968
1967
1967
1967
1967
1966
1966
1966
1966
1966
1966
1967
1968
1968
1968
1968
1967
1967
1967
1967
1967
1968
1969
1969
1969
1968
1968
1968
1968
1968
1968
1968
1969
1969
1968
1968
1967
1966
1966
1966
1966
1967
1967
1968
1968
1967
1967
1967
1967
1966
1967
1967
1967
1966
1966
1965
1965
1965
1965
1966
1967
1967
1968
1968
1968
1968
1967
1967
1967
1968
1968
1969
1969
1968
1967
1966
1965
1964
1965
1966
1968
1970
1972
1973
1972
1971
1968
1966
1964
1964
1965
1967
1968
1968
1968
1968
1968
1966
1965
1964
1966
1973
1986
2003
2020
2034
2043
2049
2051
2046
2029
1997
1958
1922
1901
1900
1915
1937
1957
1971
1978
1982
1983
1983
1983
1982
1982
1982
1983
1984
1985
1987
1988
1989
1989
1989
1990
1990
1991
1991
1992
1992
1993
1995
1996
1996
1996
1996
1997
1998
1999
2001
2003
2004
2006
2006
2007
2008
2009
2011
2013
2014
2015
2016
2016
2015
2015
2016
2016
2016
2015
2014
2012
2009
2006
2001
1996
1992
1987
1984
1981
1979
1978
1976
1974
1972
1970
1968
1967
1967
1967
1967
1968
1968
1968
1968
1968
1968
1968
1968
1969
1969
1970
1971
1971
1970
1970
1969
1969
1970
1970
1970
1971
1971
1971
1971
1970
1970
1970
1970
1970
1971
1971
1971
1970
1969
1968
1968
1968
1969
1970
1971
1972
1972
1971
1970
1970
1969
1969
1969
1970
1971
1971
1972
1972
1971
1971
1971
1971
1971
1972
1973
1974
1975
1975
1974
1973
1971
1970
1969
1969
1970
1971
1973
1974
1975
1975
1976
1976
1975
1974
1972
1971
1971
1971
1972
1972
1972
1973
1973
1974
1974
1973
1972
1972
1978
1991
2009
2028
2044
2056
2064
2069
2064
2047
2014
1971
1931
1905
1901
1913
1934
1954
1969
1978
1982
1984
1984
1985
1986
1987
1988
1989
1990
1990
1990
1990
1990
1991
1991
1992
1994
1995
1995
1996
1996
1996
1997
1998
1999
2000
2001
2002
2002
2003
2004
2005
2007
2008
2009
2010
2011
2013
2014
2015
2016
2016
2016
2017
2017
2018
2019
2019
2019
2018
2015
2012
2009
2005
2001
1998
1994
1991
1987
1983
1980
1976
1974
1972
1971
1971
1970
1970
1969
1969
1969
1969
1968
1968
1968
1968
1968
1969
1970
1970
1970
1970
1969
1968
1969
1969
1970
1971
1971
1971
1970
1970
1969
1970
1970
1970
1971
1971
1971
1970
1970
1969
1968
1968
1968
1969
1969
1969
1969
1969
1968
1968
1967
1967
1968
1968
1969
1969
1969
1969
1968
1968
1967
1967
1968
1968
1969
1969
1970
1969
1969
1968
1968
1968
1969
1970
1971
1971
1970
1969
1967
1966
1966
1966
1967
1969
1971
1973
1975
1975
1973
1971
1968
1966
1966
1967
1969
1970
1970
1970
1969
1969
1968
1966
1965
1966
1971
1983
2000
2017
2031
2039
2044
2047
2044
2032
2006
1969
1931
1904
1896
1908
1929
1951
1968
1977
1980
1982
1982
1981
1981
1981
1981
1981
1982
1983
1984
1985
1986
1986
1986
1986
1986
1986
1987
1989
1990
1992
1992
1993
1993
1993
1994
1994
1996
1997
1999
2001
2002
2004
2005
2005
2006
2007
2008
2010
2012
2013
2014
2015
2015
2014
2014
2013
2013
2012
2011
2009
2007
2003
1999
1994
1989
1985
1982
1979
1977
1975
1973
1971
1968
1966
1964
1963
1963
1963
1963
1964
1964
1964
1963
1963
1963
1963
1964
1965
1965
1966
1966
1966
1966
1965
1965
1966
1966
1966
1967
1966
1966
1966
1967
1967
1966
1966
1965
1965
1966
1967
1967
1966
1966
1965
1964
1964
1964
1965
1965
1966
1966
1966
1966
1965
1965
1965
1965
1965
1966
1966
1966
1966
1966
1966
1966
1966
1966
1967
1967
1967
1968
1968
1968
1968
1968
1968
1968
1969
1970
1971
1970
1968
1967
1965
1965
1965
1966
1969
1971
1973
1974
1974
1972
1970
1968
1967
1967
1968
1969
1969
1969
1969
1969
1969
1968
1967
1965
1965
1969
1980
1996
2013
2028
2037
2042
2045
2042
2030
2006
1970
1933
1906
1897
1907
1929
1951
1969
1978
1982
1983
1982
1981
1981
1982
1982
1983
1984
1985
1986
1986
1987
1987
1987
1987
1987
1988
1989
1990
1991
1992
1993
1994
1994
1994
1995
1995
1996
1998
2000
2001
2003
2003
2004
2005
2006
2008
2009
2011
2012
2013
2014
2014
2015
2014
2014
2014
2013
2013
2012
2010
2008
2005
2001
1996
1992
1987
1984
1980
1978
1976
1974
1972
1970
1968
1966
1965
1965
1965
1966
1966
1967
1966
1966
1966
1966
1966
1966
1967
1967
1967
1967
1967
1967
1967
1967
1967
1967
1967
1968
1969
1970
1970
1969
1968
1967
1967
1967
1967
1968
1968
1968
1968
1967
1967
1966
1966
1966
1967
1967
1967
1968
1968
1968
1967
1967
1967
1967
1967
1968
1968
1968
1968
1968
1968
1968
1968
1968
1968
1969
1969
1969
1969
1969
1969
1968
1968
1968
1969
1970
1971
1971
1971
1971
1970
1970
1970
1970
1970
1970
1969
1968
1968
1969
1970
1972
1973
1975
1976
1976
1975
1974
1972
1970
1969
1968
1968
1969
1970
1971
1972
1972
1971
1969
1967
1967
1971
1981
1996
2014
2029
2040
2046
2048
2047
2035
2010
1974
1937
1909
1900
1909
1930
1952
1969
1978
1981
1982
1982
1982
1983
1984
1985
1985
1985
1985
1985
1986
1986
1987
1988
1989
1990
1991
1991
1991
1991
1992
1993
1994
1995
1996
1997
1997
1997
1998
1999
2000
2002
2004
2006
2007
2008
2009
2010
2011
2011
2013
2014
2015
2016
2016
2016
2015
2013
2012
2011
2009
2008
2006
2003
1999
1995
1990
1986
1982
1979
1976
1974
1973
1972
1971
1970
1969
1968
1968
1967
1967
1967
1968
1968
1969
1969
1969
1969
1968
1968
1969
1970
1971
1971
1971
1971
1970
1970
1969
1969
1969
1970
1970
1971
1971
1970
1970
1969
1969
1969
1969
1969
1969
1969
1969
1969
1969
1969
1968
1968
1968
1969
1969
1970
1970
1970
1971
1970
1969
1969
1968
1968
1969
1970
1971
1971
1971
1970
1970
1970
1970
1971
1971
1971
1971
1971
1971
1970
1969
1970
1970
1971
1972
1973
1974
1974
1973
1973
1972
1973
1973
1973
1974
1974
1974
1973
1972
1971
1971
1971
1972
1974
1976
1978
1980
1980
1978
1975
1972
1970
1970
1970
1972
1973
1973
1974
1974
1973
1972
1970
1969
1968
1972
1983
1999
2017
2034
2046
2053
2059
2061
2054
2033
1998
1958
1923
1904
1905
1920
1941
1959
1971
1978
1982
1983
1984
1984
1985
1985
1985
1985
1986
1987
1988
1990
1991
1991
1991
1991
1991
1992
1993
1994
1995
1996
1997
1997
1998
1999
1999
2000
2001
2002
2003
2005
2006
2008
2010
2011
2013
2014
2016
2017
2018
2019
2019
2020
2020
2021
2022
2022
2021
2020
2018
2016
2012
2009
2004
2000
1995
1991
1988
1985
1982
1980
1977
1975
1973
1971
1970
1970
1970
1970
1971
1972
1973
1973
1974
1974
1973
1974
1975
1976
1978
1979
1980
1981
1981
1981
1981
1981
1982
1982
1983
1984
1984
1984
1984
1983
1982
1982
1982
1982
1982
1982
1982
1981
1981
1980
1980
1981
1981
1982
1983
1984
1984
1983
1982
1981
1981
1981
1981
1981
1982
1982
1981
1981
1981
1980
1981
1981
1982
1983
1984
1984
1983
1982
1981
1980
1980
1981
1982
1983
1983
1982
1982
1981
1981
1980
1980
1979
1978
1977
1977
1977
1978
1979
1979
1979
1979
1978
1978
1977
1976
1974
1973
1972
1971
1970
1971
1972
1972
1973
1972
1970
1969
1968
1973
1984
2001
2018
2033
2042
2048
2049
2047
2033
2005
1967
1929
1902
1894
1904
1924
1945
1962
1971
1975
1977
1977
1978
1979
1980
1981
1981
1981
1981
1981
1981
1982
1983
1984
1985
1986
1987
1988
1988
1989
1989
1990
1991
1992
1993
1995
1996
1996
1997
1997
1998
1999
2000
2001
2003
2005
2006
2007
2007
2008
2008
2009
2010
2011
2012
2012
2011
2010
2007
2005
2002
1999
1996
1993
1989
1985
1982
1978
1974
1971
1968
1965
1964
1963
1962
1962
1961
1961
1960
1960
1959
1959
1959
1960
1961
1962
1963
1963
1963
1963
1963
1963
1963
1965
1966
1967
1967
1967
1967
1966
1966
1966
1966
1966
1966
1966
1966
1966
1966
1965
1965
1964
1964
1965
1965
1966
1966
1966
1965
1964
1964
1964
1964
1965
1966
1966
1966
1965
1965
1964
1964
1965
1966
1967
1967
1967
1967
1966
1966
1965
1965
1965
1966
1966
1967
1967
1968
1968
1967
1967
1967
1966
1967
1967
1968
1969
1969
1970
1970
1969
1969
1969
1970
1970
1970
1970
1969
1968
1968
1968
1969
1971
1973
1974
1975
1975
1974
1971
1969
1967
1966
1967
1968
1969
1969
1970
1970
1969
1967
1965
1964
1967
1975
1990
2007
2022
2032
2036
2037
2037
2031
2016
1989
1954
1922
1903
1903
1918
1940
1959
1972
1978
1980
1981
1981
1982
1983
1984
1984
1984
1984
1984
1985
1987
1989
1990
1991
1991
1991
1990
1990
1991
1992
1994
1996
1997
1998
1999
1999
1999
1999
2000
2001
2003
2005
2007
2008
2009
2010
2011
2012
2013
2014
2016
2018
2020
2021
2021
2021
2019
2018
2016
2015
2013
2011
2008
2004
2000
1995
1990
1986
1982
1980
1977
1976
1974
1973
1971
1970
1969
1968
1968
1968
1968
1969
1969
1970
1970
1970
1970
1969
1969
1969
1969
1970
1971
1971
1971
1971
1971
1970
1970
1970
1971
1972
1972
1972
1971
1970
1969
1969
1969
1970
1971
1971
1972
1972
1972
1971
1970
1970
1970
1970
1970
1971
1971
1971
1971
1971
1970
1970
1970
1970
1971
1971
1972
1971
1971
1970
1970
1970
1970
1971
1972
1973
1975
1976
1976
1976
1975
1975
1975
1975
1976
1976
1976
1977
1977
1976
1975
1975
1975
1976
1977
1978
1979
1979
1979
1978
1977
1977
1976
1976
1977
1978
1979
1980
1981
1982
1982
1982
1981
1980
1979
1978
1978
1978
1978
1978
1977
1977
1977
1978
1979
1979
1978
1976
1976
1981
1994
2011
2030
2045
2054
2060
2063
2061
2049
2024
1986
1946
1917
1906
1913
1932
1953
1970
1981
1987
1989
1989
1989
1990
1991
1992
1994
1995
1995
1995
1995
1994
1995
1995
1997
1998
1999
1999
1999
1999
2000
2000
2001
2002
2003
2005
2005
2006
2007
2008
2009
2010
2011
2013
2014
2016
2018
2019
2021
2022
2022
2023
2023
2024
2025
2025
2026
2025
2024
2022
2019
2016
2013
2009
2005
2001
1997
1992
1989
1985
1982
1979
1977
1975
1974
1974
1973
1972
1972
1971
1971
1971
1971
1971
1971
1972
1972
1972
1972
1972
1972
1972
1971
1972
1972
1973
1974
1974
1974
1974
1973
1972
1971
1971
1972
1972
1972
1972
1971
1970
1969
1968
1968
1969
1969
1969
1969
1969
1969
1968
1967
1967
1967
1967
1968
1968
1968
1968
1968
1967
1966
1966
1966
1967
1967
1968
1968
1968
1967
1967
1967
1967
1967
1967
1967
1968
1968
1969
1969
1969
1968
1967
1967
1967
1967
1968
1969
1969
1970
1969
1969
1969
1969
1969
1970
1970
1970
1969
1968
1968
1967
1968
1969
1971
1972
1974
1974
1973
1972
1969
1967
1966
1966
1966
1966
1967
1967
1967
1967
1967
1966
1964
1962
1963
1969
1981
1998
2015
2027
2034
2037
2038
2037
2029
2009
1976
1939
1910
1897
1902
1920
1941
1959
1970
1976
1978
1979
1979
1979
1979
1979
1979
1979
1980
1981
1982
1983
1984
1984
1984
1984
1984
1984
1985
1986
1987
1989
1990
1991
1992
1992
1992
1993
1994
1996
1998
2000
2001
2002
2002
2003
2004
2006
2007
2009
2011
2012
2012
2013
2013
2012
2012
2011
2010
2010
2009
2007
2004
1999
1994
1989
1984
1980
1976
1973
1970
1968
1965
1963
1962
1961
1960
1959
1959
1959
1959
1959
1960
1960
1960
1960
1960
1960
1960
1961
1962
1962
1963
1963
1963
1962
1962
1961
1962
1962
1963
1963
1963
1963
1962
1962
1961
1961
1961
1962
1962
1962
1962
1962
1962
1961
1961
1961
1961
1961
1962
1962
1962
1962
1962
1961
1961
1961
1961
1961
1962
1962
1963
1963
1962
1962
1961
1961
1962
1963
1963
1963
1963
1963
1963
1963
1963
1963
1963
1964
1964
1965
1965
1965
1964
1964
1964
1964
1964
1965
1966
1966
1967
1967
1966
1966
1965
1965
1966
1967
1968
1969
1969
1969
1969
1968
1967
1966
1966
1967
1968
1969
1971
1972
1972
1972
1972
1971
1970
1969
1968
1967
1967
1967
1967
1966
1966
1967
1967
1968
1968
1967
1966
1966
1971
1982
1997
2013
2025
2031
2033
2033
2031
2023
2002
1971
1937
1910
1901
1910
1930
1952
1969
1978
1981
1981
1981
1981
1982
1983
1984
1985
1986
1986
1986
1987
1987
1987
1988
1989
1990
1991
1992
1992
1993
1993
1993
1994
1995
1996
1998
1999
2001
2002
2002
2003
2004
2005
2007
2009
2011
2013
2015
2016
2017
2018
2018
2019
2020
2021
2022
2022
2022
2021
2019
2017
2015
2012
2008
2004
2000
1996
1992
1988
1984
1981
1978
1975
1974
1972
1971
1971
1970
1969
1969
1969
1968
1969
1969
1970
1971
1972
1972
1972
1971
1971
1971
1971
1971
1972
1972
1973
1973
1973
1973
1973
1972
1972
1973
1973
1974
1974
1974
1974
1974
1973
1973
1973
1972
1972
1973
1973
1973
1973
1973
1973
1972
1972
1972
1972
1973
1973
1974
1974
1973
1973
1972
1972
1972
1973
1973
1973
1973
1974
1974
1975
1975
1975
1975
1975
1976
1976
1977
1977
1977
1976
1976
1976
1976
1977
1977
1977
1977
1976
1976
1975
1975
1975
1976
1976
1977
1978
1979
1979
1979
1978
1977
1977
1976
1977
1978
1980
1981
1982
1982
1983
1983
1982
1981
1979
1978
1977
1977
1977
1977
1977
1977
1977
1977
1978
1978
1977
1976
1976
1980
1990
2007
2026
2042
2052
2059
2063
2063
2055
2033
1997
1957
1924
1907
1910
1927
1948
1966
1979
1986
1989
1989
1989
1990
1991
1993
1995
1996
1996
1996
1996
1996
1997
1998
1999
2001
2002
2003
2003
2003
2003
2004
2005
2006
2007
2009
2010
2011
2012
2012
2013
2013
2015
2016
2018
2020
2021
2023
2024
2025
2025
2026
2027
2027
2028
2029
2029
2029
2028
2026
2023
2020
2017
2014
2011
2007
2002
1998
1994
1990
1986
1983
1980
1978
1977
1976
1975
1975
1974
1973
1973
1972
1972
1973
1973
1974
1975
1975
1976
1975
1975
1974
1974
1975
1975
1976
1976
1976
1976
1975
1975
1974
1974
1974
1974
1975
1975
1975
1975
1975
1974
1973
1972
1972
1973
1973
1973
1974
1973
1973
1972
1971
1971
1971
1971
1971
1972
1972
1972
1972
1971
1971
1970
1970
1971
1971
1972
1972
1972
1972
1971
1971
1971
1971
1971
1971
1972
1972
1971
1971
1971
1971
1971
1971
1971
1971
1972
1972
1972
1972
1971
1970
1969
1969
1969
1970
1971
1971
1971
1971
1970
1969
1968
1968
1969
1970
1972
1973
1974
1975
1974
1974
1972
1971
1970
1969
1969
1969
1969
1968
1968
1968
1968
1969
1970
1970
1968
1968
1969
1977
1990
2006
2021
2030
2034
2035
2035
2031
2018
1993
1958
1925
1904
1902
1917
1939
1960
1974
1981
1982
1982
1982
1982
1983
1984
1985
1987
1988
1988
1988
1988
1988
1988
1989
1990
1991
1992
1993
1993
1994
1994
1994
1995
1996
1998
1999
2000
2000
2001
2001
2002
2003
2005
2007
2009
2011
2013
2014
2016
2017
2018
2019
2020
2021
2021
2021
2021
2020
2018
2016
2013
2010
2007
2003
1999
1995
1991
1987
1983
1979
1976
1973
1971
1969
1968
1968
1968
1967
1967
1966
1965
1965
1965
1965
1966
1966
1967
1967
1967
1967
1966
1966
1966
1967
1967
1968
1968
1968
1968
1968
1967
1967
1967
1967
1968
1969
1969
1969
1969
1969
1969
1968
1968
1968
1968
1968
1968
1969
1969
1969
1969
1969
1968
1968
1967
1968
1969
1969
1970
1970
1970
1970
1970
1970
1971
1971
1971
1972
1972
1971
1971
1971
1971
1971
1972
1972
1973
1972
1972
1972
1971
1971
1971
1971
1972
1972
1972
1972
1972
1972
1972
1972
1972
1972
1972
1972
1973
1973
1974
1974
1973
1973
1974
1974
1975
1977
1978
1979
1979
1978
1977
1975
1974
1974
1975
1977
1978
1980
1981
1981
1980
1979
1977
1976
1975
1975
1975
1976
1976
1976
1976
1976
1976
1976
1975
1974
1973
1974
1980
1992
2009
2025
2038
2045
2048
2050
2050
2041
2018
1983
1945
1915
1904
1911
1930
1952
1969
1980
1984
1986
1986
1985
1986
1987
1989
1990
1991
1991
1991
1991
1991
1991
1992
1993
1993
1994
1995
1996
1996
1997
1997
1998
1999
2000
2001
2003
2004
2005
2006
2006
2007
2008
2010
2011
2013
2015
2016
2018
2019
2020
2020
2021
2021
2022
2022
2022
2022
2021
2019
2017
2014
2010
2006
2002
1999
1995
1991
1987
1983
1980
1977
1974
1972
1970
1969
1968
1967
1967
1966
1965
1965
1965
1965
1965
1966
1966
1967
1967
1967
1966
1966
1966
1966
1967
1968
1968
1968
1969
1968
1968
1967
1967
1967
1967
1968
1968
1969
1969
1968
1968
1967
1966
1966
1966
1967
1968
1968
1968
1968
1967
1966
1966
1966
1966
1967
1967
1967
1967
1967
1967
1966
1966
1967
1967
1968
1969
1969
1969
1969
1969
1968
1968
1967
1968
1968
1969
1970
1970
1970
1969
1969
1969
1968
1969
1969
1970
1971
1971
1971
1970
1970
1969
1969
1969
1970
1971
1971
1972
1972
1972
1971
1971
1971
1971
1972
1972
1973
1973
1973
1973
1973
1973
1973
1974
1975
1976
1976
1975
1974
1974
1974
1974
1976
1977
1978
1979
1979
1978
1977
1975
1974
1973
1972
1972
1973
1974
1974
1975
1975
1975
1973
1971
1970
1972
1981
1995
2013
2028
2037
2040
2041
2040
2037
2026
2003
1971
1938
1916
1911
1923
1943
1963
1977
1985
1989
1990
1990
1990
1990
1990
1991
1991
1992
1993
1994
1994
1995
1996
1997
1997
1997
1997
1998
1998
1999
2000
2001
2002
2003
2003
2004
2005
2005
2006
2008
2009
2011
2013
2014
2016
2017
2018
2020
2021
2023
2025
2027
2028
2029
2030
2030
2029
2028
2027
2026
2025
2022
2019
2015
2011
2006
2001
1997
1993
1990
1987
1984
1982
1980
1977
1976
1974
1974
1973
1974
1974
1974
1974
1974
1973
1973
1972
1972
1972
1973
1974
1975
1975
1975
1975
1974
1974
1974
1975
1975
1975
1975
1975
1974
1974
1974
1974
1974
1974
1974
1974
1974
1974
1974
1973
1972
1971
1971
1971
1971
1972
1972
1972
1971
1971
1970
1970
1970
1971
1971
1972
1972
1972
1972
1971
1971
1970
1971
1971
1972
1973
1973
1973
1973
1973
1972
1971
1971
1971
1972
1972
1973
1973
1973
1973
1972
1972
1971
1971
1972
1973
1973
1974
1973
1973
1972
1971
1971
1971
1972
1972
1973
1973
1974
1973
1973
1973
1972
1972
1972
1973
1974
1975
1976
1976
1976
1976
1975
1975
1974
1974
1973
1973
1972
1972
1973
1973
1973
1973
1973
1973
1972
1971
1970
1972
1980
1995
2013
2030
2042
2048
2051
2053
2048
2033
2002
1963
1926
1904
1901
1915
1936
1957
1971
1979
1982
1983
1983
1984
1985
1986
1987
1987
1988
1988
1988
1988
1988
1988
1989
1990
1991
1992
1992
1992
1992
1993
1993
1994
1996
1997
1998
1999
2000
2001
2002
2003
2004
2006
2008
2010
2012
2013
2014
2015
2016
2017
2018
2019
2020
2020
2021
2021
2020
2019
2017
2014
2010
2007
2003
1999
1995
1991
1986
1983
1979
1975
1973
1970
1969
1968
1968
1967
1967
1966
1965
1964
1964
1964
1964
1965
1966
1966
1966
1966
1966
1965
1965
1965
1966
1967
1967
1967
1967
1967
1967
1967
1967
1967
1968
1968
1968
1968
1968
1967
1967
1966
1966
1966
1967
1967
1968
1968
1968
1967
1966
1966
1966
1966
1967
1968
1968
1968
1967
1966
1966
1966
1966
1967
1967
1968
1968
1968
1968
1968
1967
1967
1967
1967
1968
1968
1969
1969
1969
1968
1968
1967
1968
1968
1969
1970
1970
1970
1970
1969
1969
1968
1968
1969
1969
1970
1969
1969
1968
1968
1968
1967
1967
1968
1969
1969
1970
1970
1970
1970
1970
1970
1970
1970
1971
1972
1973
1973
1972
1971
1970
1970
1970
1972
1974
1975
1977
1976
1975
1974
1972
1971
1970
1970
1970
1971
1971
1971
1971
1971
1971
1970
1969
1967
1967
1970
1980
1995
2012
2025
2033
2035
2035
2035
2030
2017
1990
1956
1924
1905
1905
1920
1942
1962
1975
1982
1983
1984
1983
1983
1984
1984
1985
1986
1988
1988
1989
1989
1989
1989
1989
1989
1990
1990
1991
1993
1994
1995
1996
1997
1997
1997
1998
1999
2001
2002
2004
2005
2007
2008
2009
2010
2011
2013
2015
2017
2019
2020
2021
2021
2022
2022
2022
2022
2022
2021
2019
2017
2015
2011
2008
2003
1998
1994
1990
1987
1984
1981
1979
1976
1973
1971
1970
1969
1969
1970
1970
1970
1970
1970
1969
1969
1969
1970
1970
1971
1971
1971
1971
1970
1970
1971
1971
1972
1974
1975
1975
1976
1975
1975
1974
1974
1974
1975
1975
1976
1976
1977
1976
1976
1975
1974
1974
1974
1974
1975
1975
1974
1974
1974
1974
1974
1974
1974
1974
1975
1975
1975
1975
1974
1974
1973
1973
1974
1974
1975
1975
1975
1975
1975
1975
1975
1975
1975
1975
1975
1976
1976
1976
1975
1975
1974
1974
1974
1975
1975
1976
1976
1976
1976
1975
1975
1974
1974
1975
1976
1976
1976
1976
1976
1975
1975
1975
1975
1975
1976
1976
1977
1977
1977
1976
1976
1976
1976
1977
1977
1977
1976
1975
1975
1975
1977
1978
1979
1980
1980
1979
1978
1976
1975
1974
1973
1973
1973
1974
1975
1976
1976
1976
1974
1971
1970
1971
1977
1991
2009
2026
2039
2046
2048
2050
2048
2036
2010
1974
1937
1910
1902
1912
1932
1953
1969
1979
1983
1985
1985
1985
1986
1986
1986
1987
1987
1988
1988
1989
1990
1990
1991
1991
1992
1992
1992
1993
1994
1995
1996
1997
1998
1999
1999
2000
2000
2001
2002
2004
2006
2008
2010
2011
2012
2013
2014
2016
2017
2018
2019
2020
2020
2021
2021
2021
2020
2019
2018
2016
2014
2012
2008
2004
1999
1994
1989
1985
1981
1979
1976
1974
1972
1970
1969
1967
1966
1965
1965
1965
1965
1965
1966
1966
1966
1966
1965
1965
1966
1967
1967
1968
1968
1968
1967
1967
1967
1967
1967
1968
1968
1968
1968
1968
1968
1968
1967
1967
1967
1968
1968
1968
1967
1967
1966
1966
1966
1965
1965
1965
1965
1965
1965
1965
1965
1965
1964
1964
1965
1965
1966
1967
1967
1967
1967
1966
1966
1966
1967
1967
1968
1968
1968
1967
1967
1967
1967
1967
1967
1967
1968
1968
1969
1969
1968
1968
1968
1968
1968
1969
1969
1969
1969
1970
1969
1969
1969
1968
1968
1969
1969
1970
1970
1970
1970
1969
1969
1969
1970
1970
1971
1971
1971
1971
1971
1971
1971
1971
1971
1972
1973
1973
1973
1972
1972
1971
1972
1973
1975
1976
1977
1977
1975
1974
1972
1970
1968
1968
1967
1967
1967
1968
1968
1969
1968
1967
1965
1963
1964
1971
1984
2001
2016
2027
2032
2033
2033
2030
2019
1997
1965
1932
1909
1903
1914
1935
1956
1970
1978
1981
1981
1982
1982
1982
1982
1982
1983
1984
1985
1986
1986
1987
1987
1987
1987
1987
1988
1989
1990
1991
1992
1993
1994
1995
1995
1996
1997
1998
1999
2000
2002
2004
2005
2006
2007
2008
2010
2012
2014
2016
2018
2019
2021
2021
2022
2022
2022
2022
2022
2021
2020
2018
2015
2011
2007
2002
1997
1992
1989
1986
1983
1981
1978
1976
1974
1972
1971
1970
1970
1970
1970
1970
1970
1970
1970
1970
1970
1970
1970
1971
1972
1973
1973
1973
1972
1972
1972
1972
1973
1973
1974
1974
1974
1974
1973
1973
1972
1972
1972
1972
1973
1973
1973
1973
1972
1971
1971
1971
1971
1972
1973
1973
1973
1973
1972
1971
1971
1971
1971
1972
1974
1975
1976
1976
1976
1975
1975
1975
1975
1975
1976
1977
1977
1977
1976
1976
1975
1976
1976
1976
1977
1977
1977
1977
1978
1978
1977
1977
1977
1978
1978
1978
1978
1978
1978
1979
1979
1979
1980
1981
1981
1982
1982
1983
1983
1982
1982
1982
1982
1982
1982
1983
1984
1984
1985
1985
1984
1984
1983
1983
1982
1982
1981
1981
1980
1979
1979
1979
1979
1980
1981
1981
1980
1978
1978
1981
1991
2008
2028
2046
2059
2068
2073
2074
2065
2043
2006
1964
1928
1909
1910
1925
1946
1965
1978
1986
1989
1991
1992
1993
1994
1995
1995
1996
1996
1997
1997
1997
1997
1998
1999
2000
2001
2001
2001
2002
2002
2003
2004
2005
2006
2007
2008
2009
2009
2010
2010
2011
2013
2014
2016
2018
2019
2021
2022
2023
2024
2025
2026
2028
2029
2029
2029
2029
2027
2026
2024
2022
2019
2016
2013
2008
2004
1999
1995
1991
1987
1984
1981
1980
1978
1977
1977
1976
1975
1974
1973
1973
1973
1973
1974
1975
1975
1975
1975
1975
1974
1974
1974
1975
1975
1975
1975
1975
1975
1975
1975
1975
1975
1975
1975
1976
1976
1976
1975
1975
1974
1974
1974
1974
1974
1975
1975
1974
1974
1973
1973
1972
1973
1973
1974
1974
1973
1973
1973
1972
1972
1972
1972
1972
1972
1972
1972
1972
1972
1972
1972
1972
1972
1973
1973
1974
1974
1974
1973
1973
1972
1972
1972
1972
1972
1973
1973
1973
1973
1972
1972
1972
1973
1973
1972
1972
1972
1972
1972
1972
1971
1971
1970
1971
1972
1974
1976
1977
1977
1976
1975
1973
1972
1971
1971
1971
1971
1971
1970
1970
1970
1970
1970
1970
1969
1968
1967
1968
1976
1990
2008
2024
2036
2041
2044
2044
2039
2024
1996
1958
1923
1900
1897
1911
1934
1956
1971
1979
1982
1982
1982
1982
1982
1983
1984
1985
1986
1986
1986
1986
1986
1987
1987
1988
1989
1990
1991
1992
1992
1993
1993
1994
1995
1996
1998
1999
2000
2001
2001
2002
2003
2005
2006
2008
2011
2013
2015
2016
2017
2018
2019
2020
2020
2021
2022
2022
2021
2020
2018
2015
2012
2008
2004
2001
1997
1993
1989
1984
1980
1976
1973
1971
1969
1968
1968
1968
1967
1967
1966
1965
1965
1965
1965
1966
1967
1967
1967
1967
1967
1967
1966
1966
1967
1967
1968
1969
1969
1969
1968
1968
1967
1967
1967
1967
1968
1968
1968
1968
1967
1967
1966
1966
1966
1966
1967
1967
1967
1967
1966
1965
1965
1964
1964
1965
1965
1966
1967
1967
1967
1966
1966
1966
1966
1967
1967
1968
1968
1968
1968
1967
1967
1966
1966
1967
1968
1968
1969
1969
1968
1968
1968
1968
1968
1968
1969
1969
1970
1970
1969
1969
1969
1969
1969
1970
1971
1971
1972
1972
1972
1971
1971
1971
1972
1972
1972
1972
1972
1972
1972
1973
1974
1976
1977
1977
1977
1975
1974
1972
1971
1970
1970
1970
1971
1971
1972
1973
1973
1972
1969
1968
1968
1973
1985
2001
2018
2030
2036
2037
2037
2034
2025
2005
1974
1940
1913
1902
1911
1931
1953
1970
1979
1983
1984
1984
1985
1986
1987
1987
1987
1987
1988
1988
1988
1989
1990
1991
1992
1992
1993
1993
1993
1994
1995
1996
1998
1999
2000
2000
2001
2001
2002
2003
2005
2006
2008
2010
2011
2013
2014
2015
2016
2017
2019
2020
2022
2024
2024
2024
2024
2023
2022
2020
2019
2017
2015
2012
2007
2003
1997
1992
1988
1984
1981
1979
1976
1975
1973
1972
1971
1970
1969
1968
1968
1968
1969
1969
1970
1970
1969
1969
1968
1968
1969
1969
1970
1971
1971
1971
1971
1970
1970
1970
1970
1970
1971
1971
1971
1971
1971
1970
1970
1969
1969
1969
1970
1970
1970
1970
1969
1969
1968
1968
1968
1969
1970
1970
1970
1970
1969
1969
1969
1969
1969
1970
1971
1971
1971
1971
1970
1970
1969
1969
1970
1970
1971
1971
1971
1971
1971
1970
1970
1970
1970
1971
1971
1972
1972
1972
1972
1971
1971
1971
1971
1971
1972
1972
1973
1973
1972
1972
1972
1972
1972
1973
1973
1974
1974
1975
1974
1974
1974
1974
1975
1975
1976
1976
1976
1975
1975
1975
1975
1977
1978
1980
1980
1980
1979
1977
1975
1973
1972
1972
1972
1973
1974
1974
1975
1975
1974
1973
1971
1970
1974
1983
1998
2015
2029
2038
2042
2044
2043
2036
2019
1990
1955
1924
1907
1909
1926
1948
1967
1979
1984
1986
1986
1986
1986
1987
1987
1988
1988
1989
1990
1990
1991
1992
1992
1992
1993
1993
1994
1995
1995
1996
1997
1998
1999
2000
2000
2000
2000
2001
2002
2004
2006
2008
2010
2011
2013
2014
2016
2018
2020
2022
2024
2025
2026
2027
2027
2026
2026
2026
2026
2025
2023
2021
2018
2014
2009
2005
2000
1995
1991
1988
1986
1984
1982
1979
1977
1976
1975
1975
1975
1976
1976
1976
1976
1975
1975
1974
1974
1975
1976
1977
1978
1978
1979
1978
1978
1977
1977
1978
1978
1978
1979
1979
1979
1979
1978
1978
1977
1978
1978
1978
1978
1978
1978
1978
1978
1978
1978
1978
1978
1979
1979
1979
1980
1979
1979
1978
1978
1978
1978
1978
1979
1979
1979
1979
1980
1980
1980
1981
1981
1982
1982
1983
1983
1983
1983
1982
1981
1981
1981
1982
1983
1984
1984
1983
1982
1981
1980
1980
1980
1981
1982
1983
1983
1983
1983
1982
1982
1982
1983
1984
1985
1985
1986
1986
1986
1985
1985
1984
1984
1985
1986
1987
1987
1988
1989
1989
1989
1989
1988
1986
1985
1985
1984
1984
1983
1983
1983
1983
1984
1984
1985
1984
1983
1982
1984
1992
2008
2027
2046
2060
2069
2076
2077
2070
2048
2014
1972
1934
1913
1911
1925
1945
1965
1979
1987
1991
1993
1993
1993
1994
1995
1997
1998
1998
1998
1998
1998
1998
1999
1999
2001
2001
2002
2003
2003
2003
2003
2004
2004
2006
2007
2008
2009
2009
2010
2010
2011
2013
2014
2016
2018
2019
2020
2021
2022
2023
2024
2025
2026
2027
2028
2028
2029
2028
2026
2023
2020
2017
2014
2011
2007
2003
1999
1994
1990
1986
1983
1980
1978
1976
1975
1974
1974
1973
1972
1972
1971
1971
1971
1971
1972
1972
1972
1972
1972
1972
1972
1972
1973
1973
1974
1974
1974
1974
1973
1973
1972
1973
1973
1973
1974
1974
1974
1973
1973
1972
1972
1972
1972
1973
1973
1972
1971
1969
1968
1967
1967
1967
1968
1968
1969
1969
1968
1968
1968
1967
1967
1967
1967
1968
1968
1969
1970
1970
1969
1968
1968
1967
1967
1968
1968
1969
1969
1968
1968
1967
1967
1967
1967
1968
1968
1968
1968
1968
1968
1967
1967
1967
1967
1968
1969
1970
1970
1970
1970
1970
1969
1968
1967
1968
1968
1969
1970
1971
1972
1972
1972
1972
1971
1970
1969
1969
1968
1968
1967
1967
1967
1967
1968
1968
1968
1967
1965
1965
1970
1981
1997
2014
2027
2034
2037
2037
2034
2024
2003
1971
1936
1908
1898
1905
1926
1949
1966
1976
1980
1980
1980
1980
1980
1981
1983
1984
1984
1985
1985
1985
1985
1985
1986
1987
1988
1989
1990
1990
1990
1991
1991
1992
1993
1994
1995
1996
1997
1998
1999
2000
2000
2002
2003
2005
2007
2009
2011
2012
2013
2014
2015
2016
2017
2018
2018
2019
2019
2018
2016
2013
2010
2007
2003
1999
1995
1991
1987
1983
1979
1975
1972
1969
1967
1966
1965
1965
1964
1963
1963
1962
1962
1962
1962
1962
1963
1963
1964
1964
1963
1963
1962
1962
1963
1963
1964
1964
1964
1964
1964
1964
1964
1964
1964
1964
1965
1965
1965
1965
1965
1964
1964
1964
1964
1964
1965
1965
1965
1965
1965
1964
1964
1964
1964
1964
1965
1965
1965
1965
1964
1964
1964
1964
1964
1965
1965
1966
1966
1966
1966
1965
1965
1965
1965
1966
1966
1967
1967
1967
1967
1967
1966
1966
1967
1967
1968
1968
1968
1967
1967
1967
1967
1967
1968
1968
1969
1969
1969
1970
1970
1970
1970
1970
1970
1971
1972
1972
1972
1971
1970
1970
1970
1970
1971
1973
1975
1977
1977
1976
1974
1972
1970
1969
1969
1969
1970
1971
1971
1971
1971
1971
1970
1969
1967
1967
1971
1980
1995
2012
2026
2034
2038
2038
2038
2032
2016
1988
1953
1921
1903
1904
1921
1944
1964
1977
1983
1985
1985
1984
1984
1984
1984
1985
1986
1987
1988
1989
1990
1990
1990
1990
1990
1991
1991
1993
1994
1995
1996
1997
1997
1997
1997
1998
1999
2000
2002
2004
2006
2007
2008
2009
2010
2011
2013
2015
2017
2018
2020
2021
2021
2022
2022
2022
2022
2022
2021
2020
2019
2016
2012
2007
2003
1998
1994
1990
1987
1983
1980
1977
1975
1972
1971
1969
1969
1969
1969
1969
1969
1969
1969
1969
1968
1969
1969
1969
1970
1971
1971
1971
1971
1970
1970
1970
1970
1971
1972
1972
1972
1972
1972
1971
1971
1971
1971
1971
1972
1973
1973
1972
1971
1970
1969
1969
1969
1969
1970
1970
1970
1970
1970
1969
1969
1969
1969
1970
1970
1971
1971
1971
1970
1970
1969
1969
1970
1970
1971
1972
1972
1972
1971
1971
1971
1970
1970
1971
1971
1972
1972
1972
1972
1971
1971
1971
1971
1972
1972
1973
1973
1973
1973
1972
1972
1972
1973
1973
1974
1975
1975
1975
1975
1975
1974
1975
1975
1976
1977
1978
1979
1979
1978
1977
1977
1978
1979
1980
1981
1981
1981
1980
1979
1978
1978
1979
1981
1982
1984
1986
1986
1986
1984
1982
1980
1978
1978
1978
1979
1979
1980
1980
1979
1979
1979
1977
1976
1976
1978
1985
1999
2016
2032
2044
2051
2057
2060
2058
2046
2018
1980
1943
1918
1911
1922
1942
1963
1978
1987
1991
1992
1992
1991
1991
1991
1992
1993
1994
1995
1996
1997
1997
1997
1997
1997
1997
1998
1999
2001
2002
2003
2004
2004
2004
2005
2005
2006
2008
2010
2011
2013
2014
2014
2015
2016
2018
2020
2022
2024
2025
2026
2028
2028
2029
2029
2029
2029
2030
2029
2029
2027
2024
2020
2016
2011
2007
2002
1998
1994
1991
1987
1984
1981
1978
1976
1975
1974
1974
1974
1974
1973
1973
1972
1972
1971
1972
1972
1973
1974
1974
1975
1975
1974
1974
1974
1973
1973
1974
1974
1975
1975
1975
1975
1975
1974
1974
1974
1974
1974
1975
1975
1974
1974
1973
1972
1972
1973
1973
1974
1974
1974
1973
1973
1972
1971
1971
1971
1972
1972
1972
1972
1972
1972
1972
1972
1972
1972
1972
1973
1973
1973
1973
1973
1972
1971
1971
1971
1972
1972
1973
1973
1973
1972
1972
1972
1972
1972
1973
1973
1973
1973
1973
1973
1973
1973
1973
1973
1973
1973
1973
1973
1973
1973
1972
1972
1973
1973
1974
1974
1975
1975
1975
1975
1974
1973
1973
1973
1973
1975
1976
1978
1979
1978
1977
1976
1975
1974
1973
1973
1973
1972
1972
1972
1971
1971
1972
1972
1972
1971
1970
1970
1973
1984
1999
2016
2030
2039
2044
2046
2045
2035
2013
1979
1941
1911
1899
1906
1926
1948
1967
1977
1982
1983
1982
1982
1983
1983
1984
1985
1986
1987
1987
1987
1987
1987
1988
1989
1990
1991
1992
1992
1993
1993
1994
1994
1995
1996
1997
1998
2000
2001
2002
2003
2003
2004
2006
2007
2009
2011
2013
2015
2016
2016
2017
2017
2018
2019
2020
2020
2020
2019
2018
2015
2012
2009
2005
2001
1997
1993
1989
1985
1982
1978
1974
1971
1968
1967
1966
1966
1966
1965
1964
1964
1963
1963
1963
1964
1964
1965
1966
1966
1966
1966
1965
1965
1965
1965
1966
1966
1967
1967
1968
1967
1967
1966
1966
1966
1967
1967
1968
1968
1967
1967
1966
1966
1966
1966
1966
1967
1967
1967
1967
1966
1966
1966
1965
1966
1966
1967
1967
1967
1967
1966
1965
1965
1965
1966
1967
1967
1968
1968
1968
1967
1967
1967
1966
1967
1967
1968
1968
1969
1969
1969
1969
1968
1968
1968
1968
1968
1968
1969
1969
1968
1968
1968
1968
1968
1969
1970
1971
1971
1971
1970
1970
1969
1969
1970
1970
1971
1971
1971
1971
1971
1971
1971
1971
1971
1972
1973
1974
1974
1975
1974
1973
1972
1972
1973
1975
1977
1978
1978
1978
1977
1976
1974
1973
1972
1972
1971
1972
1972
1973
1973
1973
1973
1973
1972
1971
1970
1973
1981
1995
2011
2026
2036
2041
2044
2045
2041
2027
1999
1963
1930
1909
1908
1922
1944
1965
1979
1986
1987
1987
1985
1985
1985
1986
1987
1989
1990
1991
1992
1992
1992
1992
1992
1993
1994
1995
1996
1997
1998
1998
1999
1999
1999
2000
2001
2003
2005
2006
2007
2008
2008
2009
2010
2012
2014
2016
2019
2021
2022
2024
2024
2025
2026
2026
2028
2029
2029
2029
2028
2026
2023
2018
2014
2009
2005
2001
1997
1994
1990
1987
1983
1980
1977
1975
1973
1973
1973
1974
1974
1974
1973
1973
1973
1973
1973
1974
1974
1975
1975
1975
1975
1975
1975
1975
1975
1975
1976
1976
1976
1976
1976
1975
1975
1975
1975
1976
1976
1976
1976
1975
1974
1974
1974
1974
1974
1975
1975
1975
1974
1974
1973
1973
1973
1973
1973
1973
1974
1975
1976
1976
1976
1976
1976
1976
1976
1976
1977
1977
1978
1977
1977
1976
1976
1976
1976
1976
1977
1977
1978
1977
1977
1976
1975
1975
1976
1977
1978
1979
1979
1979
1979
1978
1977
1977
1977
1978
1979
1979
1979
1978
1978
1977
1977
1977
1978
1979
1979
1980
1980
1980
1980
1979
1979
1979
1979
1979
1980
1982
1983
1984
1984
1983
1983
1982
1981
1981
1980
1979
1978
1978
1978
1978
1978
1978
1979
1979
1979
1978
1976
1977
1982
1995
2013
2033
2048
2059
2066
2070
2068
2055
2028
1988
1946
1914
1902
1908
1926
1948
1966
1977
1984
1987
1987
1987
1988
1989
1990
1992
1992
1993
1993
1993
1993
1994
1994
1995
1997
1997
1998
1999
1999
1999
1999
1999
2000
2001
2002
2004
2004
2005
2005
2005
2006
2007
2009
2011
2013
2016
2018
2019
2020
2020
2021
2021
2022
2023
2024
2024
2024
2023
2021
2019
2016
2012
2009
2005
2001
1997
1993
1988
1984
1980
1976
1973
1972
1971
1970
1970
1970
1969
1968
1967
1966
1966
1966
1967
1967
1968
1969
1969
1969
1969
1968
1968
1969
1969
1970
1971
1971
1971
1970
1970
1969
1969
1970
1970
1971
1971
1971
1970
1970
1969
1968
1968
1968
1968
1968
1968
1968
1968
1967
1966
1966
1966
1966
1967
1967
1967
1967
1967
1966
1966
1966
1966
1966
1966
1967
1967
1967
1967
1967
1967
1966
1966
1967
1967
1968
1968
1968
1968
1967
1966
1966
1966
1967
1967
1968
1968
1967
1967
1967
1966
1966
1966
1966
1967
1967
1968
1968
1968
1967
1967
1967
1966
1967
1967
1968
1969
1969
1969
1968
1968
1968
1968
1968
1968
1968
1968
1969
1970
1970
1971
1971
1971
1971
1970
1970
1969
1969
1967
1966
1965
1965
1966
1966
1967
1968
1968
1967
1965
1963
1963
1969
1982
1999
2017
2030
2037
2039
2039
2037
2027
2004
1971
1935
1908
1898
1906
1926
1947
1964
1974
1978
1979
1979
1979
1980
1981
1982
1983
1984
1984
1984
1984
1985
1986
1987
1989
1990
1990
1990
1990
1989
1990
1991
1993
1994
1995
1996
1997
1997
1998
1999
2001
2003
2005
2007
2009
2010
2010
2011
2012
2014
2016
2018
2019
2021
2021
2021
2021
2020
2019
2018
2017
2015
2013
2009
2004
1999
1994
1989
1984
1980
1977
1974
1972
1971
1969
1968
1966
1965
1964
1963
1963
1963
1964
1964
1965
1965
1965
1965
1965
1965
1965
1965
1966
1966
1967
1968
1968
1968
1968
1967
1967
1967
1967
1968
1969
1970
1970
1970
1969
1968
1968
1969
1970
1971
1971
1970
1970
1969
1968
1968
1968
1969
1969
1969
1969
1969
1969
1968
1968
1968
1968
1968
1969
1970
1971
1971
1972
1972
1972
1971
1972
1972
1972
1973
1973
1974
1974
1975
1975
1975
1976
1977
1978
1978
1978
1978
1978
1978
1979
1980
1980
1981
1981
1982
1984
1987
1991
1995
1999
2003
2005
2008
2011
2014
2016
2018
2018
2018
2017
2016
2016
2016
2017
2018
2018
2017
2016
2014
2013
2013
2013
2012
2012
2012
2012
2012
2013
2014
2014
2015
2015
2015
2015
2016
2018
2020
2022
2024
2024
2024
2025
2030
2041
2055
2072
2087
2099
2107
2112
2111
2101
2076
2043
2007
1982
1974
1983
2002
2021
2035
2043
2047
2049
2051
2053
2055
2056
2057
2057
2058
2059
2059
2060
2061
2062
2062
2062
2062
2062
2063
2065
2067
2069
2069
2069
2069
2068
2068
2069
2069
2070
2072
2073
2074
2075
2075
2075
2075
2074
2073
2074
2074
2076
2077
2077
2077
2077
2076
2074
2072
2070
2068
2066
2064
2061
2058
2053
2048
2044
2038
2033
2028
2024
2021
2018
2016
2013
2011
2007
2004
2001
1999
1998
1997
1997
1995
1993
1990
1988
1986
1985
1984
1983
1982
1980
1979
1978
1977
1977
1976
1974
1972
1970
1967
1963
1959
1954
1950
1946
1943
1940
1938
1936
1935
1934
1932
1931
1929
1926
1924
1923
1922
1922
1923
1924
1924
1924
1924
1923
1923
1922
1921
1921
1922
1923
1923
1923
1921
1920
1919
1920
1921
1923
1924
1925
1924
1924
1924
1924
1924
1925
1926
1927
1928
1928
1929
1929
1929
1928
1927
1927
1927
1929
1930
1931
1932
1932
1932
1932
1932
1933
1934
1935
1936
1936
1937
1938
1938
1939
1939
1940
1941
1941
1942
1944
1945
1946
1947
1947
1946
1946
1946
1946
1946
1946
1946
1946
1945
1945
1945
1945
1945
1946
1947
1947
1946
1945
1948
1956
1971
1989
2006
2018
2026
2031
2033
2026
2007
1974
1935
1901
1882
1882
1897
1917
1936
1950
1957
1960
1962
1962
1962
1964
1965
1967
1968
1969
1969
1969
1969
1970
1970
1972
1973
1974
1975
1975
1976
1976
1977
1977
1978
1980
1981
1983
1984
1985
1985
1986
1987
1988
1990
1993
1995
1996
1998
1999
2000
2001
2002
2003
2005
2006
2007
2008
2008
2008
2007
2005
2003
2001
1998
1994
1990
1986
1981
1977
1973
1970
1967
1964
1962
1961
1960
1959
1959
1958
1957
1957
1956
1955
1955
1956
1958
1959
1960
1960
1960
1959
1959
1959
1960
1961
1962
1961
1961
1961
1961
1961
1961
1962
1962
1963
1963
1963
1962
1961
1960
1960
1960
1960
1961
1962
1963
1964
1964
1964
1963
1962
1961
1960
1961
1962
1964
1965
1965
1964
1963
1962
1962
1962
1962
1962
1962
1962
1963
1963
1964
1965
1965
1965
1965
1965
1965
1965
1966
1966
1965
1964
1964
1964
1965
1966
1967
1968
1968
1968
1968
1967
1967
1967
1967
1967
1967
1967
1968
1968
1969
1970
1971
1972
1972
1971
1970
1969
1968
1968
1967
1966
1966
1966
1966
1967
1968
1969
1968
1967
1964
1963
1965
1974
1990
2007
2023
2033
2037
2039
2037
2029
2009
1978
1941
1911
1896
1901
1919
1941
1960
1970
1975
1976
1976
1976
1977
1978
1979
1979
1980
1980
1980
1981
1981
1983
1984
1985
1985
1985
1985
1986
1986
1988
1989
1990
1991
1992
1993
1994
1994
1995
1996
1997
1999
2002
2004
2006
2007
2008
2009
2010
2012
2013
2015
2016
2018
2019
2019
2019
2018
2017
2016
2014
2012
2009
2006
2002
1998
1993
1988
1983
1978
1974
1972
1970
1970
1969
1969
1968
1966
1965
1964
1964
1964
1964
1965
1966
1966
1966
1966
1966
1966
1965
1966
1966
1967
1968
1968
1968
1967
1967
1967
1967
1967
1967
1968
1969
1969
1969
1969
1968
1968
1968
1969
1969
1970
1970
1970
1970
1969
1969
1968
1968
1969
1969
1970
1970
1970
1970
1969
1968
1968
1968
1968
1968
1969
1970
1970
1970
1970
1969
1968
1968
1969
1970
1971
1971
1971
1970
1970
1970
1970
1970
1970
1971
1971
1972
1972
1972
1972
1972
1972
1972
1972
1971
1971
1971
1971
1972
1972
1973
1974
1975
1976
1977
1976
1975
1972
1970
1969
1969
1969
1970
1971
1972
1973
1973
1973
1971
1970
1970
1977
1990
2007
2024
2036
2043
2045
2044
2038
2023
1996
1962
1929
1909
1907
1920
1942
1962
1975
1982
1985
1985
1985
1986
1987
1988
1989
1989
1989
1989
1989
1989
1990
1991
1992
1993
1994
1995
1995
1995
1995
1995
1995
1996
1998
1999
2000
2001
2001
2002
2002
2003
2005
2007
2009
2010
2012
2013
2014
2015
2016
2018
2019
2020
2021
2022
2022
2022
2021
2020
2019
2017
2015
2012
2009
2005
2000
1996
1991
1987
1983
1980
1978
1976
1974
1973
1972
1972
1971
1970
1969
1969
1969
1969
1970
1971
1972
1972
1971
1971
1970
1970
1971
1971
1972
1973
1973
1973
1972
1972
1971
1971
1971
1972
1972
1972
1972
1972
1972
1971
1971
1971
1971
1971
1971
1971
1972
1972
1971
1971
1970
1969
1969
1969
1970
1970
1970
1970
1970
1970
1970
1970
1970
1970
1970
1970
1971
1971
1971
1970
1970
1970
1970
1970
1971
1971
1971
1971
1971
1971
1971
1971
1971
1972
1973
1974
1974
1973
1973
1972
1972
1973
1973
1974
1973
1973
1971
1971
1970
1971
1971
1973
1974
1976
1977
1977
1976
1975
1973
1971
1970
1970
1971
1972
1973
1974
1974
1973
1971
1969
1968
1970
1979
1993
2011
2026
2037
2042
2044
2043
2034
2016
1985
1949
1918
1902
1905
1922
1944
1963
1975
1981
1983
1984
1984
1985
1985
1986
1986
1987
1987
1987
1988
1989
1990
1991
1992
1992
1992
1992
1992
1993
1994
1995
1996
1997
1998
1999
1999
1999
2000
2001
2003
2004
2006
2008
2009
2010
2011
2012
2013
2015
2016
2018
2019
2020
2020
2021
2020
2019
2018
2017
2016
2015
2013
2010
2006
2002
1997
1992
1988
1984
1981
1979
1977
1975
1974
1972
1971
1969
1969
1968
1968
1968
1969
1970
1970
1971
1970
1970
1969
1969
1969
1970
1971
1972
1972
1972
1971
1971
1970
1970
1971
1971
1972
1973
1973
1972
1972
1971
1971
1971
1971
1971
1972
1972
1972
1971
1971
1970
1970
1970
1970
1970
1971
1971
1971
1971
1971
1971
1971
1971
1971
1971
1972
1972
1972
1972
1971
1971
1971
1971
1971
1972
1972
1972
1973
1973
1972
1972
1972
1972
1972
1973
1973
1974
1973
1973
1972
1971
1971
1971
1972
1973
1975
1976
1976
1975
1975
1974
1973
1973
1972
1972
1972
1973
1974
1975
1976
1977
1977
1978
1979
1978
1978
1977
1976
1975
1975
1975
1974
1975
1976
1977
1978
1978
1976
1975
1974
1978
1989
2005
2023
2038
2048
2054
2056
2054
2043
2019
1985
1948
1919
1907
1914
1933
1955
1972
1982
1987
1989
1989
1990
1990
1991
1992
1993
1993
1993
1993
1993
1993
1995
1996
1997
1998
1999
1999
1999
1999
2000
2000
2001
2003
2004
2005
2005
2006
2006
2006
2007
2008
2010
2012
2015
2016
2017
2018
2019
2020
2021
2023
2025
2026
2027
2027
2027
2027
2027
2026
2024
2021
2019
2016
2013
2009
2004
1999
1995
1991
1987
1985
1983
1982
1982
1981
1981
1980
1979
1978
1978
1977
1978
1979
1980
1981
1981
1981
1981
1980
1980
1980
1980
1980
1981
1981
1981
1980
1980
1980
1981
1981
1982
1982
1983
1983
1983
1983
1982
1982
1981
1980
1980
1980
1980
1980
1980
1980
1980
1979
1979
1978
1978
1978
1979
1980
1980
1980
1980
1979
1978
1977
1977
1978
1979
1979
1979
1978
1978
1977
1976
1976
1976
1977
1978
1978
1978
1978
1977
1976
1976
1976
1977
1978
1978
1979
1979
1979
1978
1978
1976
1975
1975
1975
1975
1976
1977
1977
1978
1979
1980
1980
1979
1978
1976
1975
1974
1973
1972
1972
1972
1972
1972
1973
1973
1972
1970
1970
1973
1983
1999
2017
2034
2046
2053
2058
2056
2046
2021
1984
1944
1913
1898
1903
1920
1942
1960
1972
1979
1981
1982
1982
1983
1984
1985
1986
1987
1987
1987
1987
1987
1987
1988
1989
1990
1991
1992
1992
1993
1993
1993
1993
1994
1995
1997
1998
1999
2000
2001
2001
2001
2002
2003
2005
2006
2008
2009
2010
2011
2011
2012
2012
2013
2014
2015
2015
2014
2013
2011
2009
2006
2004
2000
1997
1993
1989
1985
1981
1978
1974
1972
1970
1968
1967
1966
1966
1965
1964
1964
1963
1963
1963
1963
1964
1964
1965
1965
1965
1965
1965
1964
1964
1965
1966
1967
1968
1968
1968
1968
1967
1967
1967
1967
1967
1968
1968
1968
1968
1967
1966
1966
1966
1966
1967
1968
1968
1968
1967
1966
1965
1965
1966
1966
1967
1968
1968
1968
1967
1967
1966
1967
1967
1967
1968
1968
1969
1969
1969
1969
1968
1968
1968
1968
1968
1969
1970
1970
1970
1969
1969
1969
1969
1969
1970
1970
1971
1971
1971
1971
1970
1970
1970
1970
1971
1972
1973
1972
1971
1969
1968
1968
1968
1970
1972
1974
1975
1976
1975
1973
1970
1967
1966
1966
1967
1969
1970
1970
1970
1970
1969
1968
1967
1966
1970
1979
1993
2010
2025
2034
2038
2039
2036
2027
2008
1979
1944
1914
1900
1904
1921
1943
1962
1975
1980
1982
1983
1983
1983
1984
1984
1984
1985
1986
1986
1987
1988
1989
1989
1990
1990
1990
1990
1991
1992
1994
1995
1996
1996
1996
1996
1997
1998
1999
2000
2001
2003
2005
2006
2007
2008
2009
2010
2012
2014
2016
2017
2018
2019
2019
2019
2019
2018
2017
2017
2016
2015
2013
2010
2006
2001
1996
1992
1988
1985
1982
1979
1977
1975
1972
1971
1970
1969
1969
1969
1969
1969
1969
1969
1969
1968
1968
1968
1969
1970
1970
1971
1971
1971
1970
1970
1969
1970
1970
1971
1971
1971
1971
1971
1971
1971
1970
1970
1970
1970
1970
1971
1971
1971
1970
1970
1969
1969
1970
1970
1970
1970
1970
1970
1970
1969
1969
1969
1969
1970
1971
1971
1972
1972
1971
1971
1970
1970
1970
1971
1972
1972
1972
1971
1971
1971
1971
1971
1971
1972
1972
1973
1973
1973
1973
1972
1971
1971
1972
1973
1973
1974
1973
1973
1972
1972
1972
1973
1974
1974
1975
1975
1975
1974
1973
1972
1972
1972
1973
1975
1978
1979
1980
1980
1979
1977
1975
1973
1972
1972
1973
1974
1975
1975
1974
1974
1973
1972
1971
1971
1974
1982
1996
2013
2027
2038
2043
2045
2043
2036
2018
1989
1954
1923
1906
1907
1923
1945
1965
1978
1985
1988
1988
1988
1987
1986
1987
1987
1989
1990
1991
1992
1993
1993
1993
1993
1993
1993
1994
1995
1996
1997
1998
1998
1999
1999
2000
2001
2002
2003
2004
2006
2007
2008
2009
2010
2011
2012
2014
2016
2018
2020
2021
2022
2022
2021
2021
2021
2022
2022
2022
2021
2019
2017
2013
2009
2004
1999
1995
1992
1990
1988
1985
1983
1980
1977
1975
1973
1973
1973
1973
1973
1974
1974
1974
1974
1973
1973
1973
1974
1975
1976
1976
1976
1975
1975
1975
1975
1976
1976
1977
1977
1976
1976
1976
1976
1976
1976
1976
1977
1977
1978
1978
1978
1977
1976
1976
1976
1976
1977
1977
1978
1978
1977
1977
1976
1975
1976
1976
1977
1977
1978
1978
1978
1978
1978
1978
1978
1978
1978
1978
1978
1978
1978
1978
1978
1978
1978
1978
1978
1979
1979
1979
1979
1979
1978
1978
1977
1978
1979
1980
1980
1980
1980
1980
1980
1980
1981
1981
1981
1982
1982
1982
1982
1981
1980
1979
1979
1980
1982
1984
1985
1986
1987
1987
1986
1985
1983
1982
1981
1981
1982
1982
1983
1983
1983
1984
1984
1983
1982
1981
1982
1987
1998
2015
2033
2048
2060
2067
2072
2070
2058
2033
1995
1955
1924
1912
1917
1935
1956
1974
1987
1993
1996
1997
1997
1996
1997
1997
1998
2000
2000
2001
2001
2001
2000
2001
2001
2002
2003
2004
2005
2006
2006
2006
2006
2006
2007
2008
2009
2011
2012
2012
2013
2014
2014
2015
2017
2018
2019
2021
2023
2024
2026
2026
2026
2026
2025
2026
2026
2027
2026
2025
2023
2020
2017
2013
2010
2006
2002
1999
1995
1991
1988
1984
1982
1979
1978
1977
1976
1975
1975
1974
1973
1972
1971
1971
1971
1971
1972
1972
1973
1973
1973
1972
1972
1971
1971
1972
1972
1973
1974
1974
1973
1972
1972
1971
1971
1971
1971
1972
1972
1972
1971
1970
1970
1969
1969
1969
1969
1969
1969
1969
1969
1968
1968
1967
1967
1967
1968
1969
1969
1969
1969
1968
1967
1966
1966
1966
1967
1968
1968
1968
1968
1967
1967
1967
1967
1967
1968
1968
1969
1969
1969
1968
1968
1968
1968
1968
1969
1969
1970
1970
1970
1970
1969
1969
1968
1969
1970
1971
1971
1971
1971
1970
1969
1968
1968
1968
1970
1972
1974
1975
1976
1976
1974
1973
1971
1969
1968
1968
1969
1970
1970
1970
1970
1970
1970
1968
1967
1967
1969
1978
1992
2009
2024
2034
2039
2040
2039
2032
2015
1986
1951
1919
1900
1901
1917
1939
1960
1973
1980
1983
1983
1983
1982
1983
1984
1985
1986
1987
1987
1987
1987
1987
1988
1988
1989
1989
1990
1991
1992
1992
1993
1993
1994
1995
1996
1997
1998
2000
2001
2002
2003
2003
2005
2006
2007
2009
2011
2012
2014
2015
2015
2016
2017
2017
2017
2017
2017
2017
2017
2016
2014
2010
2006
2002
1998
1993
1990
1986
1983
1980
1977
1974
1971
1969
1968
1967
1967
1967
1967
1967
1967
1966
1966
1965
1965
1965
1966
1967
1968
1969
1968
1968
1967
1966
1966
1966
1968
1969
1970
1970
1969
1969
1968
1967
1967
1968
1968
1969
1969
1969
1968
1968
1967
1967
1967
1968
1968
1968
1968
1968
1968
1968
1968
1968
1968
1968
1968
1968
1969
1969
1969
1969
1968
1968
1968
1968
1969
1970
1970
1971
1970
1970
1969
1969
1969
1969
1969
1970
1971
1971
1971
1971
1970
1969
1969
1969
1969
1970
1971
1971
1972
1972
1972
1972
1972
1973
1973
1974
1974
1974
1974
1973
1973
1972
1972
1973
1974
1976
1977
1979
1979
1979
1977
1975
1973
1972
1972
1972
1972
1973
1973
1973
1973
1972
1972
1971
1971
1970
1972
1979
1992
2008
2024
2035
2042
2045
2045
2039
2023
1995
1959
1926
1905
1903
1918
1940
1960
1974
1982
1984
1985
1984
1984
1984
1984
1985
1986
1987
1988
1989
1989
1989
1989
1989
1990
1991
1992
1993
1994
1995
1995
1996
1996
1996
1997
1998
2000
2002
2003
2004
2005
2006
2007
2008
2009
2011
2013
2015
2016
2017
2018
2019
2019
2020
2020
2021
2021
2021
2021
2020
2018
2015
2011
2007
2003
1998
1994
1991
1987
1984
1981
1978
1975
1973
1971
1970
1970
1970
1970
1970
1969
1969
1968
1968
1968
1969
1970
1971
1971
1971
1971
1971
1971
1970
1970
1970
1970
1971
1972
1972
1971
1970
1970
1969
1969
1970
1971
1971
1971
1971
1971
1970
1970
1970
1970
1970
1970
1971
1972
1973
1973
1972
1971
1970
1970
1970
1971
1972
1973
1973
1973
1973
1973
1973
1973
1973
1974
1975
1976
1976
1976
1975
1975
1974
1974
1974
1974
1974
1975
1976
1977
1977
1976
1975
1975
1974
1974
1975
1975
1976
1976
1975
1975
1975
1975
1975
1976
1977
1977
1977
1976
1975
1975
1974
1975
1976
1977
1979
1980
1982
1983
1982
1981
1979
1977
1976
1976
1976
1977
1977
1978
1978
1977
1976
1975
1974
1973
1974
1979
1990
2007
2025
2041
2052
2059
2063
2062
2051
2029
1994
1954
1922
1905
1907
1923
1944
1963
1976
1984
1987
1988
1987
1987
1987
1988
1988
1989
1990
1991
1991
1991
1991
1991
1991
1992
1992
1993
1994
1995
1996
1996
1996
1996
1996
1997
1998
1999
2001
2002
2003
2004
2004
2005
2006
2007
2008
2010
2012
2013
2015
2016
2016
2016
2016
2016
2016
2016
2016
2015
2014
2011
2008
2004
2000
1996
1992
1988
1985
1982
1979
1977
1974
1972
1970
1969
1969
1969
1968
1968
1968
1968
1967
1967
1967
1967
1968
1968
1968
1969
1969
1969
1970
1970
1970
1970
1969
1969
1970
1971
1971
1971
1970
1969
1968
1968
1969
1970
1971
1971
1971
1971
1970
1969
1968
1967
1966
1967
1968
1969
1971
1972
1973
1973
1973
1972
1971
1971
1972
1972
1973
1973
1973
1972
1972
1972
1973
1973
1973
1973
1973
1972
1971
1971
1970
1970
1970
1971
1971
1971
1971
1970
1970
1970
1970
1971
1972
1973
1973
1973
1972
1973
1974
1975
1975
1974
1971
1968
1965
1964
1964
1963
1963
1962
1962
1964
1966
1969
1973
1975
1975
1973
1971
1968
1967
1966
1966
1967
1968
1970
1971
1972
1973
1973
1971
1971
1974
1983
1998
2016
2032
2043
2048
2051
2051
2047
2031
2001
1964
1930
1910
1909
1924
1947
1968
1983
1991
1994
1995
1995
1995
1996
1997
1998
1999
2000
2001
2002
2003
2005
2007
2009
2010
2010
2009
2007
2006
2005
2006
2008
2010
2012
2013
2014
2014
2015
2017
2018
2020
2022
2024
2025
2025
2026
2027
2029
2031
2034
2036
2038
2038
2036
2034
2033
2032
2032
2032
2031
2029
2026
2021
2016
2011
2007
2003
2000
1999
1998
1996
1993
1989
1985
1983
1982
1982
1982
1982
1981
1980
1979
1977
1977
1976
1975
1976
1976
1977
1978
1979
1980
1980
1980
1980
1979
1979
1978
1978
1978
1979
1980
1981
1981
1980
1978
1977
1977
1977
1979
1980
1980
1979
1978
1977
1977
1977
1977
1978
1978
1978
1978
1977
1977
1976
1975
1975
1975
1975
1975
1976
1976
1977
1977
1976
1975
1973
1973
1972
1973
1973
1974
1974
1973
1973
1972
1972
1971
1971
1971
1971
1971
1971
1971
1970
1970
1970
1970
1970
1970
1970
1970
1969
1968
1967
1966
1965
1965
1965
1964
1963
1962
1961
1962
1963
1964
1966
1968
1969
1969
1968
1966
1964
1962
1961
1961
1961
1962
1964
1966
1967
1967
1966
1964
1962
1961
1964
1973
1988
2005
2022
2034
2042
2046
2046
2038
2017
1984
1945
1911
1894
1896
1913
1935
1954
1967
1973
1975
1976
1976
1976
1977
1978
1978
1979
1979
1979
1979
1980
1981
1981
1982
1983
1984
1985
1986
1986
1987
1988
1989
1990
1991
1992
1993
1994
1996
1997
1998
1999
2001
2002
2004
2006
2007
2009
2010
2012
2013
2015
2017
2018
2019
2019
2019
2018
2017
2016
2015
2014
2012
2009
2005
2001
1997
1993
1988
1984
1980
1977
1975
1974
1973
1973
1972
1971
1970
1969
1969
1970
1971
1971
1971
1971
1971
1970
1970
1969
1969
1970
1970
1971
1972
1973
1973
1973
1973
1973
1972
1973
1973
1974
1974
1975
1975
1975
1974
1975
1975
1976
1976
1977
1977
1976
1976
1976
1976
1976
1976
1977
1978
1979
1980
1980
1981
1981
1981
1981
1981
1981
1982
1983
1983
1983
1983
1982
1982
1982
1983
1984
1984
1984
1984
1983
1983
1982
1982
1983
1983
1983
1984
1985
1985
1985
1984
1984
1984
1985
1985
1985
1985
1985
1984
1984
1984
1983
1983
1984
1984
1985
1985
1986
1987
1987
1988
1988
1988
1989
1990
1991
1991
1990
1989
1987
1985
1984
1983
1982
1982
1983
1983
1984
1985
1985
1984
1983
1982
1982
1985
1994
2010
2029
2047
2060
2070
2076
2077
2067
2045
2009
1967
1931
1910
1908
1921
1940
1959
1973
1981
1986
1988
1990
1991
1992
1992
1992
1991
1991
1992
1994
1996
1997
1998
1998
1998
1997
1997
1997
1997
1999
2000
2002
2003
2004
2004
2004
2004
2005
2006
2007
2009
2011
2013
2015
2016
2017
2017
2018
2019
2021
2023
2025
2025
2024
2023
2021
2020
2019
2019
2018
2016
2013
2010
2007
2004
2000
1996
1992
1988
1985
1982
1980
1978
1976
1974
1973
1972
1971
1970
1970
1970
1970
1971
1971
1972
1972
1972
1972
1972
1973
1973
1974
1975
1975
1975
1975
1975
1975
1976
1976
1976
1976
1976
1976
1976
1976
1975
1975
1974
1973
1973
1973
1974
1974
1973
1973
1972
1972
1972
1973
1974
1974
1974
1973
1972
1972
1972
1972
1973
1974
1974
1974
1974
1974
1974
1973
1973
1973
1973
1973
1974
1975
1976
1977
1976
1976
1974
1973
1973
1974
1975
1976
1977
1977
1976
1975
1975
1974
1974
1974
1975
1976
1976
1976
1976
1976
1976
1976
1976
1977
1978
1978
1978
1978
1978
1978
1977
1977
1977
1978
1979
1980
1981
1981
1981
1980
1978
1977
1975
1974
1974
1974
1975
1975
1976
1976
1976
1975
1974
1973
1973
1976
1985
1999
2015
2030
2040
2046
2049
2050
2045
2028
1997
1960
1927
1907
1907
1921
1941
1960
1973
1981
1984
1984
1984
1984
1984
1985
1986
1987
1988
1988
1989
1990
1991
1990
1990
1989
1990
1991
1993
1994
1995
1995
1995
1995
1996
1996
1998
1999
2002
2004
2006
2008
2009
2011
2012
2013
2014
2015
2017
2018
2019
2020
2020
2020
2020
2020
2020
2020
2021
2021
2020
2019
2017
2013
2009
2004
2000
1996
1992
1989
1986
1984
1981
1980
1978
1977
1976
1974
1974
1974
1974
1975
1975
1974
1973
1971
1970
1971
1972
1973
1974
1974
1974
1974
1973
1973
1973
1973
1973
1974
1974
1974
1974
1974
1974
1973
1973
1973
1973
1974
1974
1974
1974
1973
1972
1972
1971
1971
1972
1972
1972
1972
1972
1972
1971
1970
1969
1969
1970
1971
1972
1972
1972
1972
1971
1971
1971
1971
1972
1973
1973
1973
1973
1972
1972
1971
1971
1970
1970
1971
1971
1971
1972
1972
1971
1971
1971
1971
1972
1973
1974
1974
1974
1974
1973
1973
1973
1973
1974
1976
1977
1978
1978
1977
1976
1975
1975
1975
1976
1977
1978
1979
1980
1981
1983
1983
1982
1981
1979
1978
1977
1976
1977
1977
1977
1976
1976
1976
1977
1977
1976
1974
1974
1976
1985
2000
2017
2033
2045
2052
2057
2060
2054
2037
2006
1967
1932
1910
1906
1918
1938
1957
1972
1981
1985
1986
1986
1986
1987
1988
1989
1990
1991
1991
1991
1991
1991
1992
1993
1994
1995
1996
1996
1996
1997
1997
1998
2000
2001
2002
2003
2004
2004
2004
2005
2006
2007
2009
2010
2012
2013
2014
2016
2017
2018
2019
2020
2020
2021
2022
2023
2023
2022
2021
2018
2016
2013
2011
2008
2004
2000
1995
1991
1986
1982
1979
1976
1974
1972
1970
1969
1968
1967
1966
1966
1965
1965
1966
1967
1968
1969
1969
1968
1968
1967
1966
1966
1967
1968
1969
1970
1971
1971
1970
1970
1970
1971
1972
1973
1974
1975
1977
1977
1978
1978
1978
1979
1979
1980
1981
1982
1983
1983
1983
1982
1981
1980
1980
1981
1982
1983
1983
1982
1982
1981
1981
1980
1980
1981
1982
1984
1985
1986
1986
1986
1987
1988
1990
1993
1995
1998
1999
2000
2001
2001
2001
2001
2002
2002
2003
2002
2001
2000
1999
1998
1998
1998
1998
1998
1998
1998
1999
1999
1999
1998
1998
1998
1998
1999
1999
1999
1998
1997
1996
1995
1994
1994
1994
1995
1997
1998
1998
1997
1995
1993
1991
1990
1989
1989
1989
1989
1989
1989
1989
1988
1987
1985
1984
1984
1987
1996
2010
2025
2037
2045
2048
2050
2051
2047
2032
2006
1971
1940
1920
1919
1932
1951
1969
1982
1989
1992
1992
1992
1992
1991
1992
1992
1993
1994
1995
1995
1996
1995
1995
1995
1994
1995
1996
1997
1997
1998
1997
1997
1996
1996
1997
1997
1998
1998
1999
1999
2000
2001
2002
2002
2003
2004
2006
2008
2010
2011
2012
2013
2014
2014
2014
2015
2015
2015
2015
2014
2012
2010
2006
2002
1997
1992
1987
1983
1980
1976
1973
1970
1967
1964
1962
1961
1960
1960
1960
1960
1960
1959
1958
1958
1957
1958
1959
1960
1960
1961
1960
1960
1959
1959
1959
1959
1960
1961
1962
1962
1962
1962
1962
1961
1961
1961
1961
1962
1962
1962
1963
1963
1962
1962
1961
1961
1960
1961
1961
1961
1962
1962
1962
1961
1961
1961
1961
1961
1962
1962
1963
1963
1963
1962
1962
1962
1962
1963
1964
1965
1965
1964
1963
1963
1963
1963
1964
1964
1965
1965
1966
1966
1966
1965
1964
1964
1965
1966
1967
1968
1969
1969
1968
1968
1967
1967
1967
1968
1969
1969
1969
1969
1969
1969
1969
1969
1969
1968
1969
1969
1970
1970
1971
1971
1972
1973
1974
1975
1974
1972
1970
1969
1968
1967
1968
1969
1970
1971
1972
1973
1973
1971
1970
1968
1970
1977
1990
2007
2024
2037
2045
2049
2053
2050
2039
2012
1976
1939
1913
1905
1914
1932
1951
1966
1976
1980
1983
1983
1984
1985
1985
1986
1986
1986
1986
1986
1987
1988
1989
1990
1990
1990
1991
1991
1992
1993
1994
1995
1997
1997
1998
1998
1998
1999
1999
2000
2002
2004
2006
2008
2009
2011
2012
2012
2013
2014
2015
2017
2019
2021
2022
2022
2022
2021
2020
2019
2017
2015
2013
2009
2005
2000
1995
1990
1985
1981
1978
1975
1974
1972
1970
1968
1967
1965
1965
1964
1964
1965
1965
1965
1966
1966
1966
1966
1965
1965
1965
1965
1966
1967
1967
1967
1967
1966
1966
1967
1967
1968
1968
1969
1969
1969
1968
1968
1967
1968
1969
1969
1970
1969
1969
1968
1968
1969
1969
1969
1969
1969
1970
1970
1970
1970
1969
1969
1969
1969
1969
1970
1970
1971
1971
1970
1970
1970
1970
1970
1970
1970
1970
1970
1971
1971
1971
1971
1971
1970
1970
1970
1970
1970
1970
1970
1969
1968
1968
1968
1969
1969
1969
1969
1969
1970
1970
1969
1969
1969
1968
1969
1969
1970
1971
1971
1970
1969
1969
1970
1972
1975
1976
1975
1971
1968
1965
1963
1964
1965
1966
1966
1967
1968
1968
1967
1965
1964
1964
1970
1983
2000
2018
2030
2036
2039
2039
2036
2024
1999
1964
1928
1902
1895
1907
1928
1948
1964
1973
1977
1979
1980
1982
1983
1984
1985
1984
1982
1981
1982
1984
1987
1989
1989
1987
1987
1987
1989
1991
1992
1993
1993
1993
1993
1993
1993
1995
1997
2000
2002
2003
2003
2004
2006
2010
2014
2016
2017
2017
2018
2020
2024
2027
2029
2029
2029
2029
2030
2032
2032
2031
2028
2024
2020
2017
2013
2009
2003
1998
1993
1989
1987
1985
1982
1979
1976
1974
1972
1971
1971
1971
1972
1973
1973
1973
1972
1973
1974
1975
1976
1975
1974
1974
1974
1975
1977
1977
1977
1977
1977
1977
1978
1979
1979
1979
1978
1978
1978
1978
1977
1977
1977
1978
1979
1981
1981
1981
1979
1977
1975
1975
1976
1978
1980
1981
1979
1977
1975
1974
1974
1976
1978
1980
1980
1979
1977
1976
1975
1974
1974
1975
1976
1977
1979
1981
1983
1984
1985
1986
1987
1989
1990
1992
1993
1995
1996
1997
1997
1997
1997
1997
1998
1999
2000
2001
2001
2001
2001
2001
2001
2001
2000
2000
1999
1999
2000
2001
2003
2005
2006
2006
2005
2003
2001
2000
1999
1998
1998
1998
1999
1999
2000
2000
2000
1999
1997
1995
1995
2000
2013
2029
2047
2059
2068
2073
2076
2073
2059
2034
1997
1960
1934
1927
1937
1957
1977
1992
2001
2004
2004
2004
2005
2007
2010
2012
2014
2014
2013
2013
2012
2013
2014
2015
2016
2017
2016
2015
2015
2015
2017
2018
2020
2021
2023
2024
2025
2026
2026
2027
2028
2030
2032
2035
2036
2038
2039
2040
2041
2041
2042
2043
2044
2046
2047
2048
2048
2048
2047
2045
2044
2041
2038
2035
2031
2026
2021
2016
2011
2007
2003
2000
1997
1996
1994
1993
1991
1990
1989
1989
1989
1988
1988
1988
1989
1989
1990
1990
1989
1989
1989
1989
1989
1990
1990
1991
1991
1990
1990
1990
1989
1989
1990
1990
1991
1991
1992
1992
1991
1991
1991
1991
1991
1991
1992
1992
1991
1990
1989
1989
1988
1988
1989
1989
1989
1990
1989
1989
1988
1987
1987
1987
1987
1987
1987
1987
1987
1987
1987
1986
1986
1986
1986
1987
1987
1987
1986
1986
1986
1987
1987
1988
1989
1989
1989
1988
1987
1986
1985
1984
1984
1984
1985
1986
1988
1990
1991
1991
1991
1989
1988
1986
1986
1986
1986
1986
1986
1986
1986
1986
1986
1986
1986
1986
1987
1993
2005
2021
2038
2051
2061
2068
2073
2072
2060
2035
1996
1954
1923
1911
1917
1936
1957
1976
1988
1995
1998
1998
1997
1998
1999
2000
2002
2003
2004
2005
2005
2005
2005
2005
2006
2007
2008
2009
2010
2010
2011
2011
2011
2011
2012
2013
2015
2016
2017
2018
2020
2021
2022
2023
2024
2025
2026
2028
2031
2032
2034
2035
2035
2035
2035
2035
2036
2036
2036
2036
2034
2031
2026
2022
2017
2012
2008
2005
2001
1998
1994
1991
1987
1985
1983
1982
1981
1981
1981
1980
1980
1980
1979
1979
1980
1980
1981
1981
1982
1982
1982
1982
1982
1982
1982
1982
1981
1981
1981
1981
1982
1982
1983
1982
1982
1982
1982
1982
1982
1982
1982
1981
1980
1979
1978
1978
1979
1980
1980
1980
1980
1979
1978
1978
1979
1980
1980
1981
1981
1981
1980
1980
1980
1979
1978
1978
1978
1979
1980
1981
1981
1980
1979
1979
1979
1980
1981
1982
1982
1981
1979
1978
1977
1977
1977
1978
1979
1980
1982
1983
1984
1983
1982
1979
1977
1976
1976
1976
1977
1979
1980
1980
1980
1979
1977
1976
1975
1979
1988
2004
2023
2040
2050
2056
2059
2060
2055
2038
2007
1967
1930
1906
1901
1913
1933
1954
1970
1980
1986
1988
1989
1989
1989
1989
1990
1991
1991
1992
1993
1994
1994
1994
1994
1994
1994
1995
1996
1998
1999
2000
2000
2000
2000
2001
2002
2003
2004
2005
2006
2007
2008
2010
2011
2012
2013
2014
2016
2018
2020
2021
2022
2022
2022
2022
2022
2022
2021
2020
2019
2017
2014
2009
2005
2000
1995
1991
1988
1984
1981
1978
1975
1972
1970
1968
1967
1966
1967
1967
1967
1967
1967
1966
1966
1966
1966
1966
1967
1967
1968
1968
1968
1967
1967
1966
1966
1967
1968
1969
1970
1970
1969
1968
1967
1967
1968
1968
1969
1969
1969
1969
1968
1968
1967
1967
1966
1966
1966
1967
1968
1968
1968
1967
1966
1966
1965
1965
1966
1967
1968
1968
1968
1968
1967
1967
1966
1967
1967
1967
1968
1968
1968
1968
1968
1968
1968
1968
1969
1969
1970
1970
1970
1968
1966
1965
1964
1965
1966
1967
1969
1970
1971
1972
1972
1970
1968
1966
1966
1966
1967
1967
1967
1967
1967
1968
1968
1968
1967
1966
1968
1976
1990
2007
2021
2029
2032
2031
2031
2028
2017
1994
1960
1924
1900
1894
1906
1927
1949
1966
1975
1978
1980
1980
1980
1980
1981
1982
1982
1983
1984
1985
1985
1986
1986
1985
1986
1986
1987
1988
1989
1989
1989
1990
1990
1991
1992
1993
1994
1995
1996
1997
1998
2000
2001
2002
2003
2005
2007
2009
2011
2012
2013
2013
2014
2014
2014
2015
2015
2015
2014
2012
2009
2006
2001
1997
1993
1988
1984
1980
1977
1974
1970
1967
1964
1961
1960
1959
1959
1959
1959
1959
1959
1958
1958
1958
1958
1958
1959
1960
1961
1961
1962
1961
1961
1961
1960
1960
1961
1962
1963
1963
1963
1963
1962
1962
1962
1962
1962
1962
1961
1961
1961
1961
1960
1960
1959
1959
1959
1960
1960
1960
1960
1959
1959
1958
1958
1958
1959
1960
1960
1961
1961
1960
1959
1959
1959
1960
1961
1962
1962
1962
1962
1961
1960
1960
1960
1961
1963
1964
1965
1965
1964
1962
1962
1962
1963
1964
1966
1968
1969
1969
1969
1968
1968
1968
1968
1967
1967
1967
1968
1970
1971
1972
1973
1974
1973
1972
1970
1969
1968
1968
1968
1968
1967
1966
1964
1963
1963
1962
1960
1959
1958
1963
1974
1988
2002
2012
2017
2019
2020
2018
2009
1988
1956
1923
1898
1891
1902
1924
1947
1964
1974
1977
1978
1978
1978
1979
1980
1981
1982
1982
1983
1983
1983
1983
1983
1984
1985
1986
1987
1987
1988
1989
1990
1991
1991
1993
1994
1995
1996
1998
1999
2000
2001
2002
2003
2005
2007
2009
2011
2013
2014
2014
2015
2015
2016
2016
2016
2017
2018
2018
2018
2016
2014
2010
2007
2003
2000
1996
1991
1987
1982
1978
1974
1971
1968
1966
1965
1963
1962
1961
1961
1960
1960
1959
1960
1960
1960
1961
1961
1961
1961
1961
1961
1961
1961
1962
1963
1964
1965
1965
1965
1964
1964
1963
1963
1964
1965
1965
1966
1966
1966
1966
1966
1965
1965
1966
1967
1967
1967
1967
1966
1965
1965
1965
1966
1967
1967
1968
1969
1969
1969
1969
1969
1968
1968
1968
1969
1969
1969
1969
1969
1968
1968
1968
1968
1968
1969
1970
1971
1971
1971
1970
1970
1969
1969
1970
1970
1971
1972
1972
1972
1972
1972
1971
1971
1972
1973
1974
1975
1976
1976
1976
1976
1975
1973
1973
1973
1974
1975
1976
1977
1978
1978
1979
1979
1979
1978
1977
1976
1976
1976
1976
1976
1976
1976
1976
1977
1977
1976
1975
1976
1982
1994
2011
2027
2039
2046
2049
2051
2048
2037
2012
1977
1940
1914
1907
1917
1938
1959
1975
1984
1987
1988
1987
1987
1988
1989
1991
1992
1993
1993
1993
1993
1993
1994
1995
1997
1998
1999
1999
2000
2000
2000
2001
2001
2002
2004
2005
2006
2007
2008
2008
2009
2010
2011
2012
2015
2017
2018
2020
2020
2021
2022
2022
2023
2024
2026
2027
2028
2028
2027
2025
2022
2018
2014
2010
2006
2002
1998
1994
1989
1985
1982
1979
1976
1974
1972
1971
1971
1970
1969
1968
1967
1967
1967
1967
1967
1968
1968
1968
1968
1967
1967
1966
1965
1965
1965
1966
1967
1967
1967
1966
1965
1965
1965
1965
1965
1965
1966
1966
1966
1966
1965
1965
1964
1963
1963
1963
1963
1962
1961
1960
1959
1958
1957
1957
1957
1957
1958
1958
1959
1958
1958
1958
1958
1958
1959
1959
1960
1961
1961
1961
1960
1960
1960
1960
1961
1962
1962
1963
1963
1962
1962
1962
1962
1962
1963
1964
1965
1965
1965
1964
1964
1964
1964
1964
1966
1967
1967
1967
1967
1966
1966
1965
1964
1964
1963
1963
1963
1964
1964
1965
1966
1966
1967
1967
1966
1964
1963
1962
1961
1960
1960
1960
1961
1961
1962
1962
1962
1960
1959
1959
1963
1975
1990
2007
2019
2027
2030
2031
2028
2017
1994
1961
1926
1901
1893
1902
1923
1944
1961
1969
1972
1973
1973
1974
1975
1977
1978
1979
1980
1980
1980
1980
1980
1981
1982
1983
1983
1984
1984
1984
1984
1985
1986
1987
1988
1990
1991
1992
1993
1993
1994
1995
1996
1998
2000
2002
2004
2005
2007
2008
2009
2009
2010
2011
2012
2014
2015
2015
2014
2013
2011
2009
2007
2004
2001
1998
1994
1990
1985
1981
1977
1974
1971
1968
1967
1966
1965
1965
1964
1963
1962
1961
1961
1962
1963
1963
1964
1964
1964
1964
1963
1963
1963
1964
1964
1965
1966
1966
1966
1965
1965
1964
1963
1963
1964
1965
1966
1967
1966
1966
1965
1965
1965
1965
1965
1965
1966
1966
1965
1965
1965
1965
1964
1965
1965
1965
1965
1966
1966
1966
1966
1965
1965
1965
1966
1967
1967
1968
1968
1967
1967
1967
1967
1967
1968
1969
1969
1969
1969
1969
1969
1969
1969
1969
1969
1970
1970
1970
1970
1970
1970
1970
1969
1970
1970
1971
1971
1972
1972
1972
1972
1972
1972
1972
1972
1972
1972
1972
1972
1973
1974
1975
1976
1977
1977
1976
1975
1973
1972
1970
1969
1969
1969
1970
1971
1971
1972
1972
1970
1968
1967
1969
1977
1991
2007
2022
2033
2038
2041
2040
2034
2018
1989
1953
1921
1902
1903
1919
1941
1961
1974
1980
1981
1981
1982
1983
1984
1984
1985
1985
1985
1985
1986
1986
1987
1989
1990
1990
1990
1990
1990
1991
1991
1992
1993
1995
1996
1997
1998
1998
1999
1999
2000
2001
2003
2005
2007
2009
2010
2010
2011
2012
2013
2015
2016
2018
2018
2019
2019
2019
2018
2017
2016
2014
2013
2010
2007
2003
1999
1994
1989
1985
1981
1978
1975
1974
1972
1971
1969
1968
1967
1965
1965
1965
1966
1966
1967
1967
1968
1967
1967
1967
1967
1967
1968
1969
1970
1970
1970
1970
1969
1969
1969
1969
1970
1970
1971
1971
1970
1970
1969
1969
1969
1969
1970
1971
1971
1971
1970
1970
1970
1969
1969
1969
1969
1970
1970
1971
1971
1971
1970
1970
1970
1970
1970
1971
1971
1972
1972
1971
1971
1970
1970
1970
1970
1971
1972
1973
1973
1973
1972
1971
1971
1971
1972
1972
1973
1973
1973
1973
1973
1972
1972
1973
1973
1974
1975
1976
1977
1978
1978
1977
1976
1975
1976
1977
1978
1979
1980
1981
1981
1981
1981
1980
1978
1976
1975
1975
1975
1974
1974
1974
1975
1975
1975
1975
1974
1973
1973
1980
1992
2009
2026
2039
2048
2053
2055
2052
2039
2011
1972
1934
1908
1902
1913
1933
1954
1970
1979
1982
1983
1983
1983
1983
1985
1986
1987
1988
1988
1988
1988
1988
1988
1989
1990
1991
1992
1993
1994
1994
1994
1994
1995
1995
1996
1998
2000
2001
2002
2002
2002
2003
2004
2005
2007
2009
2011
2012
2014
2014
2015
2015
2016
2016
2017
2018
2018
2018
2017
2015
2013
2010
2007
2003
2000
1996
1992
1988
1984
1980
1976
1973
1971
1969
1967
1966
1965
1964
1963
1963
1962
1962
1962
1962
1963
1964
1964
1965
1965
1965
1965
1964
1964
1965
1966
1967
1967
1968
1968
1967
1967
1966
1966
1966
1967
1967
1968
1968
1967
1967
1967
1966
1966
1966
1967
1967
1967
1967
1967
1966
1966
1965
1965
1965
1965
1966
1967
1967
1967
1967
1966
1966
1966
1966
1966
1967
1967
1967
1967
1968
1968
1967
1967
1968
1968
1969
1969
1969
1969
1968
1967
1967
1967
1968
1968
1969
1970
1970
1969
1969
1968
1968
1968
1969
1970
1971
1972
1972
1972
1972
1972
1972
1972
1972
1972
1972
1972
1972
1973
1973
1974
1975
1976
1976
1976
1975
1974
1972
1971
1970
1970
1970
1970
1971
1971
1972
1973
1972
1971
1969
1968
1971
1980
1995
2012
2027
2036
2040
2041
2039
2031
2013
1983
1948
1919
1903
1907
1924
1946
1965
1976
1980
1982
1982
1983
1984
1985
1986
1986
1986
1986
1986
1986
1987
1988
1989
1990
1991
1991
1991
1992
1992
1993
1994
1995
1996
1997
1998
1999
2000
2000
2001
2002
2003
2005
2007
2009
2010
2012
2013
2014
2015
2016
2017
2018
2020
2021
2021
2021
2021
2020
2018
2017
2015
2012
2009
2006
2002
1997
1993
1989
1984
1981
1978
1976
1974
1973
1971
1970
1968
1967
1966
1966
1966
1967
1968
1968
1969
1969
1969
1968
1968
1968
1968
1969
1969
1970
1970
1969
1969
1969
1969
1969
1970
1970
1971
1971
1971
1971
1971
1970
1970
1970
1970
1970
1970
1970
1970
1970
1970
1970
1970
1969
1969
1970
1970
1971
1971
1971
1970
1970
1969
1969
1969
1970
1971
1971
1971
1971
1971
1971
1970
1970
1970
1971
1971
1971
1971
1971
1971
1971
1970
1970
1970
1971
1972
1972
1973
1973
1972
1972
1971
1971
1972
1973
1974
1975
1975
1975
1974
1974
1974
1974
1974
1974
1975
1975
1975
1975
1974
1974
1975
1976
1978
1979
1980
1980
1978
1976
1974
1972
1972
1972
1973
1974
1974
1975
1975
1974
1973
1971
1970
1971
1976
1989
2006
2024
2038
2045
2048
2049
2048
2039
2018
1985
1949
1920
1907
1913
1931
1951
1968
1978
1983
1985
1986
1986
1987
1987
1987
1987
1987
1988
1989
1991
1993
1995
1996
1996
1996
1995
1995
1996
1997
1999
2000
2002
2003
2003
2004
2004
2005
2006
2007
2008
2010
2012
2013
2015
2016
2016
2018
2019
2021
2023
2024
2025
2026
2026
2026
2025
2025
2025
2024
2022
2020
2017
2013
2009
2004
1999
1994
1990
1986
1983
1980
1978
1976
1974
1973
1971
1970
1970
1970
1970
1970
1971
1971
1970
1970
1970
1970
1970
1970
1971
1971
1972
1972
1973
1973
1972
1972
1972
1972
1972
1973
1973
1974
1973
1973
1972
1972
1972
1972
1972
1973
1973
1973
1973
1973
1972
1972
1972
1972
1972
1973
1973
1973
1973
1972
1972
1971
1971
1971
1971
1972
1972
1972
1972
1972
1972
1972
1972
1972
1972
1973
1973
1973
1973
1972
1972
1971
1971
1971
1972
1973
1974
1974
1974
1973
1972
1972
1973
1973
1974
1975
1976
1976
1975
1975
1974
1973
1973
1973
1973
1974
1975
1976
1976
1977
1978
1978
1978
1977
1976
1974
1973
1972
1972
1972
1971
1971
1971
1972
1972
1973
1973
1971
1969
1970
1975
1987
2005
2024
2038
2048
2052
2055
2052
2039
2012
1974
1935
1907
1898
1907
1927
1948
1965
1975
1980
1982
1982
1983
1984
1985
1986
1987
1987
1988
1988
1988
1988
1989
1990
1991
1992
1993
1993
1994
1994
1995
1995
1996
1997
1998
2000
2000
2001
2002
2002
2003
2004
2006
2007
2009
2011
2013
2014
2015
2016
2016
2017
2018
2019
2020
2020
2020
2019
2017
2015
2013
2010
2007
2004
2000
1996
1992
1988
1984
1980
1976
1973
1971
1969
1968
1968
1967
1967
1966
1964
1963
1963
1962
1962
1963
1964
1964
1964
1964
1964
1964
1964
1964
1965
1965
1966
1966
1966
1966
1966
1965
1965
1965
1966
1966
1966
1966
1966
1966
1965
1965
1965
1965
1965
1966
1966
1966
1965
1965
1964
1964
1964
1964
1965
1965
1965
1965
1965
1965
1965
1965
1965
1965
1966
1966
1967
1967
1966
1966
1966
1965
1965
1965
1966
1967
1967
1967
1967
1967
1966
1966
1966
1966
1967
1967
1968
1969
1969
1969
1968
1968
1967
1967
1968
1969
1970
1970
1970
1970
1970
1970
1969
1970
1970
1971
1972
1973
1972
1971
1970
1970
1970
1971
1973
1975
1977
1978
1977
1976
1974
1971
1970
1970
1970
1971
1972
1972
1972
1972
1971
1971
1970
1969
1968
1969
1975
1987
2003
2019
2030
2036
2037
2037
2035
2028
2009
1980
1946
1918
1906
1912
1930
1953
1971
1982
1987
1988
1988
1987
1987
1987
1988
1989
1990
1991
1992
1992
1992
1992
1993
1993
1994
1994
1996
1997
1998
1999
2000
2001
2001
2001
2002
2003
2004
2006
2007
2008
2009
2010
2011
2012
2013
2015
2017
2019
2021
2022
2023
2024
2024
2024
2024
2025
2025
2026
2025
2024
2021
2017
2013
2008
2004
1999
1995
1992
1988
1985
1981
1978
1975
1973
1973
1973
1973
1974
1974
1974
1973
1972
1972
1971
1971
1971
1972
1973
1975
1975
1976
1975
1975
1975
1975
1975
1976
1977
1977
1977
1977
1977
1976
1976
1976
1975
1976
1976
1976
1976
1975
1974
1973
1972
1972
1972
1972
1972
1972
1972
1972
1971
1971
1970
1970
1970
1971
1971
1972
1972
1972
1972
1971
1971
1971
1971
1972
1972
1972
1973
1972
1972
1972
1971
1971
1972
1972
1973
1973
1973
1973
1973
1973
1972
1972
1972
1973
1973
1974
1975
1975
1974
1974
1974
1974
1974
1975
1976
1976
1976
1976
1976
1975
1975
1976
1976
1977
1978
1978
1979
1979
1979
1979
1979
1979
1980
1980
1981
1981
1981
1980
1981
1982
1983
1984
1984
1984
1983
1982
1981
1980
1979
1977
1977
1976
1977
1978
1978
1979
1979
1978
1976
1974
1974
1980
1992
2009
2026
2039
2045
2046
2046
2043
2033
2011
1979
1944
1918
1908
1916
1936
1958
1974
1983
1987
1988
1988
1989
1990
1990
1991
1991
1991
1992
1992
1993
1994
1995
1996
1997
1997
1997
1998
1998
1999
2000
2001
2003
2004
2005
2006
2007
2007
2008
2009
2011
2013
2015
2017
2019
2021
2022
2022
2023
2024
2025
2027
2028
2029
2030
2030
2029
2028
2027
2026
2024
2022
2020
2017
2013
2009
2004
1999
1994
1990
1988
1986
1984
1983
1982
1980
1978
1977
1976
1976
1977
1978
1980
1981
1982
1982
1983
1983
1983
1984
1985
1985
1986
1986
1986
1986
1986
1985
1985
1984
1984
1985
1985
1986
1986
1986
1986
1985
1984
1983
1983
1984
1984
1984
1984
1984
1983
1982
1982
1981
1980
1980
1980
1980
1980
1979
1979
1978
1977
1977
1977
1977
1978
1978
1978
1977
1977
1976
1975
1974
1974
1974
1974
1974
1974
1974
1973
1973
1972
1972
1972
1972
1973
1973
1973
1973
1973
1972
1971
1971
1972
1972
1973
1973
1973
1973
1972
1972
1972
1972
1972
1973
1973
1973
1974
1973
1973
1973
1973
1973
1973
1974
1974
1975
1975
1975
1975
1975
1974
1974
1975
1975
1976
1977
1978
1978
1978
1977
1977
1976
1977
1978
1979
1981
1981
1981
1980
1979
1977
1977
1976
1976
1975
1975
1975
1974
1974
1974
1973
1973
1972
1970
1970
1971
1977
1989
2004
2019
2029
2034
2036
2037
2034
2023
2001
1969
1936
1911
1905
1915
1936
1957
1973
1982
1985
1985
1985
1985
1984
1985
1985
1986
1988
1989
1990
1990
1990
1990
1990
1990
1991
1992
1993
1994
1994
1995
1995
1995
1996
1997
1998
1999
2001
2003
2004
2005
2005
2005
2006
2007
2009
2010
2012
2014
2016
2017
2017
2017
2017
2018
2018
2019
2019
2019
2018
2016
2014
2010
2006
2003
1999
1995
1992
1988
1984
1980
1977
1974
1972
1970
1969
1968
1967
1967
1967
1966
1966
1966
1966
1966
1966
1966
1967
1967
1968
1968
1968
1967
1967
1967
1968
1968
1969
1970
1970
1970
1970
1969
1969
1968
1968
1969
1969
1969
1969
1968
1967
1967
1966
1966
1966
1967
1967
1968
1968
1967
1966
1965
1965
1965
1965
1966
1967
1967
1967
1967
1966
1966
1966
1966
1966
1967
1967
1967
1967
1967
1967
1967
1967
1966
1966
1967
1967
1968
1969
1969
1970
1970
1969
1969
1969
1970
1970
1971
1972
1972
1972
1971
1971
1971
1971
1972
1973
1974
1974
1975
1975
1974
1974
1973
1973
1973
1973
1974
1974
1974
1973
1973
1972
1972
1972
1973
1974
1975
1976
1976
1976
1976
1977
1977
1978
1979
1979
1979
1979
1979
1979
1980
1981
1982
1982
1982
1982
1981
1981
1980
1979
1978
1976
1976
1976
1976
1977
1977
1977
1976
1974
1972
1973
1981
1995
2015
2033
2046
2051
2054
2055
2051
2040
2014
1977
1940
1914
1905
1914
1932
1953
1969
1978
1983
1985
1986
1986
1987
1988
1989
1989
1989
1989
1990
1990
1991
1992
1993
1994
1995
1996
1996
1996
1996
1997
1999
2000
2002
2003
2003
2003
2003
2004
2005
2007
2008
2010
2011
2012
2013
2015
2016
2017
2019
2021
2022
2024
2025
2025
2025
2025
2024
2023
2022
2020
2018
2015
2012
2008
2003
1998
1993
1989
1985
1982
1979
1977
1975
1974
1972
1971
1969
1968
1968
1969
1970
1970
1970
1970
1970
1969
1969
1969
1969
1970
1970
1971
1972
1973
1973
1972
1972
1971
1971
1971
1972
1973
1974
1974
1973
1973
1972
1971
1970
1970
1971
1971
1972
1972
1972
1971
1970
1969
1969
1969
1969
1970
1970
1970
1970
1969
1969
1968
1968
1968
1968
1968
1968
1968
1968
1967
1967
1966
1966
1966
1967
1968
1969
1969
1969
1969
1968
1968
1968
1968
1969
1970
1970
1970
1970
1970
1969
1969
1969
1969
1970
1971
1971
1971
1971
1971
1970
1970
1970
1970
1970
1971
1972
1973
1973
1973
1973
1972
1972
1972
1973
1974
1974
1974
1974
1973
1973
1974
1975
1976
1977
1977
1977
1976
1974
1973
1972
1971
1970
1970
1970
1971
1972
1972
1973
1972
1970
1968
1967
1972
1984
2001
2019
2032
2039
2040
2039
2036
2028
2009
1978
1943
1915
1902
1908
1926
1948
1965
1976
1981
1983
1983
1984
1984
1985
1985
1986
1986
1987
1987
1988
1989
1990
1991
1992
1992
1992
1992
1992
1993
1994
1995
1997
1997
1998
1998
1999
2000
2001
2002
2004
2005
2007
2008
2010
2011
2012
2014
2015
2016
2017
2018
2019
2020
2020
2020
2020
2019
2019
2018
2017
2015
2013
2009
2005
2001
1996
1991
1987
1983
1980
1977
1975
1972
1970
1968
1966
1965
1965
1965
1965
1966
1966
1966
1966
1966
1966
1966
1966
1967
1967
1968
1969
1969
1969
1969
1968
1967
1967
1968
1969
1970
1971
1971
1970
1970
1969
1969
1969
1969
1969
1970
1970
1970
1970
1969
1969
1969
1969
1969
1969
1970
1970
1971
1970
1970
1970
1970
1970
1970
1970
1971
1971
1971
1971
1971
1971
1971
1971
1972
1973
1974
1975
1976
1975
1975
1974
1974
1974
1974
1975
1975
1976
1976
1976
1976
1975
1975
1974
1974
1975
1976
1976
1977
1977
1976
1976
1975
1975
1975
1975
1976
1977
1977
1977
1977
1976
1976
1976
1976
1977
1978
1979
1979
1980
1979
1979
1978
1978
1978
1978
1980
1982
1983
1984
1983
1982
1980
1978
1977
1976
1976
1976
1977
1977
1977
1976
1976
1976
1975
1974
1973
1974
1981
1994
2011
2029
2042
2048
2051
2053
2052
2043
2020
1985
1947
1917
1905
1911
1930
1951
1969
1980
1986
1987
1987
1987
1987
1987
1988
1989
1990
1991
1992
1992
1993
1993
1993
1993
1993
1994
1996
1997
1998
1998
1998
1999
1999
2000
2001
2002
2003
2004
2005
2007
2008
2008
2009
2010
2012
2014
2017
2019
2020
2022
2022
2023
2023
2023
2023
2024
2024
2024
2023
2021
2018
2014
2009
2005
2001
1997
1993
1990
1986
1982
1979
1976
1973
1971
1970
1969
1969
1969
1968
1968
1967
1967
1966
1966
1966
1967
1968
1969
1969
1969
1969
1968
1968
1968
1969
1969
1970
1970
1970
1970
1970
1970
1969
1969
1968
1968
1969
1969
1969
1969
1968
1968
1967
1967
1967
1968
1968
1968
1968
1968
1968
1967
1966
1965
1965
1966
1967
1968
1968
1968
1968
1967
1967
1966
1966
1967
1967
1968
1968
1968
1968
1967
1967
1967
1968
1968
1968
1969
1969
1968
1968
1968
1967
1967
1968
1968
1968
1969
1970
1969
1969
1968
1968
1968
1968
1969
1970
1971
1971
1971
1970
1970
1969
1969
1970
1970
1971
1971
1972
1972
1972
1972
1972
1972
1972
1972
1972
1972
1972
1973
1974
1974
1975
1975
1975
1975
1974
1974
1973
1972
1970
1969
1969
1969
1970
1970
1971
1972
1971
1969
1967
1968
1973
1985
2002
2018
2030
2035
2035
2034
2030
2020
2000
1970
1936
1910
1901
1910
1931
1953
1970
1979
1982
1983
1983
1983
1984
1985
1986
1986
1986
1986
1986
1987
1988
1989
1990
1991
1992
1992
1992
1992
1992
1993
1993
1995
1996
1997
1998
1999
2000
2001
2001
2002
2004
2006
2008
2010
2011
2013
2014
2014
2015
2017
2018
2020
2021
2022
2023
2023
2022
2021
2019
2018
2015
2013
2009
2005
2001
1996
1992
1987
1983
1980
1976
1974
1972
1971
1969
1968
1967
1966
1966
1966
1966
1966
1967
1967
1967
1967
1967
1967
1967
1967
1967
1968
1969
1969
1970
1970
1969
1969
1968
1968
1968
1969
1969
1970
1970
1970
1970
1969
1968
1968
1968
1969
1969
1970
1970
1969
1969
1968
1968
1968
1968
1968
1969
1969
1970
1969
1969
1968
1968
1968
1968
1968
1969
1970
1970
1970
1970
1969
1969
1969
1969
1969
1970
1970
1971
1970
1970
1969
1969
1969
1970
1970
1971
1971
1971
1971
1971
1970
1970
1970
1970
1971
1973
1974
1975
1976
1977
1979
1980
1981
1983
1985
1987
1988
1989
1989
1989
1990
1990
1992
1993
1996
1998
2000
2001
2002
2001
2000
1999
1998
1998
1998
2000
2002
2004
2005
2006
2006
2005
2004
2004
2004
2003
2003
2003
2002
2001
2001
2001
2001
2001
2002
2002
2000
1999
1999
2004
2015
2030
2045
2056
2063
2065
2066
2062
2050
2029
1996
1963
1939
1931
1942
1962
1983
1999
2008
2010
2011
2011
2012
2014
2016
2018
2019
2019
2019
2019
2019
2018
2018
2018
2019
2019
2020
2021
2021
2021
2021
2021
2020
2020
2020
2021
2022
2023
2024
2024
2025
2026
2027
2027
2028
2029
2030
2032
2034
2035
2036
2037
2038
2039
2040
2041
2042
2042
2041
2040
2038
2036
2033
2030
2027
2024
2020
2017
2013
2009
2005
2002
1999
1997
1996
1995
1994
1994
1993
1992
1991
1990
1990
1990
1990
1990
1990
1990
1990
1989
1989
1988
1988
1987
1988
1988
1988
1987
1986
1985
1985
1984
1984
1984
1984
1984
1983
1983
1981
1980
1979
1978
1978
1978
1978
1978
1978
1977
1977
1976
1975
1974
1973
1972
1972
1971
1971
1971
1970
1969
1968
1968
1967
1967
1967
1967
1967
1966
1965
1965
1964
1963
1963
1963
1963
1964
1964
1964
1963
1962
1962
1961
1960
1960
1960
1960
1960
1960
1960
1959
1958
1958
1958
1958
1959
1959
1959
1959
1959
1958
1957
1956
1955
1954
1954
1954
1954
1954
1954
1953
1953
1953
1953
1953
1953
1954
1954
1954
1954
1954
1954
1954
1954
1955
1956
1957
1957
1956
1956
1956
1956
1957
1959
1960
1960
1960
1959
1958
1957
1956
1955
1954
1954
1955
1955
1956
1956
1956
1956
1955
1953
1952
1952
1959
1972
1989
2006
2020
2027
2031
2031
2027
2014
1988
1954
1920
1896
1890
1901
1921
1941
1956
1964
1968
1970
1971
1972
1972
1973
1973
1973
1973
1974
1975
1976
1977
1978
1979
1980
1980
1980
1981
1981
1982
1983
1985
1986
1987
1988
1989
1989
1990
1991
1993
1996
1998
2000
2001
2002
2003
2004
2005
2007
2009
2011
2013
2014
2015
2016
2016
2016
2016
2015
2015
2014
2012
2010
2006
2002
1997
1992
1987
1983
1979
1976
1974
1972
1970
1968
1966
1964
1963
1963
1962
1963
1963
1963
1964
1964
1965
1965
1965
1966
1966
1967
1968
1969
1969
1969
1968
1968
1968
1968
1968
1968
1969
1970
1970
1970
1970
1969
1968
1968
1968
1969
1969
1969
1969
1969
1968
1967
1967
1967
1967
1968
1969
1969
1969
1968
1967
1967
1967
1967
1968
1968
1969
1969
1969
1969
1969
1969
1968
1968
1968
1969
1969
1970
1970
1970
1970
1970
1969
1969
1969
1970
1970
1971
1971
1971
1971
1970
1969
1969
1969
1970
1971
1972
1972
1973
1973
1972
1972
1972
1972
1972
1973
1974
1974
1973
1973
1972
1971
1972
1973
1975
1976
1977
1977
1976
1974
1973
1971
1970
1970
1970
1971
1971
1972
1972
1972
1972
1971
1970
1968
1967
1971
1981
1997
2017
2034
2046
2052
2056
2056
2050
2032
2000
1960
1923
1901
1897
1910
1930
1950
1965
1975
1980
1982
1982
1983
1983
1983
1983
1984
1985
1987
1988
1988
1988
1988
1988
1988
1989
1990
1992
1993
1994
1994
1995
1995
1996
1996
1997
1999
2000
2002
2003
2004
2004
2005
2006
2007
2009
2011
2013
2015
2017
2018
2019
2019
2019
2019
2019
2019
2019
2019
2018
2016
2013
2009
2004
1999
1995
1990
1987
1984
1981
1978
1975
1972
1970
1968
1967
1967
1967
1967
1967
1967
1966
1966
1965
1965
1965
1965
1966
1967
1968
1968
1968
1968
1967
1967
1967
1967
1968
1969
1969
1970
1969
1969
1969
1968
1968
1968
1968
1969
1969
1969
1968
1968
1967
1966
1966
1966
1966
1967
1967
1967
1967
1966
1966
1965
1965
1965
1966
1966
1967
1967
1967
1966
1966
1965
1965
1965
1966
1967
1968
1968
1968
1967
1967
1966
1966
1966
1967
1967
1968
1968
1967
1967
1966
1966
1966
1967
1967
1968
1968
1968
1968
1968
1968
1968
1968
1968
1968
1968
1969
1970
1970
1971
1970
1970
1970
1970
1971
1971
1971
1971
1971
1970
1970
1970
1971
1973
1975
1976
1977
1976
1975
1973
1971
1970
1969
1969
1970
1970
1971
1972
1972
1972
1971
1970
1968
1967
1970
1980
1996
2013
2027
2034
2035
2034
2032
2025
2011
1985
1951
1921
1903
1904
1921
1943
1963
1976
1982
1984
1984
1985
1985
1985
1985
1986
1986
1987
1988
1989
1989
1990
1990
1990
1991
1991
1991
1992
1993
1994
1995
1997
1998
1998
1998
1999
2000
2001
2002
2004
2005
2007
2008
2009
2010
2011
2013
2014
2016
2018
2020
2021
2022
2023
2023
2022
2022
2022
2022
2021
2019
2017
2013
2009
2004
1999
1994
1990
1986
1983
1980
1978
1975
1973
1971
1969
1969
1968
1969
1969
1969
1968
1968
1968
1967
1967
1967
1968
1968
1969
1970
1970
1970
1970
1969
1969
1969
1970
1970
1971
1971
1971
1971
1970
1970
1969
1969
1969
1970
1970
1971
1971
1970
1970
1969
1969
1969
1969
1969
1969
1970
1970
1970
1969
1969
1968
1968
1968
1969
1969
1970
1970
1970
1970
1969
1969
1969
1969
1970
1971
1971
1972
1971
1970
1970
1970
1970
1970
1971
1972
1972
1972
1971
1971
1971
1970
1971
1971
1972
1972
1973
1973
1972
1972
1971
1971
1971
1971
1972
1973
1974
1975
1975
1974
1973
1973
1973
1973
1974
1975
1975
1975
1975
1974
1974
1974
1974
1975
1976
1976
1977
1977
1977
1976
1976
1975
1975
1976
1978
1980
1981
1982
1982
1980
1979
1977
1975
1974
1974
1974
1975
1975
1975
1975
1975
1975
1974
1973
1972
1972
1975
1984
1998
2015
2028
2036
2039
2039
2038
2033
2017
1990
1956
1925
1907
1908
1924
1946
1966
1979
1985
1987
1987
1986
1986
1986
1986
1987
1989
1990
1991
1991
1992
1992
1992
1992
1992
1993
1994
1995
1996
1997
1997
1998
1999
2000
2000
2001
2002
2003
2004
2005
2006
2007
2008
2009
2011
2013
2015
2016
2018
2020
2021
2022
2022
2023
2023
2024
2024
2024
2023
2022
2020
2017
2014
2010
2006
2002
1998
1994
1990
1986
1983
1979
1976
1973
1972
1970
1970
1970
1970
1969
1969
1969
1968
1968
1968
1968
1969
1970
1970
1970
1970
1970
1969
1969
1969
1970
1971
1971
1972
1972
1971
1971
1970
1970
1970
1970
1971
1971
1972
1972
1972
1971
1970
1970
1970
1970
1970
1971
1971
1971
1970
1969
1969
1968
1969
1969
1970
1971
1971
1971
1971
1970
1969
1969
1969
1969
1970
1971
1971
1971
1971
1970
1970
1970
1970
1970
1971
1971
1972
1972
1972
1972
1972
1971
1971
1971
1972
1972
1973
1973
1973
1972
1972
1972
1972
1972
1973
1973
1974
1974
1974
1973
1973
1972
1972
1972
1973
1974
1974
1974
1974
1974
1973
1973
1973
1973
1974
1975
1976
1976
1977
1976
1976
1975
1975
1976
1977
1977
1977
1977
1977
1976
1977
1978
1979
1980
1980
1980
1980
1980
1979
1977
1976
1975
1974
1974
1975
1976
1977
1977
1977
1976
1974
1973
1974
1981
1995
2013
2030
2042
2048
2051
2052
2049
2038
2014
1979
1943
1918
1910
1919
1938
1958
1973
1982
1987
1988
1989
1990
1990
1990
1991
1991
1991
1991
1991
1992
1993
1995
1996
1997
1998
1998
1999
1999
2000
2001
2002
2003
2004
2004
2005
2005
2005
2006
2007
2009
2011
2012
2014
2015
2016
2017
2018
2020
2021
2023
2025
2027
2028
2029
2028
2028
2027
2026
2026
2025
2024
2022
2018
2013
2008
2002
1997
1993
1989
1986
1984
1981
1979
1976
1975
1973
1972
1972
1972
1972
1972
1972
1972
1972
1972
1972
1971
1972
1972
1972
1972
1973
1973
1973
1972
1972
1972
1972
1973
1973
1974
1974
1974
1974
1974
1973
1973
1973
1973
1973
1973
1974
1974
1974
1973
1972
1972
1972
1972
1973
1973
1973
1973
1972
1972
1971
1971
1971
1972
1972
1972
1972
1972
1972
1971
1971
1971
1971
1971
1971
1972
1972
1973
1973
1973
1972
1972
1972
1973
1973
1973
1973
1973
1973
1973
1973
1973
1973
1973
1974
1974
1974
1974
1974
1973
1973
1972
1972
1972
1973
1974
1975
1976
1975
1974
1973
1973
1973
1973
1974
1975
1975
1976
1975
1975
1975
1974
1974
1974
1974
1975
1976
1978
1978
1978
1977
1976
1975
1974
1974
1974
1974
1974
1974
1973
1973
1972
1972
1972
1973
1972
1970
1969
1971
1980
1995
2013
2031
2043
2050
2055
2056
2050
2033
2001
1961
1924
1901
1898
1912
1933
1954
1969
1978
1982
1982
1982
1982
1982
1983
1984
1986
1986
1987
1987
1987
1987
1987
1987
1988
1990
1991
1992
1992
1992
1992
1992
1993
1994
1995
1996
1997
1998
1999
2000
2001
2002
2003
2004
2006
2008
2010
2012
2013
2014
2014
2015
2016
2017
2017
2018
2018
2018
2017
2015
2012
2008
2005
2001
1997
1993
1989
1985
1981
1976
1973
1969
1967
1965
1964
1964
1964
1963
1962
1961
1961
1960
1960
1961
1961
1962
1963
1963
1963
1963
1963
1962
1962
1963
1963
1964
1965
1965
1965
1964
1964
1963
1963
1964
1964
1965
1965
1966
1966
1965
1965
1964
1964
1964
1964
1965
1965
1965
1965
1964
1964
1963
1963
1963
1964
1964
1964
1965
1964
1964
1963
1963
1963
1963
1963
1964
1965
1965
1965
1964
1964
1964
1964
1964
1965
1965
1965
1966
1966
1965
1965
1965
1965
1965
1965
1966
1967
1967
1967
1967
1966
1966
1966
1966
1966
1967
1967
1968
1968
1968
1967
1967
1967
1967
1968
1968
1969
1969
1969
1969
1968
1968
1968
1969
1969
1970
1971
1972
1972
1972
1971
1970
1969
1970
1970
1972
1974
1975
1976
1975
1973
1972
1971
1971
1971
1971
1971
1970
1970
1970
1969
1969
1969
1969
1968
1967
1967
1971
1982
1997
2014
2027
2034
2036
2036
2034
2027
2010
1981
1947
1917
1901
1905
1923
1945
1965
1977
1981
1982
1982
1981
1981
1981
1983
1984
1985
1986
1987
1987
1987
1986
1986
1987
1988
1989
1990
1991
1992
1992
1993
1993
1993
1994
1995
1997
1998
1999
2000
2002
2002
2003
2004
2006
2007
2009
2011
2013
2015
2016
2017
2018
2018
2019
2020
2021
2021
2021
2021
2020
2017
2014
2010
2006
2002
1998
1994
1990
1986
1982
1978
1975
1972
1970
1968
1967
1966
1965
1965
1965
1964
1964
1964
1965
1966
1967
1968
1968
1969
1969
1969
1969
1969
1969
1970
1971
1971
1972
1972
1972
1972
1971
1971
1971
1971
1972
1972
1973
1973
1973
1973
1972
1972
1971
1971
1972
1972
1972
1972
1972
1971
1970
1970
1969
1969
1970
1970
1971
1971
1971
1970
1970
1969
1969
1969
1969
1970
1970
1971
1971
1970
1970
1969
1969
1969
1969
1970
1970
1971
1970
1970
1969
1968
1968
1968
1968
1969
1970
1970
1970
1970
1969
1969
1969
1969
1970
1970
1971
1971
1971
1971
1970
1970
1970
1970
1971
1972
1973
1973
1973
1972
1972
1972
1972
1972
1972
1973
1973
1974
1974
1974
1974
1974
1974
1974
1974
1974
1974
1975
1976
1976
1977
1976
1975
1974
1974
1973
1973
1972
1972
1971
1970
1970
1970
1970
1970
1970
1970
1969
1968
1969
1973
1984
2000
2018
2032
2041
2045
2046
2044
2036
2016
1985
1951
1924
1913
1921
1941
1963
1982
1993
1997
1998
1998
1999
2000
2002
2005
2007
2008
2008
2008
2008
2009
2010
2012
2015
2017
2018
2018
2018
2018
2019
2019
2021
2023
2026
2030
2034
2037
2040
2041
2043
2044
2046
2048
2050
2052
2054
2056
2057
2057
2058
2058
2059
2060
2061
2061
2061
2060
2059
2057
2055
2053
2050
2048
2044
2040
2036
2031
2027
2023
2019
2015
2012
2010
2009
2008
2007
2005
2004
2003
2002
2001
2002
2002
2003
2003
2004
2004
2004
2003
2003
2003
2003
2004
2006
2006
2006
2006
2005
2005
2004
2004
2004
2004
2004
2004
2004
2004
2003
2002
2001
2001
2001
2000
2000
2000
2000
1999
1998
1997
1996
1995
1994
1994
1994
1994
1994
1993
1993
1992
1991
1991
1991
1992
1992
1993
1993
1992
1991
1990
1990
1989
1989
1990
1990
1991
1992
1992
1992
1991
1990
1989
1988
1989
1989
1990
1990
1990
1989
1988
1987
1987
1987
1988
1989
1990
1990
1990
1989
1988
1987
1987
1988
1988
1989
1988
1988
1987
1986
1986
1985
1985
1985
1985
1985
1985
1985
1984
1983
1982
1981
1981
1980
1980
1980
1979
1978
1977
1976
1975
1973
1971
1970
1969
1969
1970
1971
1971
1970
1968
1965
1963
1961
1960
1959
1959
1958
1958
1957
1956
1956
1955
1955
1955
1954
1954
1954
1959
1968
1981
1995
2006
2014
2019
2019
2013
1998
1971
1937
1905
1883
1879
1891
1910
1929
1943
1950
1952
1952
1951
1951
1951
1952
1953
1954
1955
1956
1956
1956
1956
1956
1956
1957
1957
1958
1959
1959
1960
1960
1960
1961
1962
1963
1965
1966
1967
1969
1970
1970
1971
1972
1973
1975
1976
1978
1980
1982
1983
1984
1985
1986
1987
1988
1990
1991
1991
1991
1990
1989
1987
1985
1983
1980
1977
1974
1970
1967
1964
1961
1957
1955
1952
1951
1950
1949
1949
1949
1949
1948
1948
1948
1948
1949
1950
1950
1951
1952
1952
1953
1953
1953
1953
1954
1955
1956
1957
1957
1957
1957
1957
1956
1956
1956
1956
1957
1957
1957
1957
1957
1957
1957
1957
1957
1958
1958
1959
1959
1958
1958
1958
1958
1958
1958
1959
1960
1960
1961
1961
1960
1960
1959
1959
1959
1960
1960
1961
1961
1962
1962
1961
1961
1961
1962
1964
1965
1965
1965
1965
1964
1964
1963
1964
1964
1965
1966
1966
1966
1966
1966
1965
1965
1964
1964
1965
1966
1966
1967
1967
1967
1967
1967
1967
1969
1970
1971
1972
1973
1973
1972
1971
1971
1971
1971
1972
1974
1976
1977
1977
1977
1975
1974
1973
1974
1976
1978
1979
1979
1978
1977
1975
1974
1974
1973
1973
1973
1974
1974
1974
1974
1974
1973
1972
1971
1971
1974
1984
2000
2018
2034
2046
2053
2058
2058
2050
2030
1996
1957
1923
1905
1906
1921
1942
1961
1974
1981
1985
1986
1986
1986
1986
1986
1986
1987
1988
1989
1990
1991
1991
1992
1992
1993
1994
1994
1995
1996
1997
1998
1998
1999
2000
2000
2001
2002
2003
2004
2005
2006
2007
2008
2009
2011
2013
2014
2017
2018
2020
2021
2023
2023
2024
2025
2025
2025
2025
2025
2024
2023
2020
2016
2011
2007
2003
1999
1996
1994
1991
1988
1985
1982
1979
1977
1977
1977
1977
1978
1978
1977
1976
1975
1974
1974
1975
1976
1978
1979
1980
1980
1979
1978
1978
1978
1979
1980
1981
1982
1981
1981
1980
1980
1980
1979
1978
1978
1978
1979
1980
1980
1980
1979
1979
1978
1978
1978
1979
1980
1981
1981
1981
1980
1979
1978
1977
1977
1977
1978
1979
1979
1979
1978
1978
1977
1978
1979
1980
1980
1979
1978
1978
1978
1978
1978
1979
1979
1979
1980
1981
1982
1982
1982
1981
1980
1980
1980
1980
1981
1981
1981
1981
1982
1983
1982
1982
1981
1980
1980
1980
1982
1983
1983
1983
1983
1983
1982
1982
1981
1980
1979
1978
1977
1977
1978
1978
1977
1977
1977
1976
1976
1975
1974
1976
1985
2001
2021
2040
2053
2061
2065
2064
2057
2039
2007
1967
1930
1907
1903
1914
1933
1953
1969
1979
1986
1989
1991
1993
1994
1994
1994
1994
1994
1995
1996
1998
2000
2001
2001
2001
2001
2001
2001
2001
2001
2002
2002
2003
2005
2006
2008
2009
2009
2009
2009
2010
2011
2013
2014
2016
2018
2019
2021
2023
2024
2025
2026
2027
2029
2031
2031
2030
2029
2027
2025
2024
2022
2019
2014
2010
2005
2001
1997
1992
1988
1984
1980
1977
1975
1973
1973
1973
1972
1971
1969
1968
1968
1969
1970
1971
1970
1970
1969
1969
1970
1972
1972
1972
1971
1971
1971
1971
1971
1972
1971
1971
1971
1972
1972
1972
1972
1971
1971
1970
1969
1970
1970
1970
1969
1969
1969
1969
1969
1968
1967
1967
1967
1967
1967
1968
1968
1969
1969
1969
1969
1968
1968
1969
1969
1969
1969
1969
1968
1968
1968
1969
1969
1970
1972
1973
1975
1975
1974
1972
1970
1969
1968
1969
1969
1970
1970
1971
1971
1970
1970
1971
1971
1972
1972
1971
1970
1968
1967
1966
1966
1967
1968
1968
1969
1968
1966
1963
1962
1965
1975
1994
2016
2034
2043
2044
2041
2037
2027
2008
1977
1937
1902
1881
1880
1896
1920
1942
1959
1968
1973
1974
1975
1976
1978
1979
1980
1981
1981
1981
1981
1982
1983
1984
1986
1987
1987
1986
1986
1986
1987
1988
1990
1991
1992
1993
1994
1995
1996
1997
1997
1998
1999
2001
2003
2006
2009
2012
2014
2015
2017
2017
2018
2018
2020
2021
2022
2023
2022
2021
2019
2016
2012
2008
2003
1997
1992
1987
1982
1977
1972
1969
1966
1963
1962
1961
1961
1960
1959
1958
1957
1956
1957
1958
1959
1961
1961
1961
1960
1959
1959
1959
1960
1960
1962
1963
1963
1964
1963
1963
1962
1962
1963
1964
1965
1966
1967
1966
1965
1964
1963
1963
1964
1964
1965
1965
1965
1964
1964
1964
1965
1965
1966
1967
1967
1968
1967
1966
1966
1965
1965
1966
1967
1968
1968
1967
1967
1967
1968
1969
1969
1969
1969
1969
1970
1970
1970
1969
1968
1967
1966
1966
1966
1968
1969
1971
1972
1972
1972
1970
1968
1967
1966
1966
1967
1968
1968
1968
1968
1968
1968
1967
1965
1965
1969
1980
1998
2019
2035
2042
2042
2038
2035
2029
2014
1985
1947
1910
1887
1884
1899
1923
1947
1965
1976
1982
1983
1984
1984
1984
1984
1985
1986
1987
1988
1988
1988
1989
1989
1989
1990
1990
1991
1992
1993
1994
1995
1995
1995
1996
1996
1997
1999
2001
2003
2004
2006
2007
2008
2009
2011
2013
2015
2017
2020
2022
2023
2024
2024
2025
2024
2024
2024
2023
2023
2021
2018
2014
2009
2003
1997
1992
1987
1984
1981
1978
1974
1971
1968
1966
1964
1963
1963
1963
1963
1963
1963
1963
1963
1963
1962
1963
1964
1965
1966
1967
1966
1966
1966
1966
1966
1967
1967
1967
1967
1968
1968
1968
1968
1967
1967
1967
1967
1968
1969
1969
1969
1969
1968
1967
1967
1966
1967
1967
1967
1968
1968
1968
